
Integration time [ms]: 100.000
Averaging Nr. [scans]: 40
Smoothing Nr. [pixels]: 0
Data measured with spectrometer [name]: 2101012U2
Wave   ;Sample   ;Dark     ;Reference
[nm]   ;[counts] ;[counts] ;[counts] 

197.733;   48.375;  516.000;  404.000
197.879;  -84.675; -610.000; -634.000
198.025;  -37.475; -475.000; -420.000
198.171;  -77.050; -602.000; -612.000
198.317;  -36.550; -401.000; -316.000
198.463;  -53.775; -655.000; -404.000
198.609;   31.000;  181.000; -137.000
198.755;  -74.950; -644.000; -410.000
198.901;  -74.000; -505.000; -424.000
199.047;  -58.675; -615.000; -488.000
199.193;  -44.525; -230.000; -468.000
199.339;  -41.350; -222.000; -369.000
199.485;   36.400;  330.000;  271.000
199.631;   11.575;  227.000;  310.000
199.777;  -62.175; -466.000; -398.000
199.923;  -60.050; -610.000; -424.000
200.069;   -1.025; -141.000;  -58.000
200.215;   49.750;  128.000;  453.000
200.361;   35.175;  243.000;  477.000
200.507;  -67.275; -600.000; -373.000
200.653;  -31.075; -371.000; -194.000
200.798;  -36.025; -215.000; -125.000
200.944;   -2.800; -146.000;  -41.000
201.090;   45.350;   61.000;  222.000
201.236;    4.600; -116.000; -158.000
201.382;  131.525;  874.000;  903.000
201.528;   11.825;  -58.000;  -48.000
201.674;  -39.900; -386.000; -293.000
201.819;  -55.800; -540.000; -439.000
201.965;  -81.700; -699.000; -447.000
202.111;  -14.775; -273.000; -226.000
202.257;  -46.975; -250.000; -238.000
202.402;   -1.725;   13.000;  -36.000
202.548;  -38.400; -169.000; -116.000
202.694;   71.775;  410.000; -183.000
202.840;  -80.700; -603.000; -531.000
202.985;  -68.275; -681.000; -639.000
203.131; -106.000; -832.000; -666.000
203.277;  -28.350; -199.000; -262.000
203.423;  -52.325; -434.000; -520.000
203.568;  -45.875; -462.000; -237.000
203.714;  -69.600; -535.000; -542.000
203.860;  -79.825; -682.000; -641.000
204.005;   15.150;  112.000;  167.000
204.151;   66.775;  561.000;  556.000
204.296;  -32.675; -354.000; -221.000
204.442;  -82.975; -600.000; -547.000
204.588;  -69.225; -592.000; -579.000
204.733;   26.925;  178.000;  168.000
204.879; -114.000;-1018.000; -822.000
205.025;   12.725;  -99.000;  126.000
205.170;    3.975;  -17.000;   94.000
205.316;   83.125;  438.000;  661.000
205.461;  -92.125; -698.000; -554.000
205.607;   72.575;  609.000;  665.000
205.752;  -82.125; -626.000; -551.000
205.898;  -58.000; -501.000; -391.000
206.043;  -66.575; -578.000; -506.000
206.189;  -33.725; -243.000; -285.000
206.334;   69.625;  554.000;  606.000
206.480;   90.550;  409.000;  239.000
206.625;  -77.650; -529.000; -552.000
206.771;  -43.825; -451.000; -373.000
206.916;  -32.000; -210.000; -537.000
207.062;  -59.350; -545.000; -591.000
207.207;  -69.975; -546.000; -443.000
207.353;   47.675;  185.000;  460.000
207.498;    1.150;  196.000;   85.000
207.643;  -47.075; -501.000; -370.000
207.789; -125.900;-1069.000; -910.000
207.934;  -96.000; -665.000; -713.000
208.080;  -36.425; -154.000;   66.000
208.225;    2.500;  -22.000;  -57.000
208.370;  -76.100; -727.000; -619.000
208.516;  -77.825; -741.000; -487.000
208.661;  -21.450; -127.000;  -69.000
208.806;  -33.600; -165.000; -171.000
208.952; -124.350;-1044.000; -731.000
209.097;   79.725;  378.000;  349.000
209.242;  -50.450; -307.000; -382.000
209.387;   62.150;  392.000;  350.000
209.533;  -43.475; -321.000; -350.000
209.678;   76.275;  472.000;  543.000
209.823;  -59.625; -408.000; -310.000
209.969; -109.600; -860.000; -757.000
210.114; -104.850; -907.000; -719.000
210.259; -108.400; -939.000; -889.000
210.404;   -5.350; -171.000;  103.000
210.549;    0.075;  108.000;    3.000
210.695;  -30.950;   -3.000;  -95.000
210.840;   24.850;   94.000;   67.000
210.985;  -62.875; -484.000; -303.000
211.130;   68.700;  268.000;  406.000
211.275;   15.550;  207.000;  199.000
211.420;  -42.600; -300.000; -289.000
211.566;  -63.850; -536.000; -489.000
211.711;   25.950;  218.000;  157.000
211.856;  -75.150; -545.000; -519.000
212.001;   12.300;  151.000;   44.000
212.146;   21.275;  153.000;   49.000
212.291;  -29.575; -210.000; -186.000
212.436;  -17.550; -280.000;   -6.000
212.581;  -70.100; -685.000; -653.000
212.726;  -67.050; -487.000; -538.000
212.871;  -56.425; -552.000; -217.000
213.016; -151.425;-1172.000;-1029.000
213.161;   60.125;  406.000;  291.000
213.306;  -68.325; -435.000; -577.000
213.451;  -94.775; -778.000; -689.000
213.596;  -47.100; -455.000; -347.000
213.741;  -57.825; -448.000; -538.000
213.886;  -72.800; -498.000; -517.000
214.031;  -31.700; -294.000; -124.000
214.176;  -52.750; -408.000; -341.000
214.321;  -14.050; -296.000; -157.000
214.466;  -21.050; -163.000;  -43.000
214.611;   -0.225;  -61.000;  -10.000
214.756; -111.150; -948.000; -858.000
214.901;  -31.300; -388.000; -226.000
215.046; -131.800; -797.000; -825.000
215.191;   33.450;  128.000;   35.000
215.336;  -13.325; -157.000;  -19.000
215.480;  -69.175; -684.000; -505.000
215.625;   -8.100; -175.000;  -19.000
215.770;  -80.125; -757.000; -662.000
215.915;  -10.625;   -5.000;  -97.000
216.060;   -4.075; -113.000;  -21.000
216.205; -119.325; -731.000; -779.000
216.349;  -74.475; -470.000; -533.000
216.494; -127.250; -939.000; -867.000
216.639; -110.500; -823.000; -888.000
216.784;  -93.125; -577.000; -525.000
216.929;   58.000;  392.000;  281.000
217.073;  -18.975; -244.000;  -31.000
217.218;    3.400;   78.000;  -47.000
217.363;  -93.925; -656.000; -618.000
217.507;  -78.150; -623.000; -588.000
217.652; -115.250; -845.000; -874.000
217.797;  -95.675; -708.000; -659.000
217.942; -110.700; -856.000; -720.000
218.086;   71.400;  608.000;  539.000
218.231;  -13.975; -174.000;  -26.000
218.376;  -31.350; -337.000; -229.000
218.520;  -18.625;  -41.000;   96.000
218.665;  -26.275; -338.000; -204.000
218.810;  -56.250; -275.000; -233.000
218.954;   23.250;  201.000;   35.000
219.099; -109.850; -713.000; -963.000
219.243;  -60.575; -589.000; -554.000
219.388;  -32.750; -264.000; -136.000
219.532;  -13.300; -116.000; -116.000
219.677;  -88.875; -564.000; -521.000
219.822;   -1.025;   33.000;   89.000
219.966;   17.200;   17.000;  -99.000
220.111;  -40.750; -328.000;  -40.000
220.255; -102.925; -797.000; -750.000
220.400;  -13.525; -180.000; -146.000
220.544;  -68.175; -516.000; -450.000
220.689;  -57.625; -422.000; -451.000
220.833;  -10.400; -123.000;  -58.000
220.978;  -52.900; -393.000; -563.000
221.122;   32.550;  319.000;  307.000
221.267; -113.700; -906.000; -837.000
221.411;  -55.850; -478.000; -394.000
221.555;  -14.100; -104.000;  -23.000
221.700;  -44.525; -329.000; -222.000
221.844;   28.500;  255.000;  272.000
221.989;  -48.400; -328.000; -311.000
222.133;  -39.125; -289.000; -307.000
222.277;   -6.475;    5.000;   78.000
222.422;   11.975;  227.000;  113.000
222.566;  -45.700; -381.000; -214.000
222.711;  -58.600; -414.000; -479.000
222.855;  -83.400; -643.000; -586.000
222.999;  -89.375; -642.000; -717.000
223.144;  -41.500; -195.000; -194.000
223.288;   55.475;  423.000;  251.000
223.432;   42.400;  184.000;  230.000
223.576;   18.325;  152.000;  -21.000
223.721;   44.025;  364.000;  273.000
223.865;  -68.750; -472.000; -475.000
224.009;  231.575; 1673.000; 1631.000
224.153;  -88.975; -660.000; -671.000
224.298;  -67.925; -531.000; -489.000
224.442;   -1.950;  -74.000;  -33.000
224.586;   -3.350; -169.000; -106.000
224.730;  -84.400; -858.000; -670.000
224.875; -110.825; -739.000; -688.000
225.019;   12.050;  102.000;  188.000
225.163;   47.950;  208.000;  341.000
225.307;   22.550;   97.000;  -91.000
225.451;   46.075;  360.000;  481.000
225.595;   23.025;  264.000;  176.000
225.739;  -22.125; -170.000;  -94.000
225.884;   -3.925;   86.000;    5.000
226.028; -106.625; -760.000; -626.000
226.172;  -29.175; -260.000; -273.000
226.316; -134.950; -941.000; -902.000
226.460;  -64.475; -645.000; -493.000
226.604;  -52.175; -406.000; -400.000
226.748; -118.825; -836.000; -733.000
226.892;  -29.350; -227.000; -181.000
227.036;  -47.000; -537.000; -447.000
227.180;  -72.200; -551.000; -375.000
227.324;  -73.100; -561.000; -580.000
227.468; -122.875; -819.000; -717.000
227.612;    2.725;  242.000;  -28.000
227.756; -113.275; -845.000; -698.000
227.900;   54.375;  342.000;  441.000
228.044;  -64.275; -509.000; -290.000
228.188;   69.100;  448.000;  568.000
228.332; -107.200; -546.000; -472.000
228.476;  -31.025; -223.000; -149.000
228.620;  -34.525; -210.000; -150.000
228.764;   61.475;  431.000;  349.000
228.908;  -25.925; -155.000;   30.000
229.052;  -62.500; -615.000; -528.000
229.195;  -16.450; -172.000;   13.000
229.339;  -17.050; -235.000; -305.000
229.483;  -28.175;    5.000; -162.000
229.627;  -14.650; -156.000;  139.000
229.771;  -58.800; -218.000; -294.000
229.915;    0.075;  230.000;   79.000
230.059;  -98.925; -648.000; -663.000
230.202;  -47.825; -370.000; -317.000
230.346;  -26.225; -107.000;  107.000
230.490;  -63.000; -489.000; -521.000
230.634; -113.225; -736.000; -553.000
230.777;   55.175;  478.000;  509.000
230.921;  -71.275; -450.000; -359.000
231.065;  -41.200; -246.000; -286.000
231.209;   27.250;  261.000;  265.000
231.352;   28.225;   54.000;   40.000
231.496;   19.925;  568.000;  188.000
231.640;  -87.650; -693.000; -621.000
231.783;   48.875;  546.000;  525.000
231.927;  -42.875; -294.000; -365.000
232.071; -125.550; -962.000; -736.000
232.214; -110.025; -980.000; -764.000
232.358;  -97.825; -683.000; -599.000
232.502;   14.775;  -19.000;    7.000
232.645; -148.825;-1090.000; -927.000
232.789;  -22.150; -257.000; -218.000
232.933;  -23.700; -407.000; -224.000
233.076; -124.450;-1038.000; -897.000
233.220; -110.875; -752.000; -777.000
233.363;  -74.775; -669.000; -477.000
233.507;   60.650;  371.000;  129.000
233.650; -100.025; -764.000; -834.000
233.794;   23.950;  438.000;  461.000
233.938;  -52.100; -530.000; -362.000
234.081;  -14.525;  -93.000;   31.000
234.225;  -74.975; -631.000; -539.000
234.368; -119.925; -773.000; -723.000
234.512;  -43.550; -385.000; -299.000
234.655;  -91.525; -582.000; -555.000
234.798;  -73.450; -493.000; -466.000
234.942; -130.700; -884.000;-1002.000
235.085;  -77.950; -651.000; -443.000
235.229;  -46.400; -405.000; -410.000
235.372;  -54.700; -247.000; -191.000
235.516;  -63.700; -397.000; -321.000
235.659;   29.175;   92.000;  121.000
235.802;  -12.100;  -38.000;  -22.000
235.946;   19.625;  335.000;  215.000
236.089;   17.125;  126.000;  250.000
236.233;   44.075;  275.000;  298.000
236.376;  -54.775; -235.000; -378.000
236.519;  -57.725; -297.000; -319.000
236.663;  -24.250; -215.000; -117.000
236.806; -144.900;-1029.000; -999.000
236.949;   63.425;  543.000;  431.000
237.092;   52.200;  412.000;  391.000
237.236;  -91.650; -589.000; -502.000
237.379;   61.625;  352.000;  428.000
237.522; -113.475; -879.000; -768.000
237.666;  -12.525; -271.000;   18.000
237.809; -132.050; -851.000; -823.000
237.952;   38.125;  469.000;  271.000
238.095;  -69.500; -447.000; -442.000
238.238;   83.725;  688.000;  700.000
238.382;    6.950;  166.000;  103.000
238.525;  -66.250; -598.000; -511.000
238.668; -140.700;-1060.000; -985.000
238.811;  -85.275; -638.000; -643.000
238.954;  -56.450; -483.000; -334.000
239.097;   95.625;  617.000;  664.000
239.241;   19.800;  394.000;  326.000
239.384;  -47.675; -254.000; -214.000
239.527;  -73.250; -424.000; -224.000
239.670; -162.400; -994.000;-1091.000
239.813; -107.225; -696.000; -658.000
239.956;   64.925;  579.000;  473.000
240.099; -120.950; -778.000; -725.000
240.242;   55.200;  428.000;  432.000
240.385;   44.400;  466.000;  450.000
240.528;  -86.400; -706.000; -473.000
240.671;    8.125;  189.000;  134.000
240.814;  -34.525; -441.000; -158.000
240.957; -110.575; -767.000; -578.000
241.100;  -91.050; -779.000; -755.000
241.243; -150.725;-1234.000; -893.000
241.386;  -68.825; -508.000; -379.000
241.529;  -83.675; -735.000; -547.000
241.672;  -60.850; -566.000; -495.000
241.815; -123.575; -832.000; -808.000
241.958;  -27.625; -125.000; -182.000
242.101;  -77.200; -545.000; -390.000
242.244;  -46.475; -270.000; -325.000
242.387;  -42.825; -304.000; -246.000
242.530;   56.575;  470.000;  134.000
242.673;  -48.775; -381.000; -309.000
242.815; -116.350; -925.000; -899.000
242.958;  -80.500; -482.000; -381.000
243.101;    9.875;  132.000;  187.000
243.244;  -78.600; -564.000; -521.000
243.387;  -43.925; -313.000; -316.000
243.530; -104.375; -657.000; -674.000
243.672;   -7.650;   43.000;  -92.000
243.815;  -59.925; -355.000; -283.000
243.958;   -2.375;   98.000;  -26.000
244.101;  -12.525;   59.000;  -16.000
244.243;   -9.525;  -47.000;  101.000
244.386; -125.450; -761.000; -630.000
244.529;  -26.250; -132.000; -139.000
244.672; -165.975;-1154.000; -951.000
244.814; -103.475; -621.000; -794.000
244.957;  -55.150; -380.000; -304.000
245.100;  -66.000; -489.000; -489.000
245.242;  -63.150; -387.000; -374.000
245.385;   -6.650;  -59.000;  -39.000
245.528; -130.700; -871.000; -705.000
245.670;   82.175;  612.000;  634.000
245.813;  -78.150; -599.000; -547.000
245.956;  -31.375; -324.000; -275.000
246.098;  -74.225; -508.000; -650.000
246.241;    8.250;  194.000;   48.000
246.383;  -26.100; -119.000;  -73.000
246.526;  -97.925; -454.000; -525.000
246.669; -119.750; -889.000; -780.000
246.811;    7.600;  172.000;   -1.000
246.954;  -53.700; -512.000; -426.000
247.096;  -28.050;  -84.000;   -6.000
247.239;  -71.325; -482.000; -445.000
247.381;  -65.700; -647.000; -488.000
247.524;   83.775;  645.000;  679.000
247.666;  -19.725;   58.000;   11.000
247.809; -121.150; -887.000; -691.000
247.951;  -19.475;  -75.000;  138.000
248.094;   26.750;  432.000;  308.000
248.236; -166.075;-1262.000;-1238.000
248.378;    1.825; -356.000;  -81.000
248.521;  -25.150; -334.000; -337.000
248.663;  -50.000; -236.000; -267.000
248.806;  -24.075; -300.000; -266.000
248.948;  -95.850; -886.000; -763.000
249.090;  -45.475; -428.000; -398.000
249.233;  -49.000; -344.000; -381.000
249.375;  -54.100; -474.000; -451.000
249.518;  -16.875;  -83.000; -133.000
249.660;   -5.900; -103.000;    3.000
249.802; -170.000;-1303.000;-1189.000
249.945;  -85.700; -612.000; -540.000
250.087; -103.275; -834.000; -768.000
250.229;  -52.050; -362.000; -480.000
250.371;  -68.075; -494.000; -439.000
250.514;  -48.700; -310.000; -244.000
250.656;  -69.525;   69.000;  102.000
250.798; -127.650; -849.000; -800.000
250.940;  -67.050; -322.000; -322.000
251.083;  -22.950; -335.000; -111.000
251.225;   63.825;  338.000;  310.000
251.367;  -32.675; -274.000; -373.000
251.509;  -33.200; -265.000; -210.000
251.651;  -99.900; -731.000; -671.000
251.794;   73.875;  538.000;  632.000
251.936; -115.850; -821.000; -747.000
252.078;  -82.850; -540.000; -461.000
252.220;  -64.125; -645.000; -477.000
252.362;   75.475;  344.000;  462.000
252.504;  -59.100; -677.000; -584.000
252.646; -104.350; -875.000; -722.000
252.788;   -4.300;   14.000; -128.000
252.931;  -31.950; -257.000; -253.000
253.073;  -43.575; -376.000; -317.000
253.215;   -8.825;  141.000;  122.000
253.357;  -16.800;   82.000; -153.000
253.499;  -60.825; -374.000; -234.000
253.641;  -81.025; -749.000; -594.000
253.783;  -98.325; -609.000; -527.000
253.925;  -76.825; -586.000; -591.000
254.067; -109.350; -744.000; -667.000
254.209;  -24.725; -391.000; -259.000
254.351; -139.975; -865.000; -883.000
254.493;  -55.775; -441.000; -417.000
254.635; -138.350; -936.000; -818.000
254.777;  -90.325; -752.000; -687.000
254.918;  -68.000; -512.000; -430.000
255.060;  -58.650; -551.000; -395.000
255.202;  -57.950; -473.000; -261.000
255.344;  -64.900; -658.000; -455.000
255.486;  -73.075; -471.000; -406.000
255.628; -120.350; -780.000; -781.000
255.770;  -88.075; -676.000; -536.000
255.912;  -60.525; -559.000; -468.000
256.053;  -90.000; -730.000; -508.000
256.195;  141.725; 1008.000;  903.000
256.337; -104.975; -861.000; -595.000
256.479;   60.300;  532.000;  416.000
256.621;  -41.050; -394.000; -212.000
256.762;  -95.750; -789.000; -742.000
256.904;   41.225;  485.000;  487.000
257.046;  -57.500; -381.000; -271.000
257.188;  -46.525; -351.000; -264.000
257.329;  -73.350; -525.000; -464.000
257.471; -116.600; -939.000; -807.000
257.613;  -68.875; -584.000; -498.000
257.755; -156.725;-1073.000; -982.000
257.896;   24.900;  286.000;  392.000
258.038;  -67.825; -403.000; -352.000
258.180;  -50.750; -354.000; -279.000
258.321;  -87.875; -581.000; -457.000
258.463;  -17.600;  -71.000;  133.000
258.605; -109.025; -562.000; -570.000
258.746; -102.600; -886.000; -772.000
258.888; -142.025;-1026.000;-1020.000
259.029;   19.350;  121.000;   -8.000
259.171;  -85.450; -614.000; -550.000
259.313;    1.450;  -49.000;  -47.000
259.454;  -81.100; -536.000; -414.000
259.596;  -53.350; -483.000; -390.000
259.737;  -87.075; -590.000; -474.000
259.879;   38.275;  217.000;  311.000
260.020;   91.725;  901.000;  636.000
260.162;  -35.850; -146.000; -253.000
260.303; -107.175; -768.000; -687.000
260.445;  -78.475; -609.000; -613.000
260.586;   21.400;  392.000;  157.000
260.728;  -42.100; -360.000; -248.000
260.869; -119.225; -350.000; -343.000
261.011;   79.600;  706.000;  537.000
261.152;  -57.750; -479.000; -319.000
261.293;  -89.875; -576.000; -595.000
261.435;  -39.975; -219.000; -184.000
261.576;  -53.225; -455.000; -325.000
261.718;   39.375;  420.000;  470.000
261.859; -122.175; -940.000; -949.000
262.000; -140.925; -951.000;-1016.000
262.142;  -22.425;  -52.000;  -60.000
262.283; -129.200; -808.000; -691.000
262.424;  -89.925; -666.000; -625.000
262.566; -154.300;-1161.000; -983.000
262.707; -120.250; -840.000; -830.000
262.848; -122.375; -769.000; -726.000
262.990;  -47.625; -362.000; -345.000
263.131;   72.525;  650.000;  681.000
263.272;  -10.525;  -61.000;  -41.000
263.413;  -95.400; -589.000; -561.000
263.555;  -67.750; -669.000; -143.000
263.696;  -88.650; -550.000; -641.000
263.837;  -57.525; -449.000; -551.000
263.978;   -5.750;   -5.000;  -77.000
264.119;  -41.700; -283.000; -264.000
264.261; -120.450; -847.000; -630.000
264.402;   -3.250;   33.000;   40.000
264.543;  -82.575; -509.000; -524.000
264.684;  -15.925;   61.000;  -50.000
264.825;  -76.050; -816.000; -538.000
264.966;  -16.500;  -84.000;  -67.000
265.107; -124.000; -646.000; -670.000
265.248; -129.550; -825.000; -812.000
265.390;  -24.625;  152.000;   -9.000
265.531;  -28.400; -238.000; -107.000
265.672;  -95.325; -557.000; -630.000
265.813;   66.800;  563.000;  439.000
265.954; -149.350; -959.000; -940.000
266.095;   -4.625; -372.000; -322.000
266.236;  -94.025; -686.000; -548.000
266.377;  -44.950; -243.000; -297.000
266.518;  -69.675; -619.000; -547.000
266.659;   23.575;  170.000;  268.000
266.800;    2.525;   83.000;   85.000
266.941;  -83.675; -487.000; -478.000
267.082;    3.400;  354.000;   99.000
267.223;  -47.550; -344.000; -273.000
267.364; -120.375; -892.000; -686.000
267.504;  -22.150;    3.000;  135.000
267.645;  -13.275;  160.000;   67.000
267.786;  -33.175; -147.000;  -86.000
267.927;  -72.800; -473.000; -379.000
268.068;  -15.725; -186.000;  -61.000
268.209;  -59.825; -175.000; -413.000
268.350;  -71.150; -388.000; -532.000
268.490;  -96.675; -648.000; -521.000
268.631;   25.700;  127.000;  225.000
268.772; -100.075; -874.000; -647.000
268.913;  -48.525; -328.000; -476.000
269.054;  -11.650; -117.000;   12.000
269.194;  -63.000; -418.000; -402.000
269.335; -163.225;-1137.000;-1074.000
269.476;  -28.600;   33.000;  -35.000
269.617;  -49.200; -347.000; -392.000
269.757;  -85.650; -713.000; -646.000
269.898; -109.575; -856.000; -613.000
270.039;  -57.750; -415.000; -405.000
270.180; -127.625; -952.000; -816.000
270.320;  -24.925; -190.000; -250.000
270.461;  -49.200; -277.000; -249.000
270.602;  -33.700; -186.000; -156.000
270.742; -134.525; -868.000; -943.000
270.883;  -67.600; -442.000; -390.000
271.023;  -70.000; -358.000; -357.000
271.164;  -77.050; -607.000; -528.000
271.305;  -99.350; -666.000; -654.000
271.445;  -98.200; -722.000; -683.000
271.586;  -68.750; -462.000; -283.000
271.726;  -45.025; -397.000; -322.000
271.867;  -67.825; -594.000; -534.000
272.008;  184.100; -473.000; -285.000
272.148;  128.450;  462.000;  468.000
272.289;   15.625; -113.000; -181.000
272.429;   22.200;   19.000;  185.000
272.570;  -99.550; -633.000; -737.000
272.710; -111.100; -825.000; -775.000
272.851;  -29.775;  113.000; -130.000
272.991; -166.825;-1173.000;-1077.000
273.131;  -69.050; -419.000; -459.000
273.272;  -97.575; -683.000; -723.000
273.412;   15.500; -143.000;  -31.000
273.553;  -68.250; -488.000; -507.000
273.693;  138.725;  913.000;  858.000
273.834;  -86.550; -894.000; -692.000
273.974;  -61.200; -664.000; -615.000
274.114;  -92.800; -772.000; -560.000
274.255;   73.025;  414.000;  373.000
274.395;   -8.250; -180.000; -125.000
274.535;   39.400;  199.000;  350.000
274.676;   18.750;  225.000;   94.000
274.816;    6.525;  110.000;   34.000
274.956;  -79.475; -624.000; -690.000
275.097;  -73.050;-1014.000; -922.000
275.237; -113.925; -913.000; -803.000
275.377;  -87.800; -778.000; -689.000
275.517; -156.550; -878.000; -937.000
275.658;  -65.850; -590.000; -555.000
275.798;  -80.625; -606.000; -413.000
275.938;   17.375;  215.000;  323.000
276.078;  -89.825; -626.000; -395.000
276.218;   15.150;   99.000;  104.000
276.359; -122.750;-1026.000;-1024.000
276.499;  -75.375; -605.000; -446.000
276.639;  -22.550; -305.000; -151.000
276.779;  -48.350; -475.000; -357.000
276.919; -106.800; -783.000; -624.000
277.059;  -25.550; -261.000; -212.000
277.199;  -46.275; -357.000; -259.000
277.340;   37.025;  287.000;  175.000
277.480; -125.900; -840.000; -693.000
277.620;   18.750;  192.000;   16.000
277.760; -208.625;-1533.000;-1294.000
277.900;    6.475;  113.000;   33.000
278.040;   16.525;  137.000;  159.000
278.180;   37.400;  270.000;  170.000
278.320;  -10.750;   21.000;   56.000
278.460;  -72.975; -443.000; -469.000
278.600;  -94.050; -708.000; -598.000
278.740;   50.075;  448.000;  224.000
278.880;  -74.975; -768.000; -791.000
279.020;  -17.075; -194.000; -144.000
279.160;  -90.075; -672.000; -595.000
279.300; -122.775; -926.000; -873.000
279.440;  -88.275; -709.000; -622.000
279.579;  -37.300;-1014.000; -929.000
279.719;  -47.650; -410.000; -394.000
279.859;   60.600;   -4.000;   41.000
279.999;   34.825; -208.000;  101.000
280.139;  -12.300; -435.000; -387.000
280.279;  -73.025; -708.000; -745.000
280.419;  -18.325; -229.000; -147.000
280.559;  -33.600; -259.000; -180.000
280.698;  -92.225; -790.000; -639.000
280.838; -105.800; -778.000; -800.000
280.978; -103.825; -846.000; -790.000
281.118; -106.075; -811.000; -704.000
281.257;    7.825;   24.000;    6.000
281.397; -114.675;-1094.000; -960.000
281.537;  -84.800; -599.000; -712.000
281.677;  -23.250; -150.000; -101.000
281.816;  -93.125; -700.000; -630.000
281.956;  -27.700; -193.000; -257.000
282.096;  -59.025; -539.000; -396.000
282.235; -100.200; -672.000; -638.000
282.375;  -21.300; -243.000;  -98.000
282.515; -114.450; -715.000; -707.000
282.654;   25.475;   29.000;  106.000
282.794;   15.725;  388.000;  244.000
282.934;  -61.625; -530.000; -491.000
283.073; -141.175;-1030.000; -857.000
283.213;  -60.300; -460.000; -467.000
283.353;  -35.475; -408.000; -349.000
283.492;  -35.150; -264.000; -296.000
283.632;  -49.900; -254.000; -168.000
283.771; -107.800; -859.000; -730.000
283.911;  -62.375; -369.000; -260.000
284.050; -108.575; -794.000; -748.000
284.190; -158.200;-1229.000;-1096.000
284.329; -159.225;-1055.000; -964.000
284.469;  -54.450; -516.000; -591.000
284.608;  -71.275; -559.000; -598.000
284.748;  -80.825; -614.000; -570.000
284.887;  -19.400;  -87.000;  -20.000
285.027; -123.000; -844.000; -892.000
285.166;  -31.825; -192.000; -249.000
285.306;   -2.625; -116.000;  -33.000
285.445;  -49.100; -229.000; -343.000
285.584; -110.975; -630.000; -494.000
285.724;  -56.425; -282.000; -322.000
285.863; -116.125; -857.000; -507.000
286.002;  -50.325; -366.000; -276.000
286.142; -110.450; -715.000; -622.000
286.281;  -66.675; -525.000; -493.000
286.420;  -86.000; -554.000; -417.000
286.560;   96.375;  653.000;  623.000
286.699; -143.350; -958.000; -912.000
286.838;  -85.175; -590.000; -591.000
286.978; -102.025; -533.000; -537.000
287.117; -127.125;-1085.000; -950.000
287.256;  -35.650; -228.000; -211.000
287.395;  -51.000; -197.000; -378.000
287.535;  -42.325; -370.000; -298.000
287.674;  -80.325; -509.000; -484.000
287.813;   55.450;  661.000;  533.000
287.952; -132.950;-1010.000; -871.000
288.091; -149.075;-1049.000; -915.000
288.231;   -1.950;   13.000;   15.000
288.370; -173.625;-1217.000;-1200.000
288.509;  -92.950; -728.000; -645.000
288.648;  -92.750; -770.000; -548.000
288.787;  -37.400; -243.000;  -87.000
288.926;  -63.125; -454.000; -475.000
289.065;   99.950;  859.000;  672.000
289.204;  -48.375; -377.000; -217.000
289.344;  -88.950; -791.000; -690.000
289.483;   15.325;  416.000;  304.000
289.622;  -24.575; -291.000; -149.000
289.761;   -8.075; -309.000; -166.000
289.900; -118.775; -785.000; -626.000
290.039;   -9.400;  -12.000;  -95.000
290.178;  -40.125; -274.000; -180.000
290.317;  -85.575; -618.000; -479.000
290.456;  -77.025; -463.000; -451.000
290.595; -139.000; -961.000; -833.000
290.734; -134.325; -904.000; -891.000
290.873;  -65.650; -456.000; -420.000
291.011; -108.375; -833.000; -843.000
291.150; -101.250; -770.000; -682.000
291.289;  -32.800; -343.000; -110.000
291.428;  -88.125; -599.000; -480.000
291.567;  -45.425; -370.000; -442.000
291.706;   -6.850;  109.000;  154.000
291.845;  -92.675; -597.000; -505.000
291.984; -163.125;-1234.000;-1061.000
292.122;   78.600;  602.000;  582.000
292.261;   41.475;  620.000;  463.000
292.400;   15.475; -144.000;  211.000
292.539; -125.725; -959.000; -813.000
292.678;  -41.500; -325.000; -300.000
292.816; -150.075;-1136.000; -965.000
292.955; -103.450; -844.000; -684.000
293.094;  -27.675; -173.000; -337.000
293.233;  -57.300; -556.000; -400.000
293.371;  -28.400; -225.000;  -84.000
293.510; -108.125; -866.000; -780.000
293.649; -125.525; -959.000; -924.000
293.787;  -60.250;-1083.000;-1012.000
293.926;   -6.675; -113.000;  -32.000
294.065;  -48.625; -379.000; -290.000
294.203;   45.175;  298.000;  406.000
294.342;   17.750;   74.000;  156.000
294.481; 5429.800;51180.000; -836.000
294.619;  -36.725; -425.000; -582.000
294.758; -140.000;-1230.000;-1137.000
294.896;   68.000; -125.000;    5.000
295.035; -133.300;-1040.000;-1006.000
295.174; -129.150;-1082.000; -954.000
295.312;  -35.850; -323.000; -203.000
295.451;   -9.300; -307.000; -428.000
295.589;  -71.875; -389.000; -518.000
295.728;    5.625; -292.000; -165.000
295.866;   12.750;  -36.000;  -51.000
296.005;  -61.125; -584.000; -341.000
296.143;  -68.125; -558.000; -596.000
296.282; -107.075; -957.000; -881.000
296.420;  -83.900; -657.000; -557.000
296.559;  -93.400; -892.000; -633.000
296.697;   19.475; -847.000; -665.000
296.835;   59.700;-1141.000;-1002.000
296.974;   53.350;  -23.000;   39.000
297.112;   14.350; -443.000; -504.000
297.251;  -69.475; -815.000; -755.000
297.389;   91.775; -576.000; -438.000
297.527;   34.175; -145.000;  -83.000
297.666;  -40.400; -486.000; -438.000
297.804;  -39.800; -404.000; -264.000
297.942;  -11.250; -136.000; -161.000
298.081;  -14.725; -183.000;   63.000
298.219;   63.600;  -17.000;  -19.000
298.357;   55.900; -144.000;  -71.000
298.495;   42.050; -810.000; -812.000
298.634;   86.325;  245.000;  219.000
298.772;   66.075; -220.000; -338.000
298.910;  -35.450; -309.000; -182.000
299.048;   -9.300; -130.000; -153.000
299.187;  -29.050; -350.000; -250.000
299.325;    6.575;   52.000;  122.000
299.463;   40.925; -389.000; -299.000
299.601;  120.925; -327.000; -271.000
299.739; -104.100; -908.000; -883.000
299.877;  -84.400; -791.000; -703.000
300.016;  -47.500;-1095.000; -935.000
300.154;  164.325;  -19.000; -161.000
300.292;   61.375; -428.000; -348.000
300.430;   29.925; -408.000; -291.000
300.568; -100.225; -940.000; -874.000
300.706;  -44.575; -366.000; -469.000
300.844;  -70.775;-1108.000; -979.000
300.982;  117.675;  246.000;  282.000
301.120; -110.375; -965.000; -866.000
301.258;  -80.300; -812.000; -705.000
301.396;   42.000;  104.000;  -41.000
301.534;   89.325; -218.000; -293.000
301.672;    7.725; -664.000; -521.000
301.810;   28.625; -613.000; -545.000
301.948;  125.500;   53.000;  149.000
302.086;  645.975; -250.000;  -32.000
302.224;  986.475; -610.000; -585.000
302.362;   47.325; -558.000; -622.000
302.500;  -16.975; -923.000; -893.000
302.638;  109.325;  128.000;  245.000
302.776;   -6.775; -352.000; -408.000
302.913;   38.775;  447.000;  236.000
303.051;   -7.325;  -86.000;  -23.000
303.189;   39.075;   90.000;  118.000
303.327;  -38.175; -341.000; -256.000
303.465;  -79.425; -832.000; -588.000
303.603;  -98.050; -805.000; -604.000
303.740;   99.000;  417.000;  241.000
303.878;   15.900; -800.000; -759.000
304.016;  -94.000; -915.000; -790.000
304.154; -132.700;-1123.000;-1152.000
304.291;  -41.025; -505.000; -554.000
304.429;   10.275;  102.000;   74.000
304.567; -145.850; -908.000; -893.000
304.705;  -52.775; -408.000; -515.000
304.842;  100.075; -616.000; -540.000
304.980;   55.175;  215.000;   35.000
305.118;   54.000; -367.000; -365.000
305.255;  -59.950; -945.000; -927.000
305.393;   57.375;  178.000;  239.000
305.531;  -98.550;-1173.000; -956.000
305.668;  -72.450; -663.000; -582.000
305.806;  100.500; -358.000; -439.000
305.943;  105.250; -629.000; -637.000
306.081;   47.350; -378.000; -267.000
306.219; -110.950; -863.000; -748.000
306.356;    2.700;  158.000;   27.000
306.494;  106.800;  981.000;  761.000
306.631;   -4.875;  -11.000;  -55.000
306.769;   16.875; -613.000; -485.000
306.906;  -22.875; -284.000; -258.000
307.044;  -71.800; -473.000; -488.000
307.181;  -61.600; -410.000; -332.000
307.319;    7.375;  112.000;   87.000
307.456; -167.825;-1191.000;-1153.000
307.594;  -98.850; -980.000; -727.000
307.731;  -27.300; -371.000; -164.000
307.868;    0.500;  -15.000;   20.000
308.006; -136.425; -961.000; -847.000
308.143;  -76.275; -618.000; -330.000
308.281;  147.325;  -37.000; -254.000
308.418;   -8.900; -748.000; -640.000
308.555;  -56.750; -400.000; -250.000
308.693;  -74.900; -577.000; -573.000
308.830; -108.375; -712.000; -657.000
308.967;  -17.000; -215.000;  -95.000
309.105;  -48.300; -507.000; -396.000
309.242;   23.700; -468.000; -367.000
309.379;  283.550; -577.000; -655.000
309.517;  -63.100; -936.000; -948.000
309.654; -105.475; -910.000; -734.000
309.791;  -78.625; -662.000; -580.000
309.928; -118.725; -977.000; -914.000
310.065;  179.575;  819.000;  697.000
310.203;  -15.625; -825.000; -850.000
310.340;  -16.450; -465.000; -321.000
310.477;  -76.575; -412.000; -516.000
310.614;  -74.250; -383.000; -473.000
310.751;  -83.875; -427.000; -518.000
310.889;  -30.925;    1.000;   11.000
311.026; -167.675;-1161.000; -939.000
311.163;  -55.625; -386.000; -380.000
311.300;  -92.025; -512.000; -479.000
311.437;  -73.525; -658.000; -619.000
311.574; -158.775;-1226.000; -985.000
311.711;  -66.275; -595.000; -433.000
311.848;  -47.025; -380.000; -388.000
311.985;    2.900;  270.000;   93.000
312.122; -117.650; -932.000; -762.000
312.259; -106.925; -941.000; -994.000
312.396;  -87.550; -508.000; -551.000
312.533;  -93.750; -812.000; -790.000
312.670; -120.025;-1070.000; -898.000
312.807;  -39.075; -352.000; -367.000
312.944;  -83.925; -513.000; -611.000
313.081;  -30.100; -150.000; -415.000
313.218; -117.050;-1111.000; -867.000
313.355;    6.525; -531.000; -449.000
313.492;   -3.350; -455.000; -292.000
313.629;  137.475;  815.000;  735.000
313.766; -160.125;-1176.000;-1008.000
313.902;  -15.650; -186.000;   21.000
314.039;  -48.225; -372.000; -289.000
314.176;   10.500;  286.000;  192.000
314.313;  -77.650; -569.000; -473.000
314.450;  -86.200; -788.000; -684.000
314.587;  -57.550; -468.000; -480.000
314.723;    1.850;  -78.000;  130.000
314.860;   31.700;  318.000;  332.000
314.997;   33.575;  223.000;  142.000
315.134;  -39.925; -385.000; -368.000
315.270;  -23.550; -480.000; -496.000
315.407; -123.800;-1094.000; -967.000
315.544;  -58.550; -657.000; -538.000
315.681;  -68.100; -681.000; -565.000
315.817;   32.275; -133.000; -176.000
315.954;   20.125; -613.000; -392.000
316.091; -116.775;-1045.000;-1023.000
316.227;  -25.725;  -71.000; -179.000
316.364;    2.950;   23.000;    6.000
316.500;  -49.400; -113.000; -300.000
316.637;  -39.875; -181.000; -302.000
316.774;  -85.650; -625.000; -358.000
316.910; -103.700; -598.000; -629.000
317.047;  -70.800; -487.000; -351.000
317.183;  -59.575; -435.000; -566.000
317.320;  -15.100; -367.000; -321.000
317.456;  -73.375; -733.000; -805.000
317.593;  -91.000; -598.000; -641.000
317.729;    5.000;  168.000;  -67.000
317.866; -202.550;-1434.000;-1285.000
318.002;  -84.075; -708.000; -948.000
318.139;  -93.675; -883.000; -867.000
318.275; -101.300;-1003.000; -738.000
318.412;  -64.675; -517.000; -336.000
318.548;  -17.725; -751.000; -720.000
318.685;  -94.400; -985.000; -888.000
318.821;  -99.475; -762.000; -735.000
318.957;  -42.125;   34.000;  -23.000
319.094;   39.775;  297.000;  154.000
319.230;  -62.600; -756.000; -742.000
319.367;  133.925; -471.000; -520.000
319.503;   57.925; -538.000; -436.000
319.639;  -96.150; -877.000; -793.000
319.775;  -62.700; -750.000; -685.000
319.912;  -53.200; -424.000; -519.000
320.048;  -95.625;-1184.000;-1184.000
320.184;   75.575;   59.000;   70.000
320.321;  -67.850; -497.000; -467.000
320.457;   68.275;  475.000;  662.000
320.593;  -75.975; -375.000; -382.000
320.729; -114.100; -732.000; -734.000
320.866;  -76.475; -577.000; -635.000
321.002;  -71.975; -759.000; -809.000
321.138;   -6.075; -135.000; -211.000
321.274;   73.400; -148.000; -115.000
321.410;  -25.350; -585.000; -353.000
321.546;  -28.850;-1011.000; -911.000
321.683;   46.650;  400.000;  185.000
321.819;   -1.900;  -48.000; -117.000
321.955; -109.800; -743.000; -722.000
322.091;  -41.875; -585.000; -540.000
322.227;  -21.675; -382.000; -202.000
322.363;  -29.800; -320.000; -215.000
322.499;  -45.700; -343.000; -331.000
322.635;  161.900;  636.000;  443.000
322.771;   20.725; -139.000;   12.000
322.907;   92.425;  129.000;  327.000
323.043;  -15.225; -115.000; -206.000
323.179;  -35.925; -394.000; -363.000
323.315;   32.500; -401.000; -371.000
323.451;  106.250; -328.000; -236.000
323.587;   69.100;  -60.000;  -77.000
323.723;   35.800; -682.000; -601.000
323.859;  -10.900; -258.000;  -76.000
323.995;  -42.700; -467.000; -409.000
324.131; -130.025; -967.000; -892.000
324.267;  -43.375; -254.000; -276.000
324.402; -129.725; -960.000; -983.000
324.538;   -9.925; -279.000; -104.000
324.674;   20.350;  164.000;   77.000
324.810;  126.600;  226.000;  308.000
324.946;    3.100; -810.000; -658.000
325.082;  -74.975; -568.000; -475.000
325.217;  -20.225;  -62.000;   16.000
325.353;  -99.250; -764.000; -659.000
325.489;  -86.675; -540.000; -506.000
325.625;  -72.725; -579.000; -525.000
325.760;   53.525;  517.000;  376.000
325.896;  -27.375; -515.000; -702.000
326.032;  -56.375; -403.000; -352.000
326.168;  -64.400; -462.000; -369.000
326.303;  -57.175; -352.000; -461.000
326.439;  -24.075; -336.000; -276.000
326.575;   -7.325; -190.000;  -29.000
326.710;   -4.000; -156.000;  -30.000
326.846;  -24.100;  146.000;  103.000
326.982;  -88.150; -530.000; -548.000
327.117;  -66.475; -481.000; -442.000
327.253;  -86.125; -745.000; -742.000
327.388; -138.375;-1137.000;-1153.000
327.524;  -47.950; -811.000; -578.000
327.659;  -29.475;  -58.000;  -22.000
327.795;  -18.575;   69.000;   45.000
327.931;  -86.525; -723.000; -499.000
328.066;  -27.825; -417.000; -276.000
328.202;  -12.475;   12.000; -129.000
328.337;   96.600;  957.000;  713.000
328.473;   51.150;  -12.000;  -74.000
328.608;  -28.850; -256.000; -267.000
328.743;  -85.725; -799.000; -664.000
328.879;   20.750;  214.000;  114.000
329.014;  -21.750; -102.000; -122.000
329.150;  -96.525; -358.000; -483.000
329.285;  -80.800; -465.000; -466.000
329.421;  -52.500; -548.000; -246.000
329.556;  -29.725;  -36.000;   85.000
329.691; -100.625; -633.000; -615.000
329.827;  -98.775; -626.000; -480.000
329.962;  -57.575;  131.000; -301.000
330.097;  -99.675; -673.000; -585.000
330.233;  -53.725; -410.000; -223.000
330.368; -126.025; -839.000; -628.000
330.503;  -24.225;    3.000;   98.000
330.638;    1.500;  -93.000; -125.000
330.774;  -68.350; -609.000; -530.000
330.909;  -56.075; -434.000; -244.000
331.044; -117.350; -714.000; -708.000
331.179; -191.050;-1217.000;-1109.000
331.315;   19.875;   77.000;   20.000
331.450;    0.175;  157.000;  285.000
331.585;  -91.175; -805.000; -706.000
331.720;  -89.575; -510.000; -460.000
331.855;   -7.850;  -35.000; -102.000
331.990;  236.650;   62.000;  138.000
332.126;  105.450; -110.000;   71.000
332.261;  -29.300; -379.000; -265.000
332.396;    7.700; -135.000; -242.000
332.531;  -97.950;-1074.000;-1031.000
332.666;   33.425; -519.000; -363.000
332.801; -104.425; -726.000; -807.000
332.936;  -24.050; -192.000; -122.000
333.071; -151.600; -870.000; -817.000
333.206;   18.600;  307.000;  379.000
333.341;   30.200;  344.000;  418.000
333.476;  -90.850; -627.000; -623.000
333.611;  -40.925; -251.000; -173.000
333.746;  -56.175; -381.000; -464.000
333.881; -113.350; -973.000; -935.000
334.016; -130.700; -936.000; -917.000
334.151; -124.250; -746.000; -702.000
334.286;   11.600;  152.000;  186.000
334.421;  -25.975; -125.000; -178.000
334.556;  -78.625; -611.000; -567.000
334.690;  -70.950; -631.000; -577.000
334.825;   44.025;  381.000;   83.000
334.960;  -71.125; -285.000; -413.000
335.095;    7.025;  135.000;  -91.000
335.230; -101.300; -722.000; -738.000
335.365; -134.550;-1084.000; -990.000
335.499; -138.400;-1108.000;-1037.000
335.634;   19.225;    9.000;  534.000
335.769;  -93.425; -755.000; -720.000
335.904;  -73.550; -603.000; -561.000
336.038;  -60.175; -735.000; -657.000
336.173; -126.275;-1206.000;-1194.000
336.308;   12.250; -116.000; -189.000
336.443;    0.600; -544.000; -634.000
336.577;  -67.225; -936.000; -787.000
336.712;   67.425;   -4.000;  -12.000
336.847;  -28.500; -724.000; -607.000
336.981;   79.525; -272.000; -208.000
337.116;  303.575;  615.000;  501.000
337.250;  162.350; -434.000; -421.000
337.385;  240.775; -297.000; -208.000
337.520;   69.875; -632.000; -603.000
337.654;  -38.500; -215.000; -126.000
337.789; -130.850; -989.000; -933.000
337.923;  -36.450; -104.000; -205.000
338.058;  -83.675; -673.000; -738.000
338.192;  -32.125; -611.000; -488.000
338.327;    0.275;  -18.000; -155.000
338.461;  -68.075; -299.000; -469.000
338.596;  -86.025; -780.000; -638.000
338.730; -101.625; -767.000; -803.000
338.865;   65.200;  -46.000; -140.000
338.999;  -64.600; -846.000; -702.000
339.134;  -29.050; -634.000; -536.000
339.268;   13.100; -741.000; -603.000
339.403;  357.175; -740.000; -775.000
339.537;  109.750; -894.000; -820.000
339.671; -132.725; -829.000; -813.000
339.806;  -79.300; -556.000; -512.000
339.940;    4.450; -261.000; -235.000
340.074; -100.600; -685.000; -510.000
340.209;  -50.000; -351.000; -230.000
340.343;  -83.950; -517.000; -573.000
340.477;  154.950;  998.000; 1036.000
340.612;  -52.750;-1033.000; -900.000
340.746;  127.825; -199.000; -243.000
340.880;  -77.975; -924.000; -785.000
341.014;  -32.075;  -45.000; -154.000
341.149; -121.525; -756.000; -718.000
341.283; -124.675; -839.000; -754.000
341.417;  -97.950;-1124.000; -938.000
341.551;  157.250; -768.000; -708.000
341.685;  -39.250; -633.000; -611.000
341.820;  -48.075; -562.000; -493.000
341.954;  -44.525; -218.000; -349.000
342.088; -147.425;-1102.000;-1019.000
342.222;   54.750;  565.000;  618.000
342.356;  -58.575; -395.000; -335.000
342.490;  -87.450; -880.000; -841.000
342.624;  -44.125; -339.000; -242.000
342.758;    5.325; -364.000; -312.000
342.892;  -52.400; -710.000; -585.000
343.026;  -42.025;  -58.000; -116.000
343.160;  -64.700; -426.000; -376.000
343.294;  -70.950; -474.000; -337.000
343.428;  -20.800; -488.000; -448.000
343.562;  -22.250; -172.000;  -23.000
343.696;  -32.175; -385.000; -314.000
343.830;   -6.775; -362.000; -356.000
343.964;   21.675; -231.000; -168.000
344.098;  960.450;  199.000;   70.000
344.232;  784.250; -266.000; -127.000
344.366;   79.325; -567.000; -453.000
344.500;   67.675; -665.000; -744.000
344.634;   32.575; -324.000; -164.000
344.768;  -15.375; -531.000; -341.000
344.902;   22.625;  278.000;  256.000
345.035;  -84.225; -556.000; -496.000
345.169; -149.225; -933.000; -656.000
345.303;  -32.050; -308.000; -482.000
345.437;  -83.375; -826.000; -717.000
345.571;  -79.675; -675.000; -594.000
345.704;  -84.850; -309.000; -532.000
345.838;   -8.350; -331.000; -284.000
345.972;  -41.050; -543.000; -495.000
346.106;  151.175; -179.000; -190.000
346.239;  411.250; -312.000; -243.000
346.373;    7.825; -343.000; -302.000
346.507; -137.900; -950.000; -962.000
346.640;  134.975;  -30.000;   13.000
346.774;  -36.325; -650.000; -797.000
346.908;  -18.875; -138.000;  -11.000
347.041;  -99.075; -646.000; -593.000
347.175;    3.575;  259.000;   27.000
347.309;  -64.650; -698.000; -628.000
347.442;  -99.425; -883.000; -732.000
347.576;  278.075;  670.000;  668.000
347.709;  205.600; -123.000;  -52.000
347.843;  -80.350; -933.000; -825.000
347.976;   23.300;  235.000;  294.000
348.110; -177.950;-1268.000;-1186.000
348.243; -112.825; -679.000; -772.000
348.377;   -1.550;  -26.000;   60.000
348.510;   48.300;  403.000;  540.000
348.644;  -24.050;  -37.000; -159.000
348.777;   -9.775;  180.000;  191.000
348.911;  -51.825; -142.000; -112.000
349.044;  160.225;  471.000;  448.000
349.178;  162.850;-1069.000;-1006.000
349.311;  121.575;  141.000;  255.000
349.444;  -17.525; -927.000; -813.000
349.578;  -12.025; -347.000; -200.000
349.711; -105.550; -959.000; -862.000
349.845;    8.425; -661.000; -591.000
349.978; -143.050;-1224.000;-1137.000
350.111;  -89.100; -546.000; -612.000
350.244;  -76.325; -596.000; -700.000
350.378;    7.450; -392.000; -393.000
350.511;  -68.100; -393.000; -426.000
350.644; -108.350; -808.000; -806.000
350.778;   12.375;  168.000;  104.000
350.911;   -9.375;  134.000;  140.000
351.044;  -95.650; -685.000; -615.000
351.177;  -24.125; -321.000; -281.000
351.310;  -15.250;    3.000; -131.000
351.444;  -69.000; -888.000; -788.000
351.577;  117.675;  140.000;   90.000
351.710;  101.225;  593.000;  417.000
351.843;  -49.325; -165.000;  -77.000
351.976;   -8.425;  149.000;  -79.000
352.109;  -90.075; -621.000; -612.000
352.242;  -22.050; -464.000; -419.000
352.376;  -63.500; -580.000; -636.000
352.509;  170.175; -437.000; -356.000
352.642;   11.075; -654.000; -604.000
352.775;   57.050; -141.000;  -98.000
352.908; -119.775; -933.000; -904.000
353.041; -104.200; -814.000; -824.000
353.174;  -52.450; -551.000; -424.000
353.307;  -99.050; -753.000; -764.000
353.440;   72.200;  541.000;  453.000
353.573; -112.325; -957.000;-1008.000
353.706;  -16.975; -384.000; -558.000
353.839;  -11.075; -264.000; -220.000
353.971;  -96.600; -657.000; -512.000
354.104;  -96.050; -896.000; -835.000
354.237;  -19.625; -627.000; -662.000
354.370;  -85.750; -846.000; -879.000
354.503; -187.250;-1231.000;-1308.000
354.636;  -45.375; -529.000; -348.000
354.769; -126.875; -937.000; -860.000
354.902;   -7.400; -230.000; -139.000
355.034;    1.150; -164.000; -220.000
355.167;  -17.975; -262.000; -162.000
355.300;  -88.525;-1061.000; -880.000
355.433;  959.250;  -71.000;  -14.000
355.565; 1456.975; -402.000; -384.000
355.698;  373.050; -356.000; -296.000
355.831;    7.150; -882.000; -801.000
355.964;   76.675; -285.000; -170.000
356.096;  -91.800; -856.000; -843.000
356.229;    3.475; -523.000; -530.000
356.362;  314.950; -373.000; -266.000
356.494;  575.425; -229.000; -162.000
356.627;  481.275;  269.000;  377.000
356.760;  634.375;  120.000;   53.000
356.892;  930.175; -286.000; -601.000
357.025;  670.825;  403.000;  389.000
357.157;  648.000; -167.000; -179.000
357.290;  655.950; -856.000; -713.000
357.423;  190.950; -667.000; -556.000
357.555;  110.450; -217.000; -228.000
357.688;  141.125; -483.000; -364.000
357.820;  473.250; -870.000; -877.000
357.953; 3842.775; -563.000; -589.000
358.085;  830.200; -632.000; -612.000
358.218; 1207.275;-1131.000; -932.000
358.350;  235.100;  -58.000;  312.000
358.483; -114.200;-1300.000;-1187.000
358.615;  -26.375;-1182.000;-1078.000
358.747;  -53.700;-1187.000;-1058.000
358.880;   21.250; -810.000; -744.000
359.012;   -7.300; -376.000; -202.000
359.145;  -47.125; -480.000; -511.000
359.277;   55.875; -962.000; -913.000
359.409; 3163.025;  536.000;  231.000
359.542;  829.400; -738.000; -688.000
359.674;   76.175;   46.000;   13.000
359.806;  -54.850; -565.000; -438.000
359.939;  -53.550; -617.000; -516.000
360.071;  -16.125; -583.000; -579.000
360.203;  -10.225; -411.000; -364.000
360.335;   63.275;  164.000;  -16.000
360.468;  198.700; -249.000; -307.000
360.600; 2572.075; -547.000; -454.000
360.732; 2749.500; -546.000; -423.000
360.864;  364.575;-1216.000;-1044.000
360.996;  296.875; -516.000; -554.000
361.129;   36.625; -389.000; -598.000
361.261;   19.425;  110.000; -113.000
361.393;  -39.350; -252.000; -214.000
361.525;   20.450;   94.000;  244.000
361.657;  -38.200; -821.000; -703.000
361.789;    9.000; -139.000; -155.000
361.921;  235.575; -642.000; -593.000
362.053;  266.725;  524.000;  541.000
362.185;   48.375;  288.000;   72.000
362.318;  -78.075; -709.000; -705.000
362.450;  123.575;  294.000;  444.000
362.582;  111.100; -913.000; -870.000
362.714;  -37.325; -353.000; -332.000
362.846;  -86.500; -606.000; -490.000
362.978; -128.100; -941.000; -811.000
363.109;   48.075; -161.000; -260.000
363.241;  456.875; -739.000; -749.000
363.373;  424.475; -649.000; -564.000
363.505;  633.100; -186.000;  -91.000
363.637;  145.075; -787.000; -601.000
363.769; -127.925;-1067.000;-1080.000
363.901;  -66.100; -596.000; -654.000
364.033; -110.625;-1103.000;-1062.000
364.165;  -11.600; -283.000; -283.000
364.296;   69.925; -316.000; -177.000
364.428;   70.525;-1344.000;-1220.000
364.560;  -62.925; -679.000; -661.000
364.692;  -68.850; -738.000; -835.000
364.824;  288.025; -588.000; -456.000
364.955;  440.125; -402.000; -564.000
365.087;  879.525;-1097.000; -852.000
365.219;   18.700; -686.000; -816.000
365.351;  -70.450; -526.000; -572.000
365.482;   59.325;  300.000;  240.000
365.614;  -53.550; -402.000; -314.000
365.746;  -97.125; -729.000; -752.000
365.877; -105.800; -706.000; -672.000
366.009;  248.050;  -35.000;  -62.000
366.141;  -99.875;-1249.000;-1134.000
366.272; -118.925; -803.000; -719.000
366.404; -120.425;-1005.000; -874.000
366.535;  -15.200; -139.000;  -12.000
366.667; -104.700; -644.000; -649.000
366.799;   39.200;  353.000;  203.000
366.930; -126.600; -862.000; -996.000
367.062;  111.725; -639.000; -613.000
367.193;  134.525; -872.000; -842.000
367.325;  -70.900; -580.000; -684.000
367.456;   56.175; -246.000;   31.000
367.588;  157.375; -371.000; -318.000
367.719;   28.900;  -44.000;  -45.000
367.851;  -14.800; -222.000; -241.000
367.982;  -50.875; -875.000; -732.000
368.113;  110.225; -475.000; -358.000
368.245; -113.625; -960.000; -841.000
368.376;  -16.600; -254.000; -302.000
368.508;  -35.900; -188.000; -263.000
368.639; -136.125;-1166.000;-1034.000
368.770;  -24.225; -670.000; -589.000
368.902;  -54.350; -836.000; -926.000
369.033; -111.550; -906.000; -855.000
369.164;  -54.025; -720.000; -653.000
369.296; -120.975; -452.000; -601.000
369.427;  -16.175; -209.000; -144.000
369.558;  -61.825; -593.000; -377.000
369.689;  -91.325; -721.000; -569.000
369.821; -140.250; -951.000; -845.000
369.952;  -14.375;   42.000; -108.000
370.083;  -50.025; -229.000; -108.000
370.214;  -90.200; -735.000; -650.000
370.345;  -11.450;   65.000;   81.000
370.477;  -93.400; -810.000; -790.000
370.608;  257.700; -328.000; -264.000
370.739;  -41.375;-1233.000;-1292.000
370.870;  -37.400;-1102.000; -923.000
371.001;   95.975; -378.000; -467.000
371.132;  -73.625; -754.000; -735.000
371.263;  -13.975;  -42.000; -148.000
371.394; -135.425; -841.000; -748.000
371.525;   29.200;  345.000;  225.000
371.657;  -97.075; -808.000; -670.000
371.788;   70.800;  103.000;  199.000
371.919;  182.075; -384.000; -304.000
372.050; 3768.250;  -91.000; -156.000
372.181; 1131.375; -188.000; -294.000
372.311;  403.175;   42.000; -127.000
372.442;   32.600; -457.000; -451.000
372.573;  -32.850; -444.000; -340.000
372.704; -135.075;-1008.000; -980.000
372.835;   91.250; -228.000; -289.000
372.966;  -58.700; -646.000; -554.000
373.097;  -73.950; -575.000; -711.000
373.228;  -31.775; -717.000; -542.000
373.359;  156.725; -824.000; -536.000
373.490;  990.750; -881.000; -727.000
373.620; 1236.975;-1001.000; -803.000
373.751; 1860.850; -332.000; -396.000
373.882;  852.825; -663.000; -733.000
374.013;   69.850; -449.000; -262.000
374.143;  -33.325; -581.000; -659.000
374.274; -104.350; -987.000; -908.000
374.405;  174.475; -388.000; -276.000
374.536;  459.200; -526.000; -387.000
374.666; 1162.125; -759.000; -807.000
374.797;  241.975; -817.000; -868.000
374.928;  915.825; -710.000; -560.000
375.058;  949.675; -535.000; -500.000
375.189;   88.800;  -59.000;  -93.000
375.320; -101.800; -928.000;-1034.000
375.450;  -42.275; -625.000; -616.000
375.581;  -48.600; -526.000; -436.000
375.712;  -30.450; -574.000; -250.000
375.842;  331.500; -438.000; -415.000
375.973;  233.275; -554.000; -513.000
376.103;  -36.025; -665.000; -648.000
376.234;  -73.075; -531.000; -552.000
376.364;  -34.250; -944.000; -867.000
376.495;  330.000;  925.000;  529.000
376.625;   18.675; -472.000; -485.000
376.756;   48.975; -709.000; -678.000
376.886;  -69.075;-1178.000;-1026.000
377.017;   40.575;-1048.000;-1061.000
377.147;  331.975; -786.000; -782.000
377.278;   64.375;  174.000;  228.000
377.408; -128.975; -801.000; -815.000
377.538; -110.975; -707.000; -693.000
377.669;  -84.100; -537.000; -613.000
377.799;  -91.575; -645.000; -635.000
377.929;  -51.900; -610.000; -428.000
378.060; -116.225; -781.000; -847.000
378.190;  -54.225; -726.000; -531.000
378.320;  -61.050; -401.000; -406.000
378.451;   -1.800; -131.000;  -22.000
378.581;   -0.850;  -67.000; -110.000
378.711;  154.375; 1035.000;  866.000
378.841;  -12.725; -533.000; -675.000
378.972;  -63.825; -871.000; -751.000
379.102;   -2.125; -652.000; -579.000
379.232;  -15.875; -126.000;  -73.000
379.362;  -98.375;-1001.000; -885.000
379.492;   16.200; -373.000; -424.000
379.623;  110.175;    0.000;  111.000
379.753;  -88.825;-1107.000; -974.000
379.883;  196.500;   59.000;  156.000
380.013;   18.100;-1081.000;-1017.000
380.143;  -97.150;-1097.000;-1056.000
380.273; -110.350; -985.000; -861.000
380.403;   -5.600; -344.000; -257.000
380.533;  -39.975; -651.000; -664.000
380.663;   87.250;  173.000;  128.000
380.793;  -82.625;-1027.000;-1074.000
380.923;  -29.525; -103.000;  -34.000
381.053;  -96.200; -613.000; -623.000
381.183;  -31.100; -106.000; -248.000
381.313;   37.875; -656.000; -470.000
381.443;   24.075; -692.000; -473.000
381.573;  212.375; -402.000; -409.000
381.703;  291.725;-1249.000;-1095.000
381.833; -124.775;-1454.000;-1336.000
381.963;  106.100; -134.000;  -87.000
382.093; 1446.400; -925.000; -909.000
382.223;  452.600; -713.000; -602.000
382.353;  -17.075; -801.000; -608.000
382.482;  377.100;-1091.000; -964.000
382.612;  799.850; -872.000; -644.000
382.742;  445.900; -695.000; -622.000
382.872;  295.675; -565.000; -551.000
383.002;   71.725;  347.000; -132.000
383.131;  -20.250; -226.000; -160.000
383.261;  -42.350; -706.000; -768.000
383.391;  283.575; -552.000; -377.000
383.521; 3102.350;  451.000;  263.000
383.650;  751.625; -947.000; -904.000
383.780;  -38.400; -783.000; -656.000
383.910;  113.100;  880.000;  802.000
384.039;   36.725; -794.000; -656.000
384.169;  228.600;-1205.000;-1017.000
384.299;  -18.325; -650.000; -662.000
384.428;  -97.325; -764.000; -680.000
384.558;  -37.250; -308.000; -275.000
384.687;  -43.750; -414.000; -334.000
384.817;   10.275;   75.000;   -2.000
384.947;   24.875; -234.000; -141.000
385.076;  291.825;  982.000;  912.000
385.206;  104.025;  369.000;  480.000
385.335;  -34.450; -549.000; -417.000
385.465;  -67.250; -655.000; -663.000
385.594;  134.425;  -53.000;  -44.000
385.724;  456.775; -868.000; -838.000
385.853;  127.275; -296.000; -270.000
385.982; 1382.700; -743.000; -787.000
386.112; 2245.175;-1052.000; -871.000
386.241;  161.650; -307.000; -312.000
386.371;   27.300; -174.000;  -87.000
386.500;   -6.075; -825.000; -789.000
386.629;   20.675; -874.000; -817.000
386.759;   67.950;  -43.000;   68.000
386.888;    4.100; -170.000; -250.000
387.017;  -80.500; -648.000; -620.000
387.147;  -76.325; -771.000; -798.000
387.276;    5.700; -410.000; -397.000
387.405;   10.750; -398.000; -342.000
387.535;  -48.425; -452.000; -361.000
387.664;  -57.800; -692.000; -620.000
387.793;   66.075; -198.000; -113.000
387.922;  535.125;  255.000;  200.000
388.052;   26.550; -576.000; -423.000
388.181;    3.875; -342.000; -472.000
388.310;   -1.675; -889.000; -710.000
388.439;  -43.850; -749.000; -742.000
388.568;  190.075;  365.000;  244.000
388.697; 1122.525; -756.000; -653.000
388.826;  230.125; -768.000; -666.000
388.956;   56.200; -285.000; -307.000
389.085;  -32.975; -347.000; -287.000
389.214; -115.650; -842.000; -872.000
389.343;  -66.500; -645.000; -413.000
389.472;  398.475;  126.000;  149.000
389.601;  510.750;   91.000;    0.000
389.730;   10.725; -568.000; -687.000
389.859;   57.875;  226.000;   46.000
389.988;  188.525; -423.000; -408.000
390.117;  135.900; -168.000; -146.000
390.246;  -13.700; -331.000; -320.000
390.375;  104.900; -673.000; -626.000
390.504;  -50.400; -703.000; -621.000
390.633; -105.875; -672.000; -726.000
390.761;  -61.950; -732.000; -645.000
390.890;   23.400;   -4.000; -130.000
391.019;  -41.650; -421.000; -441.000
391.148; -134.600; -826.000; -855.000
391.277;  -71.100; -576.000; -493.000
391.406;  -74.650; -821.000; -805.000
391.534;   10.000;  574.000; -301.000
391.663;  -60.475; -583.000; -645.000
391.792;  -84.625; -673.000; -701.000
391.921;  102.200;   -3.000;   15.000
392.050;  196.775; -287.000; -228.000
392.178;  -34.400;-1206.000;-1061.000
392.307;  160.700; -758.000; -712.000
392.436;   84.700; -427.000; -641.000
392.564;    9.425;  166.000;   -6.000
392.693; -106.050; -860.000; -682.000
392.822;  214.525; -529.000; -534.000
392.950;  105.775; -880.000; -714.000
393.079;  354.375; -188.000; -328.000
393.208;   30.775; -488.000; -511.000
393.336;  -19.600; -170.000; -145.000
393.465;  -50.725; -317.000; -199.000
393.593;   -9.100;   62.000;   79.000
393.722; -162.550;-1121.000; -916.000
393.850;  -43.825; -188.000;  -61.000
393.979; -154.000; -926.000; -805.000
394.107;  -50.500; -517.000; -537.000
394.236;  -22.850; -570.000; -507.000
394.364;  197.350;  383.000;  206.000
394.493;  319.375; -911.000; -767.000
394.621;  -22.325; -955.000; -916.000
394.750;  693.750; -873.000; -923.000
394.878; 2859.800; -247.000; -149.000
395.007; 3858.675; -721.000; -807.000
395.135;  289.550; -790.000; -721.000
395.263; -101.875;-1038.000;-1040.000
395.392;   -1.525;  -25.000; -107.000
395.520; -137.400; -818.000; -679.000
395.648;  -89.875; -865.000; -915.000
395.777;  -18.400; -366.000; -405.000
395.905;  -50.075; -449.000; -564.000
396.033;   13.200;  217.000;  172.000
396.162;  519.625; -399.000; -453.000
396.290;  490.200;  -17.000;   -2.000
396.418;  104.775; -555.000; -514.000
396.546;  -67.600; -571.000; -466.000
396.674;  -99.400; -850.000; -878.000
396.803;   10.750;  -72.000;  -23.000
396.931;   90.600; -179.000; -199.000
397.059;   51.925;-1026.000; -989.000
397.187; -122.250;-1026.000; -975.000
397.315; -128.875; -884.000; -649.000
397.443; -115.325; -592.000; -443.000
397.572; -109.900; -578.000; -424.000
397.700;    3.375; -607.000; -614.000
397.828;   -3.700;  120.000;  -90.000
397.956;  -63.850; -508.000; -478.000
398.084;  -76.075; -767.000; -626.000
398.212;   28.500;  137.000;  124.000
398.340;   10.700;  -56.000;  159.000
398.468;   37.400; -390.000; -169.000
398.596; -133.375; -993.000; -953.000
398.724; -122.325; -762.000; -767.000
398.852; -172.175;-1024.000; -976.000
398.980;  -61.025; -560.000; -560.000
399.108;  -53.875; -982.000; -735.000
399.236;   47.075;   13.000;    8.000
399.363;   -4.825;  222.000;  196.000
399.491;  -76.950; -404.000; -398.000
399.619; -127.875; -829.000; -800.000
399.747;  -90.350; -859.000; -771.000
399.875;   95.375;  220.000;  234.000
400.003;  -61.800; -359.000; -284.000
400.130;  -91.975; -421.000; -341.000
400.258;  -38.200;  -83.000;   38.000
400.386;  -70.350; -352.000; -168.000
400.514;  -52.950; -526.000; -587.000
400.641;  -88.325; -928.000; -802.000
400.769; -148.850; -979.000; -888.000
400.897; -108.800; -838.000; -793.000
401.025;  -27.750; -166.000; -152.000
401.152;  -15.850;  220.000;   38.000
401.280;  -80.075; -430.000; -429.000
401.408; -124.475; -712.000; -576.000
401.535; -110.125; -735.000; -758.000
401.663; -198.075;-1134.000;-1054.000
401.790;  -83.500; -514.000; -525.000
401.918;   38.550;  436.000;  405.000
402.046;  -12.100;  134.000;  122.000
402.173;  -43.900;  -18.000;    7.000
402.301;  -85.675; -519.000; -397.000
402.428;   39.850;  528.000;  383.000
402.556; -141.975;-1188.000; -913.000
402.683;  -39.875;  -20.000;   -1.000
402.811;  -29.625;  -37.000; -206.000
402.938;   -0.525;   20.000;   27.000
403.066;  206.225; -574.000; -558.000
403.193;  351.800;  299.000;  239.000
403.321;  286.675; -396.000; -574.000
403.448;  335.825;   83.000;   27.000
403.575;  168.250;  -90.000;  -46.000
403.703;  -96.700; -732.000; -557.000
403.830;  -67.425; -531.000; -496.000
403.957; -148.850;-1117.000;-1023.000
404.085;   15.275;  -61.000; -172.000
404.212;   93.725;  -50.000;   63.000
404.339;  260.375; -566.000; -306.000
404.467; 5611.200; -612.000; -524.000
404.594; 3828.525; -287.000; -227.000
404.721;  916.125; -869.000; -764.000
404.848;   74.975; -113.000; -202.000
404.976; -107.850; -856.000; -783.000
405.103;  -10.325;  -14.000;  -82.000
405.230;  -14.900;  190.000;  226.000
405.357;   19.725;  117.000;   44.000
405.484;  251.150;  -49.000;    5.000
405.612;   39.725; -548.000; -563.000
405.739;  -67.950; -488.000; -243.000
405.866;   83.650;  669.000;  385.000
405.993;  -60.725; -398.000; -102.000
406.120; -135.150; -801.000; -887.000
406.247;  -59.800; -323.000; -342.000
406.374;  461.700;  540.000;  629.000
406.501;  120.525; -632.000; -702.000
406.628;  -85.200; -621.000; -589.000
406.755;  -95.950; -803.000; -620.000
406.882;  -50.475; -228.000; -277.000
407.009; -113.400; -719.000; -628.000
407.136;   42.675; -480.000; -401.000
407.263;  133.125; -939.000; -829.000
407.390;  -65.400; -692.000; -614.000
407.517; -189.200;-1139.000;-1187.000
407.644;  -61.175; -332.000; -256.000
407.771;  -65.175; -249.000; -287.000
407.898;    3.000;  168.000;  328.000
408.025;  -72.825; -421.000; -313.000
408.151;   -5.625;   82.000;  153.000
408.278;  -73.825; -267.000; -216.000
408.405; -122.275; -931.000; -899.000
408.532;  -77.725; -549.000; -542.000
408.659; -108.750; -677.000; -648.000
408.785; -201.700;-1298.000;-1170.000
408.912;  -64.300; -412.000; -296.000
409.039; -118.650; -610.000; -686.000
409.166; -109.175; -591.000; -555.000
409.292; -117.975; -571.000; -534.000
409.419; -122.800; -665.000; -649.000
409.546;  -92.300; -431.000; -192.000
409.672; -112.100; -713.000; -545.000
409.799;  -19.900;  -36.000;   34.000
409.926;  -46.475; -180.000; -179.000
410.052; -182.150;-1127.000;-1091.000
410.179;  -70.800; -368.000; -392.000
410.305;  -87.525; -375.000; -493.000
410.432;  -46.700; -220.000; -333.000
410.558;  -91.175; -305.000; -380.000
410.685; -107.600; -688.000; -431.000
410.812; -110.700; -409.000; -588.000
410.938; -142.550; -964.000; -808.000
411.065; -106.425; -671.000; -645.000
411.191;  -30.450; -189.000; -174.000
411.317; -127.500; -823.000; -742.000
411.444;  -71.575; -317.000; -246.000
411.570;  -67.625; -339.000; -294.000
411.697; -131.625; -758.000; -752.000
411.823; -185.000; -989.000; -999.000
411.949;  -38.375;  -56.000;   17.000
412.076; -126.125; -539.000; -519.000
412.202; -114.200; -758.000; -757.000
412.329; -134.525; -798.000; -752.000
412.455; -114.375; -821.000; -657.000
412.581;  -18.000;  -15.000;  172.000
412.707;  -72.475; -540.000; -457.000
412.834;   18.950;  156.000;  219.000
412.960;  -87.000; -785.000; -784.000
413.086; -115.300; -743.000; -701.000
413.212;  159.450;  604.000;  578.000
413.339;  -64.975; -685.000; -701.000
413.465;    1.775; -364.000; -310.000
413.591;  -85.100; -757.000; -474.000
413.717;  -63.025; -358.000; -366.000
413.843; -144.825; -839.000; -861.000
413.969;  -66.300;  -47.000; -292.000
414.096; -105.450; -679.000; -679.000
414.222;  -20.350;  -33.000;   85.000
414.348;  -33.775; -652.000; -385.000
414.474;   93.625;   38.000;  -52.000
414.600;  -25.025; -126.000; -144.000
414.726;  -13.600;  -96.000;  -55.000
414.852;  -68.200; -365.000; -342.000
414.978;   30.750;  104.000;  -18.000
415.104;   46.050;   38.000;   80.000
415.230;   12.950; -329.000; -330.000
415.356;   40.600; -409.000; -514.000
415.482;  196.250;   13.000;  -35.000
415.608;  256.375; -247.000; -323.000
415.734;  940.700;   67.000;   38.000
415.860;19594.675; -875.000; -767.000
415.986;14513.650; -685.000; -607.000
416.111; 1228.875; -798.000; -652.000
416.237;  234.475; -424.000; -571.000
416.363; 1096.900; -765.000; -733.000
416.489; 4087.400; -324.000; -251.000
416.615;  433.000; -707.000; -742.000
416.741;  -15.350; -677.000; -784.000
416.866;  -96.925; -673.000; -736.000
416.992; -130.775; -801.000; -818.000
417.118;  -43.925;  -41.000;  -80.000
417.244;  -61.375; -798.000; -531.000
417.369;  -88.175; -801.000; -612.000
417.495;  -19.375; -325.000; -254.000
417.621;  -92.375;-1015.000; -803.000
417.746;   -3.925; -579.000; -572.000
417.872;   49.850; -254.000; -144.000
417.998;   58.950; -515.000; -530.000
418.123; 1027.650;-1073.000; -845.000
418.249; 5330.950; -512.000; -601.000
418.374;  750.125; -916.000; -824.000
418.500;  114.200; -383.000; -482.000
418.626;   96.325;   70.000;  -59.000
418.751;  110.025; -549.000; -448.000
418.877;  200.375; -637.000; -643.000
419.002; 1744.450; -688.000; -560.000
419.128;12429.750; -930.000; -721.000
419.253; 3032.775; -967.000; -837.000
419.379;  412.475; -391.000; -338.000
419.504;  390.650;  325.000;  415.000
419.629;  505.475; -393.000; -212.000
419.755; 3426.925; -317.000; -254.000
419.880;20629.725;  -98.000;   67.000
420.006;11263.100; -280.000; -221.000
420.131;29027.850; -662.000; -775.000
420.256; 4221.950; -315.000; -316.000
420.382;  553.650; -665.000; -687.000
420.507;   69.600; -649.000; -778.000
420.632;  140.325; -337.000; -339.000
420.758;  270.575; -251.000; -425.000
420.883;  -81.525; -876.000; -672.000
421.008;  -95.100; -775.000; -619.000
421.133;  -78.075; -509.000; -467.000
421.259;  -45.050; -325.000; -259.000
421.384; -117.425; -834.000; -693.000
421.509;  -58.250;-1052.000; -862.000
421.634; 1232.225; -936.000; -820.000
421.759;  532.725; -359.000; -327.000
421.885;  -35.875; -717.000; -656.000
422.010;  -76.300; -673.000; -542.000
422.135; -155.775; -695.000; -727.000
422.260;   31.450;  340.000;  280.000
422.385;  -50.050;   12.000;  -98.000
422.510;  -15.650;  151.000;  -26.000
422.635;   11.875;  -87.000;  -43.000
422.760;   93.875; -766.000; -791.000
422.885;   58.075;  -57.000;  -80.000
423.010;  -37.775; -112.000; -169.000
423.135;  -99.500; -481.000; -561.000
423.260;  -14.200; -150.000; -245.000
423.385;   54.025;  476.000;  222.000
423.510;   29.975;   71.000;  -22.000
423.635;   92.425;  133.000;   45.000
423.760;   54.525;  383.000;  328.000
423.885;   51.800;  336.000;  391.000
424.010;   17.925;  -68.000;  -13.000
424.135;  -29.375;    5.000;  -33.000
424.259;  -91.075; -654.000; -457.000
424.384;  -59.325; -279.000; -272.000
424.509;  -26.550; -260.000; -186.000
424.634;  -94.025; -761.000; -623.000
424.759;  -12.275; -688.000; -544.000
424.883;   -8.050; -506.000; -527.000
425.008;  154.875; -502.000; -410.000
425.133; 1968.600; -679.000; -653.000
425.258;  924.825; -517.000; -381.000
425.382; 1035.425; -867.000; -774.000
425.507; 2725.175; -487.000; -543.000
425.632;  450.725; -802.000; -663.000
425.756;  444.800; -256.000; -146.000
425.881; 6333.525; -831.000; -857.000
426.006;17300.575; -604.000; -355.000
426.130; 2754.500; -696.000; -508.000
426.255;  340.725; -611.000; -491.000
426.379;  148.575; -189.000; -577.000
426.504;  366.900;  660.000;  544.000
426.629; 3973.775; -519.000; -466.000
426.753; 2788.050;   64.000;  -46.000
426.878;  314.150; -252.000; -288.000
427.002;  141.075; -651.000; -668.000
427.127; 1573.650;  -35.000; -158.000
427.251;11183.825;  372.000;  401.000
427.375; 3268.550; -191.000; -173.000
427.500; 2401.500; -616.000; -610.000
427.624;  801.550; -234.000; -400.000
427.749;  101.400; -216.000; -225.000
427.873;  -45.075; -499.000; -412.000
427.997;  -44.475; -222.000; -230.000
428.122;   78.450;  795.000;  703.000
428.246;   85.625;  433.000;  434.000
428.371; -115.400; -869.000; -773.000
428.495; -115.075; -624.000; -646.000
428.619;  -33.400; -186.000; -117.000
428.743;   23.450;   65.000;  132.000
428.868;   26.850; -732.000; -643.000
428.992; 1465.200; -219.000; -326.000
429.116;  632.050; -329.000; -357.000
429.240;  264.850;  419.000;  426.000
429.365;  -23.950; -454.000; -574.000
429.489;  -43.725; -638.000; -647.000
429.613;    9.800; -236.000; -177.000
429.737;   28.850; -563.000; -432.000
429.861;  251.200; -247.000; -133.000
429.985; 5465.325; -425.000; -305.000
430.109; 6100.725; -770.000; -908.000
430.234;  706.300;   76.000;  -50.000
430.358;   53.075; -250.000; -160.000
430.482;  -67.000; -672.000; -564.000
430.606;  -82.775; -655.000; -375.000
430.730;   11.675; -437.000; -388.000
430.854;  125.450; -909.000; -835.000
430.978;  -78.500; -795.000; -764.000
431.102; -102.125; -499.000; -422.000
431.226; -121.975; -874.000; -815.000
431.350;   28.875;  345.000;  422.000
431.474;  -64.750; -661.000; -373.000
431.597; -152.575;-1060.000; -848.000
431.721;  -87.850; -276.000; -267.000
431.845; -133.600; -704.000; -472.000
431.969;  -88.200; -304.000; -349.000
432.093;  -89.500; -395.000; -317.000
432.217;  -21.975;   32.000;   82.000
432.341;  -84.450; -523.000; -518.000
432.464;    3.700;   96.000;   40.000
432.588;  208.725; -401.000; -329.000
432.712;  110.725;  -52.000;  -52.000
432.836;   36.625;  213.000;  263.000
432.959;  -27.700; -372.000; -311.000
433.083;   69.900;   11.000;    2.000
433.207;  355.425;  285.000;  930.000
433.330; 4938.175; -391.000; -200.000
433.454; 6187.500; -654.000; -638.000
433.578; 3548.650;  583.000;  278.000
433.701;  656.225; -623.000; -675.000
433.825;  133.200; -292.000; -299.000
433.949;  176.625;   28.000;  -72.000
434.072;   63.875; -410.000; -323.000
434.196;  -15.825; -309.000; -117.000
434.319; 3710.550;25482.000;25124.000
434.443;  716.525; -656.000; -603.000
434.566; 2634.550;  281.000;   62.000
434.690;  444.475; -637.000; -383.000
434.813;   40.350; -251.000; -173.000
434.937;  -84.825; -569.000; -696.000
435.060;  -37.450; -423.000; -332.000
435.184;  314.750; -492.000; -217.000
435.307;  180.500;  159.000;  102.000
435.431;  -11.775;  -40.000;   24.000
435.554;  -82.625; -399.000; -240.000
435.677;  -88.725; -350.000; -258.000
435.801;  -47.025;  -25.000;   49.000
435.924;   -8.850;    1.000;  -67.000
436.048; -125.025;-1019.000; -732.000
436.171;  -73.200; -240.000;  -66.000
436.294;  -29.875; -248.000; -229.000
436.417;   86.700; -963.000; -849.000
436.541;  -90.750; -814.000; -840.000
436.664;  -48.325; -242.000; -316.000
436.787;  -31.850;   13.000;  113.000
436.910; -125.025; -792.000; -422.000
437.034;    6.925;  142.000;  143.000
437.157;   51.000;  -11.000;    0.000
437.280;  -67.675; -392.000; -292.000
437.403;  -87.075; -982.000; -869.000
437.526;  672.775; -903.000; -865.000
437.649; 2374.125; -505.000; -332.000
437.772;  362.025; -692.000; -540.000
437.896;  124.800;  700.000;  544.000
438.019; -102.275; -758.000; -503.000
438.142;  -87.375; -596.000; -506.000
438.265;  -18.725; -639.000; -670.000
438.388;  563.475; -520.000; -410.000
438.511;  112.150; -597.000; -394.000
438.634;  -59.825; -247.000; -125.000
438.757; -144.350; -693.000; -619.000
438.880;  -25.925;  -34.000;  -57.000
439.003;  -67.125; -417.000; -437.000
439.126;  -72.775; -287.000; -167.000
439.248;  -78.750;  -98.000; -139.000
439.371;  -49.950;    9.000;  -53.000
439.494;   15.450;  510.000;  439.000
439.617;  -62.575;   65.000;  -88.000
439.740; -178.100; -968.000; -816.000
439.863; -135.300; -755.000; -595.000
439.986; -126.950; -476.000; -431.000
440.108;  -45.450; -161.000; -112.000
440.231; -177.525; -950.000; -836.000
440.354;  -37.350;  -64.000; -150.000
440.477;   22.500; -566.000; -542.000
440.599;   -8.725; -200.000; -225.000
440.722; -115.100; -709.000; -586.000
440.845;   61.900;  751.000;  928.000
440.968; -112.875; -415.000; -311.000
441.090;  -71.700; -199.000;  -33.000
441.213; -178.975;-1021.000; -825.000
441.336;  -61.200; -159.000;   -5.000
441.458;  -88.825; -549.000; -396.000
441.581;  -86.625; -628.000; -629.000
441.703;  -76.200; -152.000;   13.000
441.826; -114.525; -557.000; -400.000
441.948;  -54.075;   56.000;   51.000
442.071;   29.675;  555.000;  424.000
442.193; -125.325; -531.000; -485.000
442.316;    5.825;  152.000;   97.000
442.438;   45.000; -233.000;  -10.000
442.561;   73.750;  272.000;  262.000
442.683;  552.225; -809.000; -522.000
442.806; 1264.550;   -8.000;   74.000
442.928;   41.825; -859.000; -604.000
443.051;  -72.050; -577.000; -373.000
443.173;  -95.350; -341.000; -339.000
443.295;  -97.700; -263.000; -371.000
443.418;  -79.300; -321.000;  -29.000
443.540;  -19.650; -106.000;   -4.000
443.662; -113.650; -563.000; -465.000
443.785;  -24.500;  335.000;  199.000
443.907;  -97.225; -362.000; -208.000
444.029; -148.025; -767.000; -494.000
444.152; -139.175; -644.000; -554.000
444.274;  -45.100;  -18.000;  -24.000
444.396; -108.100; -461.000; -221.000
444.518; -139.300; -691.000; -454.000
444.640; -102.100; -268.000; -111.000
444.763;  -27.325;  388.000;  249.000
444.885; -138.600; -432.000; -392.000
445.007;  -27.900;   35.000;   86.000
445.129; -111.525; -610.000; -515.000
445.251;  -95.625; -372.000; -439.000
445.373; -133.800; -537.000; -386.000
445.495;    9.000;  242.000;  350.000
445.617;   57.425;  853.000;  753.000
445.739;  -63.975; -215.000;  -97.000
445.861;  -40.450; -245.000; -112.000
445.984;  -38.925; -267.000; -101.000
446.105;  202.100; -418.000; -251.000
446.227;  652.950; -176.000;  -19.000
446.349;    1.600; -358.000; -249.000
446.471; -102.050; -615.000; -448.000
446.593;  -77.925; -316.000;   19.000
446.715;    6.875;  -67.000;   41.000
446.837;   52.425;  697.000;  832.000
446.959; -100.025; -457.000; -478.000
447.081; -144.975; -628.000; -518.000
447.203;   42.275;  862.000;  834.000
447.325;  -81.000; -270.000;   42.000
447.446;  -10.925;  286.000;  530.000
447.568; -147.600; -921.000; -803.000
447.690;  -81.050; -236.000; -245.000
447.812; -169.800; -798.000; -519.000
447.933;  -29.375;  155.000;  127.000
448.055;  -71.200; -306.000; -261.000
448.177;  139.675;   31.000;   79.000
448.299;   89.950; -935.000; -727.000
448.420;   28.525;  -25.000;  159.000
448.542;  -53.150;   -3.000;   33.000
448.664;  -34.100;  109.000;  322.000
448.785;  -48.625;  265.000;   83.000
448.907;  -83.900; -614.000; -353.000
449.028;  -29.175; -771.000; -471.000
449.150;   58.050;  492.000;  589.000
449.272; -178.375;-1044.000; -913.000
449.393;   22.325;  612.000;  694.000
449.515; -149.825; -634.000; -581.000
449.636;  -67.450; -264.000; -155.000
449.758;   80.850;  763.000;  622.000
449.879; -105.150; -498.000; -396.000
450.001;  -82.825; -149.000;  -49.000
450.122;  -40.600;  -95.000;  162.000
450.244;  -20.475;   37.000;  364.000
450.365; -106.050; -495.000; -301.000
450.486;  -45.375;   80.000;  268.000
450.608;    7.575;  393.000;  326.000
450.729;   76.450;  578.000;  645.000
450.850;    7.925; -574.000; -466.000
450.972;  714.125; -552.000; -389.000
451.093; 4769.725;  190.000;  588.000
451.214; 2106.675; -516.000; -337.000
451.336;  387.000;  773.000;  579.000
451.457;   45.900;  264.000;  393.000
451.578;  -49.500; -118.000;  -74.000
451.699; -119.875; -546.000; -540.000
451.821;  -59.825; -284.000;  -50.000
451.942;   -8.525;  278.000;  285.000
452.063;   24.600;  228.000;  419.000
452.184;  526.025;  -54.000;  -49.000
452.305; 1088.175;  103.000;  170.000
452.427;  126.275; -549.000; -301.000
452.548;  -22.825;   23.000;   79.000
452.669;  -54.975; -257.000;  -89.000
452.790;  -44.700;    3.000;  -18.000
452.911;  -29.675;  195.000;  259.000
453.032;  -76.325; -289.000;  -60.000
453.153;  -46.925;  -29.000;   81.000
453.274;   56.700;  737.000;  868.000
453.395;  -50.000;  -51.000;  175.000
453.516;    9.700; 1317.000; 1388.000
453.637;  -72.200; -205.000; -150.000
453.758;  -57.125;   15.000;   69.000
453.879; -125.900; -462.000; -250.000
454.000;   71.975; 1086.000;  948.000
454.121; -131.475; -554.000; -326.000
454.242; -131.375; -599.000; -383.000
454.362;  -54.625;  -99.000;  114.000
454.483;  -43.575; -309.000; -229.000
454.604;   38.275;  512.000;  580.000
454.725; -128.675; -627.000; -555.000
454.846; -137.250; -474.000; -406.000
454.967;  -34.900;  230.000;  539.000
455.087;  -50.725;  179.000;  153.000
455.208;   14.650;  554.000;  856.000
455.329;  -70.300;  -22.000;   82.000
455.450;   31.425;  473.000;  633.000
455.570; -106.400; -234.000; -211.000
455.691;  -44.500;  201.000;  407.000
455.812; -116.475; -270.000;  -92.000
455.932;  -62.925;  107.000;  -97.000
456.053;  -88.475;   36.000;   24.000
456.173; -112.475; -433.000; -355.000
456.294; -142.150; -476.000; -303.000
456.415;  -79.575;  -73.000;   70.000
456.535;  -32.550;  297.000;  273.000
456.656;  -54.975;  132.000;  240.000
456.776;  -70.850;    3.000;  298.000
456.897;  -18.575;  308.000;  513.000
457.017;  -80.100; -153.000;   -3.000
457.138; -110.050; -402.000; -249.000
457.258;  -34.050;  263.000;  224.000
457.379;  -20.900;  509.000;  521.000
457.499;  -37.725;  443.000;  432.000
457.620; -126.575; -407.000; -231.000
457.740;  -98.350; -132.000;  -11.000
457.860;  -68.300;   87.000;   44.000
457.981;  -54.800;  132.000;  124.000
458.101;  -68.600;  -89.000;   40.000
458.221;  -29.550;  336.000;  402.000
458.342;  -70.300;   -4.000;  -37.000
458.462;   17.300;  617.000;  352.000
458.582;  -46.325; -302.000; -294.000
458.703;    0.575;  303.000;  154.000
458.823;  -34.650;   22.000;  163.000
458.943;   21.875;  341.000;  467.000
459.063;  -44.250; 1124.000;  192.000
459.183;  -23.025;  328.000;  313.000
459.304;   -0.075;  315.000;  517.000
459.424;  -77.725; -246.000;  -89.000
459.544;  310.875;  388.000;  764.000
459.664;  830.175;  499.000;  506.000
459.784;  304.100; 1004.000; 1175.000
459.904;   52.975;  867.000;  744.000
460.024;   67.100;  867.000;  684.000
460.144;    9.225;  449.000;  554.000
460.264;  -13.775;  515.000;  327.000
460.385; -100.400; -145.000; -119.000
460.505;   32.425;  905.000;  858.000
460.625; -106.825;  -17.000;  -68.000
460.745;  -28.250;  396.000;  541.000
460.864;  -51.600;  153.000;  469.000
460.984;    7.150;  499.000;  573.000
461.104;  123.500; 1656.000; 1775.000
461.224;    9.875;  657.000;  650.000
461.344;  -34.275;  431.000;  360.000
461.464;  -42.100;  258.000;  513.000
461.584;  -14.400;  283.000;  466.000
461.704;  -62.075;   58.000;  108.000
461.824;  -59.325;  238.000;  259.000
461.943;  -36.000;  191.000;  130.000
462.063;  -77.425;    2.000;  324.000
462.183;   11.350;  639.000;  717.000
462.303;  111.250; 1678.000; 1230.000
462.422;   37.275;  781.000;  840.000
462.542;  -43.150;  271.000;  391.000
462.662;   32.675;  353.000;  380.000
462.782;  239.275;  833.000;  572.000
462.901;  479.700;  545.000;  717.000
463.021;  263.800; 1702.000; 1638.000
463.141;   -4.650;  337.000;  770.000
463.260;  -18.000;  614.000;  474.000
463.380;    9.400;  902.000;  884.000
463.499;  -48.725;  342.000;  332.000
463.619;  -30.875;  581.000;  559.000
463.738;   99.800; 1644.000;  903.000
463.858;   -0.325;  657.000;  811.000
463.978;  -44.175;  542.000;  396.000
464.097;   61.100;  921.000; 1114.000
464.217;  102.625; 1196.000; 1143.000
464.336;   98.450; 1068.000; 1130.000
464.455;  -46.875;  328.000;  659.000
464.575;   27.200;  597.000;  602.000
464.694;  170.650; 1204.000; 1179.000
464.814;  113.175; 1190.000; 1138.000
464.933;   66.700; 1095.000; 1027.000
465.052;   95.100; 1412.000; 1054.000
465.172;   88.200;  922.000;  799.000
465.291;  151.975; 1376.000; 1320.000
465.410;    4.750;  462.000;  735.000
465.530;   85.950; 1355.000; 1310.000
465.649;   69.625; 1209.000; 1273.000
465.768;  138.375; 1673.000; 1508.000
465.888;   43.050;  941.000; 1174.000
466.007;   89.900; 1335.000; 1440.000
466.126;   -4.475;  721.000;  641.000
466.245;   44.525; 1176.000; 1187.000
466.364;   21.450;  950.000; 1060.000
466.484;   62.900; 1024.000; 1213.000
466.603;   37.100; 1101.000; 1222.000
466.722;  109.500; 1490.000; 1769.000
466.841;   76.100; 1151.000; 1401.000
466.960;   33.175; 1069.000;  972.000
467.079;  128.175; 1971.000; 1786.000
467.198;   48.625; 1238.000; 1181.000
467.317;   85.550; 1768.000; 1162.000
467.436;   62.350; 1709.000; 1261.000
467.555;  138.450; 1796.000; 1746.000
467.674;   75.350; 1227.000; 1329.000
467.793;   36.725; 1376.000; 1374.000
467.912;   79.125; 1658.000; 1539.000
468.031;  124.200; 2038.000; 1930.000
468.150;  121.250; 1842.000; 1837.000
468.269;  189.250; 2313.000; 2090.000
468.388;  193.525; 2168.000; 2339.000
468.507;  236.250; 2884.000; 2903.000
468.626;  223.575; 2555.000; 2541.000
468.744;  131.300; 2018.000; 2174.000
468.863;  184.675; 2312.000; 2523.000
468.982;   86.500; 1503.000; 1555.000
469.101;  217.225; 2788.000; 2692.000
469.220;  148.175; 2333.000; 2176.000
469.338;  251.150; 2935.000; 3051.000
469.457;  219.500; 2719.000; 2545.000
469.576;  329.875; 3953.000; 3784.000
469.695;  222.825; 2877.000; 3066.000
469.813;  416.375; 4148.000; 4192.000
469.932;  401.125; 4255.000; 4485.000
470.051;  432.525; 4075.000; 4161.000
470.169;  836.275; 4470.000; 4338.000
470.288; 1460.200; 4700.000; 4809.000
470.406;  868.925; 5059.000; 5194.000
470.525;  622.275; 6101.000; 5787.000
470.644;  664.050; 6847.000; 6794.000
470.762;  803.175; 8397.000; 7873.000
470.881;  908.075; 8651.000; 8464.000
470.999; 1033.875; 9685.000; 9151.000
471.118; 1118.000;11174.000;10711.000

