
Integration time [ms]: 200.000
Averaging Nr. [scans]: 10
Smoothing Nr. [pixels]: 0
Data measured with spectrometer [name]: 2101012U2
Wave   ;Sample   ;Dark     ;Reference
[nm]   ;[counts] ;[counts] ;[counts] 

197.733;   74.600;  516.000;  404.000
197.879; -163.900; -610.000; -634.000
198.025; -116.400; -475.000; -420.000
198.171; -162.700; -602.000; -612.000
198.317;  -85.900; -401.000; -316.000
198.463; -122.200; -655.000; -404.000
198.609;   30.700;  181.000; -137.000
198.755; -148.300; -644.000; -410.000
198.901; -143.700; -505.000; -424.000
199.047; -162.200; -615.000; -488.000
199.193;  -92.700; -230.000; -468.000
199.339; -107.000; -222.000; -369.000
199.485;   76.600;  330.000;  271.000
199.631;   43.700;  227.000;  310.000
199.777;  -84.000; -466.000; -398.000
199.923; -150.800; -610.000; -424.000
200.069;   15.700; -141.000;  -58.000
200.215;  117.300;  128.000;  453.000
200.361;   94.500;  243.000;  477.000
200.507; -135.500; -600.000; -373.000
200.653;  -49.500; -371.000; -194.000
200.798;  -86.900; -215.000; -125.000
200.944;  -12.900; -146.000;  -41.000
201.090;   91.700;   61.000;  222.000
201.236;  -14.100; -116.000; -158.000
201.382;  278.100;  874.000;  903.000
201.528;  -26.400;  -58.000;  -48.000
201.674;  -85.400; -386.000; -293.000
201.819; -123.800; -540.000; -439.000
201.965; -186.200; -699.000; -447.000
202.111;  -69.500; -273.000; -226.000
202.257;  -52.700; -250.000; -238.000
202.402;    5.600;   13.000;  -36.000
202.548;  -77.900; -169.000; -116.000
202.694;  177.400;  410.000; -183.000
202.840; -146.600; -603.000; -531.000
202.985; -162.600; -681.000; -639.000
203.131; -225.200; -832.000; -666.000
203.277;  -72.600; -199.000; -262.000
203.423; -118.700; -434.000; -520.000
203.568;  -90.300; -462.000; -237.000
203.714; -124.600; -535.000; -542.000
203.860; -196.400; -682.000; -641.000
204.005;   69.400;  112.000;  167.000
204.151;  188.800;  561.000;  556.000
204.296;  -83.400; -354.000; -221.000
204.442; -145.200; -600.000; -547.000
204.588; -156.800; -592.000; -579.000
204.733;   34.300;  178.000;  168.000
204.879; -273.100;-1018.000; -822.000
205.025;   31.100;  -99.000;  126.000
205.170;  -16.800;  -17.000;   94.000
205.316;  144.500;  438.000;  661.000
205.461; -180.500; -698.000; -554.000
205.607;  159.600;  609.000;  665.000
205.752; -170.000; -626.000; -551.000
205.898; -108.900; -501.000; -391.000
206.043; -112.200; -578.000; -506.000
206.189;  -97.300; -243.000; -285.000
206.334;  156.200;  554.000;  606.000
206.480;  189.200;  409.000;  239.000
206.625; -159.100; -529.000; -552.000
206.771;  -89.700; -451.000; -373.000
206.916;  -62.800; -210.000; -537.000
207.062; -168.100; -545.000; -591.000
207.207; -151.900; -546.000; -443.000
207.353;  119.800;  185.000;  460.000
207.498;   65.000;  196.000;   85.000
207.643; -112.000; -501.000; -370.000
207.789; -279.600;-1069.000; -910.000
207.934; -194.100; -665.000; -713.000
208.080;  -16.300; -154.000;   66.000
208.225;   -6.500;  -22.000;  -57.000
208.370; -202.900; -727.000; -619.000
208.516; -153.200; -741.000; -487.000
208.661;  -58.200; -127.000;  -69.000
208.806;  -32.400; -165.000; -171.000
208.952; -266.900;-1044.000; -731.000
209.097;  160.800;  378.000;  349.000
209.242;  -92.800; -307.000; -382.000
209.387;  127.700;  392.000;  350.000
209.533; -129.500; -321.000; -350.000
209.678;  159.600;  472.000;  543.000
209.823; -147.200; -408.000; -310.000
209.969; -216.300; -860.000; -757.000
210.114; -243.800; -907.000; -719.000
210.259; -254.600; -939.000; -889.000
210.404;   -4.200; -171.000;  103.000
210.549;   16.200;  108.000;    3.000
210.695;  -39.900;   -3.000;  -95.000
210.840;  106.900;   94.000;   67.000
210.985; -117.400; -484.000; -303.000
211.130;  178.500;  268.000;  406.000
211.275;   41.300;  207.000;  199.000
211.420; -113.900; -300.000; -289.000
211.566; -130.200; -536.000; -489.000
211.711;   98.700;  218.000;  157.000
211.856; -141.500; -545.000; -519.000
212.001;   10.900;  151.000;   44.000
212.146;   20.300;  153.000;   49.000
212.291;  -43.800; -210.000; -186.000
212.436;  -39.400; -280.000;   -6.000
212.581; -170.800; -685.000; -653.000
212.726; -125.900; -487.000; -538.000
212.871; -104.200; -552.000; -217.000
213.016; -324.900;-1172.000;-1029.000
213.161;  120.400;  406.000;  291.000
213.306; -145.800; -435.000; -577.000
213.451; -206.000; -778.000; -689.000
213.596; -104.500; -455.000; -347.000
213.741; -121.200; -448.000; -538.000
213.886; -159.700; -498.000; -517.000
214.031;  -50.700; -294.000; -124.000
214.176; -139.200; -408.000; -341.000
214.321;  -63.800; -296.000; -157.000
214.466;  -33.600; -163.000;  -43.000
214.611;   10.300;  -61.000;  -10.000
214.756; -251.700; -948.000; -858.000
214.901;  -70.800; -388.000; -226.000
215.046; -264.000; -797.000; -825.000
215.191;   65.900;  128.000;   35.000
215.336;  -42.200; -157.000;  -19.000
215.480; -124.100; -684.000; -505.000
215.625;  -18.300; -175.000;  -19.000
215.770; -200.900; -757.000; -662.000
215.915;  -22.300;   -5.000;  -97.000
216.060;  -15.000; -113.000;  -21.000
216.205; -249.300; -731.000; -779.000
216.349; -164.700; -470.000; -533.000
216.494; -270.000; -939.000; -867.000
216.639; -259.100; -823.000; -888.000
216.784; -168.300; -577.000; -525.000
216.929;  110.000;  392.000;  281.000
217.073;  -32.900; -244.000;  -31.000
217.218;   13.000;   78.000;  -47.000
217.363; -177.400; -656.000; -618.000
217.507; -160.700; -623.000; -588.000
217.652; -231.500; -845.000; -874.000
217.797; -163.700; -708.000; -659.000
217.942; -248.500; -856.000; -720.000
218.086;  169.200;  608.000;  539.000
218.231;  -36.300; -174.000;  -26.000
218.376;  -76.800; -337.000; -229.000
218.520;   29.000;  -41.000;   96.000
218.665;  -60.500; -338.000; -204.000
218.810;  -75.800; -275.000; -233.000
218.954;   57.100;  201.000;   35.000
219.099; -232.000; -713.000; -963.000
219.243; -151.500; -589.000; -554.000
219.388;  -43.400; -264.000; -136.000
219.532;  -22.400; -116.000; -116.000
219.677; -187.000; -564.000; -521.000
219.822;    7.800;   33.000;   89.000
219.966;    1.400;   17.000;  -99.000
220.111;  -90.800; -328.000;  -40.000
220.255; -204.400; -797.000; -750.000
220.400;  -46.700; -180.000; -146.000
220.544; -139.000; -516.000; -450.000
220.689;  -94.600; -422.000; -451.000
220.833;  -45.300; -123.000;  -58.000
220.978; -103.900; -393.000; -563.000
221.122;   42.600;  319.000;  307.000
221.267; -256.900; -906.000; -837.000
221.411; -109.400; -478.000; -394.000
221.555;    4.700; -104.000;  -23.000
221.700;  -77.800; -329.000; -222.000
221.844;   95.200;  255.000;  272.000
221.989;  -85.600; -328.000; -311.000
222.133;  -58.100; -289.000; -307.000
222.277;   -5.500;    5.000;   78.000
222.422;   72.700;  227.000;  113.000
222.566;  -90.900; -381.000; -214.000
222.711; -119.200; -414.000; -479.000
222.855; -152.500; -643.000; -586.000
222.999; -185.800; -642.000; -717.000
223.144;  -44.400; -195.000; -194.000
223.288;  101.400;  423.000;  251.000
223.432;   27.400;  184.000;  230.000
223.576;   36.300;  152.000;  -21.000
223.721;   78.800;  364.000;  273.000
223.865; -124.400; -472.000; -475.000
224.009;  506.200; 1673.000; 1631.000
224.153; -176.500; -660.000; -671.000
224.298; -139.800; -531.000; -489.000
224.442;  -13.400;  -74.000;  -33.000
224.586;    8.300; -169.000; -106.000
224.730; -210.900; -858.000; -670.000
224.875; -211.100; -739.000; -688.000
225.019;   30.000;  102.000;  188.000
225.163;  112.700;  208.000;  341.000
225.307;   68.100;   97.000;  -91.000
225.451;  116.900;  360.000;  481.000
225.595;   58.500;  264.000;  176.000
225.739;  -20.600; -170.000;  -94.000
225.884;   38.700;   86.000;    5.000
226.028; -234.400; -760.000; -626.000
226.172;  -78.100; -260.000; -273.000
226.316; -239.400; -941.000; -902.000
226.460; -133.900; -645.000; -493.000
226.604;  -92.600; -406.000; -400.000
226.748; -209.700; -836.000; -733.000
226.892;  -48.600; -227.000; -181.000
227.036;  -82.400; -537.000; -447.000
227.180; -105.100; -551.000; -375.000
227.324; -137.100; -561.000; -580.000
227.468; -235.800; -819.000; -717.000
227.612;    9.600;  242.000;  -28.000
227.756; -203.800; -845.000; -698.000
227.900;  149.900;  342.000;  441.000
228.044; -148.300; -509.000; -290.000
228.188;  162.900;  448.000;  568.000
228.332; -181.200; -546.000; -472.000
228.476;  -41.600; -223.000; -149.000
228.620;  -52.500; -210.000; -150.000
228.764;  178.400;  431.000;  349.000
228.908;  -35.300; -155.000;   30.000
229.052; -126.000; -615.000; -528.000
229.195;   15.100; -172.000;   13.000
229.339;  -67.700; -235.000; -305.000
229.483;  -78.100;    5.000; -162.000
229.627;  -18.300; -156.000;  139.000
229.771;  -99.500; -218.000; -294.000
229.915;   36.700;  230.000;   79.000
230.059; -189.900; -648.000; -663.000
230.202;  -62.000; -370.000; -317.000
230.346;  -11.600; -107.000;  107.000
230.490; -132.100; -489.000; -521.000
230.634; -196.800; -736.000; -553.000
230.777;  177.900;  478.000;  509.000
230.921; -118.100; -450.000; -359.000
231.065; -100.100; -246.000; -286.000
231.209;   69.900;  261.000;  265.000
231.352;   33.300;   54.000;   40.000
231.496;   28.900;  568.000;  188.000
231.640; -169.300; -693.000; -621.000
231.783;  131.000;  546.000;  525.000
231.927;  -97.000; -294.000; -365.000
232.071; -254.900; -962.000; -736.000
232.214; -202.300; -980.000; -764.000
232.358; -181.700; -683.000; -599.000
232.502;   34.200;  -19.000;    7.000
232.645; -275.500;-1090.000; -927.000
232.789;  -40.000; -257.000; -218.000
232.933;  -86.800; -407.000; -224.000
233.076; -258.600;-1038.000; -897.000
233.220; -228.600; -752.000; -777.000
233.363; -137.300; -669.000; -477.000
233.507;  137.900;  371.000;  129.000
233.650; -187.200; -764.000; -834.000
233.794;  130.200;  438.000;  461.000
233.938; -104.900; -530.000; -362.000
234.081;  -30.000;  -93.000;   31.000
234.225; -126.500; -631.000; -539.000
234.368; -227.600; -773.000; -723.000
234.512; -104.800; -385.000; -299.000
234.655; -171.200; -582.000; -555.000
234.798; -127.000; -493.000; -466.000
234.942; -264.900; -884.000;-1002.000
235.085; -154.900; -651.000; -443.000
235.229; -150.400; -405.000; -410.000
235.372;  -58.100; -247.000; -191.000
235.516; -127.700; -397.000; -321.000
235.659;   53.700;   92.000;  121.000
235.802;    5.200;  -38.000;  -22.000
235.946;   45.500;  335.000;  215.000
236.089;   82.400;  126.000;  250.000
236.233;  128.100;  275.000;  298.000
236.376; -101.800; -235.000; -378.000
236.519;  -98.900; -297.000; -319.000
236.663;  -39.100; -215.000; -117.000
236.806; -286.800;-1029.000; -999.000
236.949;  112.900;  543.000;  431.000
237.092;  148.000;  412.000;  391.000
237.236; -198.000; -589.000; -502.000
237.379;  150.100;  352.000;  428.000
237.522; -249.500; -879.000; -768.000
237.666;   -3.800; -271.000;   18.000
237.809; -249.100; -851.000; -823.000
237.952;   98.400;  469.000;  271.000
238.095; -120.500; -447.000; -442.000
238.238;  197.500;  688.000;  700.000
238.382;   16.000;  166.000;  103.000
238.525; -145.400; -598.000; -511.000
238.668; -287.000;-1060.000; -985.000
238.811; -152.900; -638.000; -643.000
238.954; -128.500; -483.000; -334.000
239.097;  228.800;  617.000;  664.000
239.241;   66.700;  394.000;  326.000
239.384;  -86.700; -254.000; -214.000
239.527; -118.700; -424.000; -224.000
239.670; -296.300; -994.000;-1091.000
239.813; -205.400; -696.000; -658.000
239.956;  187.800;  579.000;  473.000
240.099; -221.000; -778.000; -725.000
240.242;  183.500;  428.000;  432.000
240.385;  114.200;  466.000;  450.000
240.528; -133.400; -706.000; -473.000
240.671;   58.900;  189.000;  134.000
240.814;  -98.800; -441.000; -158.000
240.957; -212.400; -767.000; -578.000
241.100; -193.100; -779.000; -755.000
241.243; -307.300;-1234.000; -893.000
241.386; -132.200; -508.000; -379.000
241.529; -193.200; -735.000; -547.000
241.672; -132.700; -566.000; -495.000
241.815; -260.300; -832.000; -808.000
241.958;  -26.900; -125.000; -182.000
242.101; -140.100; -545.000; -390.000
242.244;  -85.000; -270.000; -325.000
242.387;  -79.600; -304.000; -246.000
242.530;  135.800;  470.000;  134.000
242.673;  -90.100; -381.000; -309.000
242.815; -203.800; -925.000; -899.000
242.958; -120.100; -482.000; -381.000
243.101;   25.100;  132.000;  187.000
243.244; -180.900; -564.000; -521.000
243.387;  -87.700; -313.000; -316.000
243.530; -192.200; -657.000; -674.000
243.672;   28.000;   43.000;  -92.000
243.815;  -93.200; -355.000; -283.000
243.958;   26.600;   98.000;  -26.000
244.101;   43.000;   59.000;  -16.000
244.243;   -4.400;  -47.000;  101.000
244.386; -244.100; -761.000; -630.000
244.529;  -46.800; -132.000; -139.000
244.672; -312.700;-1154.000; -951.000
244.814; -211.200; -621.000; -794.000
244.957; -117.900; -380.000; -304.000
245.100; -139.100; -489.000; -489.000
245.242; -111.800; -387.000; -374.000
245.385;   41.700;  -59.000;  -39.000
245.528; -229.500; -871.000; -705.000
245.670;  210.700;  612.000;  634.000
245.813; -171.500; -599.000; -547.000
245.956;  -50.000; -324.000; -275.000
246.098; -132.700; -508.000; -650.000
246.241;   15.800;  194.000;   48.000
246.383;  -10.900; -119.000;  -73.000
246.526; -161.600; -454.000; -525.000
246.669; -233.500; -889.000; -780.000
246.811;   40.900;  172.000;   -1.000
246.954; -113.900; -512.000; -426.000
247.096;  -26.400;  -84.000;   -6.000
247.239; -143.400; -482.000; -445.000
247.381; -139.600; -647.000; -488.000
247.524;  185.500;  645.000;  679.000
247.666;   -8.000;   58.000;   11.000
247.809; -271.700; -887.000; -691.000
247.951;   -6.300;  -75.000;  138.000
248.094;   70.700;  432.000;  308.000
248.236; -318.800;-1262.000;-1238.000
248.378;  -92.800; -356.000;  -81.000
248.521;  -87.400; -334.000; -337.000
248.663;  -89.200; -236.000; -267.000
248.806;  -53.700; -300.000; -266.000
248.948; -231.000; -886.000; -763.000
249.090; -137.500; -428.000; -398.000
249.233; -118.200; -344.000; -381.000
249.375; -141.900; -474.000; -451.000
249.518;  -54.500;  -83.000; -133.000
249.660;   15.100; -103.000;    3.000
249.802; -385.500;-1303.000;-1189.000
249.945; -155.200; -612.000; -540.000
250.087; -199.300; -834.000; -768.000
250.229; -121.900; -362.000; -480.000
250.371; -164.100; -494.000; -439.000
250.514;  -94.900; -310.000; -244.000
250.656;   -8.700;   69.000;  102.000
250.798; -226.000; -849.000; -800.000
250.940; -147.700; -322.000; -322.000
251.083;  -61.800; -335.000; -111.000
251.225;  144.300;  338.000;  310.000
251.367; -112.900; -274.000; -373.000
251.509;  -50.900; -265.000; -210.000
251.651; -213.300; -731.000; -671.000
251.794;  101.800;  538.000;  632.000
251.936; -229.300; -821.000; -747.000
252.078; -168.200; -540.000; -461.000
252.220; -143.300; -645.000; -477.000
252.362;   38.700;  344.000;  462.000
252.504; -146.700; -677.000; -584.000
252.646; -252.400; -875.000; -722.000
252.788;  -22.900;   14.000; -128.000
252.931;  -99.600; -257.000; -253.000
253.073; -118.500; -376.000; -317.000
253.215;   -4.400;  141.000;  122.000
253.357;   -5.600;   82.000; -153.000
253.499; -104.500; -374.000; -234.000
253.641; -187.800; -749.000; -594.000
253.783; -184.400; -609.000; -527.000
253.925; -183.300; -586.000; -591.000
254.067; -223.800; -744.000; -667.000
254.209;  -88.500; -391.000; -259.000
254.351; -294.700; -865.000; -883.000
254.493; -121.800; -441.000; -417.000
254.635; -230.100; -936.000; -818.000
254.777; -200.800; -752.000; -687.000
254.918; -149.700; -512.000; -430.000
255.060; -129.800; -551.000; -395.000
255.202; -132.700; -473.000; -261.000
255.344; -146.900; -658.000; -455.000
255.486; -128.200; -471.000; -406.000
255.628; -206.900; -780.000; -781.000
255.770; -220.100; -676.000; -536.000
255.912; -138.200; -559.000; -468.000
256.053; -184.700; -730.000; -508.000
256.195;  333.900; 1008.000;  903.000
256.337; -187.700; -861.000; -595.000
256.479;  159.000;  532.000;  416.000
256.621;  -62.200; -394.000; -212.000
256.762; -193.800; -789.000; -742.000
256.904;  131.200;  485.000;  487.000
257.046;  -68.600; -381.000; -271.000
257.188;  -93.200; -351.000; -264.000
257.329; -134.100; -525.000; -464.000
257.471; -218.200; -939.000; -807.000
257.613; -146.400; -584.000; -498.000
257.755; -308.800;-1073.000; -982.000
257.896;  117.900;  286.000;  392.000
258.038; -150.300; -403.000; -352.000
258.180;  -58.500; -354.000; -279.000
258.321; -162.500; -581.000; -457.000
258.463;   -7.000;  -71.000;  133.000
258.605; -192.600; -562.000; -570.000
258.746; -195.600; -886.000; -772.000
258.888; -333.600;-1026.000;-1020.000
259.029;   61.400;  121.000;   -8.000
259.171; -148.600; -614.000; -550.000
259.313;   21.400;  -49.000;  -47.000
259.454; -155.300; -536.000; -414.000
259.596; -116.300; -483.000; -390.000
259.737; -140.700; -590.000; -474.000
259.879;  103.900;  217.000;  311.000
260.020;  190.200;  901.000;  636.000
260.162;  -62.000; -146.000; -253.000
260.303; -231.200; -768.000; -687.000
260.445; -167.300; -609.000; -613.000
260.586;   80.000;  392.000;  157.000
260.728; -104.800; -360.000; -248.000
260.869; -109.700; -350.000; -343.000
261.011;  161.700;  706.000;  537.000
261.152; -114.500; -479.000; -319.000
261.293; -161.300; -576.000; -595.000
261.435;  -64.600; -219.000; -184.000
261.576;  -70.900; -455.000; -325.000
261.718;  141.900;  420.000;  470.000
261.859; -270.700; -940.000; -949.000
262.000; -274.400; -951.000;-1016.000
262.142;  -24.800;  -52.000;  -60.000
262.283; -247.800; -808.000; -691.000
262.424; -181.400; -666.000; -625.000
262.566; -316.900;-1161.000; -983.000
262.707; -213.100; -840.000; -830.000
262.848; -220.500; -769.000; -726.000
262.990;  -90.200; -362.000; -345.000
263.131;  167.100;  650.000;  681.000
263.272;  -21.500;  -61.000;  -41.000
263.413; -208.900; -589.000; -561.000
263.555; -133.100; -669.000; -143.000
263.696; -182.600; -550.000; -641.000
263.837; -138.400; -449.000; -551.000
263.978;    8.200;   -5.000;  -77.000
264.119; -107.900; -283.000; -264.000
264.261; -256.300; -847.000; -630.000
264.402;    4.800;   33.000;   40.000
264.543; -173.900; -509.000; -524.000
264.684;   15.200;   61.000;  -50.000
264.825; -145.200; -816.000; -538.000
264.966;    5.700;  -84.000;  -67.000
265.107; -226.500; -646.000; -670.000
265.248; -221.900; -825.000; -812.000
265.390;    2.300;  152.000;   -9.000
265.531;  -40.200; -238.000; -107.000
265.672; -179.100; -557.000; -630.000
265.813;  151.900;  563.000;  439.000
265.954; -331.700; -959.000; -940.000
266.095;  -27.900; -372.000; -322.000
266.236; -219.000; -686.000; -548.000
266.377;  -67.200; -243.000; -297.000
266.518; -141.500; -619.000; -547.000
266.659;   59.800;  170.000;  268.000
266.800;    7.100;   83.000;   85.000
266.941; -148.500; -487.000; -478.000
267.082;   52.700;  354.000;   99.000
267.223; -100.900; -344.000; -273.000
267.364; -252.300; -892.000; -686.000
267.504;  -46.200;    3.000;  135.000
267.645;   -6.600;  160.000;   67.000
267.786;  -51.500; -147.000;  -86.000
267.927; -135.800; -473.000; -379.000
268.068;  -51.600; -186.000;  -61.000
268.209; -116.100; -175.000; -413.000
268.350; -125.100; -388.000; -532.000
268.490; -165.400; -648.000; -521.000
268.631;   75.500;  127.000;  225.000
268.772; -221.400; -874.000; -647.000
268.913;  -94.800; -328.000; -476.000
269.054;  -14.700; -117.000;   12.000
269.194;  -99.800; -418.000; -402.000
269.335; -318.100;-1137.000;-1074.000
269.476;  -18.100;   33.000;  -35.000
269.617; -110.800; -347.000; -392.000
269.757; -187.200; -713.000; -646.000
269.898; -205.700; -856.000; -613.000
270.039; -110.000; -415.000; -405.000
270.180; -246.700; -952.000; -816.000
270.320;  -61.800; -190.000; -250.000
270.461;  -61.000; -277.000; -249.000
270.602;  -27.500; -186.000; -156.000
270.742; -267.100; -868.000; -943.000
270.883; -100.000; -442.000; -390.000
271.023;  -94.600; -358.000; -357.000
271.164; -158.400; -607.000; -528.000
271.305; -217.200; -666.000; -654.000
271.445; -150.100; -722.000; -683.000
271.586; -168.600; -462.000; -283.000
271.726;  -86.400; -397.000; -322.000
271.867; -166.900; -594.000; -534.000
272.008;  -50.400; -473.000; -285.000
272.148;   89.800;  462.000;  468.000
272.289;  -26.800; -113.000; -181.000
272.429;    2.700;   19.000;  185.000
272.570; -216.000; -633.000; -737.000
272.710; -228.800; -825.000; -775.000
272.851;  -56.500;  113.000; -130.000
272.991; -341.000;-1173.000;-1077.000
273.131; -150.000; -419.000; -459.000
273.272; -221.100; -683.000; -723.000
273.412;  -16.500; -143.000;  -31.000
273.553; -159.800; -488.000; -507.000
273.693;  254.200;  913.000;  858.000
273.834; -299.100; -894.000; -692.000
273.974; -167.800; -664.000; -615.000
274.114; -215.300; -772.000; -560.000
274.255;  115.700;  414.000;  373.000
274.395;  -92.400; -180.000; -125.000
274.535;   25.300;  199.000;  350.000
274.676;   49.800;  225.000;   94.000
274.816;   22.800;  110.000;   34.000
274.956; -183.000; -624.000; -690.000
275.097; -282.000;-1014.000; -922.000
275.237; -281.000; -913.000; -803.000
275.377; -215.900; -778.000; -689.000
275.517; -313.700; -878.000; -937.000
275.658; -169.200; -590.000; -555.000
275.798; -204.400; -606.000; -413.000
275.938;   45.800;  215.000;  323.000
276.078; -143.800; -626.000; -395.000
276.218;   -3.400;   99.000;  104.000
276.359; -277.000;-1026.000;-1024.000
276.499; -192.300; -605.000; -446.000
276.639;  -67.800; -305.000; -151.000
276.779; -121.500; -475.000; -357.000
276.919; -241.600; -783.000; -624.000
277.059;  -58.600; -261.000; -212.000
277.199; -113.700; -357.000; -259.000
277.340;   74.400;  287.000;  175.000
277.480; -229.600; -840.000; -693.000
277.620;   58.400;  192.000;   16.000
277.760; -418.500;-1533.000;-1294.000
277.900;   -1.400;  113.000;   33.000
278.040;    2.500;  137.000;  159.000
278.180;   49.600;  270.000;  170.000
278.320;  -22.800;   21.000;   56.000
278.460; -144.100; -443.000; -469.000
278.600; -181.700; -708.000; -598.000
278.740;  118.200;  448.000;  224.000
278.880; -294.900; -768.000; -791.000
279.020;   -9.900; -194.000; -144.000
279.160; -159.400; -672.000; -595.000
279.300; -243.800; -926.000; -873.000
279.440; -200.200; -709.000; -622.000
279.579; -276.100;-1014.000; -929.000
279.719; -151.800; -410.000; -394.000
279.859;   57.300;   -4.000;   41.000
279.999;  -46.500; -208.000;  101.000
280.139; -117.600; -435.000; -387.000
280.279; -215.400; -708.000; -745.000
280.419;  -41.000; -229.000; -147.000
280.559; -115.600; -259.000; -180.000
280.698; -210.700; -790.000; -639.000
280.838; -213.900; -778.000; -800.000
280.978; -238.000; -846.000; -790.000
281.118; -243.900; -811.000; -704.000
281.257;   18.500;   24.000;    6.000
281.397; -328.200;-1094.000; -960.000
281.537; -203.200; -599.000; -712.000
281.677;  -35.900; -150.000; -101.000
281.816; -185.600; -700.000; -630.000
281.956;  -56.800; -193.000; -257.000
282.096; -147.000; -539.000; -396.000
282.235; -210.600; -672.000; -638.000
282.375;  -76.100; -243.000;  -98.000
282.515; -254.500; -715.000; -707.000
282.654;   29.900;   29.000;  106.000
282.794;   52.600;  388.000;  244.000
282.934; -126.700; -530.000; -491.000
283.073; -283.600;-1030.000; -857.000
283.213; -135.200; -460.000; -467.000
283.353;  -68.500; -408.000; -349.000
283.492;  -67.300; -264.000; -296.000
283.632;  -99.800; -254.000; -168.000
283.771; -213.300; -859.000; -730.000
283.911;  -95.500; -369.000; -260.000
284.050; -238.800; -794.000; -748.000
284.190; -334.200;-1229.000;-1096.000
284.329; -305.400;-1055.000; -964.000
284.469; -177.000; -516.000; -591.000
284.608; -136.300; -559.000; -598.000
284.748; -167.800; -614.000; -570.000
284.887;   -7.800;  -87.000;  -20.000
285.027; -266.200; -844.000; -892.000
285.166;  -76.700; -192.000; -249.000
285.306;  -47.600; -116.000;  -33.000
285.445;  -52.300; -229.000; -343.000
285.584; -177.700; -630.000; -494.000
285.724;  -80.700; -282.000; -322.000
285.863; -242.900; -857.000; -507.000
286.002;  -98.600; -366.000; -276.000
286.142; -207.900; -715.000; -622.000
286.281; -136.600; -525.000; -493.000
286.420; -156.400; -554.000; -417.000
286.560;  199.300;  653.000;  623.000
286.699; -304.200; -958.000; -912.000
286.838; -181.600; -590.000; -591.000
286.978; -166.400; -533.000; -537.000
287.117; -278.600;-1085.000; -950.000
287.256; -116.100; -228.000; -211.000
287.395;  -98.500; -197.000; -378.000
287.535;  -81.800; -370.000; -298.000
287.674; -180.900; -509.000; -484.000
287.813;  121.000;  661.000;  533.000
287.952; -279.000;-1010.000; -871.000
288.091; -321.900;-1049.000; -915.000
288.231;   10.100;   13.000;   15.000
288.370; -359.200;-1217.000;-1200.000
288.509; -180.900; -728.000; -645.000
288.648; -178.800; -770.000; -548.000
288.787;  -54.300; -243.000;  -87.000
288.926; -144.200; -454.000; -475.000
289.065;  249.100;  859.000;  672.000
289.204; -112.800; -377.000; -217.000
289.344; -199.300; -791.000; -690.000
289.483;   63.800;  416.000;  304.000
289.622;  -44.200; -291.000; -149.000
289.761;  -30.200; -309.000; -166.000
289.900; -224.200; -785.000; -626.000
290.039;  -37.900;  -12.000;  -95.000
290.178;  -96.200; -274.000; -180.000
290.317; -160.300; -618.000; -479.000
290.456; -137.100; -463.000; -451.000
290.595; -298.400; -961.000; -833.000
290.734; -274.000; -904.000; -891.000
290.873; -157.300; -456.000; -420.000
291.011; -248.400; -833.000; -843.000
291.150; -242.400; -770.000; -682.000
291.289;  -54.500; -343.000; -110.000
291.428; -208.400; -599.000; -480.000
291.567; -133.600; -370.000; -442.000
291.706;   31.100;  109.000;  154.000
291.845; -198.700; -597.000; -505.000
291.984; -360.500;-1234.000;-1061.000
292.122;  189.700;  602.000;  582.000
292.261;  109.100;  620.000;  463.000
292.400;   -2.900; -144.000;  211.000
292.539; -263.900; -959.000; -813.000
292.678;  -85.800; -325.000; -300.000
292.816; -339.300;-1136.000; -965.000
292.955; -212.800; -844.000; -684.000
293.094;  -85.900; -173.000; -337.000
293.233; -118.600; -556.000; -400.000
293.371;  -84.900; -225.000;  -84.000
293.510; -236.600; -866.000; -780.000
293.649; -300.000; -959.000; -924.000
293.787; -308.300;-1083.000;-1012.000
293.926;  -27.800; -113.000;  -32.000
294.065; -108.000; -379.000; -290.000
294.203;   69.000;  298.000;  406.000
294.342;    8.400;   74.000;  156.000
294.481;12460.400;51180.000; -836.000
294.619;  -49.000; -425.000; -582.000
294.758; -350.000;-1230.000;-1137.000
294.896;   -3.300; -125.000;    5.000
295.035; -337.700;-1040.000;-1006.000
295.174; -281.200;-1082.000; -954.000
295.312; -110.400; -323.000; -203.000
295.451; -107.800; -307.000; -428.000
295.589; -167.200; -389.000; -518.000
295.728;    8.100; -292.000; -165.000
295.866;  -30.200;  -36.000;  -51.000
296.005; -162.300; -584.000; -341.000
296.143; -161.300; -558.000; -596.000
296.282; -266.100; -957.000; -881.000
296.420; -201.500; -657.000; -557.000
296.559; -222.900; -892.000; -633.000
296.697; -246.800; -847.000; -665.000
296.835; -341.000;-1141.000;-1002.000
296.974;   11.000;  -23.000;   39.000
297.112; -136.600; -443.000; -504.000
297.251; -217.300; -815.000; -755.000
297.389; -159.600; -576.000; -438.000
297.527;  -20.000; -145.000;  -83.000
297.666; -144.000; -486.000; -438.000
297.804;  -99.600; -404.000; -264.000
297.942;   -0.100; -136.000; -161.000
298.081;  -44.900; -183.000;   63.000
298.219;   -9.000;  -17.000;  -19.000
298.357;  -62.500; -144.000;  -71.000
298.495; -268.100; -810.000; -812.000
298.634;   18.600;  245.000;  219.000
298.772;  -81.900; -220.000; -338.000
298.910; -140.000; -309.000; -182.000
299.048;  -19.100; -130.000; -153.000
299.187;  -75.200; -350.000; -250.000
299.325;   15.100;   52.000;  122.000
299.463; -132.400; -389.000; -299.000
299.601;  -94.000; -327.000; -271.000
299.739; -287.100; -908.000; -883.000
299.877; -194.300; -791.000; -703.000
300.016; -294.300;-1095.000; -935.000
300.154;   -6.000;  -19.000; -161.000
300.292; -138.300; -428.000; -348.000
300.430;  -84.200; -408.000; -291.000
300.568; -279.200; -940.000; -874.000
300.706; -137.500; -366.000; -469.000
300.844; -340.800;-1108.000; -979.000
300.982;  116.100;  246.000;  282.000
301.120; -293.100; -965.000; -866.000
301.258; -205.200; -812.000; -705.000
301.396;  -15.800;  104.000;  -41.000
301.534;  -83.200; -218.000; -293.000
301.672; -197.600; -664.000; -521.000
301.810; -169.800; -613.000; -545.000
301.948;   21.700;   53.000;  149.000
302.086;  -45.900; -250.000;  -32.000
302.224; -212.700; -610.000; -585.000
302.362; -186.900; -558.000; -622.000
302.500; -245.500; -923.000; -893.000
302.638;   52.000;  128.000;  245.000
302.776;  -66.200; -352.000; -408.000
302.913;  109.100;  447.000;  236.000
303.051;  -87.300;  -86.000;  -23.000
303.189;   26.700;   90.000;  118.000
303.327;  -93.200; -341.000; -256.000
303.465; -199.300; -832.000; -588.000
303.603; -227.200; -805.000; -604.000
303.740;  106.800;  417.000;  241.000
303.878; -253.400; -800.000; -759.000
304.016; -215.900; -915.000; -790.000
304.154; -372.400;-1123.000;-1152.000
304.291; -129.600; -505.000; -554.000
304.429;   -0.900;  102.000;   74.000
304.567; -272.700; -908.000; -893.000
304.705; -143.400; -408.000; -515.000
304.842; -205.600; -616.000; -540.000
304.980;   22.300;  215.000;   35.000
305.118;  -95.100; -367.000; -365.000
305.255; -276.500; -945.000; -927.000
305.393;   66.000;  178.000;  239.000
305.531; -322.400;-1173.000; -956.000
305.668; -163.700; -663.000; -582.000
305.806; -173.900; -358.000; -439.000
305.943; -182.200; -629.000; -637.000
306.081;  -84.900; -378.000; -267.000
306.219; -227.300; -863.000; -748.000
306.356;  -10.900;  158.000;   27.000
306.494;  213.800;  981.000;  761.000
306.631;  -26.300;  -11.000;  -55.000
306.769; -142.600; -613.000; -485.000
306.906; -156.900; -284.000; -258.000
307.044; -166.700; -473.000; -488.000
307.181; -142.600; -410.000; -332.000
307.319;   57.400;  112.000;   87.000
307.456; -379.800;-1191.000;-1153.000
307.594; -236.900; -980.000; -727.000
307.731;  -79.400; -371.000; -164.000
307.868;   -1.900;  -15.000;   20.000
308.006; -310.800; -961.000; -847.000
308.143; -193.700; -618.000; -330.000
308.281;  -65.900;  -37.000; -254.000
308.418; -210.900; -748.000; -640.000
308.555; -192.500; -400.000; -250.000
308.693; -189.600; -577.000; -573.000
308.830; -259.100; -712.000; -657.000
308.967;  -25.000; -215.000;  -95.000
309.105; -123.600; -507.000; -396.000
309.242; -150.800; -468.000; -367.000
309.379; -187.300; -577.000; -655.000
309.517; -259.900; -936.000; -948.000
309.654; -252.200; -910.000; -734.000
309.791; -159.500; -662.000; -580.000
309.928; -280.700; -977.000; -914.000
310.065;  200.800;  819.000;  697.000
310.203; -283.800; -825.000; -850.000
310.340; -138.300; -465.000; -321.000
310.477; -182.900; -412.000; -516.000
310.614; -150.100; -383.000; -473.000
310.751; -174.400; -427.000; -518.000
310.889;  -50.700;    1.000;   11.000
311.026; -314.300;-1161.000; -939.000
311.163; -120.700; -386.000; -380.000
311.300; -179.400; -512.000; -479.000
311.437; -167.100; -658.000; -619.000
311.574; -360.800;-1226.000; -985.000
311.711; -147.700; -595.000; -433.000
311.848; -130.000; -380.000; -388.000
311.985;   26.500;  270.000;   93.000
312.122; -271.600; -932.000; -762.000
312.259; -267.900; -941.000; -994.000
312.396; -175.700; -508.000; -551.000
312.533; -230.700; -812.000; -790.000
312.670; -304.200;-1070.000; -898.000
312.807; -127.800; -352.000; -367.000
312.944; -218.000; -513.000; -611.000
313.081; -106.000; -150.000; -415.000
313.218; -274.300;-1111.000; -867.000
313.355; -113.000; -531.000; -449.000
313.492; -130.300; -455.000; -292.000
313.629;  180.900;  815.000;  735.000
313.766; -391.300;-1176.000;-1008.000
313.902;  -15.400; -186.000;   21.000
314.039; -109.000; -372.000; -289.000
314.176;   42.100;  286.000;  192.000
314.313; -160.500; -569.000; -473.000
314.450; -208.200; -788.000; -684.000
314.587; -195.500; -468.000; -480.000
314.723;    9.100;  -78.000;  130.000
314.860;   23.500;  318.000;  332.000
314.997;   24.900;  223.000;  142.000
315.134; -158.900; -385.000; -368.000
315.270; -139.300; -480.000; -496.000
315.407; -324.000;-1094.000; -967.000
315.544; -193.700; -657.000; -538.000
315.681; -210.300; -681.000; -565.000
315.817;  -64.700; -133.000; -176.000
315.954; -186.500; -613.000; -392.000
316.091; -341.600;-1045.000;-1023.000
316.227;  -80.100;  -71.000; -179.000
316.364;   10.800;   23.000;    6.000
316.500;  -90.900; -113.000; -300.000
316.637;  -94.800; -181.000; -302.000
316.774; -175.100; -625.000; -358.000
316.910; -195.500; -598.000; -629.000
317.047; -197.500; -487.000; -351.000
317.183; -161.000; -435.000; -566.000
317.320; -145.700; -367.000; -321.000
317.456; -249.200; -733.000; -805.000
317.593; -196.600; -598.000; -641.000
317.729;   -7.200;  168.000;  -67.000
317.866; -433.900;-1434.000;-1285.000
318.002; -202.800; -708.000; -948.000
318.139; -271.600; -883.000; -867.000
318.275; -234.600;-1003.000; -738.000
318.412; -127.100; -517.000; -336.000
318.548; -213.600; -751.000; -720.000
318.685; -286.800; -985.000; -888.000
318.821; -236.500; -762.000; -735.000
318.957;  -47.800;   34.000;  -23.000
319.094;   99.500;  297.000;  154.000
319.230; -245.400; -756.000; -742.000
319.367; -161.700; -471.000; -520.000
319.503; -136.900; -538.000; -436.000
319.639; -245.700; -877.000; -793.000
319.775; -227.900; -750.000; -685.000
319.912; -126.800; -424.000; -519.000
320.048; -353.500;-1184.000;-1184.000
320.184;    9.100;   59.000;   70.000
320.321; -163.000; -497.000; -467.000
320.457;  102.700;  475.000;  662.000
320.593; -158.200; -375.000; -382.000
320.729; -241.700; -732.000; -734.000
320.866; -186.500; -577.000; -635.000
321.002; -225.000; -759.000; -809.000
321.138; -111.000; -135.000; -211.000
321.274;  -26.700; -148.000; -115.000
321.410; -166.900; -585.000; -353.000
321.546; -289.600;-1011.000; -911.000
321.683;   73.800;  400.000;  185.000
321.819;  -38.000;  -48.000; -117.000
321.955; -238.000; -743.000; -722.000
322.091; -177.900; -585.000; -540.000
322.227;  -76.700; -382.000; -202.000
322.363; -118.500; -320.000; -215.000
322.499;  -94.600; -343.000; -331.000
322.635;  152.100;  636.000;  443.000
322.771;  -41.000; -139.000;   12.000
322.907;  100.500;  129.000;  327.000
323.043;  -80.600; -115.000; -206.000
323.179; -127.800; -394.000; -363.000
323.315; -135.400; -401.000; -371.000
323.451;  -80.400; -328.000; -236.000
323.587;  -67.100;  -60.000;  -77.000
323.723; -198.100; -682.000; -601.000
323.859;  -58.600; -258.000;  -76.000
323.995; -161.200; -467.000; -409.000
324.131; -288.700; -967.000; -892.000
324.267;  -57.800; -254.000; -276.000
324.402; -293.700; -960.000; -983.000
324.538;  -84.400; -279.000; -104.000
324.674;  -17.900;  164.000;   77.000
324.810;    9.700;  226.000;  308.000
324.946; -148.200; -810.000; -658.000
325.082; -175.100; -568.000; -475.000
325.217;  -53.100;  -62.000;   16.000
325.353; -225.300; -764.000; -659.000
325.489; -173.100; -540.000; -506.000
325.625; -142.200; -579.000; -525.000
325.760;   66.300;  517.000;  376.000
325.896; -150.700; -515.000; -702.000
326.032; -129.900; -403.000; -352.000
326.168; -156.600; -462.000; -369.000
326.303; -147.500; -352.000; -461.000
326.439;  -68.800; -336.000; -276.000
326.575;  -51.100; -190.000;  -29.000
326.710;  -16.500; -156.000;  -30.000
326.846;  -36.800;  146.000;  103.000
326.982; -200.300; -530.000; -548.000
327.117; -190.200; -481.000; -442.000
327.253; -209.800; -745.000; -742.000
327.388; -354.700;-1137.000;-1153.000
327.524; -220.500; -811.000; -578.000
327.659;  -66.700;  -58.000;  -22.000
327.795;   -2.600;   69.000;   45.000
327.931; -208.000; -723.000; -499.000
328.066;  -86.200; -417.000; -276.000
328.202;  -27.600;   12.000; -129.000
328.337;  215.700;  957.000;  713.000
328.473;  -48.400;  -12.000;  -74.000
328.608;  -59.100; -256.000; -267.000
328.743; -234.400; -799.000; -664.000
328.879;   30.800;  214.000;  114.000
329.014;  -93.500; -102.000; -122.000
329.150; -179.500; -358.000; -483.000
329.285; -154.800; -465.000; -466.000
329.421;  -99.700; -548.000; -246.000
329.556;  -38.900;  -36.000;   85.000
329.691; -179.800; -633.000; -615.000
329.827; -169.200; -626.000; -480.000
329.962;  -89.200;  131.000; -301.000
330.097; -207.300; -673.000; -585.000
330.233;  -89.400; -410.000; -223.000
330.368; -272.000; -839.000; -628.000
330.503;   -2.700;    3.000;   98.000
330.638;  -24.700;  -93.000; -125.000
330.774; -207.900; -609.000; -530.000
330.909;  -92.100; -434.000; -244.000
331.044; -153.700; -714.000; -708.000
331.179; -368.800;-1217.000;-1109.000
331.315;   65.300;   77.000;   20.000
331.450;   -6.400;  157.000;  285.000
331.585; -212.500; -805.000; -706.000
331.720; -182.500; -510.000; -460.000
331.855;  -28.200;  -35.000; -102.000
331.990;  -19.800;   62.000;  138.000
332.126;   18.300; -110.000;   71.000
332.261; -137.400; -379.000; -265.000
332.396;  -90.800; -135.000; -242.000
332.531; -310.000;-1074.000;-1031.000
332.666; -136.400; -519.000; -363.000
332.801; -268.500; -726.000; -807.000
332.936;  -45.500; -192.000; -122.000
333.071; -289.300; -870.000; -817.000
333.206;   42.000;  307.000;  379.000
333.341;   45.400;  344.000;  418.000
333.476; -181.200; -627.000; -623.000
333.611; -102.900; -251.000; -173.000
333.746;  -97.700; -381.000; -464.000
333.881; -246.600; -973.000; -935.000
334.016; -285.600; -936.000; -917.000
334.151; -282.500; -746.000; -702.000
334.286;    2.000;  152.000;  186.000
334.421;  -41.500; -125.000; -178.000
334.556; -192.300; -611.000; -567.000
334.690; -186.200; -631.000; -577.000
334.825;   92.400;  381.000;   83.000
334.960; -172.300; -285.000; -413.000
335.095;  -31.600;  135.000;  -91.000
335.230; -234.200; -722.000; -738.000
335.365; -310.200;-1084.000; -990.000
335.499; -343.300;-1108.000;-1037.000
335.634;    0.400;    9.000;  534.000
335.769; -254.500; -755.000; -720.000
335.904; -189.300; -603.000; -561.000
336.038; -232.100; -735.000; -657.000
336.173; -345.300;-1206.000;-1194.000
336.308;  -90.100; -116.000; -189.000
336.443; -143.700; -544.000; -634.000
336.577; -295.500; -936.000; -787.000
336.712;   15.300;   -4.000;  -12.000
336.847; -247.200; -724.000; -607.000
336.981; -131.700; -272.000; -208.000
337.116;  119.000;  615.000;  501.000
337.250; -170.000; -434.000; -421.000
337.385; -115.300; -297.000; -208.000
337.520; -206.800; -632.000; -603.000
337.654; -136.600; -215.000; -126.000
337.789; -284.300; -989.000; -933.000
337.923;  -85.000; -104.000; -205.000
338.058; -211.800; -673.000; -738.000
338.192; -189.800; -611.000; -488.000
338.327;  -59.100;  -18.000; -155.000
338.461; -193.900; -299.000; -469.000
338.596; -200.600; -780.000; -638.000
338.730; -231.900; -767.000; -803.000
338.865;  -35.000;  -46.000; -140.000
338.999; -298.900; -846.000; -702.000
339.134; -181.200; -634.000; -536.000
339.268; -208.200; -741.000; -603.000
339.403; -270.200; -740.000; -775.000
339.537; -264.600; -894.000; -820.000
339.671; -273.000; -829.000; -813.000
339.806; -195.900; -556.000; -512.000
339.940;  -60.200; -261.000; -235.000
340.074; -212.500; -685.000; -510.000
340.209;  -84.600; -351.000; -230.000
340.343; -218.000; -517.000; -573.000
340.477;  276.000;  998.000; 1036.000
340.612; -280.600;-1033.000; -900.000
340.746; -125.800; -199.000; -243.000
340.880; -302.400; -924.000; -785.000
341.014;  -61.400;  -45.000; -154.000
341.149; -260.300; -756.000; -718.000
341.283; -254.900; -839.000; -754.000
341.417; -308.100;-1124.000; -938.000
341.551; -219.200; -768.000; -708.000
341.685; -188.000; -633.000; -611.000
341.820; -185.900; -562.000; -493.000
341.954; -151.700; -218.000; -349.000
342.088; -308.700;-1102.000;-1019.000
342.222;   88.400;  565.000;  618.000
342.356; -144.700; -395.000; -335.000
342.490; -255.800; -880.000; -841.000
342.624; -118.400; -339.000; -242.000
342.758; -141.300; -364.000; -312.000
342.892; -194.400; -710.000; -585.000
343.026;  -56.700;  -58.000; -116.000
343.160; -109.100; -426.000; -376.000
343.294; -162.000; -474.000; -337.000
343.428; -173.700; -488.000; -448.000
343.562;  -34.600; -172.000;  -23.000
343.696; -104.800; -385.000; -314.000
343.830; -130.200; -362.000; -356.000
343.964;  -50.200; -231.000; -168.000
344.098;  -34.100;  199.000;   70.000
344.232;  -64.100; -266.000; -127.000
344.366; -208.500; -567.000; -453.000
344.500; -210.300; -665.000; -744.000
344.634;  -81.300; -324.000; -164.000
344.768; -157.000; -531.000; -341.000
344.902;   21.100;  278.000;  256.000
345.035; -179.100; -556.000; -496.000
345.169; -286.900; -933.000; -656.000
345.303; -118.600; -308.000; -482.000
345.437; -276.300; -826.000; -717.000
345.571; -232.600; -675.000; -594.000
345.704; -137.400; -309.000; -532.000
345.838;  -89.200; -331.000; -284.000
345.972; -196.700; -543.000; -495.000
346.106;   -2.000; -179.000; -190.000
346.239;  -81.000; -312.000; -243.000
346.373; -128.000; -343.000; -302.000
346.507; -316.700; -950.000; -962.000
346.640;  -38.000;  -30.000;   13.000
346.774; -250.500; -650.000; -797.000
346.908;  -22.200; -138.000;  -11.000
347.041; -221.500; -646.000; -593.000
347.175;   18.700;  259.000;   27.000
347.309; -209.100; -698.000; -628.000
347.442; -261.400; -883.000; -732.000
347.576;  145.600;  670.000;  668.000
347.709;  -21.300; -123.000;  -52.000
347.843; -287.000; -933.000; -825.000
347.976;   78.400;  235.000;  294.000
348.110; -372.900;-1268.000;-1186.000
348.243; -206.900; -679.000; -772.000
348.377;   -1.600;  -26.000;   60.000
348.510;  118.100;  403.000;  540.000
348.644;  -91.600;  -37.000; -159.000
348.777;   -1.700;  180.000;  191.000
348.911;  -54.100; -142.000; -112.000
349.044;   88.800;  471.000;  448.000
349.178; -334.800;-1069.000;-1006.000
349.311;   61.300;  141.000;  255.000
349.444; -261.700; -927.000; -813.000
349.578;  -84.800; -347.000; -200.000
349.711; -290.900; -959.000; -862.000
349.845; -195.100; -661.000; -591.000
349.978; -346.500;-1224.000;-1137.000
350.111; -188.800; -546.000; -612.000
350.244; -218.100; -596.000; -700.000
350.378; -131.900; -392.000; -393.000
350.511; -160.300; -393.000; -426.000
350.644; -233.200; -808.000; -806.000
350.778;   -7.000;  168.000;  104.000
350.911;   -2.000;  134.000;  140.000
351.044; -197.800; -685.000; -615.000
351.177;  -82.100; -321.000; -281.000
351.310;  -60.800;    3.000; -131.000
351.444; -252.600; -888.000; -788.000
351.577;   -6.700;  140.000;   90.000
351.710;  175.300;  593.000;  417.000
351.843;  -47.800; -165.000;  -77.000
351.976;  -23.000;  149.000;  -79.000
352.109; -223.900; -621.000; -612.000
352.242; -139.200; -464.000; -419.000
352.376; -189.300; -580.000; -636.000
352.509; -146.400; -437.000; -356.000
352.642; -346.600; -654.000; -604.000
352.775;  -66.600; -141.000;  -98.000
352.908; -308.100; -933.000; -904.000
353.041; -240.300; -814.000; -824.000
353.174; -144.800; -551.000; -424.000
353.307; -221.600; -753.000; -764.000
353.440;  112.100;  541.000;  453.000
353.573; -293.100; -957.000;-1008.000
353.706; -199.500; -384.000; -558.000
353.839;  -85.700; -264.000; -220.000
353.971; -204.000; -657.000; -512.000
354.104; -261.300; -896.000; -835.000
354.237; -232.400; -627.000; -662.000
354.370; -244.200; -846.000; -879.000
354.503; -413.000;-1231.000;-1308.000
354.636; -145.500; -529.000; -348.000
354.769; -306.400; -937.000; -860.000
354.902;  -42.100; -230.000; -139.000
355.034;  -94.000; -164.000; -220.000
355.167;  -82.200; -262.000; -162.000
355.300; -299.700;-1061.000; -880.000
355.433;    1.100;  -71.000;  -14.000
355.565; -132.200; -402.000; -384.000
355.698; -116.700; -356.000; -296.000
355.831; -291.500; -882.000; -801.000
355.964;  -49.300; -285.000; -170.000
356.096; -268.000; -856.000; -843.000
356.229; -166.900; -523.000; -530.000
356.362; -116.200; -373.000; -266.000
356.494; -100.900; -229.000; -162.000
356.627;   26.900;  269.000;  377.000
356.760;   -4.200;  120.000;   53.000
356.892; -230.100; -286.000; -601.000
357.025;  111.800;  403.000;  389.000
357.157;  -85.300; -167.000; -179.000
357.290; -247.400; -856.000; -713.000
357.423; -193.100; -667.000; -556.000
357.555;  -63.900; -217.000; -228.000
357.688; -142.400; -483.000; -364.000
357.820; -260.700; -870.000; -877.000
357.953; -192.900; -563.000; -589.000
358.085; -225.200; -632.000; -612.000
358.218; -330.400;-1131.000; -932.000
358.350;  -24.100;  -58.000;  312.000
358.483; -353.600;-1300.000;-1187.000
358.615; -329.600;-1182.000;-1078.000
358.747; -374.200;-1187.000;-1058.000
358.880; -223.700; -810.000; -744.000
359.012; -142.300; -376.000; -202.000
359.145; -161.000; -480.000; -511.000
359.277; -312.100; -962.000; -913.000
359.409;  109.500;  536.000;  231.000
359.542; -233.400; -738.000; -688.000
359.674;  -18.000;   46.000;   13.000
359.806; -165.600; -565.000; -438.000
359.939; -169.700; -617.000; -516.000
360.071; -209.900; -583.000; -579.000
360.203; -121.100; -411.000; -364.000
360.335;  -13.900;  164.000;  -16.000
360.468;  -69.800; -249.000; -307.000
360.600; -192.000; -547.000; -454.000
360.732; -198.200; -546.000; -423.000
360.864; -382.200;-1216.000;-1044.000
360.996; -132.600; -516.000; -554.000
361.129; -167.700; -389.000; -598.000
361.261;  -36.600;  110.000; -113.000
361.393;  -95.600; -252.000; -214.000
361.525;    6.200;   94.000;  244.000
361.657; -245.900; -821.000; -703.000
361.789;  -64.700; -139.000; -155.000
361.921; -209.300; -642.000; -593.000
362.053;  138.000;  524.000;  541.000
362.185;   -8.600;  288.000;   72.000
362.318; -228.400; -709.000; -705.000
362.450;   38.400;  294.000;  444.000
362.582; -306.300; -913.000; -870.000
362.714; -105.300; -353.000; -332.000
362.846; -156.900; -606.000; -490.000
362.978; -267.900; -941.000; -811.000
363.109;  -97.500; -161.000; -260.000
363.241; -215.000; -739.000; -749.000
363.373; -208.100; -649.000; -564.000
363.505;  -60.300; -186.000;  -91.000
363.637; -175.500; -787.000; -601.000
363.769; -323.200;-1067.000;-1080.000
363.901; -161.200; -596.000; -654.000
364.033; -334.700;-1103.000;-1062.000
364.165;  -70.000; -283.000; -283.000
364.296; -114.200; -316.000; -177.000
364.428; -387.900;-1344.000;-1220.000
364.560; -206.500; -679.000; -661.000
364.692; -215.700; -738.000; -835.000
364.824; -185.300; -588.000; -456.000
364.955; -117.900; -402.000; -564.000
365.087; -318.700;-1097.000; -852.000
365.219; -241.500; -686.000; -816.000
365.351; -246.000; -526.000; -572.000
365.482;    7.100;  300.000;  240.000
365.614; -139.700; -402.000; -314.000
365.746; -230.300; -729.000; -752.000
365.877; -223.800; -706.000; -672.000
366.009;  -27.600;  -35.000;  -62.000
366.141; -351.500;-1249.000;-1134.000
366.272; -239.600; -803.000; -719.000
366.404; -273.800;-1005.000; -874.000
366.535;  -14.900; -139.000;  -12.000
366.667; -220.900; -644.000; -649.000
366.799;   91.500;  353.000;  203.000
366.930; -296.400; -862.000; -996.000
367.062; -185.000; -639.000; -613.000
367.193; -281.200; -872.000; -842.000
367.325; -177.800; -580.000; -684.000
367.456; -110.500; -246.000;   31.000
367.588; -133.700; -371.000; -318.000
367.719;  -57.400;  -44.000;  -45.000
367.851;  -89.400; -222.000; -241.000
367.982; -281.600; -875.000; -732.000
368.113; -137.600; -475.000; -358.000
368.245; -317.100; -960.000; -841.000
368.376;  -79.800; -254.000; -302.000
368.508; -123.000; -188.000; -263.000
368.639; -322.100;-1166.000;-1034.000
368.770; -228.700; -670.000; -589.000
368.902; -260.700; -836.000; -926.000
369.033; -279.000; -906.000; -855.000
369.164; -213.200; -720.000; -653.000
369.296; -209.000; -452.000; -601.000
369.427;  -48.400; -209.000; -144.000
369.558; -163.500; -593.000; -377.000
369.689; -190.900; -721.000; -569.000
369.821; -307.300; -951.000; -845.000
369.952;  -26.900;   42.000; -108.000
370.083; -130.700; -229.000; -108.000
370.214; -235.800; -735.000; -650.000
370.345;  -20.700;   65.000;   81.000
370.477; -233.300; -810.000; -790.000
370.608; -128.800; -328.000; -264.000
370.739; -356.700;-1233.000;-1292.000
370.870; -297.100;-1102.000; -923.000
371.001; -147.600; -378.000; -467.000
371.132; -209.100; -754.000; -735.000
371.263;  -73.400;  -42.000; -148.000
371.394; -294.600; -841.000; -748.000
371.525;   53.000;  345.000;  225.000
371.657; -260.900; -808.000; -670.000
371.788;   26.900;  103.000;  199.000
371.919; -140.100; -384.000; -304.000
372.050;  -22.700;  -91.000; -156.000
372.181;  -28.300; -188.000; -294.000
372.311;    6.000;   42.000; -127.000
372.442; -151.700; -457.000; -451.000
372.573;  -92.900; -444.000; -340.000
372.704; -293.700;-1008.000; -980.000
372.835; -102.800; -228.000; -289.000
372.966; -199.800; -646.000; -554.000
373.097; -246.300; -575.000; -711.000
373.228; -202.400; -717.000; -542.000
373.359; -227.600; -824.000; -536.000
373.490; -260.600; -881.000; -727.000
373.620; -303.000;-1001.000; -803.000
373.751; -174.400; -332.000; -396.000
373.882; -180.000; -663.000; -733.000
374.013; -105.200; -449.000; -262.000
374.143; -189.300; -581.000; -659.000
374.274; -308.600; -987.000; -908.000
374.405;  -95.500; -388.000; -276.000
374.536; -180.900; -526.000; -387.000
374.666; -236.900; -759.000; -807.000
374.797; -226.700; -817.000; -868.000
374.928; -179.200; -710.000; -560.000
375.058; -196.400; -535.000; -500.000
375.189;  -53.500;  -59.000;  -93.000
375.320; -307.800; -928.000;-1034.000
375.450; -188.000; -625.000; -616.000
375.581; -160.900; -526.000; -436.000
375.712; -101.100; -574.000; -250.000
375.842; -173.900; -438.000; -415.000
375.973; -188.000; -554.000; -513.000
376.103; -233.400; -665.000; -648.000
376.234; -207.200; -531.000; -552.000
376.364; -327.900; -944.000; -867.000
376.495;  222.400;  925.000;  529.000
376.625; -241.600; -472.000; -485.000
376.756; -195.800; -709.000; -678.000
376.886; -378.600;-1178.000;-1026.000
377.017; -340.100;-1048.000;-1061.000
377.147; -272.800; -786.000; -782.000
377.278;   15.500;  174.000;  228.000
377.408; -254.200; -801.000; -815.000
377.538; -223.300; -707.000; -693.000
377.669; -183.800; -537.000; -613.000
377.799; -220.100; -645.000; -635.000
377.929; -204.500; -610.000; -428.000
378.060; -281.400; -781.000; -847.000
378.190; -232.600; -726.000; -531.000
378.320; -144.400; -401.000; -406.000
378.451;  -26.000; -131.000;  -22.000
378.581;  -22.300;  -67.000; -110.000
378.711;  197.100; 1035.000;  866.000
378.841; -207.700; -533.000; -675.000
378.972; -274.500; -871.000; -751.000
379.102; -181.100; -652.000; -579.000
379.232; -105.300; -126.000;  -73.000
379.362; -287.400;-1001.000; -885.000
379.492; -190.000; -373.000; -424.000
379.623;   35.300;    0.000;  111.000
379.753; -319.600;-1107.000; -974.000
379.883;   24.100;   59.000;  156.000
380.013; -336.800;-1081.000;-1017.000
380.143; -346.100;-1097.000;-1056.000
380.273; -291.300; -985.000; -861.000
380.403; -140.500; -344.000; -257.000
380.533; -273.300; -651.000; -664.000
380.663;   25.700;  173.000;  128.000
380.793; -353.000;-1027.000;-1074.000
380.923; -109.200; -103.000;  -34.000
381.053; -223.900; -613.000; -623.000
381.183;  -81.700; -106.000; -248.000
381.313; -192.800; -656.000; -470.000
381.443; -182.100; -692.000; -473.000
381.573; -163.100; -402.000; -409.000
381.703; -373.700;-1249.000;-1095.000
381.833; -427.800;-1454.000;-1336.000
381.963;   15.800; -134.000;  -87.000
382.093; -318.800; -925.000; -909.000
382.223; -231.500; -713.000; -602.000
382.353; -233.700; -801.000; -608.000
382.482; -308.600;-1091.000; -964.000
382.612; -250.200; -872.000; -644.000
382.742; -221.100; -695.000; -622.000
382.872; -171.500; -565.000; -551.000
383.002;   11.300;  347.000; -132.000
383.131; -136.000; -226.000; -160.000
383.261; -245.500; -706.000; -768.000
383.391; -168.800; -552.000; -377.000
383.521;   79.800;  451.000;  263.000
383.650; -319.900; -947.000; -904.000
383.780; -204.100; -783.000; -656.000
383.910;  161.400;  880.000;  802.000
384.039; -271.100; -794.000; -656.000
384.169; -355.600;-1205.000;-1017.000
384.299; -184.600; -650.000; -662.000
384.428; -248.400; -764.000; -680.000
384.558;  -96.500; -308.000; -275.000
384.687; -143.900; -414.000; -334.000
384.817;  -13.700;   75.000;   -2.000
384.947;  -80.300; -234.000; -141.000
385.076;  247.700;  982.000;  912.000
385.206;   77.500;  369.000;  480.000
385.335; -155.800; -549.000; -417.000
385.465; -257.100; -655.000; -663.000
385.594;  -31.000;  -53.000;  -44.000
385.724; -310.700; -868.000; -838.000
385.853; -126.700; -296.000; -270.000
385.982; -251.700; -743.000; -787.000
386.112; -269.000;-1052.000; -871.000
386.241; -106.700; -307.000; -312.000
386.371;  -70.000; -174.000;  -87.000
386.500; -271.000; -825.000; -789.000
386.629; -242.100; -874.000; -817.000
386.759;  -64.400;  -43.000;   68.000
386.888;  -62.800; -170.000; -250.000
387.017; -244.300; -648.000; -620.000
387.147; -224.000; -771.000; -798.000
387.276; -183.100; -410.000; -397.000
387.405; -143.300; -398.000; -342.000
387.535; -164.300; -452.000; -361.000
387.664; -197.300; -692.000; -620.000
387.793;  -87.000; -198.000; -113.000
387.922;   37.600;  255.000;  200.000
388.052; -163.800; -576.000; -423.000
388.181; -145.900; -342.000; -472.000
388.310; -288.000; -889.000; -710.000
388.439; -307.300; -749.000; -742.000
388.568;   11.300;  365.000;  244.000
388.697; -229.600; -756.000; -653.000
388.826; -215.300; -768.000; -666.000
388.956;  -97.900; -285.000; -307.000
389.085; -127.400; -347.000; -287.000
389.214; -281.900; -842.000; -872.000
389.343; -207.600; -645.000; -413.000
389.472;   21.400;  126.000;  149.000
389.601;  -16.400;   91.000;    0.000
389.730; -219.600; -568.000; -687.000
389.859;    7.000;  226.000;   46.000
389.988; -126.400; -423.000; -408.000
390.117; -102.300; -168.000; -146.000
390.246; -156.400; -331.000; -320.000
390.375; -242.300; -673.000; -626.000
390.504; -203.400; -703.000; -621.000
390.633; -264.500; -672.000; -726.000
390.761; -258.500; -732.000; -645.000
390.890;  -78.700;   -4.000; -130.000
391.019; -164.100; -421.000; -441.000
391.148; -283.400; -826.000; -855.000
391.277; -204.300; -576.000; -493.000
391.406; -276.600; -821.000; -805.000
391.534;   17.200;  574.000; -301.000
391.663; -194.800; -583.000; -645.000
391.792; -187.800; -673.000; -701.000
391.921;  -29.000;   -3.000;   15.000
392.050;  -51.000; -287.000; -228.000
392.178; -349.300;-1206.000;-1061.000
392.307; -246.200; -758.000; -712.000
392.436; -225.100; -427.000; -641.000
392.564;  -15.800;  166.000;   -6.000
392.693; -276.200; -860.000; -682.000
392.822; -170.400; -529.000; -534.000
392.950; -260.300; -880.000; -714.000
393.079; -149.400; -188.000; -328.000
393.208; -200.100; -488.000; -511.000
393.336;  -32.100; -170.000; -145.000
393.465; -103.300; -317.000; -199.000
393.593;  -13.200;   62.000;   79.000
393.722; -334.300;-1121.000; -916.000
393.850;  -63.600; -188.000;  -61.000
393.979; -319.100; -926.000; -805.000
394.107; -209.000; -517.000; -537.000
394.236; -186.300; -570.000; -507.000
394.364;   62.200;  383.000;  206.000
394.493; -258.300; -911.000; -767.000
394.621; -275.800; -955.000; -916.000
394.750; -317.800; -873.000; -923.000
394.878;  -99.000; -247.000; -149.000
395.007; -266.700; -721.000; -807.000
395.135; -243.600; -790.000; -721.000
395.263; -352.100;-1038.000;-1040.000
395.392;  -27.500;  -25.000; -107.000
395.520; -286.400; -818.000; -679.000
395.648; -284.900; -865.000; -915.000
395.777; -156.700; -366.000; -405.000
395.905; -169.200; -449.000; -564.000
396.033;   10.100;  217.000;  172.000
396.162; -146.600; -399.000; -453.000
396.290;  -35.900;  -17.000;   -2.000
396.418; -167.500; -555.000; -514.000
396.546; -256.200; -571.000; -466.000
396.674; -261.900; -850.000; -878.000
396.803;  -42.500;  -72.000;  -23.000
396.931;  -97.500; -179.000; -199.000
397.059; -331.100;-1026.000; -989.000
397.187; -287.500;-1026.000; -975.000
397.315; -279.900; -884.000; -649.000
397.443; -199.900; -592.000; -443.000
397.572; -203.800; -578.000; -424.000
397.700; -201.700; -607.000; -614.000
397.828;  -82.500;  120.000;  -90.000
397.956; -147.400; -508.000; -478.000
398.084; -237.300; -767.000; -626.000
398.212;   -4.400;  137.000;  124.000
398.340;  -18.800;  -56.000;  159.000
398.468; -130.800; -390.000; -169.000
398.596; -312.000; -993.000; -953.000
398.724; -282.600; -762.000; -767.000
398.852; -335.800;-1024.000; -976.000
398.980; -178.500; -560.000; -560.000
399.108; -238.700; -982.000; -735.000
399.236;  -38.400;   13.000;    8.000
399.363;   18.000;  222.000;  196.000
399.491; -159.000; -404.000; -398.000
399.619; -276.600; -829.000; -800.000
399.747; -277.500; -859.000; -771.000
399.875;   23.600;  220.000;  234.000
400.003; -129.800; -359.000; -284.000
400.130; -188.800; -421.000; -341.000
400.258;  -48.000;  -83.000;   38.000
400.386; -121.100; -352.000; -168.000
400.514; -192.800; -526.000; -587.000
400.641; -325.400; -928.000; -802.000
400.769; -276.400; -979.000; -888.000
400.897; -237.000; -838.000; -793.000
401.025;  -72.300; -166.000; -152.000
401.152;   28.800;  220.000;   38.000
401.280; -178.100; -430.000; -429.000
401.408; -261.000; -712.000; -576.000
401.535; -239.000; -735.000; -758.000
401.663; -370.200;-1134.000;-1054.000
401.790; -169.900; -514.000; -525.000
401.918;  102.700;  436.000;  405.000
402.046;  -21.800;  134.000;  122.000
402.173;  -64.300;  -18.000;    7.000
402.301; -121.100; -519.000; -397.000
402.428;   95.400;  528.000;  383.000
402.556; -338.500;-1188.000; -913.000
402.683;  -72.200;  -20.000;   -1.000
402.811;  -48.800;  -37.000; -206.000
402.938;  -25.900;   20.000;   27.000
403.066; -177.400; -574.000; -558.000
403.193;  -17.300;  299.000;  239.000
403.321; -161.800; -396.000; -574.000
403.448;    1.800;   83.000;   27.000
403.575;  -64.300;  -90.000;  -46.000
403.703; -264.400; -732.000; -557.000
403.830; -172.300; -531.000; -496.000
403.957; -353.600;-1117.000;-1023.000
404.085;  -86.900;  -61.000; -172.000
404.212;   -8.500;  -50.000;   63.000
404.339; -130.200; -566.000; -306.000
404.467; -177.300; -612.000; -524.000
404.594;  -82.100; -287.000; -227.000
404.721; -246.100; -869.000; -764.000
404.848;  -62.200; -113.000; -202.000
404.976; -292.000; -856.000; -783.000
405.103;  -51.200;  -14.000;  -82.000
405.230;    3.600;  190.000;  226.000
405.357;  -42.200;  117.000;   44.000
405.484;  -66.700;  -49.000;    5.000
405.612; -197.200; -548.000; -563.000
405.739; -154.000; -488.000; -243.000
405.866;  138.000;  669.000;  385.000
405.993; -137.900; -398.000; -102.000
406.120; -254.500; -801.000; -887.000
406.247; -146.800; -323.000; -342.000
406.374;  132.800;  540.000;  629.000
406.501; -228.000; -632.000; -702.000
406.628; -185.100; -621.000; -589.000
406.755; -236.700; -803.000; -620.000
406.882; -110.700; -228.000; -277.000
407.009; -251.800; -719.000; -628.000
407.136; -141.200; -480.000; -401.000
407.263; -306.600; -939.000; -829.000
407.390; -213.600; -692.000; -614.000
407.517; -354.300;-1139.000;-1187.000
407.644; -131.300; -332.000; -256.000
407.771; -157.700; -249.000; -287.000
407.898;  -20.700;  168.000;  328.000
408.025; -136.200; -421.000; -313.000
408.151;   12.000;   82.000;  153.000
408.278; -132.300; -267.000; -216.000
408.405; -256.200; -931.000; -899.000
408.532; -197.000; -549.000; -542.000
408.659; -224.100; -677.000; -648.000
408.785; -379.300;-1298.000;-1170.000
408.912;  -65.700; -412.000; -296.000
409.039; -222.400; -610.000; -686.000
409.166; -197.300; -591.000; -555.000
409.292; -220.300; -571.000; -534.000
409.419; -204.700; -665.000; -649.000
409.546; -131.900; -431.000; -192.000
409.672; -213.100; -713.000; -545.000
409.799;  -65.700;  -36.000;   34.000
409.926;  -87.500; -180.000; -179.000
410.052; -352.500;-1127.000;-1091.000
410.179; -147.600; -368.000; -392.000
410.305; -159.300; -375.000; -493.000
410.432; -107.300; -220.000; -333.000
410.558; -167.900; -305.000; -380.000
410.685; -234.600; -688.000; -431.000
410.812; -197.700; -409.000; -588.000
410.938; -250.900; -964.000; -808.000
411.065; -250.200; -671.000; -645.000
411.191;  -80.200; -189.000; -174.000
411.317; -280.600; -823.000; -742.000
411.444; -123.400; -317.000; -246.000
411.570; -127.900; -339.000; -294.000
411.697; -218.100; -758.000; -752.000
411.823; -339.500; -989.000; -999.000
411.949;  -69.600;  -56.000;   17.000
412.076; -225.400; -539.000; -519.000
412.202; -239.100; -758.000; -757.000
412.329; -291.200; -798.000; -752.000
412.455; -232.200; -821.000; -657.000
412.581;  -65.600;  -15.000;  172.000
412.707; -200.400; -540.000; -457.000
412.834;   14.400;  156.000;  219.000
412.960; -251.900; -785.000; -784.000
413.086; -244.400; -743.000; -701.000
413.212;  113.600;  604.000;  578.000
413.339; -239.900; -685.000; -701.000
413.465; -154.100; -364.000; -310.000
413.591; -248.400; -757.000; -474.000
413.717; -107.600; -358.000; -366.000
413.843; -291.400; -839.000; -861.000
413.969; -125.900;  -47.000; -292.000
414.096; -216.300; -679.000; -679.000
414.222;  -21.400;  -33.000;   85.000
414.348; -204.300; -652.000; -385.000
414.474;  -36.700;   38.000;  -52.000
414.600;  -52.500; -126.000; -144.000
414.726;  -65.900;  -96.000;  -55.000
414.852; -174.300; -365.000; -342.000
414.978;   -8.200;  104.000;  -18.000
415.104;  -15.000;   38.000;   80.000
415.230; -145.000; -329.000; -330.000
415.356; -200.900; -409.000; -514.000
415.482;  -43.600;   13.000;  -35.000
415.608; -128.200; -247.000; -323.000
415.734;  -22.700;   67.000;   38.000
415.860; -304.600; -875.000; -767.000
415.986; -252.400; -685.000; -607.000
416.111; -247.800; -798.000; -652.000
416.237; -177.500; -424.000; -571.000
416.363; -259.400; -765.000; -733.000
416.489; -161.900; -324.000; -251.000
416.615; -255.100; -707.000; -742.000
416.741; -236.300; -677.000; -784.000
416.866; -231.100; -673.000; -736.000
416.992; -296.600; -801.000; -818.000
417.118; -119.800;  -41.000;  -80.000
417.244; -241.400; -798.000; -531.000
417.369; -259.700; -801.000; -612.000
417.495; -117.400; -325.000; -254.000
417.621; -337.000;-1015.000; -803.000
417.746; -182.900; -579.000; -572.000
417.872;  -87.700; -254.000; -144.000
417.998; -167.300; -515.000; -530.000
418.123; -336.300;-1073.000; -845.000
418.249; -186.200; -512.000; -601.000
418.374; -315.000; -916.000; -824.000
418.500; -162.400; -383.000; -482.000
418.626;  -13.600;   70.000;  -59.000
418.751; -175.800; -549.000; -448.000
418.877; -249.900; -637.000; -643.000
419.002; -142.100; -688.000; -560.000
419.128; -304.600; -930.000; -721.000
419.253; -288.100; -967.000; -837.000
419.379; -199.200; -391.000; -338.000
419.504;   39.900;  325.000;  415.000
419.629; -118.200; -393.000; -212.000
419.755; -101.700; -317.000; -254.000
419.880; -120.700;  -98.000;   67.000
420.006; -123.100; -280.000; -221.000
420.131; -260.500; -662.000; -775.000
420.256; -122.400; -315.000; -316.000
420.382; -229.400; -665.000; -687.000
420.507; -238.600; -649.000; -778.000
420.632; -150.700; -337.000; -339.000
420.758;  -93.900; -251.000; -425.000
420.883; -258.200; -876.000; -672.000
421.008; -234.700; -775.000; -619.000
421.133; -191.100; -509.000; -467.000
421.259; -113.500; -325.000; -259.000
421.384; -295.600; -834.000; -693.000
421.509; -288.000;-1052.000; -862.000
421.634; -300.300; -936.000; -820.000
421.759; -134.900; -359.000; -327.000
421.885; -238.000; -717.000; -656.000
422.010; -186.000; -673.000; -542.000
422.135; -315.900; -695.000; -727.000
422.260;   39.500;  340.000;  280.000
422.385;  -54.100;   12.000;  -98.000
422.510;   -1.900;  151.000;  -26.000
422.635;  -69.600;  -87.000;  -43.000
422.760; -245.700; -766.000; -791.000
422.885;  -69.600;  -57.000;  -80.000
423.010;  -75.500; -112.000; -169.000
423.135; -211.900; -481.000; -561.000
423.260; -105.300; -150.000; -245.000
423.385;    7.900;  476.000;  222.000
423.510;  -21.300;   71.000;  -22.000
423.635;  -60.600;  133.000;   45.000
423.760;   51.200;  383.000;  328.000
423.885;   39.200;  336.000;  391.000
424.010;  -34.300;  -68.000;  -13.000
424.135;  -62.100;    5.000;  -33.000
424.259; -198.700; -654.000; -457.000
424.384; -161.000; -279.000; -272.000
424.509; -102.300; -260.000; -186.000
424.634; -251.000; -761.000; -623.000
424.759; -213.500; -688.000; -544.000
424.883; -179.200; -506.000; -527.000
425.008; -214.300; -502.000; -410.000
425.133; -231.300; -679.000; -653.000
425.258; -202.800; -517.000; -381.000
425.382; -262.900; -867.000; -774.000
425.507; -200.800; -487.000; -543.000
425.632; -276.300; -802.000; -663.000
425.756; -106.300; -256.000; -146.000
425.881; -288.000; -831.000; -857.000
426.006; -170.700; -604.000; -355.000
426.130; -224.000; -696.000; -508.000
426.255; -175.400; -611.000; -491.000
426.379;  -97.700; -189.000; -577.000
426.504;  131.100;  660.000;  544.000
426.629; -225.100; -519.000; -466.000
426.753;  -41.500;   64.000;  -46.000
426.878; -128.300; -252.000; -288.000
427.002; -267.500; -651.000; -668.000
427.127;  -94.500;  -35.000; -158.000
427.251;   79.400;  372.000;  401.000
427.375; -122.700; -191.000; -173.000
427.500; -243.900; -616.000; -610.000
427.624; -141.300; -234.000; -400.000
427.749; -131.900; -216.000; -225.000
427.873; -196.000; -499.000; -412.000
427.997; -116.600; -222.000; -230.000
428.122;  144.600;  795.000;  703.000
428.246;   73.300;  433.000;  434.000
428.371; -295.900; -869.000; -773.000
428.495; -241.800; -624.000; -646.000
428.619; -103.200; -186.000; -117.000
428.743;   -5.200;   65.000;  132.000
428.868; -274.900; -732.000; -643.000
428.992; -160.400; -219.000; -326.000
429.116; -162.600; -329.000; -357.000
429.240;   47.900;  419.000;  426.000
429.365; -210.100; -454.000; -574.000
429.489; -224.600; -638.000; -647.000
429.613; -110.600; -236.000; -177.000
429.737; -161.200; -563.000; -432.000
429.861; -142.000; -247.000; -133.000
429.985; -153.300; -425.000; -305.000
430.109; -303.000; -770.000; -908.000
430.234;  -20.400;   76.000;  -50.000
430.358; -147.500; -250.000; -160.000
430.482; -243.200; -672.000; -564.000
430.606; -202.100; -655.000; -375.000
430.730; -168.700; -437.000; -388.000
430.854; -295.300; -909.000; -835.000
430.978; -275.300; -795.000; -764.000
431.102; -194.500; -499.000; -422.000
431.226; -296.400; -874.000; -815.000
431.350;   28.100;  345.000;  422.000
431.474; -188.100; -661.000; -373.000
431.597; -354.300;-1060.000; -848.000
431.721; -138.000; -276.000; -267.000
431.845; -247.400; -704.000; -472.000
431.969; -153.400; -304.000; -349.000
432.093; -161.100; -395.000; -317.000
432.217;  -11.800;   32.000;   82.000
432.341; -182.300; -523.000; -518.000
432.464;  -50.100;   96.000;   40.000
432.588; -196.200; -401.000; -329.000
432.712;  -61.100;  -52.000;  -52.000
432.836;   -2.600;  213.000;  263.000
432.959; -131.600; -372.000; -311.000
433.083;  -92.000;   11.000;    2.000
433.207;   70.800;  285.000;  930.000
433.330; -125.100; -391.000; -200.000
433.454; -210.800; -654.000; -638.000
433.578;  105.300;  583.000;  278.000
433.701; -245.000; -623.000; -675.000
433.825; -166.800; -292.000; -299.000
433.949;  -62.100;   28.000;  -72.000
434.072; -164.800; -410.000; -323.000
434.196;  -77.600; -309.000; -117.000
434.319; 8049.900;25482.000;25124.000
434.443; -228.500; -656.000; -603.000
434.566;  -17.100;  281.000;   62.000
434.690; -218.300; -637.000; -383.000
434.813; -124.900; -251.000; -173.000
434.937; -213.600; -569.000; -696.000
435.060; -179.900; -423.000; -332.000
435.184; -160.200; -492.000; -217.000
435.307;  -67.600;  159.000;  102.000
435.431;  -63.200;  -40.000;   24.000
435.554; -110.500; -399.000; -240.000
435.677; -164.400; -350.000; -258.000
435.801;  -57.500;  -25.000;   49.000
435.924;  -70.000;    1.000;  -67.000
436.048; -323.900;-1019.000; -732.000
436.171; -108.000; -240.000;  -66.000
436.294; -107.300; -248.000; -229.000
436.417; -326.100; -963.000; -849.000
436.541; -293.600; -814.000; -840.000
436.664;  -89.800; -242.000; -316.000
436.787;  -30.800;   13.000;  113.000
436.910; -239.000; -792.000; -422.000
437.034;  -24.200;  142.000;  143.000
437.157;  -18.700;  -11.000;    0.000
437.280; -176.500; -392.000; -292.000
437.403; -305.800; -982.000; -869.000
437.526; -341.000; -903.000; -865.000
437.649; -170.500; -505.000; -332.000
437.772; -235.600; -692.000; -540.000
437.896;  138.500;  700.000;  544.000
438.019; -257.200; -758.000; -503.000
438.142; -203.100; -596.000; -506.000
438.265; -256.700; -639.000; -670.000
438.388; -156.400; -520.000; -410.000
438.511; -228.100; -597.000; -394.000
438.634; -173.300; -247.000; -125.000
438.757; -279.100; -693.000; -619.000
438.880;  -84.500;  -34.000;  -57.000
439.003; -199.100; -417.000; -437.000
439.126; -111.800; -287.000; -167.000
439.248;  -60.600;  -98.000; -139.000
439.371;  -39.100;    9.000;  -53.000
439.494;  126.500;  510.000;  439.000
439.617;  -72.200;   65.000;  -88.000
439.740; -321.400; -968.000; -816.000
439.863; -257.900; -755.000; -595.000
439.986; -217.900; -476.000; -431.000
440.108;  -76.800; -161.000; -112.000
440.231; -353.700; -950.000; -836.000
440.354;  -61.000;  -64.000; -150.000
440.477; -238.600; -566.000; -542.000
440.599; -141.300; -200.000; -225.000
440.722; -238.500; -709.000; -586.000
440.845;  162.900;  751.000;  928.000
440.968; -216.400; -415.000; -311.000
441.090;  -86.400; -199.000;  -33.000
441.213; -312.200;-1021.000; -825.000
441.336; -106.600; -159.000;   -5.000
441.458; -171.500; -549.000; -396.000
441.581; -257.800; -628.000; -629.000
441.703; -107.600; -152.000;   13.000
441.826; -201.500; -557.000; -400.000
441.948;  -63.100;   56.000;   51.000
442.071;  136.800;  555.000;  424.000
442.193; -212.700; -531.000; -485.000
442.316;  -16.200;  152.000;   97.000
442.438; -140.100; -233.000;  -10.000
442.561;   20.800;  272.000;  262.000
442.683; -253.500; -809.000; -522.000
442.806;  -73.400;   -8.000;   74.000
442.928; -297.600; -859.000; -604.000
443.051; -193.500; -577.000; -373.000
443.173; -191.800; -341.000; -339.000
443.295; -177.600; -263.000; -371.000
443.418; -146.700; -321.000;  -29.000
443.540;  -53.500; -106.000;   -4.000
443.662; -247.500; -563.000; -465.000
443.785;   25.700;  335.000;  199.000
443.907; -207.300; -362.000; -208.000
444.029; -215.000; -767.000; -494.000
444.152; -283.500; -644.000; -554.000
444.274;  -48.800;  -18.000;  -24.000
444.396; -207.200; -461.000; -221.000
444.518; -250.600; -691.000; -454.000
444.640; -183.300; -268.000; -111.000
444.763;    5.800;  388.000;  249.000
444.885; -203.600; -432.000; -392.000
445.007;  -23.300;   35.000;   86.000
445.129; -188.900; -610.000; -515.000
445.251; -173.500; -372.000; -439.000
445.373; -256.700; -537.000; -386.000
445.495;   43.500;  242.000;  350.000
445.617;  154.000;  853.000;  753.000
445.739; -149.800; -215.000;  -97.000
445.861;  -90.800; -245.000; -112.000
445.984; -126.400; -267.000; -101.000
446.105; -157.200; -418.000; -251.000
446.227;  -82.900; -176.000;  -19.000
446.349; -204.900; -358.000; -249.000
446.471; -227.600; -615.000; -448.000
446.593; -184.800; -316.000;   19.000
446.715;  -74.500;  -67.000;   41.000
446.837;  156.800;  697.000;  832.000
446.959; -191.900; -457.000; -478.000
447.081; -261.000; -628.000; -518.000
447.203;  165.700;  862.000;  834.000
447.325; -120.500; -270.000;   42.000
447.446;   22.400;  286.000;  530.000
447.568; -333.600; -921.000; -803.000
447.690; -162.000; -236.000; -245.000
447.812; -290.300; -798.000; -519.000
447.933;  -40.100;  155.000;  127.000
448.055; -113.000; -306.000; -261.000
448.177;   -6.000;   31.000;   79.000
448.299; -357.500; -935.000; -727.000
448.420;  -35.300;  -25.000;  159.000
448.542;  -54.900;   -3.000;   33.000
448.664;  -11.800;  109.000;  322.000
448.785;  -24.800;  265.000;   83.000
448.907; -177.300; -614.000; -353.000
449.028; -282.300; -771.000; -471.000
449.150;   88.800;  492.000;  589.000
449.272; -351.700;-1044.000; -913.000
449.393;  138.200;  612.000;  694.000
449.515; -267.200; -634.000; -581.000
449.636; -126.500; -264.000; -155.000
449.758;  114.900;  763.000;  622.000
449.879; -166.700; -498.000; -396.000
450.001; -133.800; -149.000;  -49.000
450.122;  -51.200;  -95.000;  162.000
450.244;  -10.300;   37.000;  364.000
450.365; -185.700; -495.000; -301.000
450.486;  -68.900;   80.000;  268.000
450.608;   17.500;  393.000;  326.000
450.729;   93.400;  578.000;  645.000
450.850; -235.900; -574.000; -466.000
450.972; -270.600; -552.000; -389.000
451.093;   26.500;  190.000;  588.000
451.214; -199.500; -516.000; -337.000
451.336;  163.100;  773.000;  579.000
451.457;   37.300;  264.000;  393.000
451.578;  -92.600; -118.000;  -74.000
451.699; -241.900; -546.000; -540.000
451.821; -123.000; -284.000;  -50.000
451.942;   12.400;  278.000;  285.000
452.063;   22.700;  228.000;  419.000
452.184; -104.200;  -54.000;  -49.000
452.305;   -3.800;  103.000;  170.000
452.427; -209.900; -549.000; -301.000
452.548; -108.700;   23.000;   79.000
452.669; -145.300; -257.000;  -89.000
452.790; -112.100;    3.000;  -18.000
452.911;  -27.600;  195.000;  259.000
453.032; -152.500; -289.000;  -60.000
453.153;  -89.900;  -29.000;   81.000
453.274;  164.400;  737.000;  868.000
453.395;  -80.100;  -51.000;  175.000
453.516;  277.600; 1317.000; 1388.000
453.637; -137.500; -205.000; -150.000
453.758;  -85.700;   15.000;   69.000
453.879; -201.800; -462.000; -250.000
454.000;  233.700; 1086.000;  948.000
454.121; -259.600; -554.000; -326.000
454.242; -217.700; -599.000; -383.000
454.362;  -72.800;  -99.000;  114.000
454.483; -154.100; -309.000; -229.000
454.604;   27.400;  512.000;  580.000
454.725; -241.000; -627.000; -555.000
454.846; -236.200; -474.000; -406.000
454.967;    8.000;  230.000;  539.000
455.087;  -16.600;  179.000;  153.000
455.208;  105.100;  554.000;  856.000
455.329;  -97.700;  -22.000;   82.000
455.450;   31.000;  473.000;  633.000
455.570; -151.300; -234.000; -211.000
455.691;  -49.000;  201.000;  407.000
455.812; -152.000; -270.000;  -92.000
455.932;  -84.800;  107.000;  -97.000
456.053;  -97.200;   36.000;   24.000
456.173; -183.700; -433.000; -355.000
456.294; -229.300; -476.000; -303.000
456.415;  -70.000;  -73.000;   70.000
456.535;  -26.800;  297.000;  273.000
456.656;  -40.800;  132.000;  240.000
456.776; -124.500;    3.000;  298.000
456.897;   49.900;  308.000;  513.000
457.017; -122.500; -153.000;   -3.000
457.138; -186.100; -402.000; -249.000
457.258;  -30.300;  263.000;  224.000
457.379;    9.200;  509.000;  521.000
457.499;  -13.100;  443.000;  432.000
457.620; -211.400; -407.000; -231.000
457.740; -180.800; -132.000;  -11.000
457.860;  -54.100;   87.000;   44.000
457.981; -100.500;  132.000;  124.000
458.101; -160.600;  -89.000;   40.000
458.221;    8.000;  336.000;  402.000
458.342;  -66.300;   -4.000;  -37.000
458.462;   29.000;  617.000;  352.000
458.582; -158.900; -302.000; -294.000
458.703;  -65.600;  303.000;  154.000
458.823;  -97.700;   22.000;  163.000
458.943;   22.700;  341.000;  467.000
459.063;  -82.600; 1124.000;  192.000
459.183;  -19.900;  328.000;  313.000
459.304;   35.100;  315.000;  517.000
459.424; -151.300; -246.000;  -89.000
459.544;   46.900;  388.000;  764.000
459.664;   42.900;  499.000;  506.000
459.784;  187.200; 1004.000; 1175.000
459.904;   94.000;  867.000;  744.000
460.024;  127.700;  867.000;  684.000
460.144;   17.800;  449.000;  554.000
460.264;   49.100;  515.000;  327.000
460.385; -140.800; -145.000; -119.000
460.505;  127.400;  905.000;  858.000
460.625; -145.900;  -17.000;  -68.000
460.745;    9.800;  396.000;  541.000
460.864;  -74.100;  153.000;  469.000
460.984;   30.200;  499.000;  573.000
461.104;  316.800; 1656.000; 1775.000
461.224;   99.700;  657.000;  650.000
461.344;  -28.300;  431.000;  360.000
461.464;  -39.700;  258.000;  513.000
461.584;  -17.800;  283.000;  466.000
461.704; -111.600;   58.000;  108.000
461.824;  -95.200;  238.000;  259.000
461.943;  -69.600;  191.000;  130.000
462.063; -159.900;    2.000;  324.000
462.183;   81.200;  639.000;  717.000
462.303;  227.200; 1678.000; 1230.000
462.422;  120.100;  781.000;  840.000
462.542;  -48.900;  271.000;  391.000
462.662;   42.600;  353.000;  380.000
462.782;   76.200;  833.000;  572.000
462.901;   17.700;  545.000;  717.000
463.021;  305.100; 1702.000; 1638.000
463.141;  -12.200;  337.000;  770.000
463.260;    3.400;  614.000;  474.000
463.380;   74.000;  902.000;  884.000
463.499;   -5.300;  342.000;  332.000
463.619;  -61.500;  581.000;  559.000
463.738;  288.200; 1644.000;  903.000
463.858;   75.600;  657.000;  811.000
463.978;  -44.500;  542.000;  396.000
464.097;  142.300;  921.000; 1114.000
464.217;  161.700; 1196.000; 1143.000
464.336;  214.700; 1068.000; 1130.000
464.455;   -9.500;  328.000;  659.000
464.575;   40.800;  597.000;  602.000
464.694;  159.900; 1204.000; 1179.000
464.814;  108.400; 1190.000; 1138.000
464.933;  141.400; 1095.000; 1027.000
465.052;  187.400; 1412.000; 1054.000
465.172;   67.700;  922.000;  799.000
465.291;  229.600; 1376.000; 1320.000
465.410;   53.500;  462.000;  735.000
465.530;  236.800; 1355.000; 1310.000
465.649;  147.100; 1209.000; 1273.000
465.768;  292.000; 1673.000; 1508.000
465.888;  107.900;  941.000; 1174.000
466.007;  262.700; 1335.000; 1440.000
466.126;   35.700;  721.000;  641.000
466.245;  130.100; 1176.000; 1187.000
466.364;   59.400;  950.000; 1060.000
466.484;  161.300; 1024.000; 1213.000
466.603;  120.400; 1101.000; 1222.000
466.722;  248.100; 1490.000; 1769.000
466.841;  159.700; 1151.000; 1401.000
466.960;  131.400; 1069.000;  972.000
467.079;  324.200; 1971.000; 1786.000
467.198;  165.900; 1238.000; 1181.000
467.317;  241.200; 1768.000; 1162.000
467.436;  195.500; 1709.000; 1261.000
467.555;  290.000; 1796.000; 1746.000
467.674;  148.700; 1227.000; 1329.000
467.793;  129.700; 1376.000; 1374.000
467.912;  204.600; 1658.000; 1539.000
468.031;  307.700; 2038.000; 1930.000
468.150;  320.700; 1842.000; 1837.000
468.269;  421.900; 2313.000; 2090.000
468.388;  417.300; 2168.000; 2339.000
468.507;  565.900; 2884.000; 2903.000
468.626;  651.600; 2555.000; 2541.000
468.744;  328.900; 2018.000; 2174.000
468.863;  448.600; 2312.000; 2523.000
468.982;  237.300; 1503.000; 1555.000
469.101;  517.800; 2788.000; 2692.000
469.220;  347.900; 2333.000; 2176.000
469.338;  559.300; 2935.000; 3051.000
469.457;  472.800; 2719.000; 2545.000
469.576;  751.800; 3953.000; 3784.000
469.695;  496.300; 2877.000; 3066.000
469.813;  873.000; 4148.000; 4192.000
469.932;  864.200; 4255.000; 4485.000
470.051;  803.700; 4075.000; 4161.000
470.169;  883.500; 4470.000; 4338.000
470.288;  880.900; 4700.000; 4809.000
470.406; 1012.800; 5059.000; 5194.000
470.525; 1253.000; 6101.000; 5787.000
470.644; 1367.000; 6847.000; 6794.000
470.762; 1655.200; 8397.000; 7873.000
470.881; 1828.500; 8651.000; 8464.000
470.999; 2037.200; 9685.000; 9151.000
471.118; 2294.000;11174.000;10711.000

