
Integration time [ms]: 200.000
Averaging Nr. [scans]: 10
Smoothing Nr. [pixels]: 0
Data measured with spectrometer [name]: 2101012U2
Wave   ;Sample   ;Dark     ;Reference
[nm]   ;[counts] ;[counts] ;[counts] 

197.733;  102.400;  516.000;  404.000
197.879; -118.800; -610.000; -634.000
198.025; -145.000; -475.000; -420.000
198.171; -152.600; -602.000; -612.000
198.317;  -71.900; -401.000; -316.000
198.463; -117.000; -655.000; -404.000
198.609;   62.100;  181.000; -137.000
198.755; -175.100; -644.000; -410.000
198.901; -137.400; -505.000; -424.000
199.047; -139.500; -615.000; -488.000
199.193;  -82.100; -230.000; -468.000
199.339;  -95.500; -222.000; -369.000
199.485;  106.200;  330.000;  271.000
199.631;   37.000;  227.000;  310.000
199.777;  -94.200; -466.000; -398.000
199.923; -142.500; -610.000; -424.000
200.069;   22.700; -141.000;  -58.000
200.215;  128.100;  128.000;  453.000
200.361;   87.200;  243.000;  477.000
200.507; -161.500; -600.000; -373.000
200.653;  -90.100; -371.000; -194.000
200.798;  -48.200; -215.000; -125.000
200.944;  -21.800; -146.000;  -41.000
201.090;   70.600;   61.000;  222.000
201.236;  -30.400; -116.000; -158.000
201.382;  255.500;  874.000;  903.000
201.528;   13.200;  -58.000;  -48.000
201.674; -124.100; -386.000; -293.000
201.819; -142.600; -540.000; -439.000
201.965; -153.500; -699.000; -447.000
202.111;  -67.300; -273.000; -226.000
202.257; -100.300; -250.000; -238.000
202.402;   10.900;   13.000;  -36.000
202.548;  -62.200; -169.000; -116.000
202.694;  174.600;  410.000; -183.000
202.840; -176.600; -603.000; -531.000
202.985; -151.600; -681.000; -639.000
203.131; -240.800; -832.000; -666.000
203.277;  -51.000; -199.000; -262.000
203.423; -121.200; -434.000; -520.000
203.568;  -98.200; -462.000; -237.000
203.714; -150.300; -535.000; -542.000
203.860; -169.300; -682.000; -641.000
204.005;    9.100;  112.000;  167.000
204.151;  161.800;  561.000;  556.000
204.296;  -84.600; -354.000; -221.000
204.442; -157.500; -600.000; -547.000
204.588; -167.000; -592.000; -579.000
204.733;   29.900;  178.000;  168.000
204.879; -272.200;-1018.000; -822.000
205.025;   13.800;  -99.000;  126.000
205.170;  -21.400;  -17.000;   94.000
205.316;  199.500;  438.000;  661.000
205.461; -183.600; -698.000; -554.000
205.607;  164.300;  609.000;  665.000
205.752; -170.200; -626.000; -551.000
205.898; -126.800; -501.000; -391.000
206.043; -131.600; -578.000; -506.000
206.189;  -97.500; -243.000; -285.000
206.334;  162.900;  554.000;  606.000
206.480;  173.100;  409.000;  239.000
206.625; -153.500; -529.000; -552.000
206.771;  -99.300; -451.000; -373.000
206.916;  -73.400; -210.000; -537.000
207.062; -166.400; -545.000; -591.000
207.207; -141.800; -546.000; -443.000
207.353;  110.000;  185.000;  460.000
207.498;   15.400;  196.000;   85.000
207.643; -104.900; -501.000; -370.000
207.789; -255.900;-1069.000; -910.000
207.934; -218.200; -665.000; -713.000
208.080;  -68.000; -154.000;   66.000
208.225;  -30.900;  -22.000;  -57.000
208.370; -203.800; -727.000; -619.000
208.516; -162.200; -741.000; -487.000
208.661;  -61.500; -127.000;  -69.000
208.806;  -64.400; -165.000; -171.000
208.952; -265.200;-1044.000; -731.000
209.097;  165.300;  378.000;  349.000
209.242;  -83.200; -307.000; -382.000
209.387;  120.400;  392.000;  350.000
209.533; -112.000; -321.000; -350.000
209.678;  186.600;  472.000;  543.000
209.823;  -95.900; -408.000; -310.000
209.969; -227.100; -860.000; -757.000
210.114; -187.600; -907.000; -719.000
210.259; -245.800; -939.000; -889.000
210.404;  -11.200; -171.000;  103.000
210.549;   23.300;  108.000;    3.000
210.695;   -5.300;   -3.000;  -95.000
210.840;   65.800;   94.000;   67.000
210.985; -107.400; -484.000; -303.000
211.130;  132.300;  268.000;  406.000
211.275;   36.200;  207.000;  199.000
211.420; -116.300; -300.000; -289.000
211.566; -141.300; -536.000; -489.000
211.711;   33.500;  218.000;  157.000
211.856; -134.700; -545.000; -519.000
212.001;  -10.700;  151.000;   44.000
212.146;   28.700;  153.000;   49.000
212.291;  -61.100; -210.000; -186.000
212.436;  -42.100; -280.000;   -6.000
212.581; -174.700; -685.000; -653.000
212.726; -150.800; -487.000; -538.000
212.871; -107.300; -552.000; -217.000
213.016; -318.400;-1172.000;-1029.000
213.161;  125.600;  406.000;  291.000
213.306; -158.300; -435.000; -577.000
213.451; -212.600; -778.000; -689.000
213.596;  -79.000; -455.000; -347.000
213.741; -113.600; -448.000; -538.000
213.886; -132.800; -498.000; -517.000
214.031;  -69.300; -294.000; -124.000
214.176; -116.400; -408.000; -341.000
214.321;  -57.300; -296.000; -157.000
214.466;  -33.500; -163.000;  -43.000
214.611;   -8.000;  -61.000;  -10.000
214.756; -234.300; -948.000; -858.000
214.901;  -57.400; -388.000; -226.000
215.046; -241.100; -797.000; -825.000
215.191;   60.100;  128.000;   35.000
215.336;   -3.100; -157.000;  -19.000
215.480; -148.300; -684.000; -505.000
215.625;  -10.900; -175.000;  -19.000
215.770; -168.700; -757.000; -662.000
215.915;  -20.200;   -5.000;  -97.000
216.060;   23.100; -113.000;  -21.000
216.205; -212.800; -731.000; -779.000
216.349; -161.300; -470.000; -533.000
216.494; -271.300; -939.000; -867.000
216.639; -223.700; -823.000; -888.000
216.784; -160.900; -577.000; -525.000
216.929;  107.800;  392.000;  281.000
217.073;  -32.500; -244.000;  -31.000
217.218;   13.200;   78.000;  -47.000
217.363; -185.900; -656.000; -618.000
217.507; -173.800; -623.000; -588.000
217.652; -254.300; -845.000; -874.000
217.797; -205.100; -708.000; -659.000
217.942; -219.100; -856.000; -720.000
218.086;  148.600;  608.000;  539.000
218.231;  -51.000; -174.000;  -26.000
218.376;  -69.900; -337.000; -229.000
218.520;   41.800;  -41.000;   96.000
218.665;  -63.100; -338.000; -204.000
218.810;  -51.300; -275.000; -233.000
218.954;   38.300;  201.000;   35.000
219.099; -217.400; -713.000; -963.000
219.243; -142.900; -589.000; -554.000
219.388;  -70.200; -264.000; -136.000
219.532;  -42.000; -116.000; -116.000
219.677; -191.500; -564.000; -521.000
219.822;   17.800;   33.000;   89.000
219.966;   14.100;   17.000;  -99.000
220.111;  -66.000; -328.000;  -40.000
220.255; -193.500; -797.000; -750.000
220.400;  -40.200; -180.000; -146.000
220.544; -140.600; -516.000; -450.000
220.689; -128.200; -422.000; -451.000
220.833;  -24.000; -123.000;  -58.000
220.978; -119.900; -393.000; -563.000
221.122;   55.400;  319.000;  307.000
221.267; -254.600; -906.000; -837.000
221.411; -129.600; -478.000; -394.000
221.555;  -24.700; -104.000;  -23.000
221.700;  -70.500; -329.000; -222.000
221.844;   80.600;  255.000;  272.000
221.989;  -72.700; -328.000; -311.000
222.133;  -42.600; -289.000; -307.000
222.277;    1.000;    5.000;   78.000
222.422;   38.300;  227.000;  113.000
222.566;  -60.000; -381.000; -214.000
222.711; -104.500; -414.000; -479.000
222.855; -156.700; -643.000; -586.000
222.999; -196.500; -642.000; -717.000
223.144;  -63.000; -195.000; -194.000
223.288;   80.800;  423.000;  251.000
223.432;   22.400;  184.000;  230.000
223.576;   -6.600;  152.000;  -21.000
223.721;   95.900;  364.000;  273.000
223.865; -141.200; -472.000; -475.000
224.009;  581.500; 1673.000; 1631.000
224.153; -152.000; -660.000; -671.000
224.298; -148.100; -531.000; -489.000
224.442;  -18.700;  -74.000;  -33.000
224.586;  -17.200; -169.000; -106.000
224.730; -178.200; -858.000; -670.000
224.875; -214.200; -739.000; -688.000
225.019;   18.900;  102.000;  188.000
225.163;  112.500;  208.000;  341.000
225.307;   25.200;   97.000;  -91.000
225.451;   95.100;  360.000;  481.000
225.595;   69.100;  264.000;  176.000
225.739;   -9.700; -170.000;  -94.000
225.884;    2.400;   86.000;    5.000
226.028; -215.100; -760.000; -626.000
226.172;  -70.200; -260.000; -273.000
226.316; -229.400; -941.000; -902.000
226.460; -148.800; -645.000; -493.000
226.604;  -88.600; -406.000; -400.000
226.748; -203.300; -836.000; -733.000
226.892;  -63.000; -227.000; -181.000
227.036; -125.100; -537.000; -447.000
227.180;  -87.800; -551.000; -375.000
227.324; -158.000; -561.000; -580.000
227.468; -228.000; -819.000; -717.000
227.612;    9.700;  242.000;  -28.000
227.756; -232.700; -845.000; -698.000
227.900;   70.000;  342.000;  441.000
228.044;  -96.200; -509.000; -290.000
228.188;  138.200;  448.000;  568.000
228.332; -169.200; -546.000; -472.000
228.476;  -30.700; -223.000; -149.000
228.620; -101.700; -210.000; -150.000
228.764;  142.500;  431.000;  349.000
228.908;  -59.000; -155.000;   30.000
229.052; -129.800; -615.000; -528.000
229.195;  -30.100; -172.000;   13.000
229.339;  -76.400; -235.000; -305.000
229.483;  -30.100;    5.000; -162.000
229.627;  -19.400; -156.000;  139.000
229.771;  -87.700; -218.000; -294.000
229.915;   11.800;  230.000;   79.000
230.059; -169.100; -648.000; -663.000
230.202;  -91.600; -370.000; -317.000
230.346;   -7.000; -107.000;  107.000
230.490; -142.900; -489.000; -521.000
230.634; -192.600; -736.000; -553.000
230.777;  141.400;  478.000;  509.000
230.921; -100.200; -450.000; -359.000
231.065;  -79.100; -246.000; -286.000
231.209;   78.600;  261.000;  265.000
231.352;   30.400;   54.000;   40.000
231.496;   58.300;  568.000;  188.000
231.640; -165.600; -693.000; -621.000
231.783;  140.800;  546.000;  525.000
231.927; -110.000; -294.000; -365.000
232.071; -245.800; -962.000; -736.000
232.214; -239.600; -980.000; -764.000
232.358; -181.700; -683.000; -599.000
232.502;    3.500;  -19.000;    7.000
232.645; -289.200;-1090.000; -927.000
232.789;  -77.000; -257.000; -218.000
232.933;  -89.000; -407.000; -224.000
233.076; -250.600;-1038.000; -897.000
233.220; -202.400; -752.000; -777.000
233.363; -171.800; -669.000; -477.000
233.507;  135.300;  371.000;  129.000
233.650; -198.700; -764.000; -834.000
233.794;  100.900;  438.000;  461.000
233.938; -126.500; -530.000; -362.000
234.081;  -14.000;  -93.000;   31.000
234.225; -146.000; -631.000; -539.000
234.368; -250.300; -773.000; -723.000
234.512;  -89.900; -385.000; -299.000
234.655; -208.300; -582.000; -555.000
234.798; -155.100; -493.000; -466.000
234.942; -280.500; -884.000;-1002.000
235.085; -153.000; -651.000; -443.000
235.229; -128.700; -405.000; -410.000
235.372;  -94.300; -247.000; -191.000
235.516; -121.400; -397.000; -321.000
235.659;   69.400;   92.000;  121.000
235.802;  -39.900;  -38.000;  -22.000
235.946;   60.600;  335.000;  215.000
236.089;   83.000;  126.000;  250.000
236.233;  104.700;  275.000;  298.000
236.376;  -88.500; -235.000; -378.000
236.519;  -66.500; -297.000; -319.000
236.663;  -25.200; -215.000; -117.000
236.806; -281.800;-1029.000; -999.000
236.949;  136.800;  543.000;  431.000
237.092;  176.700;  412.000;  391.000
237.236; -148.000; -589.000; -502.000
237.379;  156.400;  352.000;  428.000
237.522; -262.300; -879.000; -768.000
237.666;  -51.400; -271.000;   18.000
237.809; -260.000; -851.000; -823.000
237.952;   70.900;  469.000;  271.000
238.095; -132.100; -447.000; -442.000
238.238;  210.000;  688.000;  700.000
238.382;    7.900;  166.000;  103.000
238.525; -147.500; -598.000; -511.000
238.668; -293.700;-1060.000; -985.000
238.811; -166.200; -638.000; -643.000
238.954; -104.100; -483.000; -334.000
239.097;  210.900;  617.000;  664.000
239.241;   62.100;  394.000;  326.000
239.384;  -58.700; -254.000; -214.000
239.527; -119.000; -424.000; -224.000
239.670; -277.800; -994.000;-1091.000
239.813; -228.800; -696.000; -658.000
239.956;  167.400;  579.000;  473.000
240.099; -204.800; -778.000; -725.000
240.242;  121.200;  428.000;  432.000
240.385;  103.100;  466.000;  450.000
240.528; -161.500; -706.000; -473.000
240.671;   41.500;  189.000;  134.000
240.814;  -82.100; -441.000; -158.000
240.957; -179.500; -767.000; -578.000
241.100; -216.500; -779.000; -755.000
241.243; -280.000;-1234.000; -893.000
241.386; -139.300; -508.000; -379.000
241.529; -184.300; -735.000; -547.000
241.672; -153.100; -566.000; -495.000
241.815; -239.200; -832.000; -808.000
241.958;  -55.800; -125.000; -182.000
242.101; -149.100; -545.000; -390.000
242.244;  -99.100; -270.000; -325.000
242.387;  -54.000; -304.000; -246.000
242.530;  148.900;  470.000;  134.000
242.673;  -85.400; -381.000; -309.000
242.815; -241.400; -925.000; -899.000
242.958; -136.800; -482.000; -381.000
243.101;   20.700;  132.000;  187.000
243.244; -156.700; -564.000; -521.000
243.387; -103.500; -313.000; -316.000
243.530; -183.400; -657.000; -674.000
243.672;   11.800;   43.000;  -92.000
243.815;  -93.200; -355.000; -283.000
243.958;   -1.700;   98.000;  -26.000
244.101;    1.900;   59.000;  -16.000
244.243;    7.500;  -47.000;  101.000
244.386; -229.800; -761.000; -630.000
244.529;  -19.500; -132.000; -139.000
244.672; -302.900;-1154.000; -951.000
244.814; -221.400; -621.000; -794.000
244.957; -107.400; -380.000; -304.000
245.100; -142.200; -489.000; -489.000
245.242; -131.300; -387.000; -374.000
245.385;  -11.800;  -59.000;  -39.000
245.528; -251.900; -871.000; -705.000
245.670;  205.100;  612.000;  634.000
245.813; -176.200; -599.000; -547.000
245.956;  -50.900; -324.000; -275.000
246.098; -142.400; -508.000; -650.000
246.241;   10.400;  194.000;   48.000
246.383;   -9.400; -119.000;  -73.000
246.526; -161.000; -454.000; -525.000
246.669; -227.400; -889.000; -780.000
246.811;   56.600;  172.000;   -1.000
246.954; -114.200; -512.000; -426.000
247.096;  -25.000;  -84.000;   -6.000
247.239; -158.800; -482.000; -445.000
247.381; -146.200; -647.000; -488.000
247.524;  211.400;  645.000;  679.000
247.666;    9.500;   58.000;   11.000
247.809; -254.900; -887.000; -691.000
247.951;    2.500;  -75.000;  138.000
248.094;   82.400;  432.000;  308.000
248.236; -329.000;-1262.000;-1238.000
248.378;  -16.400; -356.000;  -81.000
248.521;  -22.500; -334.000; -337.000
248.663;  -80.800; -236.000; -267.000
248.806;  -58.100; -300.000; -266.000
248.948; -211.300; -886.000; -763.000
249.090;  -75.300; -428.000; -398.000
249.233; -115.000; -344.000; -381.000
249.375; -108.700; -474.000; -451.000
249.518;  -32.400;  -83.000; -133.000
249.660;  -11.700; -103.000;    3.000
249.802; -346.700;-1303.000;-1189.000
249.945; -138.100; -612.000; -540.000
250.087; -220.700; -834.000; -768.000
250.229; -112.300; -362.000; -480.000
250.371; -148.700; -494.000; -439.000
250.514; -106.500; -310.000; -244.000
250.656;  -20.700;   69.000;  102.000
250.798; -262.400; -849.000; -800.000
250.940; -100.000; -322.000; -322.000
251.083;  -59.000; -335.000; -111.000
251.225;  127.000;  338.000;  310.000
251.367;  -65.600; -274.000; -373.000
251.509;  -62.000; -265.000; -210.000
251.651; -189.200; -731.000; -671.000
251.794;  132.700;  538.000;  632.000
251.936; -221.800; -821.000; -747.000
252.078; -180.500; -540.000; -461.000
252.220; -131.400; -645.000; -477.000
252.362;  142.000;  344.000;  462.000
252.504; -137.900; -677.000; -584.000
252.646; -239.800; -875.000; -722.000
252.788;   -4.200;   14.000; -128.000
252.931;  -40.900; -257.000; -253.000
253.073; -101.200; -376.000; -317.000
253.215;   31.900;  141.000;  122.000
253.357;  -11.300;   82.000; -153.000
253.499;  -84.500; -374.000; -234.000
253.641; -194.700; -749.000; -594.000
253.783; -182.100; -609.000; -527.000
253.925; -173.000; -586.000; -591.000
254.067; -215.000; -744.000; -667.000
254.209;  -58.600; -391.000; -259.000
254.351; -266.300; -865.000; -883.000
254.493; -148.700; -441.000; -417.000
254.635; -202.700; -936.000; -818.000
254.777; -194.300; -752.000; -687.000
254.918; -158.000; -512.000; -430.000
255.060; -118.500; -551.000; -395.000
255.202; -108.400; -473.000; -261.000
255.344; -160.200; -658.000; -455.000
255.486; -126.100; -471.000; -406.000
255.628; -206.900; -780.000; -781.000
255.770; -189.500; -676.000; -536.000
255.912;  -96.900; -559.000; -468.000
256.053; -181.300; -730.000; -508.000
256.195;  333.100; 1008.000;  903.000
256.337; -168.400; -861.000; -595.000
256.479;  146.900;  532.000;  416.000
256.621;  -78.400; -394.000; -212.000
256.762; -175.500; -789.000; -742.000
256.904;  118.300;  485.000;  487.000
257.046; -100.800; -381.000; -271.000
257.188; -108.400; -351.000; -264.000
257.329; -140.400; -525.000; -464.000
257.471; -225.800; -939.000; -807.000
257.613; -114.600; -584.000; -498.000
257.755; -304.000;-1073.000; -982.000
257.896;   87.700;  286.000;  392.000
258.038; -131.800; -403.000; -352.000
258.180;  -79.500; -354.000; -279.000
258.321; -157.200; -581.000; -457.000
258.463;    5.300;  -71.000;  133.000
258.605; -156.300; -562.000; -570.000
258.746; -214.600; -886.000; -772.000
258.888; -289.400;-1026.000;-1020.000
259.029;   45.700;  121.000;   -8.000
259.171; -191.300; -614.000; -550.000
259.313;   -2.300;  -49.000;  -47.000
259.454; -152.600; -536.000; -414.000
259.596; -105.100; -483.000; -390.000
259.737; -127.400; -590.000; -474.000
259.879;   60.200;  217.000;  311.000
260.020;  222.900;  901.000;  636.000
260.162;  -27.300; -146.000; -253.000
260.303; -237.400; -768.000; -687.000
260.445; -151.600; -609.000; -613.000
260.586;   68.500;  392.000;  157.000
260.728;  -95.100; -360.000; -248.000
260.869; -137.700; -350.000; -343.000
261.011;  201.800;  706.000;  537.000
261.152; -112.900; -479.000; -319.000
261.293; -146.800; -576.000; -595.000
261.435;  -84.800; -219.000; -184.000
261.576;  -94.200; -455.000; -325.000
261.718;  121.500;  420.000;  470.000
261.859; -267.500; -940.000; -949.000
262.000; -264.400; -951.000;-1016.000
262.142;  -38.500;  -52.000;  -60.000
262.283; -237.600; -808.000; -691.000
262.424; -173.600; -666.000; -625.000
262.566; -330.600;-1161.000; -983.000
262.707; -226.500; -840.000; -830.000
262.848; -253.400; -769.000; -726.000
262.990;  -74.900; -362.000; -345.000
263.131;  184.900;  650.000;  681.000
263.272;   -2.200;  -61.000;  -41.000
263.413; -178.900; -589.000; -561.000
263.555; -120.200; -669.000; -143.000
263.696; -170.500; -550.000; -641.000
263.837; -113.400; -449.000; -551.000
263.978;   22.000;   -5.000;  -77.000
264.119; -101.400; -283.000; -264.000
264.261; -213.700; -847.000; -630.000
264.402;   18.600;   33.000;   40.000
264.543; -153.300; -509.000; -524.000
264.684;   -8.600;   61.000;  -50.000
264.825; -138.600; -816.000; -538.000
264.966;    9.000;  -84.000;  -67.000
265.107; -207.500; -646.000; -670.000
265.248; -235.900; -825.000; -812.000
265.390;    4.200;  152.000;   -9.000
265.531;  -25.700; -238.000; -107.000
265.672; -165.000; -557.000; -630.000
265.813;  143.800;  563.000;  439.000
265.954; -277.300; -959.000; -940.000
266.095;  -13.200; -372.000; -322.000
266.236; -199.900; -686.000; -548.000
266.377;  -83.500; -243.000; -297.000
266.518; -133.900; -619.000; -547.000
266.659;   65.600;  170.000;  268.000
266.800;   39.000;   83.000;   85.000
266.941; -139.400; -487.000; -478.000
267.082;   59.100;  354.000;   99.000
267.223;  -98.200; -344.000; -273.000
267.364; -238.200; -892.000; -686.000
267.504;  -51.100;    3.000;  135.000
267.645;    8.600;  160.000;   67.000
267.786;  -69.600; -147.000;  -86.000
267.927; -141.500; -473.000; -379.000
268.068;  -26.400; -186.000;  -61.000
268.209; -117.400; -175.000; -413.000
268.350; -103.600; -388.000; -532.000
268.490; -149.100; -648.000; -521.000
268.631;  124.300;  127.000;  225.000
268.772; -220.200; -874.000; -647.000
268.913; -100.100; -328.000; -476.000
269.054;    1.900; -117.000;   12.000
269.194;  -99.100; -418.000; -402.000
269.335; -276.200;-1137.000;-1074.000
269.476;   -7.700;   33.000;  -35.000
269.617;  -68.400; -347.000; -392.000
269.757; -194.000; -713.000; -646.000
269.898; -214.000; -856.000; -613.000
270.039; -107.200; -415.000; -405.000
270.180; -245.400; -952.000; -816.000
270.320;  -12.300; -190.000; -250.000
270.461;  -63.500; -277.000; -249.000
270.602;  -38.700; -186.000; -156.000
270.742; -230.100; -868.000; -943.000
270.883; -158.100; -442.000; -390.000
271.023;  -73.300; -358.000; -357.000
271.164; -153.300; -607.000; -528.000
271.305; -158.700; -666.000; -654.000
271.445; -177.000; -722.000; -683.000
271.586; -122.800; -462.000; -283.000
271.726;  -84.600; -397.000; -322.000
271.867; -123.900; -594.000; -534.000
272.008;  334.300; -473.000; -285.000
272.148;  273.500;  462.000;  468.000
272.289;   53.200; -113.000; -181.000
272.429;   49.000;   19.000;  185.000
272.570; -168.700; -633.000; -737.000
272.710; -192.600; -825.000; -775.000
272.851;  -35.100;  113.000; -130.000
272.991; -323.200;-1173.000;-1077.000
273.131; -141.700; -419.000; -459.000
273.272; -169.900; -683.000; -723.000
273.412;   13.200; -143.000;  -31.000
273.553;  -67.800; -488.000; -507.000
273.693;  270.200;  913.000;  858.000
273.834; -206.500; -894.000; -692.000
273.974; -165.500; -664.000; -615.000
274.114; -194.100; -772.000; -560.000
274.255;  154.900;  414.000;  373.000
274.395;   29.500; -180.000; -125.000
274.535;   90.400;  199.000;  350.000
274.676;  108.600;  225.000;   94.000
274.816;    4.800;  110.000;   34.000
274.956; -161.800; -624.000; -690.000
275.097; -134.800;-1014.000; -922.000
275.237; -224.200; -913.000; -803.000
275.377; -183.400; -778.000; -689.000
275.517; -286.800; -878.000; -937.000
275.658; -120.300; -590.000; -555.000
275.798; -136.100; -606.000; -413.000
275.938;   28.800;  215.000;  323.000
276.078; -146.200; -626.000; -395.000
276.218;    8.200;   99.000;  104.000
276.359; -230.100;-1026.000;-1024.000
276.499; -131.900; -605.000; -446.000
276.639;  -70.400; -305.000; -151.000
276.779;  -75.400; -475.000; -357.000
276.919; -210.800; -783.000; -624.000
277.059;  -23.000; -261.000; -212.000
277.199;  -53.200; -357.000; -259.000
277.340;  125.900;  287.000;  175.000
277.480; -193.100; -840.000; -693.000
277.620;   81.000;  192.000;   16.000
277.760; -391.800;-1533.000;-1294.000
277.900;   31.400;  113.000;   33.000
278.040;   53.900;  137.000;  159.000
278.180;   94.100;  270.000;  170.000
278.320;   35.700;   21.000;   56.000
278.460; -136.100; -443.000; -469.000
278.600; -174.300; -708.000; -598.000
278.740;  129.200;  448.000;  224.000
278.880; -114.400; -768.000; -791.000
279.020;   23.700; -194.000; -144.000
279.160; -160.000; -672.000; -595.000
279.300; -236.600; -926.000; -873.000
279.440; -164.200; -709.000; -622.000
279.579;  -96.000;-1014.000; -929.000
279.719;  -86.500; -410.000; -394.000
279.859;  133.800;   -4.000;   41.000
279.999;   45.800; -208.000;  101.000
280.139;  -49.900; -435.000; -387.000
280.279; -156.500; -708.000; -745.000
280.419;  -18.200; -229.000; -147.000
280.559;  -20.600; -259.000; -180.000
280.698; -160.900; -790.000; -639.000
280.838; -174.200; -778.000; -800.000
280.978; -178.000; -846.000; -790.000
281.118; -221.400; -811.000; -704.000
281.257;   14.600;   24.000;    6.000
281.397; -206.800;-1094.000; -960.000
281.537; -150.500; -599.000; -712.000
281.677;  -10.700; -150.000; -101.000
281.816; -170.000; -700.000; -630.000
281.956;  -42.000; -193.000; -257.000
282.096; -130.500; -539.000; -396.000
282.235; -217.300; -672.000; -638.000
282.375;    6.900; -243.000;  -98.000
282.515; -176.200; -715.000; -707.000
282.654;   24.900;   29.000;  106.000
282.794;   74.600;  388.000;  244.000
282.934;  -91.300; -530.000; -491.000
283.073; -236.300;-1030.000; -857.000
283.213; -108.500; -460.000; -467.000
283.353;  -50.400; -408.000; -349.000
283.492;  -41.700; -264.000; -296.000
283.632;  -58.600; -254.000; -168.000
283.771; -185.500; -859.000; -730.000
283.911;  -75.300; -369.000; -260.000
284.050; -216.700; -794.000; -748.000
284.190; -303.600;-1229.000;-1096.000
284.329; -293.500;-1055.000; -964.000
284.469; -107.900; -516.000; -591.000
284.608;  -85.400; -559.000; -598.000
284.748; -136.800; -614.000; -570.000
284.887;   32.500;  -87.000;  -20.000
285.027; -253.000; -844.000; -892.000
285.166;  -27.300; -192.000; -249.000
285.306;   48.800; -116.000;  -33.000
285.445;  -29.800; -229.000; -343.000
285.584; -168.800; -630.000; -494.000
285.724;  -83.900; -282.000; -322.000
285.863; -251.800; -857.000; -507.000
286.002; -102.800; -366.000; -276.000
286.142; -195.300; -715.000; -622.000
286.281;  -92.600; -525.000; -493.000
286.420; -138.600; -554.000; -417.000
286.560;  226.100;  653.000;  623.000
286.699; -240.200; -958.000; -912.000
286.838; -178.600; -590.000; -591.000
286.978; -146.300; -533.000; -537.000
287.117; -269.000;-1085.000; -950.000
287.256;  -38.000; -228.000; -211.000
287.395;  -70.700; -197.000; -378.000
287.535;  -82.500; -370.000; -298.000
287.674; -128.500; -509.000; -484.000
287.813;  180.200;  661.000;  533.000
287.952; -259.300;-1010.000; -871.000
288.091; -281.900;-1049.000; -915.000
288.231;   60.400;   13.000;   15.000
288.370; -354.200;-1217.000;-1200.000
288.509; -155.100; -728.000; -645.000
288.648; -171.600; -770.000; -548.000
288.787;  -24.400; -243.000;  -87.000
288.926; -120.700; -454.000; -475.000
289.065;  229.500;  859.000;  672.000
289.204;  -86.900; -377.000; -217.000
289.344; -183.300; -791.000; -690.000
289.483;   69.300;  416.000;  304.000
289.622;  -52.900; -291.000; -149.000
289.761;  -16.500; -309.000; -166.000
289.900; -204.300; -785.000; -626.000
290.039;  -10.500;  -12.000;  -95.000
290.178;  -51.900; -274.000; -180.000
290.317; -124.700; -618.000; -479.000
290.456; -142.500; -463.000; -451.000
290.595; -258.200; -961.000; -833.000
290.734; -300.400; -904.000; -891.000
290.873;  -99.000; -456.000; -420.000
291.011; -231.100; -833.000; -843.000
291.150; -190.300; -770.000; -682.000
291.289;  -20.100; -343.000; -110.000
291.428; -153.000; -599.000; -480.000
291.567;  -82.100; -370.000; -442.000
291.706;    8.300;  109.000;  154.000
291.845; -161.900; -597.000; -505.000
291.984; -318.700;-1234.000;-1061.000
292.122;  169.800;  602.000;  582.000
292.261;  124.000;  620.000;  463.000
292.400;    5.100; -144.000;  211.000
292.539; -262.300; -959.000; -813.000
292.678;  -59.300; -325.000; -300.000
292.816; -292.100;-1136.000; -965.000
292.955; -176.900; -844.000; -684.000
293.094;  -11.100; -173.000; -337.000
293.233;  -90.900; -556.000; -400.000
293.371;  -65.900; -225.000;  -84.000
293.510; -195.100; -866.000; -780.000
293.649; -230.800; -959.000; -924.000
293.787; -164.000;-1083.000;-1012.000
293.926;   40.800; -113.000;  -32.000
294.065;  -77.600; -379.000; -290.000
294.203;   98.400;  298.000;  406.000
294.342;   83.400;   74.000;  156.000
294.481;11790.800;51180.000; -836.000
294.619;  -48.300; -425.000; -582.000
294.758; -289.300;-1230.000;-1137.000
294.896;  151.000; -125.000;    5.000
295.035; -223.500;-1040.000;-1006.000
295.174; -222.400;-1082.000; -954.000
295.312;  -83.000; -323.000; -203.000
295.451;  -35.700; -307.000; -428.000
295.589;  -81.800; -389.000; -518.000
295.728;   41.800; -292.000; -165.000
295.866;   15.100;  -36.000;  -51.000
296.005; -129.300; -584.000; -341.000
296.143; -132.100; -558.000; -596.000
296.282; -196.300; -957.000; -881.000
296.420; -156.300; -657.000; -557.000
296.559; -131.500; -892.000; -633.000
296.697;   12.000; -847.000; -665.000
296.835;  114.800;-1141.000;-1002.000
296.974;  106.200;  -23.000;   39.000
297.112;  -14.500; -443.000; -504.000
297.251; -152.300; -815.000; -755.000
297.389;  142.500; -576.000; -438.000
297.527;   94.100; -145.000;  -83.000
297.666;  -78.800; -486.000; -438.000
297.804;  -69.400; -404.000; -264.000
297.942;   21.900; -136.000; -161.000
298.081;    5.900; -183.000;   63.000
298.219;  103.600;  -17.000;  -19.000
298.357;   93.900; -144.000;  -71.000
298.495;   48.500; -810.000; -812.000
298.634;  124.300;  245.000;  219.000
298.772;  123.100; -220.000; -338.000
298.910;  -31.700; -309.000; -182.000
299.048;   -5.200; -130.000; -153.000
299.187;  -33.600; -350.000; -250.000
299.325;   79.300;   52.000;  122.000
299.463;   93.100; -389.000; -299.000
299.601;  214.100; -327.000; -271.000
299.739; -190.200; -908.000; -883.000
299.877; -158.800; -791.000; -703.000
300.016;  -87.400;-1095.000; -935.000
300.154;  315.800;  -19.000; -161.000
300.292;   76.000; -428.000; -348.000
300.430;   42.200; -408.000; -291.000
300.568; -170.900; -940.000; -874.000
300.706;  -76.400; -366.000; -469.000
300.844; -161.000;-1108.000; -979.000
300.982;  241.100;  246.000;  282.000
301.120; -213.800; -965.000; -866.000
301.258; -156.300; -812.000; -705.000
301.396;   77.500;  104.000;  -41.000
301.534;  150.500; -218.000; -293.000
301.672;   -9.600; -664.000; -521.000
301.810;   31.900; -613.000; -545.000
301.948;  275.300;   53.000;  149.000
302.086; 1057.200; -250.000;  -32.000
302.224; 1738.800; -610.000; -585.000
302.362;   58.900; -558.000; -622.000
302.500;  -39.400; -923.000; -893.000
302.638;  225.800;  128.000;  245.000
302.776;   18.000; -352.000; -408.000
302.913;   98.000;  447.000;  236.000
303.051;   14.200;  -86.000;  -23.000
303.189;  118.300;   90.000;  118.000
303.327;  -46.300; -341.000; -256.000
303.465; -151.300; -832.000; -588.000
303.603; -163.800; -805.000; -604.000
303.740;  214.500;  417.000;  241.000
303.878;   52.900; -800.000; -759.000
304.016; -139.900; -915.000; -790.000
304.154; -249.700;-1123.000;-1152.000
304.291;  -41.000; -505.000; -554.000
304.429;   37.100;  102.000;   74.000
304.567; -237.400; -908.000; -893.000
304.705;  -77.600; -408.000; -515.000
304.842;  166.900; -616.000; -540.000
304.980;  144.100;  215.000;   35.000
305.118;   92.500; -367.000; -365.000
305.255; -115.200; -945.000; -927.000
305.393;  104.300;  178.000;  239.000
305.531; -237.300;-1173.000; -956.000
305.668; -144.700; -663.000; -582.000
305.806;  208.000; -358.000; -439.000
305.943;  188.900; -629.000; -637.000
306.081;  132.300; -378.000; -267.000
306.219; -212.800; -863.000; -748.000
306.356;   21.600;  158.000;   27.000
306.494;  247.000;  981.000;  761.000
306.631;   69.400;  -11.000;  -55.000
306.769;   34.900; -613.000; -485.000
306.906;  -11.100; -284.000; -258.000
307.044; -111.800; -473.000; -488.000
307.181;  -93.100; -410.000; -332.000
307.319;  105.400;  112.000;   87.000
307.456; -308.500;-1191.000;-1153.000
307.594; -180.800; -980.000; -727.000
307.731;   13.300; -371.000; -164.000
307.868;   28.300;  -15.000;   20.000
308.006; -239.800; -961.000; -847.000
308.143; -126.600; -618.000; -330.000
308.281;  437.400;  -37.000; -254.000
308.418;   26.900; -748.000; -640.000
308.555; -123.900; -400.000; -250.000
308.693; -108.600; -577.000; -573.000
308.830; -171.000; -712.000; -657.000
308.967;  -27.900; -215.000;  -95.000
309.105;  -21.900; -507.000; -396.000
309.242;  126.500; -468.000; -367.000
309.379;  791.400; -577.000; -655.000
309.517;  -80.400; -936.000; -948.000
309.654; -172.900; -910.000; -734.000
309.791; -133.400; -662.000; -580.000
309.928; -209.000; -977.000; -914.000
310.065;  404.900;  819.000;  697.000
310.203;    0.900; -825.000; -850.000
310.340;   13.800; -465.000; -321.000
310.477; -106.400; -412.000; -516.000
310.614; -112.000; -383.000; -473.000
310.751; -155.200; -427.000; -518.000
310.889;  -27.700;    1.000;   11.000
311.026; -276.100;-1161.000; -939.000
311.163;  -61.000; -386.000; -380.000
311.300; -114.400; -512.000; -479.000
311.437; -142.400; -658.000; -619.000
311.574; -285.800;-1226.000; -985.000
311.711; -106.500; -595.000; -433.000
311.848;  -43.800; -380.000; -388.000
311.985;   51.100;  270.000;   93.000
312.122; -212.600; -932.000; -762.000
312.259; -197.600; -941.000; -994.000
312.396; -121.200; -508.000; -551.000
312.533; -141.200; -812.000; -790.000
312.670; -250.100;-1070.000; -898.000
312.807;  -61.700; -352.000; -367.000
312.944; -121.500; -513.000; -611.000
313.081;  -32.700; -150.000; -415.000
313.218; -183.800;-1111.000; -867.000
313.355;    9.300; -531.000; -449.000
313.492;   48.200; -455.000; -292.000
313.629;  288.000;  815.000;  735.000
313.766; -302.100;-1176.000;-1008.000
313.902;   -5.800; -186.000;   21.000
314.039;  -55.200; -372.000; -289.000
314.176;   63.500;  286.000;  192.000
314.313;  -86.200; -569.000; -473.000
314.450; -155.400; -788.000; -684.000
314.587;  -83.700; -468.000; -480.000
314.723;   50.400;  -78.000;  130.000
314.860;  105.900;  318.000;  332.000
314.997;   93.000;  223.000;  142.000
315.134;  -54.400; -385.000; -368.000
315.270;  -48.100; -480.000; -496.000
315.407; -241.000;-1094.000; -967.000
315.544;  -55.100; -657.000; -538.000
315.681; -102.000; -681.000; -565.000
315.817;   73.400; -133.000; -176.000
315.954;   35.800; -613.000; -392.000
316.091; -239.300;-1045.000;-1023.000
316.227;   -8.800;  -71.000; -179.000
316.364;   23.900;   23.000;    6.000
316.500;  -68.400; -113.000; -300.000
316.637;  -71.700; -181.000; -302.000
316.774; -157.700; -625.000; -358.000
316.910; -141.500; -598.000; -629.000
317.047; -108.900; -487.000; -351.000
317.183;  -48.300; -435.000; -566.000
317.320;  -13.700; -367.000; -321.000
317.456; -136.100; -733.000; -805.000
317.593; -136.100; -598.000; -641.000
317.729;   19.700;  168.000;  -67.000
317.866; -394.400;-1434.000;-1285.000
318.002; -145.800; -708.000; -948.000
318.139; -185.300; -883.000; -867.000
318.275; -216.700;-1003.000; -738.000
318.412; -117.500; -517.000; -336.000
318.548;  -49.200; -751.000; -720.000
318.685; -154.600; -985.000; -888.000
318.821; -195.100; -762.000; -735.000
318.957;   -7.000;   34.000;  -23.000
319.094;  114.400;  297.000;  154.000
319.230; -121.700; -756.000; -742.000
319.367;  262.800; -471.000; -520.000
319.503;  154.200; -538.000; -436.000
319.639; -173.000; -877.000; -793.000
319.775;  -93.100; -750.000; -685.000
319.912;  -78.200; -424.000; -519.000
320.048; -162.300;-1184.000;-1184.000
320.184;  187.300;   59.000;   70.000
320.321;  -79.900; -497.000; -467.000
320.457;  173.900;  475.000;  662.000
320.593;  -70.900; -375.000; -382.000
320.729; -203.300; -732.000; -734.000
320.866; -111.400; -577.000; -635.000
321.002; -137.000; -759.000; -809.000
321.138;    7.500; -135.000; -211.000
321.274;  163.400; -148.000; -115.000
321.410;  -21.800; -585.000; -353.000
321.546;  -41.200;-1011.000; -911.000
321.683;  121.800;  400.000;  185.000
321.819;   63.100;  -48.000; -117.000
321.955; -205.900; -743.000; -722.000
322.091;  -72.500; -585.000; -540.000
322.227;   -5.300; -382.000; -202.000
322.363;    1.900; -320.000; -215.000
322.499;  -63.500; -343.000; -331.000
322.635;  359.200;  636.000;  443.000
322.771;   60.400; -139.000;   12.000
322.907;  213.900;  129.000;  327.000
323.043;   -4.600; -115.000; -206.000
323.179;  -27.700; -394.000; -363.000
323.315;   53.000; -401.000; -371.000
323.451;  208.300; -328.000; -236.000
323.587;  136.100;  -60.000;  -77.000
323.723;   23.100; -682.000; -601.000
323.859;   -5.200; -258.000;  -76.000
323.995;  -83.000; -467.000; -409.000
324.131; -244.700; -967.000; -892.000
324.267;  -43.100; -254.000; -276.000
324.402; -246.900; -960.000; -983.000
324.538;   -8.000; -279.000; -104.000
324.674;   84.700;  164.000;   77.000
324.810;  319.400;  226.000;  308.000
324.946;   44.200; -810.000; -658.000
325.082; -109.200; -568.000; -475.000
325.217;    4.300;  -62.000;   16.000
325.353; -176.300; -764.000; -659.000
325.489; -139.900; -540.000; -506.000
325.625; -136.000; -579.000; -525.000
325.760;  173.400;  517.000;  376.000
325.896;  -24.700; -515.000; -702.000
326.032;  -55.700; -403.000; -352.000
326.168;  -88.000; -462.000; -369.000
326.303;  -70.800; -352.000; -461.000
326.439;  -24.800; -336.000; -276.000
326.575;   32.300; -190.000;  -29.000
326.710;   17.000; -156.000;  -30.000
326.846;    8.400;  146.000;  103.000
326.982; -157.600; -530.000; -548.000
327.117;  -96.100; -481.000; -442.000
327.253; -178.000; -745.000; -742.000
327.388; -277.000;-1137.000;-1153.000
327.524;  -46.200; -811.000; -578.000
327.659;   -6.100;  -58.000;  -22.000
327.795;   -8.400;   69.000;   45.000
327.931; -125.900; -723.000; -499.000
328.066;  -36.200; -417.000; -276.000
328.202;    2.600;   12.000; -129.000
328.337;  214.600;  957.000;  713.000
328.473;   28.600;  -12.000;  -74.000
328.608;   -9.000; -256.000; -267.000
328.743; -144.200; -799.000; -664.000
328.879;   82.100;  214.000;  114.000
329.014;  -85.000; -102.000; -122.000
329.150; -147.700; -358.000; -483.000
329.285; -136.600; -465.000; -466.000
329.421;  -76.000; -548.000; -246.000
329.556;   11.200;  -36.000;   85.000
329.691; -182.300; -633.000; -615.000
329.827; -146.900; -626.000; -480.000
329.962;  -59.400;  131.000; -301.000
330.097; -176.400; -673.000; -585.000
330.233;  -70.100; -410.000; -223.000
330.368; -229.700; -839.000; -628.000
330.503;    3.000;    3.000;   98.000
330.638;   74.600;  -93.000; -125.000
330.774;  -91.900; -609.000; -530.000
330.909;  -57.400; -434.000; -244.000
331.044; -176.400; -714.000; -708.000
331.179; -321.100;-1217.000;-1109.000
331.315;   50.600;   77.000;   20.000
331.450;   42.900;  157.000;  285.000
331.585; -168.500; -805.000; -706.000
331.720; -164.300; -510.000; -460.000
331.855;   -8.000;  -35.000; -102.000
331.990;  486.100;   62.000;  138.000
332.126;  277.400; -110.000;   71.000
332.261;  -29.000; -379.000; -265.000
332.396;   14.100; -135.000; -242.000
332.531; -181.000;-1074.000;-1031.000
332.666;   86.200; -519.000; -363.000
332.801; -162.000; -726.000; -807.000
332.936;  -21.900; -192.000; -122.000
333.071; -248.400; -870.000; -817.000
333.206;   81.500;  307.000;  379.000
333.341;  128.600;  344.000;  418.000
333.476; -116.500; -627.000; -623.000
333.611;  -47.600; -251.000; -173.000
333.746;  -71.500; -381.000; -464.000
333.881; -186.500; -973.000; -935.000
334.016; -264.100; -936.000; -917.000
334.151; -216.900; -746.000; -702.000
334.286;   75.100;  152.000;  186.000
334.421;   10.400; -125.000; -178.000
334.556; -150.700; -611.000; -567.000
334.690; -152.200; -631.000; -577.000
334.825;  149.600;  381.000;   83.000
334.960; -102.500; -285.000; -413.000
335.095;   59.600;  135.000;  -91.000
335.230; -215.100; -722.000; -738.000
335.365; -247.100;-1084.000; -990.000
335.499; -237.300;-1108.000;-1037.000
335.634;   84.100;    9.000;  534.000
335.769; -202.800; -755.000; -720.000
335.904;  -94.600; -603.000; -561.000
336.038; -104.900; -735.000; -657.000
336.173; -215.000;-1206.000;-1194.000
336.308;   36.800; -116.000; -189.000
336.443;   42.000; -544.000; -634.000
336.577;  -92.000; -936.000; -787.000
336.712;  139.400;   -4.000;  -12.000
336.847;  -90.900; -724.000; -607.000
336.981;  123.000; -272.000; -208.000
337.116;  532.500;  615.000;  501.000
337.250;  247.300; -434.000; -421.000
337.385;  484.600; -297.000; -208.000
337.520;  191.700; -632.000; -603.000
337.654;  -72.400; -215.000; -126.000
337.789; -236.700; -989.000; -933.000
337.923;  -20.700; -104.000; -205.000
338.058; -172.300; -673.000; -738.000
338.192;  -50.400; -611.000; -488.000
338.327;   26.300;  -18.000; -155.000
338.461; -106.000; -299.000; -469.000
338.596; -162.100; -780.000; -638.000
338.730; -157.000; -767.000; -803.000
338.865;  201.000;  -46.000; -140.000
338.999;  -96.300; -846.000; -702.000
339.134;  -33.300; -634.000; -536.000
339.268;   52.300; -741.000; -603.000
339.403;  696.800; -740.000; -775.000
339.537;  227.500; -894.000; -820.000
339.671; -186.900; -829.000; -813.000
339.806; -110.800; -556.000; -512.000
339.940;   34.700; -261.000; -235.000
340.074; -175.400; -685.000; -510.000
340.209;  -56.700; -351.000; -230.000
340.343; -143.900; -517.000; -573.000
340.477;  378.900;  998.000; 1036.000
340.612;  -80.000;-1033.000; -900.000
340.746;  263.200; -199.000; -243.000
340.880; -127.300; -924.000; -785.000
341.014;   17.400;  -45.000; -154.000
341.149; -200.400; -756.000; -718.000
341.283; -191.100; -839.000; -754.000
341.417; -194.600;-1124.000; -938.000
341.551;  230.200; -768.000; -708.000
341.685;  -36.400; -633.000; -611.000
341.820;  -86.900; -562.000; -493.000
341.954;  -40.700; -218.000; -349.000
342.088; -300.000;-1102.000;-1019.000
342.222;  104.800;  565.000;  618.000
342.356;  -90.600; -395.000; -335.000
342.490; -152.100; -880.000; -841.000
342.624;  -58.100; -339.000; -242.000
342.758;   35.900; -364.000; -312.000
342.892;  -68.700; -710.000; -585.000
343.026;   -2.200;  -58.000; -116.000
343.160;  -78.600; -426.000; -376.000
343.294;  -95.500; -474.000; -337.000
343.428;  -35.600; -488.000; -448.000
343.562;   61.600; -172.000;  -23.000
343.696;  -33.200; -385.000; -314.000
343.830;   -0.500; -362.000; -356.000
343.964;   68.700; -231.000; -168.000
344.098; 1703.700;  199.000;   70.000
344.232; 1385.100; -266.000; -127.000
344.366;  179.100; -567.000; -453.000
344.500;  127.300; -665.000; -744.000
344.634;   85.200; -324.000; -164.000
344.768;  -10.200; -531.000; -341.000
344.902;   98.600;  278.000;  256.000
345.035; -111.700; -556.000; -496.000
345.169; -233.600; -933.000; -656.000
345.303;  -32.800; -308.000; -482.000
345.437; -141.800; -826.000; -717.000
345.571; -125.200; -675.000; -594.000
345.704;  -90.600; -309.000; -532.000
345.838;  -19.300; -331.000; -284.000
345.972;  -44.000; -543.000; -495.000
346.106;  325.600; -179.000; -190.000
346.239;  797.700; -312.000; -243.000
346.373;   32.900; -343.000; -302.000
346.507; -238.500; -950.000; -962.000
346.640;  283.800;  -30.000;   13.000
346.774;  -52.200; -650.000; -797.000
346.908;   48.400; -138.000;  -11.000
347.041; -137.800; -646.000; -593.000
347.175;   43.100;  259.000;   27.000
347.309; -113.900; -698.000; -628.000
347.442; -222.500; -883.000; -732.000
347.576;  564.200;  670.000;  668.000
347.709;  393.000; -123.000;  -52.000
347.843; -146.400; -933.000; -825.000
347.976;  122.200;  235.000;  294.000
348.110; -311.500;-1268.000;-1186.000
348.243; -179.100; -679.000; -772.000
348.377;   23.200;  -26.000;   60.000
348.510;  143.900;  403.000;  540.000
348.644;  -16.500;  -37.000; -159.000
348.777;   67.800;  180.000;  191.000
348.911;  -15.500; -142.000; -112.000
349.044;  359.300;  471.000;  448.000
349.178;  291.100;-1069.000;-1006.000
349.311;  256.000;  141.000;  255.000
349.444;   14.800; -927.000; -813.000
349.578;   -7.400; -347.000; -200.000
349.711; -177.400; -959.000; -862.000
349.845;   26.800; -661.000; -591.000
349.978; -277.100;-1224.000;-1137.000
350.111; -149.000; -546.000; -612.000
350.244; -137.800; -596.000; -700.000
350.378;   44.600; -392.000; -393.000
350.511; -101.600; -393.000; -426.000
350.644; -183.400; -808.000; -806.000
350.778;   54.400;  168.000;  104.000
350.911;   35.500;  134.000;  140.000
351.044; -168.200; -685.000; -615.000
351.177;  -28.800; -321.000; -281.000
351.310;  -11.500;    3.000; -131.000
351.444; -189.100; -888.000; -788.000
351.577;  253.500;  140.000;   90.000
351.710;  232.700;  593.000;  417.000
351.843;  -26.900; -165.000;  -77.000
351.976;   23.500;  149.000;  -79.000
352.109; -139.200; -621.000; -612.000
352.242;   10.200; -464.000; -419.000
352.376; -102.400; -580.000; -636.000
352.509;  311.800; -437.000; -356.000
352.642;   23.300; -654.000; -604.000
352.775;  177.500; -141.000;  -98.000
352.908; -202.200; -933.000; -904.000
353.041; -167.700; -814.000; -824.000
353.174;  -65.500; -551.000; -424.000
353.307; -162.800; -753.000; -764.000
353.440;  189.500;  541.000;  453.000
353.573; -204.500; -957.000;-1008.000
353.706;  -80.700; -384.000; -558.000
353.839;  -26.200; -264.000; -220.000
353.971; -159.100; -657.000; -512.000
354.104; -134.900; -896.000; -835.000
354.237;  -74.100; -627.000; -662.000
354.370; -139.200; -846.000; -879.000
354.503; -314.000;-1231.000;-1308.000
354.636;  -42.300; -529.000; -348.000
354.769; -219.300; -937.000; -860.000
354.902;   -1.900; -230.000; -139.000
355.034;    3.000; -164.000; -220.000
355.167;    0.800; -262.000; -162.000
355.300; -161.200;-1061.000; -880.000
355.433; 1834.900;  -71.000;  -14.000
355.565; 2951.600; -402.000; -384.000
355.698;  731.400; -356.000; -296.000
355.831;   -3.700; -882.000; -801.000
355.964;  206.300; -285.000; -170.000
356.096; -151.100; -856.000; -843.000
356.229;   19.300; -523.000; -530.000
356.362;  609.700; -373.000; -266.000
356.494; 1095.900; -229.000; -162.000
356.627;  992.200;  269.000;  377.000
356.760; 1304.000;  120.000;   53.000
356.892; 1727.700; -286.000; -601.000
357.025; 1250.300;  403.000;  389.000
357.157; 1155.800; -167.000; -179.000
357.290; 1250.600; -856.000; -713.000
357.423;  356.400; -667.000; -556.000
357.555;  235.700; -217.000; -228.000
357.688;  217.200; -483.000; -364.000
357.820;  765.400; -870.000; -877.000
357.953; 6613.800; -563.000; -589.000
358.085; 1396.400; -632.000; -612.000
358.218; 2106.600;-1131.000; -932.000
358.350;  426.200;  -58.000;  312.000
358.483; -228.300;-1300.000;-1187.000
358.615;  -21.500;-1182.000;-1078.000
358.747; -122.700;-1187.000;-1058.000
358.880;   51.000; -810.000; -744.000
359.012;   21.000; -376.000; -202.000
359.145;  -25.100; -480.000; -511.000
359.277;   34.100; -962.000; -913.000
359.409; 5473.100;  536.000;  231.000
359.542; 1395.600; -738.000; -688.000
359.674;  169.200;   46.000;   13.000
359.806;  -75.700; -565.000; -438.000
359.939;  -43.600; -617.000; -516.000
360.071;    2.100; -583.000; -579.000
360.203;    2.600; -411.000; -364.000
360.335;  160.000;  164.000;  -16.000
360.468;  351.200; -249.000; -307.000
360.600; 4362.100; -547.000; -454.000
360.732; 5202.100; -546.000; -423.000
360.864;  711.400;-1216.000;-1044.000
360.996;  503.500; -516.000; -554.000
361.129;  105.300; -389.000; -598.000
361.261;   49.100;  110.000; -113.000
361.393;  -24.000; -252.000; -214.000
361.525;  101.000;   94.000;  244.000
361.657;  -55.800; -821.000; -703.000
361.789;   69.000; -139.000; -155.000
361.921;  446.200; -642.000; -593.000
362.053;  542.100;  524.000;  541.000
362.185;  174.800;  288.000;   72.000
362.318; -107.400; -709.000; -705.000
362.450;  282.400;  294.000;  444.000
362.582;  210.200; -913.000; -870.000
362.714;  -39.900; -353.000; -332.000
362.846; -133.100; -606.000; -490.000
362.978; -243.600; -941.000; -811.000
363.109;  126.400; -161.000; -260.000
363.241;  853.700; -739.000; -749.000
363.373;  846.600; -649.000; -564.000
363.505; 1244.600; -186.000;  -91.000
363.637;  314.800; -787.000; -601.000
363.769; -205.300;-1067.000;-1080.000
363.901; -113.300; -596.000; -654.000
364.033; -205.300;-1103.000;-1062.000
364.165;   49.600; -283.000; -283.000
364.296;  197.000; -316.000; -177.000
364.428;  140.200;-1344.000;-1220.000
364.560; -139.000; -679.000; -661.000
364.692;  -93.900; -738.000; -835.000
364.824;  506.300; -588.000; -456.000
364.955;  842.800; -402.000; -564.000
365.087; 1663.900;-1097.000; -852.000
365.219;   39.900; -686.000; -816.000
365.351;  -66.400; -526.000; -572.000
365.482;  163.700;  300.000;  240.000
365.614;  -57.200; -402.000; -314.000
365.746; -170.200; -729.000; -752.000
365.877; -173.500; -706.000; -672.000
366.009;  536.600;  -35.000;  -62.000
366.141; -145.300;-1249.000;-1134.000
366.272; -208.500; -803.000; -719.000
366.404; -214.100;-1005.000; -874.000
366.535;   13.400; -139.000;  -12.000
366.667; -164.200; -644.000; -649.000
366.799;  143.400;  353.000;  203.000
366.930; -193.800; -862.000; -996.000
367.062;  246.800; -639.000; -613.000
367.193;  231.400; -872.000; -842.000
367.325;  -96.000; -580.000; -684.000
367.456;  134.900; -246.000;   31.000
367.588;  304.000; -371.000; -318.000
367.719;   86.000;  -44.000;  -45.000
367.851;   12.100; -222.000; -241.000
367.982;  -57.100; -875.000; -732.000
368.113;  218.100; -475.000; -358.000
368.245; -190.900; -960.000; -841.000
368.376;  -29.300; -254.000; -302.000
368.508;  -71.800; -188.000; -263.000
368.639; -247.700;-1166.000;-1034.000
368.770;  -24.700; -670.000; -589.000
368.902; -124.100; -836.000; -926.000
369.033; -191.600; -906.000; -855.000
369.164;  -67.100; -720.000; -653.000
369.296; -184.000; -452.000; -601.000
369.427;   40.000; -209.000; -144.000
369.558;  -62.800; -593.000; -377.000
369.689; -159.800; -721.000; -569.000
369.821; -225.700; -951.000; -845.000
369.952;   -2.100;   42.000; -108.000
370.083;  -29.700; -229.000; -108.000
370.214; -129.700; -735.000; -650.000
370.345;   56.400;   65.000;   81.000
370.477; -124.700; -810.000; -790.000
370.608;  463.300; -328.000; -264.000
370.739;  -60.300;-1233.000;-1292.000
370.870;  -62.600;-1102.000; -923.000
371.001;  182.600; -378.000; -467.000
371.132;  -98.500; -754.000; -735.000
371.263;  -19.100;  -42.000; -148.000
371.394; -237.000; -841.000; -748.000
371.525;   85.100;  345.000;  225.000
371.657; -161.300; -808.000; -670.000
371.788;  168.200;  103.000;  199.000
371.919;  367.600; -384.000; -304.000
372.050; 6453.300;  -91.000; -156.000
372.181; 1939.200; -188.000; -294.000
372.311;  717.500;   42.000; -127.000
372.442;  102.000; -457.000; -451.000
372.573;   45.700; -444.000; -340.000
372.704; -223.200;-1008.000; -980.000
372.835;  181.400; -228.000; -289.000
372.966;  -75.400; -646.000; -554.000
373.097; -130.300; -575.000; -711.000
373.228;  -50.200; -717.000; -542.000
373.359;  217.900; -824.000; -536.000
373.490; 1748.900; -881.000; -727.000
373.620; 2059.400;-1001.000; -803.000
373.751; 3282.400; -332.000; -396.000
373.882; 1350.200; -663.000; -733.000
374.013;  150.300; -449.000; -262.000
374.143;  -53.800; -581.000; -659.000
374.274; -211.100; -987.000; -908.000
374.405;  373.100; -388.000; -276.000
374.536;  818.300; -526.000; -387.000
374.666; 2047.500; -759.000; -807.000
374.797;  387.400; -817.000; -868.000
374.928; 1591.900; -710.000; -560.000
375.058; 1627.900; -535.000; -500.000
375.189;  176.600;  -59.000;  -93.000
375.320; -177.000; -928.000;-1034.000
375.450;  -74.400; -625.000; -616.000
375.581;  -49.200; -526.000; -436.000
375.712;  -26.100; -574.000; -250.000
375.842;  611.800; -438.000; -415.000
375.973;  399.400; -554.000; -513.000
376.103;  -38.100; -665.000; -648.000
376.234; -143.400; -531.000; -552.000
376.364;  -26.500; -944.000; -867.000
376.495;  682.100;  925.000;  529.000
376.625;   42.200; -472.000; -485.000
376.756;  124.600; -709.000; -678.000
376.886; -125.600;-1178.000;-1026.000
377.017;  137.700;-1048.000;-1061.000
377.147;  667.200; -786.000; -782.000
377.278;  172.300;  174.000;  228.000
377.408; -237.400; -801.000; -815.000
377.538; -170.100; -707.000; -693.000
377.669; -148.800; -537.000; -613.000
377.799; -113.100; -645.000; -635.000
377.929;  -84.100; -610.000; -428.000
378.060; -210.700; -781.000; -847.000
378.190;  -70.200; -726.000; -531.000
378.320;  -64.000; -401.000; -406.000
378.451;   29.300; -131.000;  -22.000
378.581;   65.400;  -67.000; -110.000
378.711;  369.700; 1035.000;  866.000
378.841;  -17.100; -533.000; -675.000
378.972; -124.500; -871.000; -751.000
379.102;   47.300; -652.000; -579.000
379.232;    6.000; -126.000;  -73.000
379.362; -210.100;-1001.000; -885.000
379.492;   43.300; -373.000; -424.000
379.623;  239.600;    0.000;  111.000
379.753; -151.200;-1107.000; -974.000
379.883;  497.000;   59.000;  156.000
380.013;   33.100;-1081.000;-1017.000
380.143; -191.000;-1097.000;-1056.000
380.273; -195.600; -985.000; -861.000
380.403;   21.000; -344.000; -257.000
380.533;  -14.600; -651.000; -664.000
380.663;  222.000;  173.000;  128.000
380.793; -178.300;-1027.000;-1074.000
380.923;   36.600; -103.000;  -34.000
381.053; -117.400; -613.000; -623.000
381.183;    1.200; -106.000; -248.000
381.313;  128.100; -656.000; -470.000
381.443;   57.500; -692.000; -473.000
381.573;  447.200; -402.000; -409.000
381.703;  550.700;-1249.000;-1095.000
381.833; -206.600;-1454.000;-1336.000
381.963;  274.700; -134.000;  -87.000
382.093; 2561.400; -925.000; -909.000
382.223;  767.300; -713.000; -602.000
382.353;   -8.100; -801.000; -608.000
382.482;  682.100;-1091.000; -964.000
382.612; 1445.400; -872.000; -644.000
382.742;  780.000; -695.000; -622.000
382.872;  534.200; -565.000; -551.000
383.002;  181.500;  347.000; -132.000
383.131;   63.100; -226.000; -160.000
383.261;  -46.800; -706.000; -768.000
383.391;  566.500; -552.000; -377.000
383.521; 5968.700;  451.000;  263.000
383.650; 1288.400; -947.000; -904.000
383.780;    1.900; -783.000; -656.000
383.910;  275.500;  880.000;  802.000
384.039;   89.000; -794.000; -656.000
384.169;  416.200;-1205.000;-1017.000
384.299;   23.200; -650.000; -662.000
384.428; -130.700; -764.000; -680.000
384.558;  -20.700; -308.000; -275.000
384.687;  -29.000; -414.000; -334.000
384.817;   85.600;   75.000;   -2.000
384.947;   90.800; -234.000; -141.000
385.076;  626.200;  982.000;  912.000
385.206;  234.700;  369.000;  480.000
385.335;  -37.600; -549.000; -417.000
385.465; -135.800; -655.000; -663.000
385.594;  305.800;  -53.000;  -44.000
385.724;  717.800; -868.000; -838.000
385.853;  244.000; -296.000; -270.000
385.982; 2584.800; -743.000; -787.000
386.112; 3775.700;-1052.000; -871.000
386.241;  287.900; -307.000; -312.000
386.371;  134.700; -174.000;  -87.000
386.500;   46.900; -825.000; -789.000
386.629;   71.500; -874.000; -817.000
386.759;  192.100;  -43.000;   68.000
386.888;  108.900; -170.000; -250.000
387.017; -102.400; -648.000; -620.000
387.147; -133.600; -771.000; -798.000
387.276;   56.400; -410.000; -397.000
387.405;   72.800; -398.000; -342.000
387.535;  -49.500; -452.000; -361.000
387.664;  -82.200; -692.000; -620.000
387.793;  140.600; -198.000; -113.000
387.922;  965.900;  255.000;  200.000
388.052;   83.400; -576.000; -423.000
388.181;   68.300; -342.000; -472.000
388.310;   36.500; -889.000; -710.000
388.439;  -21.600; -749.000; -742.000
388.568;  403.900;  365.000;  244.000
388.697; 1928.500; -756.000; -653.000
388.826;  372.900; -768.000; -666.000
388.956;  135.800; -285.000; -307.000
389.085;  -29.600; -347.000; -287.000
389.214; -178.000; -842.000; -872.000
389.343;  -68.500; -645.000; -413.000
389.472;  791.700;  126.000;  149.000
389.601; 1036.900;   91.000;    0.000
389.730;   30.700; -568.000; -687.000
389.859;  181.600;  226.000;   46.000
389.988;  381.000; -423.000; -408.000
390.117;  291.200; -168.000; -146.000
390.246;   54.100; -331.000; -320.000
390.375;  246.800; -673.000; -626.000
390.504;  -91.100; -703.000; -621.000
390.633; -108.500; -672.000; -726.000
390.761;  -77.500; -732.000; -645.000
390.890;   55.100;   -4.000; -130.000
391.019;  -16.200; -421.000; -441.000
391.148; -223.300; -826.000; -855.000
391.277;  -74.300; -576.000; -493.000
391.406; -134.500; -821.000; -805.000
391.534;   91.900;  574.000; -301.000
391.663; -118.000; -583.000; -645.000
391.792; -120.200; -673.000; -701.000
391.921;  207.000;   -3.000;   15.000
392.050;  380.200; -287.000; -228.000
392.178;  -46.400;-1206.000;-1061.000
392.307;  275.400; -758.000; -712.000
392.436;  143.000; -427.000; -641.000
392.564;   90.300;  166.000;   -6.000
392.693; -113.800; -860.000; -682.000
392.822;  406.200; -529.000; -534.000
392.950;  153.200; -880.000; -714.000
393.079;  607.200; -188.000; -328.000
393.208;   39.700; -488.000; -511.000
393.336;   20.400; -170.000; -145.000
393.465;  -40.100; -317.000; -199.000
393.593;   48.400;   62.000;   79.000
393.722; -268.700;-1121.000; -916.000
393.850;  -40.400; -188.000;  -61.000
393.979; -248.500; -926.000; -805.000
394.107;  -60.100; -517.000; -537.000
394.236;   13.600; -570.000; -507.000
394.364;  543.700;  383.000;  206.000
394.493;  857.200; -911.000; -767.000
394.621;    5.800; -955.000; -916.000
394.750; 1452.600; -873.000; -923.000
394.878; 5819.900; -247.000; -149.000
395.007; 7561.700; -721.000; -807.000
395.135;  550.300; -790.000; -721.000
395.263; -140.500;-1038.000;-1040.000
395.392;   55.400;  -25.000; -107.000
395.520; -132.500; -818.000; -679.000
395.648; -188.700; -865.000; -915.000
395.777;   15.400; -366.000; -405.000
395.905;  -26.100; -449.000; -564.000
396.033;  111.600;  217.000;  172.000
396.162; 1445.900; -399.000; -453.000
396.290; 1254.800;  -17.000;   -2.000
396.418;  247.200; -555.000; -514.000
396.546; -117.400; -571.000; -466.000
396.674; -170.200; -850.000; -878.000
396.803;   47.000;  -72.000;  -23.000
396.931;  215.500; -179.000; -199.000
397.059;   85.500;-1026.000; -989.000
397.187; -170.300;-1026.000; -975.000
397.315; -223.400; -884.000; -649.000
397.443; -138.100; -592.000; -443.000
397.572; -140.000; -578.000; -424.000
397.700;    6.800; -607.000; -614.000
397.828;  110.400;  120.000;  -90.000
397.956;  -54.800; -508.000; -478.000
398.084;  -89.900; -767.000; -626.000
398.212;  126.000;  137.000;  124.000
398.340;   88.100;  -56.000;  159.000
398.468;   96.900; -390.000; -169.000
398.596; -249.300; -993.000; -953.000
398.724; -195.300; -762.000; -767.000
398.852; -272.400;-1024.000; -976.000
398.980;  -40.000; -560.000; -560.000
399.108;  -51.200; -982.000; -735.000
399.236;   99.500;   13.000;    8.000
399.363;   86.800;  222.000;  196.000
399.491;  -67.300; -404.000; -398.000
399.619; -199.900; -829.000; -800.000
399.747; -172.000; -859.000; -771.000
399.875;  211.000;  220.000;  234.000
400.003;  -53.000; -359.000; -284.000
400.130; -118.000; -421.000; -341.000
400.258;  -13.100;  -83.000;   38.000
400.386;  -92.200; -352.000; -168.000
400.514;  -32.700; -526.000; -587.000
400.641; -166.400; -928.000; -802.000
400.769; -235.900; -979.000; -888.000
400.897; -138.200; -838.000; -793.000
401.025;   -2.500; -166.000; -152.000
401.152;   38.000;  220.000;   38.000
401.280;  -98.300; -430.000; -429.000
401.408; -185.000; -712.000; -576.000
401.535; -171.700; -735.000; -758.000
401.663; -334.000;-1134.000;-1054.000
401.790; -121.200; -514.000; -525.000
401.918;  164.200;  436.000;  405.000
402.046;    6.800;  134.000;  122.000
402.173;   13.300;  -18.000;    7.000
402.301; -105.400; -519.000; -397.000
402.428;  131.900;  528.000;  383.000
402.556; -246.500;-1188.000; -913.000
402.683;   21.400;  -20.000;   -1.000
402.811;   -7.800;  -37.000; -206.000
402.938;   24.100;   20.000;   27.000
403.066;  377.200; -574.000; -558.000
403.193;  644.500;  299.000;  239.000
403.321;  468.400; -396.000; -574.000
403.448;  610.600;   83.000;   27.000
403.575;  277.600;  -90.000;  -46.000
403.703; -140.200; -732.000; -557.000
403.830;  -88.600; -531.000; -496.000
403.957; -201.800;-1117.000;-1023.000
404.085;   71.600;  -61.000; -172.000
404.212;  246.600;  -50.000;   63.000
404.339;  605.200; -566.000; -306.000
404.467;11480.600; -612.000; -524.000
404.594; 6972.100; -287.000; -227.000
404.721; 1651.000; -869.000; -764.000
404.848;  203.500; -113.000; -202.000
404.976; -157.000; -856.000; -783.000
405.103;   51.900;  -14.000;  -82.000
405.230;   31.000;  190.000;  226.000
405.357;  117.100;  117.000;   44.000
405.484;  604.300;  -49.000;    5.000
405.612;  113.600; -548.000; -563.000
405.739;  -58.100; -488.000; -243.000
405.866;  199.500;  669.000;  385.000
405.993;  -46.400; -398.000; -102.000
406.120; -230.400; -801.000; -887.000
406.247;  -48.100; -323.000; -342.000
406.374;  961.600;  540.000;  629.000
406.501;  243.700; -632.000; -702.000
406.628; -146.900; -621.000; -589.000
406.755; -124.700; -803.000; -620.000
406.882;  -25.300; -228.000; -277.000
407.009; -162.300; -719.000; -628.000
407.136;  150.500; -480.000; -401.000
407.263;  289.700; -939.000; -829.000
407.390; -115.200; -692.000; -614.000
407.517; -269.900;-1139.000;-1187.000
407.644;  -45.600; -332.000; -256.000
407.771;  -71.000; -249.000; -287.000
407.898;   72.800;  168.000;  328.000
408.025;  -71.000; -421.000; -313.000
408.151;   50.800;   82.000;  153.000
408.278;  -75.700; -267.000; -216.000
408.405; -180.700; -931.000; -899.000
408.532;  -76.100; -549.000; -542.000
408.659; -189.300; -677.000; -648.000
408.785; -352.700;-1298.000;-1170.000
408.912;  -64.200; -412.000; -296.000
409.039; -174.100; -610.000; -686.000
409.166; -135.700; -591.000; -555.000
409.292; -188.800; -571.000; -534.000
409.419; -186.500; -665.000; -649.000
409.546; -123.000; -431.000; -192.000
409.672; -173.300; -713.000; -545.000
409.799;   26.500;  -36.000;   34.000
409.926;  -46.900; -180.000; -179.000
410.052; -293.700;-1127.000;-1091.000
410.179;  -67.800; -368.000; -392.000
410.305;  -94.500; -375.000; -493.000
410.432;  -43.600; -220.000; -333.000
410.558; -147.100; -305.000; -380.000
410.685; -168.400; -688.000; -431.000
410.812; -130.100; -409.000; -588.000
410.938; -238.100; -964.000; -808.000
411.065; -117.000; -671.000; -645.000
411.191;    3.600; -189.000; -174.000
411.317; -175.800; -823.000; -742.000
411.444;  -75.300; -317.000; -246.000
411.570; -106.100; -339.000; -294.000
411.697; -189.200; -758.000; -752.000
411.823; -283.300; -989.000; -999.000
411.949;    8.900;  -56.000;   17.000
412.076; -188.100; -539.000; -519.000
412.202; -207.100; -758.000; -757.000
412.329; -223.200; -798.000; -752.000
412.455; -186.000; -821.000; -657.000
412.581;   40.900;  -15.000;  172.000
412.707;  -87.800; -540.000; -457.000
412.834;   69.100;  156.000;  219.000
412.960;  -97.000; -785.000; -784.000
413.086; -145.900; -743.000; -701.000
413.212;  364.200;  604.000;  578.000
413.339; -103.000; -685.000; -701.000
413.465;   14.800; -364.000; -310.000
413.591; -173.600; -757.000; -474.000
413.717;  -36.300; -358.000; -366.000
413.843; -236.700; -839.000; -861.000
413.969;  -90.400;  -47.000; -292.000
414.096; -166.800; -679.000; -679.000
414.222;   45.400;  -33.000;   85.000
414.348;   -5.200; -652.000; -385.000
414.474;  259.500;   38.000;  -52.000
414.600;   60.100; -126.000; -144.000
414.726;   19.900;  -96.000;  -55.000
414.852;  -55.600; -365.000; -342.000
414.978;  106.500;  104.000;  -18.000
415.104;  175.800;   38.000;   80.000
415.230;  102.600; -329.000; -330.000
415.356;  140.700; -409.000; -514.000
415.482;  441.500;   13.000;  -35.000
415.608;  569.600; -247.000; -323.000
415.734; 1948.000;   67.000;   38.000
415.860;40067.600; -875.000; -767.000
415.986;26391.200; -685.000; -607.000
416.111; 2217.100; -798.000; -652.000
416.237;  486.400; -424.000; -571.000
416.363; 2368.300; -765.000; -733.000
416.489; 7815.200; -324.000; -251.000
416.615;  772.000; -707.000; -742.000
416.741;   11.700; -677.000; -784.000
416.866; -176.200; -673.000; -736.000
416.992; -152.800; -801.000; -818.000
417.118;   27.900;  -41.000;  -80.000
417.244; -106.000; -798.000; -531.000
417.369; -127.000; -801.000; -612.000
417.495;   49.600; -325.000; -254.000
417.621; -133.600;-1015.000; -803.000
417.746;   74.700; -579.000; -572.000
417.872;  147.600; -254.000; -144.000
417.998;  160.700; -515.000; -530.000
418.123; 2291.300;-1073.000; -845.000
418.249;10281.600; -512.000; -601.000
418.374; 1319.100; -916.000; -824.000
418.500;  257.600; -383.000; -482.000
418.626;  251.400;   70.000;  -59.000
418.751;  249.300; -549.000; -448.000
418.877;  409.400; -637.000; -643.000
419.002; 3827.300; -688.000; -560.000
419.128;24327.200; -930.000; -721.000
419.253; 5379.400; -967.000; -837.000
419.379;  748.500; -391.000; -338.000
419.504;  819.300;  325.000;  415.000
419.629;  987.700; -393.000; -212.000
419.755; 7490.900; -317.000; -254.000
419.880;39689.900;  -98.000;   67.000
420.006;22410.700; -280.000; -221.000
420.131;54732.900; -662.000; -775.000
420.256; 7099.800; -315.000; -316.000
420.382; 1025.700; -665.000; -687.000
420.507;  137.600; -649.000; -778.000
420.632;  291.300; -337.000; -339.000
420.758;  444.800; -251.000; -425.000
420.883; -123.500; -876.000; -672.000
421.008; -133.500; -775.000; -619.000
421.133; -137.900; -509.000; -467.000
421.259;  -57.000; -325.000; -259.000
421.384; -184.300; -834.000; -693.000
421.509;  -90.900;-1052.000; -862.000
421.634; 2166.300; -936.000; -820.000
421.759;  826.600; -359.000; -327.000
421.885;  -81.200; -717.000; -656.000
422.010; -117.500; -673.000; -542.000
422.135; -245.900; -695.000; -727.000
422.260;  126.400;  340.000;  280.000
422.385;  -26.200;   12.000;  -98.000
422.510;   73.300;  151.000;  -26.000
422.635;  103.700;  -87.000;  -43.000
422.760;  273.900; -766.000; -791.000
422.885;  146.700;  -57.000;  -80.000
423.010;    0.400; -112.000; -169.000
423.135; -132.900; -481.000; -561.000
423.260;   18.000; -150.000; -245.000
423.385;  219.000;  476.000;  222.000
423.510;  141.800;   71.000;  -22.000
423.635;  201.600;  133.000;   45.000
423.760;  187.700;  383.000;  328.000
423.885;  181.200;  336.000;  391.000
424.010;  106.800;  -68.000;  -13.000
424.135;   23.500;    5.000;  -33.000
424.259; -134.500; -654.000; -457.000
424.384;  -74.600; -279.000; -272.000
424.509;    0.400; -260.000; -186.000
424.634; -146.800; -761.000; -623.000
424.759;  -49.500; -688.000; -544.000
424.883;    2.200; -506.000; -527.000
425.008;  402.300; -502.000; -410.000
425.133; 4037.000; -679.000; -653.000
425.258; 1695.700; -517.000; -381.000
425.382; 1950.400; -867.000; -774.000
425.507; 4513.000; -487.000; -543.000
425.632;  781.900; -802.000; -663.000
425.756;  928.600; -256.000; -146.000
425.881;13477.300; -831.000; -857.000
426.006;32629.800; -604.000; -355.000
426.130; 4678.300; -696.000; -508.000
426.255;  649.800; -611.000; -491.000
426.379;  340.900; -189.000; -577.000
426.504;  810.600;  660.000;  544.000
426.629; 8279.100; -519.000; -466.000
426.753; 5016.100;   64.000;  -46.000
426.878;  645.500; -252.000; -288.000
427.002;  400.400; -651.000; -668.000
427.127; 3367.700;  -35.000; -158.000
427.251;22235.200;  372.000;  401.000
427.375; 5531.000; -191.000; -173.000
427.500; 4085.600; -616.000; -610.000
427.624; 1272.100; -234.000; -400.000
427.749;  209.000; -216.000; -225.000
427.873;  -28.200; -499.000; -412.000
427.997;  -12.800; -222.000; -230.000
428.122;  247.000;  795.000;  703.000
428.246;  220.900;  433.000;  434.000
428.371; -201.300; -869.000; -773.000
428.495; -138.700; -624.000; -646.000
428.619;   12.200; -186.000; -117.000
428.743;  111.600;   65.000;  132.000
428.868;   68.400; -732.000; -643.000
428.992; 2564.400; -219.000; -326.000
429.116;  980.000; -329.000; -357.000
429.240;  560.000;  419.000;  426.000
429.365;   17.800; -454.000; -574.000
429.489;  -44.700; -638.000; -647.000
429.613;  113.400; -236.000; -177.000
429.737;  131.600; -563.000; -432.000
429.861;  636.700; -247.000; -133.000
429.985;11468.200; -425.000; -305.000
430.109;11190.500; -770.000; -908.000
430.234; 1264.200;   76.000;  -50.000
430.358;  143.600; -250.000; -160.000
430.482;  -83.100; -672.000; -564.000
430.606;  -63.900; -655.000; -375.000
430.730;  117.400; -437.000; -388.000
430.854;  225.900; -909.000; -835.000
430.978;  -78.400; -795.000; -764.000
431.102;  -89.800; -499.000; -422.000
431.226; -176.600; -874.000; -815.000
431.350;  161.800;  345.000;  422.000
431.474;  -95.600; -661.000; -373.000
431.597; -272.200;-1060.000; -848.000
431.721; -103.500; -276.000; -267.000
431.845; -196.900; -704.000; -472.000
431.969; -120.900; -304.000; -349.000
432.093; -107.500; -395.000; -317.000
432.217;   24.000;   32.000;   82.000
432.341; -128.500; -523.000; -518.000
432.464;   63.900;   96.000;   40.000
432.588;  453.100; -401.000; -329.000
432.712;  230.300;  -52.000;  -52.000
432.836;  165.000;  213.000;  263.000
432.959;   -1.800; -372.000; -311.000
433.083;  247.100;   11.000;    2.000
433.207;  768.300;  285.000;  930.000
433.330;10345.600; -391.000; -200.000
433.454;11528.100; -654.000; -638.000
433.578; 6891.500;  583.000;  278.000
433.701; 1173.000; -623.000; -675.000
433.825;  292.100; -292.000; -299.000
433.949;  384.200;   28.000;  -72.000
434.072;  109.500; -410.000; -323.000
434.196;   59.500; -309.000; -117.000
434.319; 7843.500;25482.000;25124.000
434.443; 1599.000; -656.000; -603.000
434.566; 5152.800;  281.000;   62.000
434.690;  753.800; -637.000; -383.000
434.813;  136.500; -251.000; -173.000
434.937;  -84.000; -569.000; -696.000
435.060;  -18.700; -423.000; -332.000
435.184;  622.100; -492.000; -217.000
435.307;  378.000;  159.000;  102.000
435.431;   60.500;  -40.000;   24.000
435.554;  -69.800; -399.000; -240.000
435.677; -114.000; -350.000; -258.000
435.801;   -8.300;  -25.000;   49.000
435.924;   37.600;    1.000;  -67.000
436.048; -196.500;-1019.000; -732.000
436.171;  -80.500; -240.000;  -66.000
436.294;   32.100; -248.000; -229.000
436.417;  221.700; -963.000; -849.000
436.541; -119.900; -814.000; -840.000
436.664;  -38.600; -242.000; -316.000
436.787;   36.200;   13.000;  113.000
436.910; -158.900; -792.000; -422.000
437.034;   63.800;  142.000;  143.000
437.157;  134.200;  -11.000;    0.000
437.280;  -44.600; -392.000; -292.000
437.403; -111.400; -982.000; -869.000
437.526; 1162.200; -903.000; -865.000
437.649; 3957.300; -505.000; -332.000
437.772;  492.800; -692.000; -540.000
437.896;  272.500;  700.000;  544.000
438.019; -171.500; -758.000; -503.000
438.142; -150.900; -596.000; -506.000
438.265;   11.400; -639.000; -670.000
438.388; 1088.900; -520.000; -410.000
438.511;  194.100; -597.000; -394.000
438.634;  -47.900; -247.000; -125.000
438.757; -206.800; -693.000; -619.000
438.880;   -1.100;  -34.000;  -57.000
439.003; -115.600; -417.000; -437.000
439.126;  -87.100; -287.000; -167.000
439.248;  -68.500;  -98.000; -139.000
439.371;  -19.000;    9.000;  -53.000
439.494;  117.400;  510.000;  439.000
439.617;  -44.100;   65.000;  -88.000
439.740; -317.700; -968.000; -816.000
439.863; -222.900; -755.000; -595.000
439.986; -195.400; -476.000; -431.000
440.108;  -54.100; -161.000; -112.000
440.231; -247.500; -950.000; -836.000
440.354;  -14.000;  -64.000; -150.000
440.477;  133.300; -566.000; -542.000
440.599;   59.000; -200.000; -225.000
440.722; -186.900; -709.000; -586.000
440.845;  198.000;  751.000;  928.000
440.968; -158.200; -415.000; -311.000
441.090;  -70.500; -199.000;  -33.000
441.213; -291.300;-1021.000; -825.000
441.336;  -37.400; -159.000;   -5.000
441.458;  -84.200; -549.000; -396.000
441.581; -127.500; -628.000; -629.000
441.703;  -89.200; -152.000;   13.000
441.826; -200.200; -557.000; -400.000
441.948;  -31.500;   56.000;   51.000
442.071;   90.100;  555.000;  424.000
442.193; -164.600; -531.000; -485.000
442.316;  108.300;  152.000;   97.000
442.438;  123.600; -233.000;  -10.000
442.561;  201.600;  272.000;  262.000
442.683; 1050.200; -809.000; -522.000
442.806; 2043.900;   -8.000;   74.000
442.928;   43.300; -859.000; -604.000
443.051;  -85.700; -577.000; -373.000
443.173; -136.900; -341.000; -339.000
443.295; -125.600; -263.000; -371.000
443.418;  -75.400; -321.000;  -29.000
443.540;   38.400; -106.000;   -4.000
443.662; -180.500; -563.000; -465.000
443.785;   11.900;  335.000;  199.000
443.907; -195.600; -362.000; -208.000
444.029; -181.500; -767.000; -494.000
444.152; -237.800; -644.000; -554.000
444.274;   -9.300;  -18.000;  -24.000
444.396; -175.500; -461.000; -221.000
444.518; -223.500; -691.000; -454.000
444.640; -164.100; -268.000; -111.000
444.763;   42.200;  388.000;  249.000
444.885; -192.500; -432.000; -392.000
445.007;  -19.100;   35.000;   86.000
445.129; -175.200; -610.000; -515.000
445.251; -178.100; -372.000; -439.000
445.373; -199.200; -537.000; -386.000
445.495;   51.200;  242.000;  350.000
445.617;  177.600;  853.000;  753.000
445.739;  -86.800; -215.000;  -97.000
445.861;   11.100; -245.000; -112.000
445.984;   -9.600; -267.000; -101.000
446.105;  411.200; -418.000; -251.000
446.227; 1120.600; -176.000;  -19.000
446.349;   25.600; -358.000; -249.000
446.471; -161.000; -615.000; -448.000
446.593;  -70.300; -316.000;   19.000
446.715;   25.500;  -67.000;   41.000
446.837;  180.800;  697.000;  832.000
446.959; -117.800; -457.000; -478.000
447.081; -193.100; -628.000; -518.000
447.203;  165.000;  862.000;  834.000
447.325; -108.300; -270.000;   42.000
447.446;   61.600;  286.000;  530.000
447.568; -243.900; -921.000; -803.000
447.690;  -80.900; -236.000; -245.000
447.812; -234.300; -798.000; -519.000
447.933;  -36.700;  155.000;  127.000
448.055;  -65.400; -306.000; -261.000
448.177;  314.500;   31.000;   79.000
448.299;  115.400; -935.000; -727.000
448.420;  103.500;  -25.000;  159.000
448.542;    2.000;   -3.000;   33.000
448.664;    9.100;  109.000;  322.000
448.785;  -14.500;  265.000;   83.000
448.907; -117.800; -614.000; -353.000
449.028;  -16.300; -771.000; -471.000
449.150;  185.300;  492.000;  589.000
449.272; -324.200;-1044.000; -913.000
449.393;  149.600;  612.000;  694.000
449.515; -216.100; -634.000; -581.000
449.636;  -41.600; -264.000; -155.000
449.758;  206.900;  763.000;  622.000
449.879; -127.700; -498.000; -396.000
450.001; -102.000; -149.000;  -49.000
450.122;  -10.200;  -95.000;  162.000
450.244;   35.600;   37.000;  364.000
450.365; -126.300; -495.000; -301.000
450.486;    9.600;   80.000;  268.000
450.608;  124.500;  393.000;  326.000
450.729;  245.600;  578.000;  645.000
450.850;   48.300; -574.000; -466.000
450.972; 1590.200; -552.000; -389.000
451.093; 9644.200;  190.000;  588.000
451.214; 3675.600; -516.000; -337.000
451.336;  765.600;  773.000;  579.000
451.457;  185.300;  264.000;  393.000
451.578;  -35.500; -118.000;  -74.000
451.699; -221.500; -546.000; -540.000
451.821;  -82.100; -284.000;  -50.000
451.942;   94.700;  278.000;  285.000
452.063;  137.600;  228.000;  419.000
452.184; 1221.900;  -54.000;  -49.000
452.305; 2118.700;  103.000;  170.000
452.427;  270.200; -549.000; -301.000
452.548;   -1.900;   23.000;   79.000
452.669;  -31.500; -257.000;  -89.000
452.790;   -4.400;    3.000;  -18.000
452.911;   62.600;  195.000;  259.000
453.032;  -89.600; -289.000;  -60.000
453.153;  -16.300;  -29.000;   81.000
453.274;  179.600;  737.000;  868.000
453.395;  -26.200;  -51.000;  175.000
453.516;  302.200; 1317.000; 1388.000
453.637;  -57.000; -205.000; -150.000
453.758;  -96.500;   15.000;   69.000
453.879; -192.400; -462.000; -250.000
454.000;  237.300; 1086.000;  948.000
454.121; -154.800; -554.000; -326.000
454.242; -192.400; -599.000; -383.000
454.362;  -57.400;  -99.000;  114.000
454.483;  -37.100; -309.000; -229.000
454.604;  169.300;  512.000;  580.000
454.725; -198.800; -627.000; -555.000
454.846; -185.700; -474.000; -406.000
454.967;  -29.900;  230.000;  539.000
455.087;   -7.500;  179.000;  153.000
455.208;   89.500;  554.000;  856.000
455.329;  -47.100;  -22.000;   82.000
455.450;  161.900;  473.000;  633.000
455.570;  -88.000; -234.000; -211.000
455.691;    1.000;  201.000;  407.000
455.812; -116.400; -270.000;  -92.000
455.932;  -72.100;  107.000;  -97.000
456.053;  -82.700;   36.000;   24.000
456.173; -149.600; -433.000; -355.000
456.294; -215.700; -476.000; -303.000
456.415;  -83.400;  -73.000;   70.000
456.535;   45.500;  297.000;  273.000
456.656;  -36.000;  132.000;  240.000
456.776;  -76.200;    3.000;  298.000
456.897;   64.100;  308.000;  513.000
457.017;  -81.400; -153.000;   -3.000
457.138; -147.800; -402.000; -249.000
457.258;    2.200;  263.000;  224.000
457.379;   18.500;  509.000;  521.000
457.499;   19.700;  443.000;  432.000
457.620; -205.900; -407.000; -231.000
457.740; -140.200; -132.000;  -11.000
457.860;  -21.700;   87.000;   44.000
457.981;  -34.900;  132.000;  124.000
458.101;  -89.100;  -89.000;   40.000
458.221;    9.600;  336.000;  402.000
458.342;  -71.000;   -4.000;  -37.000
458.462;  131.400;  617.000;  352.000
458.582;   -7.800; -302.000; -294.000
458.703;   68.000;  303.000;  154.000
458.823;   18.500;   22.000;  163.000
458.943;  125.700;  341.000;  467.000
459.063;   13.800; 1124.000;  192.000
459.183;   41.600;  328.000;  313.000
459.304;   62.600;  315.000;  517.000
459.424;  -95.100; -246.000;  -89.000
459.544;  773.700;  388.000;  764.000
459.664; 1675.500;  499.000;  506.000
459.784;  647.500; 1004.000; 1175.000
459.904;  153.800;  867.000;  744.000
460.024;  201.600;  867.000;  684.000
460.144;   78.000;  449.000;  554.000
460.264;   54.800;  515.000;  327.000
460.385; -119.800; -145.000; -119.000
460.505;  153.300;  905.000;  858.000
460.625;  -78.100;  -17.000;  -68.000
460.745;   14.800;  396.000;  541.000
460.864;  -50.800;  153.000;  469.000
460.984;   83.800;  499.000;  573.000
461.104;  330.400; 1656.000; 1775.000
461.224;  116.900;  657.000;  650.000
461.344;   28.300;  431.000;  360.000
461.464;  -21.000;  258.000;  513.000
461.584;   53.800;  283.000;  466.000
461.704;  -54.500;   58.000;  108.000
461.824;  -74.200;  238.000;  259.000
461.943;   11.200;  191.000;  130.000
462.063;  -64.000;    2.000;  324.000
462.183;  120.200;  639.000;  717.000
462.303;  289.400; 1678.000; 1230.000
462.422;  127.700;  781.000;  840.000
462.542;  -23.000;  271.000;  391.000
462.662;  155.600;  353.000;  380.000
462.782;  579.200;  833.000;  572.000
462.901;  988.300;  545.000;  717.000
463.021;  611.700; 1702.000; 1638.000
463.141;    6.000;  337.000;  770.000
463.260;   17.200;  614.000;  474.000
463.380;   88.700;  902.000;  884.000
463.499;  -17.800;  342.000;  332.000
463.619;  -18.800;  581.000;  559.000
463.738;  318.500; 1644.000;  903.000
463.858;   86.400;  657.000;  811.000
463.978;   28.600;  542.000;  396.000
464.097;  207.900;  921.000; 1114.000
464.217;  286.600; 1196.000; 1143.000
464.336;  263.900; 1068.000; 1130.000
464.455;   12.300;  328.000;  659.000
464.575;  137.700;  597.000;  602.000
464.694;  383.600; 1204.000; 1179.000
464.814;  276.700; 1190.000; 1138.000
464.933;  243.700; 1095.000; 1027.000
465.052;  281.800; 1412.000; 1054.000
465.172;  227.900;  922.000;  799.000
465.291;  336.900; 1376.000; 1320.000
465.410;   91.200;  462.000;  735.000
465.530;  257.200; 1355.000; 1310.000
465.649;  213.800; 1209.000; 1273.000
465.768;  362.100; 1673.000; 1508.000
465.888;  178.600;  941.000; 1174.000
466.007;  268.700; 1335.000; 1440.000
466.126;   57.500;  721.000;  641.000
466.245;  172.300; 1176.000; 1187.000
466.364;  123.300;  950.000; 1060.000
466.484;  187.500; 1024.000; 1213.000
466.603;  161.900; 1101.000; 1222.000
466.722;  307.900; 1490.000; 1769.000
466.841;  273.700; 1151.000; 1401.000
466.960;  146.800; 1069.000;  972.000
467.079;  371.900; 1971.000; 1786.000
467.198;  134.200; 1238.000; 1181.000
467.317;  261.200; 1768.000; 1162.000
467.436;  177.100; 1709.000; 1261.000
467.555;  338.900; 1796.000; 1746.000
467.674;  204.900; 1227.000; 1329.000
467.793;  155.700; 1376.000; 1374.000
467.912;  239.900; 1658.000; 1539.000
468.031;  377.300; 2038.000; 1930.000
468.150;  394.800; 1842.000; 1837.000
468.269;  463.800; 2313.000; 2090.000
468.388;  506.800; 2168.000; 2339.000
468.507;  617.500; 2884.000; 2903.000
468.626;  621.000; 2555.000; 2541.000
468.744;  350.700; 2018.000; 2174.000
468.863;  498.000; 2312.000; 2523.000
468.982;  285.700; 1503.000; 1555.000
469.101;  517.100; 2788.000; 2692.000
469.220;  376.300; 2333.000; 2176.000
469.338;  601.900; 2935.000; 3051.000
469.457;  453.300; 2719.000; 2545.000
469.576;  800.000; 3953.000; 3784.000
469.695;  544.500; 2877.000; 3066.000
469.813;  939.000; 4148.000; 4192.000
469.932;  916.500; 4255.000; 4485.000
470.051;  918.100; 4075.000; 4161.000
470.169; 1878.400; 4470.000; 4338.000
470.288; 2954.600; 4700.000; 4809.000
470.406; 1696.500; 5059.000; 5194.000
470.525; 1345.300; 6101.000; 5787.000
470.644; 1421.500; 6847.000; 6794.000
470.762; 1724.200; 8397.000; 7873.000
470.881; 1882.600; 8651.000; 8464.000
470.999; 2206.800; 9685.000; 9151.000
471.118; 2361.800;11174.000;10711.000

