
Integration time [ms]: 200.000
Averaging Nr. [scans]: 10
Smoothing Nr. [pixels]: 0
Data measured with spectrometer [name]: 2101012U2
Wave   ;Sample   ;Dark     ;Reference
[nm]   ;[counts] ;[counts] ;[counts] 

197.733;  140.100;  516.000;  404.000
197.879; -185.200; -610.000; -634.000
198.025; -103.900; -475.000; -420.000
198.171; -149.600; -602.000; -612.000
198.317;  -75.600; -401.000; -316.000
198.463; -127.300; -655.000; -404.000
198.609;   65.300;  181.000; -137.000
198.755; -158.900; -644.000; -410.000
198.901; -152.600; -505.000; -424.000
199.047; -154.400; -615.000; -488.000
199.193;  -77.400; -230.000; -468.000
199.339;  -98.500; -222.000; -369.000
199.485;   46.600;  330.000;  271.000
199.631;   38.000;  227.000;  310.000
199.777; -120.000; -466.000; -398.000
199.923; -179.800; -610.000; -424.000
200.069;    5.900; -141.000;  -58.000
200.215;  119.200;  128.000;  453.000
200.361;   96.600;  243.000;  477.000
200.507; -147.200; -600.000; -373.000
200.653;  -42.200; -371.000; -194.000
200.798;  -72.000; -215.000; -125.000
200.944;  -12.600; -146.000;  -41.000
201.090;   66.300;   61.000;  222.000
201.236;  -15.500; -116.000; -158.000
201.382;  249.000;  874.000;  903.000
201.528;   -3.800;  -58.000;  -48.000
201.674;  -84.300; -386.000; -293.000
201.819; -124.900; -540.000; -439.000
201.965; -164.600; -699.000; -447.000
202.111;  -38.700; -273.000; -226.000
202.257;  -81.200; -250.000; -238.000
202.402;   28.900;   13.000;  -36.000
202.548;  -83.000; -169.000; -116.000
202.694;  156.800;  410.000; -183.000
202.840; -148.300; -603.000; -531.000
202.985; -157.700; -681.000; -639.000
203.131; -217.500; -832.000; -666.000
203.277;  -38.300; -199.000; -262.000
203.423; -110.100; -434.000; -520.000
203.568;  -64.800; -462.000; -237.000
203.714; -117.000; -535.000; -542.000
203.860; -147.600; -682.000; -641.000
204.005;   36.300;  112.000;  167.000
204.151;  170.400;  561.000;  556.000
204.296;  -91.400; -354.000; -221.000
204.442; -132.500; -600.000; -547.000
204.588; -172.300; -592.000; -579.000
204.733;   71.500;  178.000;  168.000
204.879; -268.700;-1018.000; -822.000
205.025;   34.900;  -99.000;  126.000
205.170;    5.700;  -17.000;   94.000
205.316;  201.800;  438.000;  661.000
205.461; -182.800; -698.000; -554.000
205.607;  184.300;  609.000;  665.000
205.752; -177.200; -626.000; -551.000
205.898; -109.600; -501.000; -391.000
206.043; -133.700; -578.000; -506.000
206.189;  -87.500; -243.000; -285.000
206.334;  186.800;  554.000;  606.000
206.480;  191.200;  409.000;  239.000
206.625; -133.300; -529.000; -552.000
206.771; -103.900; -451.000; -373.000
206.916;  -67.000; -210.000; -537.000
207.062; -146.900; -545.000; -591.000
207.207; -144.400; -546.000; -443.000
207.353;  126.600;  185.000;  460.000
207.498;   27.500;  196.000;   85.000
207.643;  -95.400; -501.000; -370.000
207.789; -271.600;-1069.000; -910.000
207.934; -188.300; -665.000; -713.000
208.080;  -44.100; -154.000;   66.000
208.225;    2.200;  -22.000;  -57.000
208.370; -167.300; -727.000; -619.000
208.516; -150.900; -741.000; -487.000
208.661;  -54.600; -127.000;  -69.000
208.806;  -33.200; -165.000; -171.000
208.952; -251.900;-1044.000; -731.000
209.097;  142.000;  378.000;  349.000
209.242; -129.900; -307.000; -382.000
209.387;   96.500;  392.000;  350.000
209.533; -107.900; -321.000; -350.000
209.678;  168.900;  472.000;  543.000
209.823;  -97.700; -408.000; -310.000
209.969; -194.900; -860.000; -757.000
210.114; -231.100; -907.000; -719.000
210.259; -244.000; -939.000; -889.000
210.404;  -36.400; -171.000;  103.000
210.549;   47.200;  108.000;    3.000
210.695;  -31.700;   -3.000;  -95.000
210.840;   57.600;   94.000;   67.000
210.985; -108.900; -484.000; -303.000
211.130;  158.600;  268.000;  406.000
211.275;   26.000;  207.000;  199.000
211.420;  -67.200; -300.000; -289.000
211.566; -164.300; -536.000; -489.000
211.711;   64.600;  218.000;  157.000
211.856; -139.700; -545.000; -519.000
212.001;    2.100;  151.000;   44.000
212.146;   32.500;  153.000;   49.000
212.291;  -17.800; -210.000; -186.000
212.436;  -39.000; -280.000;   -6.000
212.581; -145.600; -685.000; -653.000
212.726; -150.600; -487.000; -538.000
212.871;  -83.400; -552.000; -217.000
213.016; -317.700;-1172.000;-1029.000
213.161;  145.800;  406.000;  291.000
213.306; -137.300; -435.000; -577.000
213.451; -188.300; -778.000; -689.000
213.596; -105.600; -455.000; -347.000
213.741; -118.300; -448.000; -538.000
213.886; -137.400; -498.000; -517.000
214.031;  -25.000; -294.000; -124.000
214.176; -100.400; -408.000; -341.000
214.321;   -7.500; -296.000; -157.000
214.466;  -60.100; -163.000;  -43.000
214.611;    9.900;  -61.000;  -10.000
214.756; -265.000; -948.000; -858.000
214.901;  -58.400; -388.000; -226.000
215.046; -268.800; -797.000; -825.000
215.191;   66.600;  128.000;   35.000
215.336;  -23.200; -157.000;  -19.000
215.480; -157.100; -684.000; -505.000
215.625;  -29.400; -175.000;  -19.000
215.770; -176.900; -757.000; -662.000
215.915;  -57.500;   -5.000;  -97.000
216.060;   17.600; -113.000;  -21.000
216.205; -223.600; -731.000; -779.000
216.349; -131.200; -470.000; -533.000
216.494; -279.800; -939.000; -867.000
216.639; -246.000; -823.000; -888.000
216.784; -199.700; -577.000; -525.000
216.929;  138.000;  392.000;  281.000
217.073;    5.000; -244.000;  -31.000
217.218;   13.400;   78.000;  -47.000
217.363; -170.200; -656.000; -618.000
217.507; -159.100; -623.000; -588.000
217.652; -265.400; -845.000; -874.000
217.797; -172.100; -708.000; -659.000
217.942; -229.000; -856.000; -720.000
218.086;  182.100;  608.000;  539.000
218.231;  -38.800; -174.000;  -26.000
218.376;  -52.400; -337.000; -229.000
218.520;   18.700;  -41.000;   96.000
218.665;  -55.900; -338.000; -204.000
218.810;  -58.700; -275.000; -233.000
218.954;   75.100;  201.000;   35.000
219.099; -275.900; -713.000; -963.000
219.243; -124.400; -589.000; -554.000
219.388;  -63.400; -264.000; -136.000
219.532;  -35.700; -116.000; -116.000
219.677; -160.300; -564.000; -521.000
219.822;   51.200;   33.000;   89.000
219.966;   18.800;   17.000;  -99.000
220.111;  -66.000; -328.000;  -40.000
220.255; -180.100; -797.000; -750.000
220.400;  -18.100; -180.000; -146.000
220.544; -143.900; -516.000; -450.000
220.689; -115.100; -422.000; -451.000
220.833;  -26.500; -123.000;  -58.000
220.978;  -67.700; -393.000; -563.000
221.122;   50.400;  319.000;  307.000
221.267; -238.100; -906.000; -837.000
221.411; -119.400; -478.000; -394.000
221.555;    0.200; -104.000;  -23.000
221.700;  -99.700; -329.000; -222.000
221.844;   98.100;  255.000;  272.000
221.989;  -92.400; -328.000; -311.000
222.133;  -57.200; -289.000; -307.000
222.277;  -29.900;    5.000;   78.000
222.422;   63.300;  227.000;  113.000
222.566;  -53.200; -381.000; -214.000
222.711; -118.800; -414.000; -479.000
222.855; -157.400; -643.000; -586.000
222.999; -166.000; -642.000; -717.000
223.144;  -62.200; -195.000; -194.000
223.288;  143.900;  423.000;  251.000
223.432;   17.000;  184.000;  230.000
223.576;   37.700;  152.000;  -21.000
223.721;  107.600;  364.000;  273.000
223.865;  -99.800; -472.000; -475.000
224.009;  491.300; 1673.000; 1631.000
224.153; -134.600; -660.000; -671.000
224.298; -146.400; -531.000; -489.000
224.442;   -4.600;  -74.000;  -33.000
224.586;  -31.600; -169.000; -106.000
224.730; -188.400; -858.000; -670.000
224.875; -247.500; -739.000; -688.000
225.019;   67.700;  102.000;  188.000
225.163;  137.700;  208.000;  341.000
225.307;   42.100;   97.000;  -91.000
225.451;  111.300;  360.000;  481.000
225.595;   89.500;  264.000;  176.000
225.739;  -27.900; -170.000;  -94.000
225.884;   22.900;   86.000;    5.000
226.028; -192.600; -760.000; -626.000
226.172;  -90.200; -260.000; -273.000
226.316; -245.700; -941.000; -902.000
226.460; -132.100; -645.000; -493.000
226.604; -112.900; -406.000; -400.000
226.748; -198.300; -836.000; -733.000
226.892;  -67.000; -227.000; -181.000
227.036; -100.200; -537.000; -447.000
227.180; -113.300; -551.000; -375.000
227.324; -132.600; -561.000; -580.000
227.468; -231.900; -819.000; -717.000
227.612;   23.700;  242.000;  -28.000
227.756; -203.700; -845.000; -698.000
227.900;  104.000;  342.000;  441.000
228.044; -107.200; -509.000; -290.000
228.188;  151.900;  448.000;  568.000
228.332; -173.400; -546.000; -472.000
228.476;  -53.000; -223.000; -149.000
228.620;  -25.500; -210.000; -150.000
228.764;  175.600;  431.000;  349.000
228.908;  -45.900; -155.000;   30.000
229.052; -109.400; -615.000; -528.000
229.195;    6.000; -172.000;   13.000
229.339;  -58.500; -235.000; -305.000
229.483;  -48.700;    5.000; -162.000
229.627;   28.500; -156.000;  139.000
229.771;  -83.200; -218.000; -294.000
229.915;   17.200;  230.000;   79.000
230.059; -187.800; -648.000; -663.000
230.202;  -56.300; -370.000; -317.000
230.346;  -42.100; -107.000;  107.000
230.490; -107.400; -489.000; -521.000
230.634; -217.400; -736.000; -553.000
230.777;  151.800;  478.000;  509.000
230.921; -118.000; -450.000; -359.000
231.065;  -81.100; -246.000; -286.000
231.209;   52.400;  261.000;  265.000
231.352;   56.600;   54.000;   40.000
231.496;   64.700;  568.000;  188.000
231.640; -141.400; -693.000; -621.000
231.783;  136.300;  546.000;  525.000
231.927;  -58.800; -294.000; -365.000
232.071; -269.800; -962.000; -736.000
232.214; -226.100; -980.000; -764.000
232.358; -225.300; -683.000; -599.000
232.502;   13.200;  -19.000;    7.000
232.645; -290.200;-1090.000; -927.000
232.789;    1.300; -257.000; -218.000
232.933;  -97.600; -407.000; -224.000
233.076; -280.100;-1038.000; -897.000
233.220; -214.600; -752.000; -777.000
233.363; -140.300; -669.000; -477.000
233.507;  150.600;  371.000;  129.000
233.650; -183.200; -764.000; -834.000
233.794;   68.400;  438.000;  461.000
233.938;  -90.500; -530.000; -362.000
234.081;  -29.300;  -93.000;   31.000
234.225; -119.500; -631.000; -539.000
234.368; -231.900; -773.000; -723.000
234.512;  -61.200; -385.000; -299.000
234.655; -166.300; -582.000; -555.000
234.798; -116.600; -493.000; -466.000
234.942; -282.600; -884.000;-1002.000
235.085; -150.100; -651.000; -443.000
235.229; -159.500; -405.000; -410.000
235.372; -120.200; -247.000; -191.000
235.516; -120.200; -397.000; -321.000
235.659;   72.800;   92.000;  121.000
235.802;   -4.800;  -38.000;  -22.000
235.946;   65.400;  335.000;  215.000
236.089;   60.500;  126.000;  250.000
236.233;  155.100;  275.000;  298.000
236.376;  -69.600; -235.000; -378.000
236.519;  -74.900; -297.000; -319.000
236.663;  -54.000; -215.000; -117.000
236.806; -238.600;-1029.000; -999.000
236.949;  149.800;  543.000;  431.000
237.092;  141.700;  412.000;  391.000
237.236; -184.800; -589.000; -502.000
237.379;  164.100;  352.000;  428.000
237.522; -230.500; -879.000; -768.000
237.666;  -18.700; -271.000;   18.000
237.809; -242.300; -851.000; -823.000
237.952;   83.900;  469.000;  271.000
238.095; -114.300; -447.000; -442.000
238.238;  193.600;  688.000;  700.000
238.382;    8.600;  166.000;  103.000
238.525; -121.200; -598.000; -511.000
238.668; -280.200;-1060.000; -985.000
238.811; -138.300; -638.000; -643.000
238.954; -108.500; -483.000; -334.000
239.097;  223.800;  617.000;  664.000
239.241;   57.400;  394.000;  326.000
239.384;  -60.500; -254.000; -214.000
239.527; -131.500; -424.000; -224.000
239.670; -298.000; -994.000;-1091.000
239.813; -233.200; -696.000; -658.000
239.956;  195.800;  579.000;  473.000
240.099; -214.200; -778.000; -725.000
240.242;  128.900;  428.000;  432.000
240.385;  104.100;  466.000;  450.000
240.528; -147.100; -706.000; -473.000
240.671;   32.900;  189.000;  134.000
240.814;  -89.500; -441.000; -158.000
240.957; -197.700; -767.000; -578.000
241.100; -175.200; -779.000; -755.000
241.243; -265.100;-1234.000; -893.000
241.386; -113.900; -508.000; -379.000
241.529; -176.800; -735.000; -547.000
241.672; -122.300; -566.000; -495.000
241.815; -237.700; -832.000; -808.000
241.958;  -52.900; -125.000; -182.000
242.101; -152.000; -545.000; -390.000
242.244;  -91.800; -270.000; -325.000
242.387;  -39.400; -304.000; -246.000
242.530;  132.600;  470.000;  134.000
242.673;  -76.600; -381.000; -309.000
242.815; -221.400; -925.000; -899.000
242.958; -136.000; -482.000; -381.000
243.101;   56.500;  132.000;  187.000
243.244; -175.900; -564.000; -521.000
243.387;  -97.900; -313.000; -316.000
243.530; -187.400; -657.000; -674.000
243.672;   -8.500;   43.000;  -92.000
243.815; -106.900; -355.000; -283.000
243.958;   16.200;   98.000;  -26.000
244.101;   25.300;   59.000;  -16.000
244.243;   -4.300;  -47.000;  101.000
244.386; -217.700; -761.000; -630.000
244.529;  -36.200; -132.000; -139.000
244.672; -347.700;-1154.000; -951.000
244.814; -201.000; -621.000; -794.000
244.957; -118.100; -380.000; -304.000
245.100; -154.500; -489.000; -489.000
245.242;  -86.600; -387.000; -374.000
245.385;   26.100;  -59.000;  -39.000
245.528; -252.600; -871.000; -705.000
245.670;  233.200;  612.000;  634.000
245.813; -171.900; -599.000; -547.000
245.956;  -43.200; -324.000; -275.000
246.098; -170.700; -508.000; -650.000
246.241;   44.700;  194.000;   48.000
246.383;  -32.600; -119.000;  -73.000
246.526; -149.300; -454.000; -525.000
246.669; -219.200; -889.000; -780.000
246.811;   30.400;  172.000;   -1.000
246.954; -120.100; -512.000; -426.000
247.096;  -25.400;  -84.000;   -6.000
247.239; -151.100; -482.000; -445.000
247.381; -117.600; -647.000; -488.000
247.524;  190.000;  645.000;  679.000
247.666;  -22.100;   58.000;   11.000
247.809; -210.500; -887.000; -691.000
247.951;   18.100;  -75.000;  138.000
248.094;   79.600;  432.000;  308.000
248.236; -287.400;-1262.000;-1238.000
248.378;  -27.700; -356.000;  -81.000
248.521;  -14.800; -334.000; -337.000
248.663;  -69.400; -236.000; -267.000
248.806;  -22.000; -300.000; -266.000
248.948; -194.700; -886.000; -763.000
249.090; -100.800; -428.000; -398.000
249.233;  -98.000; -344.000; -381.000
249.375; -119.600; -474.000; -451.000
249.518;   -5.700;  -83.000; -133.000
249.660;   15.200; -103.000;    3.000
249.802; -338.400;-1303.000;-1189.000
249.945; -131.200; -612.000; -540.000
250.087; -223.500; -834.000; -768.000
250.229;  -77.000; -362.000; -480.000
250.371; -145.800; -494.000; -439.000
250.514;  -90.300; -310.000; -244.000
250.656;  -13.100;   69.000;  102.000
250.798; -217.400; -849.000; -800.000
250.940; -131.200; -322.000; -322.000
251.083;  -32.500; -335.000; -111.000
251.225;  116.200;  338.000;  310.000
251.367;  -60.500; -274.000; -373.000
251.509;  -60.900; -265.000; -210.000
251.651; -206.000; -731.000; -671.000
251.794;  145.700;  538.000;  632.000
251.936; -207.900; -821.000; -747.000
252.078; -148.400; -540.000; -461.000
252.220; -110.400; -645.000; -477.000
252.362;  172.900;  344.000;  462.000
252.504; -128.100; -677.000; -584.000
252.646; -200.200; -875.000; -722.000
252.788;   15.200;   14.000; -128.000
252.931;  -64.500; -257.000; -253.000
253.073;  -52.500; -376.000; -317.000
253.215;   -8.400;  141.000;  122.000
253.357;   -6.400;   82.000; -153.000
253.499;  -90.100; -374.000; -234.000
253.641; -152.800; -749.000; -594.000
253.783; -193.800; -609.000; -527.000
253.925; -162.000; -586.000; -591.000
254.067; -225.600; -744.000; -667.000
254.209;  -45.600; -391.000; -259.000
254.351; -263.500; -865.000; -883.000
254.493; -127.700; -441.000; -417.000
254.635; -247.700; -936.000; -818.000
254.777; -130.000; -752.000; -687.000
254.918; -131.300; -512.000; -430.000
255.060;  -93.000; -551.000; -395.000
255.202; -103.700; -473.000; -261.000
255.344; -161.700; -658.000; -455.000
255.486; -133.900; -471.000; -406.000
255.628; -201.100; -780.000; -781.000
255.770; -188.700; -676.000; -536.000
255.912; -114.500; -559.000; -468.000
256.053; -182.500; -730.000; -508.000
256.195;  367.300; 1008.000;  903.000
256.337; -218.900; -861.000; -595.000
256.479;  168.700;  532.000;  416.000
256.621; -110.300; -394.000; -212.000
256.762; -171.400; -789.000; -742.000
256.904;  111.700;  485.000;  487.000
257.046;  -57.300; -381.000; -271.000
257.188;  -98.700; -351.000; -264.000
257.329; -143.800; -525.000; -464.000
257.471; -245.200; -939.000; -807.000
257.613; -106.700; -584.000; -498.000
257.755; -292.800;-1073.000; -982.000
257.896;  131.900;  286.000;  392.000
258.038; -116.700; -403.000; -352.000
258.180;  -56.300; -354.000; -279.000
258.321; -149.200; -581.000; -457.000
258.463;   17.000;  -71.000;  133.000
258.605; -179.600; -562.000; -570.000
258.746; -195.200; -886.000; -772.000
258.888; -296.100;-1026.000;-1020.000
259.029;   50.400;  121.000;   -8.000
259.171; -169.500; -614.000; -550.000
259.313;   20.600;  -49.000;  -47.000
259.454; -133.700; -536.000; -414.000
259.596;  -98.000; -483.000; -390.000
259.737; -136.300; -590.000; -474.000
259.879;  115.300;  217.000;  311.000
260.020;  219.900;  901.000;  636.000
260.162;  -59.200; -146.000; -253.000
260.303; -203.000; -768.000; -687.000
260.445; -150.300; -609.000; -613.000
260.586;   94.200;  392.000;  157.000
260.728;  -82.600; -360.000; -248.000
260.869; -138.100; -350.000; -343.000
261.011;  187.900;  706.000;  537.000
261.152; -122.900; -479.000; -319.000
261.293; -125.300; -576.000; -595.000
261.435;  -72.400; -219.000; -184.000
261.576;  -96.300; -455.000; -325.000
261.718;  136.400;  420.000;  470.000
261.859; -222.800; -940.000; -949.000
262.000; -287.600; -951.000;-1016.000
262.142;    8.600;  -52.000;  -60.000
262.283; -246.200; -808.000; -691.000
262.424; -158.700; -666.000; -625.000
262.566; -282.200;-1161.000; -983.000
262.707; -218.500; -840.000; -830.000
262.848; -228.000; -769.000; -726.000
262.990;  -63.200; -362.000; -345.000
263.131;  176.400;  650.000;  681.000
263.272;   28.500;  -61.000;  -41.000
263.413; -176.000; -589.000; -561.000
263.555; -101.000; -669.000; -143.000
263.696; -142.700; -550.000; -641.000
263.837; -113.800; -449.000; -551.000
263.978;   21.900;   -5.000;  -77.000
264.119; -113.900; -283.000; -264.000
264.261; -205.200; -847.000; -630.000
264.402;   60.400;   33.000;   40.000
264.543; -142.200; -509.000; -524.000
264.684;  -22.400;   61.000;  -50.000
264.825; -143.400; -816.000; -538.000
264.966;    2.600;  -84.000;  -67.000
265.107; -243.400; -646.000; -670.000
265.248; -245.000; -825.000; -812.000
265.390;   -7.100;  152.000;   -9.000
265.531;  -14.500; -238.000; -107.000
265.672; -160.300; -557.000; -630.000
265.813;  124.100;  563.000;  439.000
265.954; -283.000; -959.000; -940.000
266.095;  -14.400; -372.000; -322.000
266.236; -167.600; -686.000; -548.000
266.377;  -60.100; -243.000; -297.000
266.518; -140.300; -619.000; -547.000
266.659;   81.800;  170.000;  268.000
266.800;   30.900;   83.000;   85.000
266.941; -133.000; -487.000; -478.000
267.082;   17.600;  354.000;   99.000
267.223;  -92.200; -344.000; -273.000
267.364; -224.100; -892.000; -686.000
267.504;   -1.700;    3.000;  135.000
267.645;   -1.800;  160.000;   67.000
267.786;  -56.800; -147.000;  -86.000
267.927; -135.900; -473.000; -379.000
268.068;  -21.200; -186.000;  -61.000
268.209;  -74.100; -175.000; -413.000
268.350; -128.400; -388.000; -532.000
268.490; -166.800; -648.000; -521.000
268.631;   95.500;  127.000;  225.000
268.772; -209.600; -874.000; -647.000
268.913;  -73.800; -328.000; -476.000
269.054;    5.400; -117.000;   12.000
269.194;  -75.100; -418.000; -402.000
269.335; -312.000;-1137.000;-1074.000
269.476;    1.900;   33.000;  -35.000
269.617;  -97.400; -347.000; -392.000
269.757; -132.600; -713.000; -646.000
269.898; -189.900; -856.000; -613.000
270.039; -122.500; -415.000; -405.000
270.180; -301.500; -952.000; -816.000
270.320;    3.100; -190.000; -250.000
270.461;  -35.000; -277.000; -249.000
270.602;   -2.900; -186.000; -156.000
270.742; -218.300; -868.000; -943.000
270.883;  -85.900; -442.000; -390.000
271.023;  -87.300; -358.000; -357.000
271.164; -148.400; -607.000; -528.000
271.305; -172.200; -666.000; -654.000
271.445; -187.700; -722.000; -683.000
271.586; -139.300; -462.000; -283.000
271.726;  -79.200; -397.000; -322.000
271.867; -127.900; -594.000; -534.000
272.008;  370.600; -473.000; -285.000
272.148;  234.600;  462.000;  468.000
272.289;   29.900; -113.000; -181.000
272.429;   57.300;   19.000;  185.000
272.570; -163.700; -633.000; -737.000
272.710; -183.600; -825.000; -775.000
272.851;   -7.000;  113.000; -130.000
272.991; -341.700;-1173.000;-1077.000
273.131; -117.300; -419.000; -459.000
273.272; -175.600; -683.000; -723.000
273.412;   20.000; -143.000;  -31.000
273.553;  -99.000; -488.000; -507.000
273.693;  292.400;  913.000;  858.000
273.834; -170.500; -894.000; -692.000
273.974; -124.300; -664.000; -615.000
274.114; -200.300; -772.000; -560.000
274.255;  179.500;  414.000;  373.000
274.395;   35.800; -180.000; -125.000
274.535;  110.000;  199.000;  350.000
274.676;   69.800;  225.000;   94.000
274.816;   67.800;  110.000;   34.000
274.956; -168.100; -624.000; -690.000
275.097; -111.900;-1014.000; -922.000
275.237; -210.300; -913.000; -803.000
275.377; -185.200; -778.000; -689.000
275.517; -292.000; -878.000; -937.000
275.658;  -99.900; -590.000; -555.000
275.798; -126.000; -606.000; -413.000
275.938;  104.300;  215.000;  323.000
276.078; -162.100; -626.000; -395.000
276.218;   45.500;   99.000;  104.000
276.359; -228.900;-1026.000;-1024.000
276.499; -128.100; -605.000; -446.000
276.639;  -81.600; -305.000; -151.000
276.779;  -55.800; -475.000; -357.000
276.919; -226.800; -783.000; -624.000
277.059;  -16.300; -261.000; -212.000
277.199; -100.600; -357.000; -259.000
277.340;  107.000;  287.000;  175.000
277.480; -211.600; -840.000; -693.000
277.620;   91.900;  192.000;   16.000
277.760; -410.400;-1533.000;-1294.000
277.900;   49.400;  113.000;   33.000
278.040;   79.400;  137.000;  159.000
278.180;   95.700;  270.000;  170.000
278.320;   11.000;   21.000;   56.000
278.460; -127.700; -443.000; -469.000
278.600; -178.400; -708.000; -598.000
278.740;  141.000;  448.000;  224.000
278.880; -118.500; -768.000; -791.000
279.020;   68.500; -194.000; -144.000
279.160; -171.700; -672.000; -595.000
279.300; -236.100; -926.000; -873.000
279.440; -169.500; -709.000; -622.000
279.579;  -71.400;-1014.000; -929.000
279.719;  -96.200; -410.000; -394.000
279.859;  120.700;   -4.000;   41.000
279.999;   69.600; -208.000;  101.000
280.139;  -44.500; -435.000; -387.000
280.279; -162.700; -708.000; -745.000
280.419;    1.400; -229.000; -147.000
280.559;  -39.200; -259.000; -180.000
280.698; -149.100; -790.000; -639.000
280.838; -163.700; -778.000; -800.000
280.978; -165.000; -846.000; -790.000
281.118; -216.800; -811.000; -704.000
281.257;   40.500;   24.000;    6.000
281.397; -235.300;-1094.000; -960.000
281.537; -154.700; -599.000; -712.000
281.677;  -50.800; -150.000; -101.000
281.816; -141.400; -700.000; -630.000
281.956;  -52.900; -193.000; -257.000
282.096;  -86.300; -539.000; -396.000
282.235; -208.600; -672.000; -638.000
282.375;   20.000; -243.000;  -98.000
282.515; -181.300; -715.000; -707.000
282.654;  104.700;   29.000;  106.000
282.794;   77.800;  388.000;  244.000
282.934;  -43.600; -530.000; -491.000
283.073; -253.700;-1030.000; -857.000
283.213;  -71.100; -460.000; -467.000
283.353;  -44.300; -408.000; -349.000
283.492;  -40.600; -264.000; -296.000
283.632;  -77.800; -254.000; -168.000
283.771; -197.400; -859.000; -730.000
283.911;  -81.000; -369.000; -260.000
284.050; -175.800; -794.000; -748.000
284.190; -330.000;-1229.000;-1096.000
284.329; -268.200;-1055.000; -964.000
284.469; -152.800; -516.000; -591.000
284.608;  -96.100; -559.000; -598.000
284.748; -144.400; -614.000; -570.000
284.887;    4.700;  -87.000;  -20.000
285.027; -243.300; -844.000; -892.000
285.166;    2.500; -192.000; -249.000
285.306;   47.700; -116.000;  -33.000
285.445;  -30.900; -229.000; -343.000
285.584; -139.900; -630.000; -494.000
285.724;  -44.500; -282.000; -322.000
285.863; -215.700; -857.000; -507.000
286.002;  -59.300; -366.000; -276.000
286.142; -188.700; -715.000; -622.000
286.281; -113.900; -525.000; -493.000
286.420; -141.800; -554.000; -417.000
286.560;  234.700;  653.000;  623.000
286.699; -260.400; -958.000; -912.000
286.838; -146.900; -590.000; -591.000
286.978; -164.900; -533.000; -537.000
287.117; -255.200;-1085.000; -950.000
287.256;  -83.100; -228.000; -211.000
287.395;  -73.600; -197.000; -378.000
287.535; -115.500; -370.000; -298.000
287.674; -139.500; -509.000; -484.000
287.813;  153.100;  661.000;  533.000
287.952; -224.100;-1010.000; -871.000
288.091; -281.300;-1049.000; -915.000
288.231;   58.700;   13.000;   15.000
288.370; -334.700;-1217.000;-1200.000
288.509; -161.200; -728.000; -645.000
288.648; -162.100; -770.000; -548.000
288.787;   14.200; -243.000;  -87.000
288.926; -129.700; -454.000; -475.000
289.065;  279.800;  859.000;  672.000
289.204;  -85.700; -377.000; -217.000
289.344; -173.400; -791.000; -690.000
289.483;  103.800;  416.000;  304.000
289.622;  -52.200; -291.000; -149.000
289.761;   -9.600; -309.000; -166.000
289.900; -189.700; -785.000; -626.000
290.039;    8.300;  -12.000;  -95.000
290.178;  -40.200; -274.000; -180.000
290.317; -133.300; -618.000; -479.000
290.456;  -97.500; -463.000; -451.000
290.595; -269.000; -961.000; -833.000
290.734; -260.400; -904.000; -891.000
290.873; -121.800; -456.000; -420.000
291.011; -223.600; -833.000; -843.000
291.150; -207.700; -770.000; -682.000
291.289;   -7.800; -343.000; -110.000
291.428; -147.300; -599.000; -480.000
291.567;  -73.900; -370.000; -442.000
291.706;    9.900;  109.000;  154.000
291.845; -139.900; -597.000; -505.000
291.984; -311.600;-1234.000;-1061.000
292.122;  199.300;  602.000;  582.000
292.261;  105.800;  620.000;  463.000
292.400;   40.500; -144.000;  211.000
292.539; -231.500; -959.000; -813.000
292.678;  -37.500; -325.000; -300.000
292.816; -308.700;-1136.000; -965.000
292.955; -144.100; -844.000; -684.000
293.094;  -26.200; -173.000; -337.000
293.233;  -75.600; -556.000; -400.000
293.371;  -46.500; -225.000;  -84.000
293.510; -189.400; -866.000; -780.000
293.649; -257.900; -959.000; -924.000
293.787; -100.300;-1083.000;-1012.000
293.926;    2.200; -113.000;  -32.000
294.065;  -67.000; -379.000; -290.000
294.203;  110.200;  298.000;  406.000
294.342;   83.800;   74.000;  156.000
294.481;10999.800;51180.000; -836.000
294.619;  -29.800; -425.000; -582.000
294.758; -293.200;-1230.000;-1137.000
294.896;  173.000; -125.000;    5.000
295.035; -229.800;-1040.000;-1006.000
295.174; -228.000;-1082.000; -954.000
295.312;  -64.400; -323.000; -203.000
295.451;  -15.100; -307.000; -428.000
295.589;  -73.300; -389.000; -518.000
295.728;   81.500; -292.000; -165.000
295.866;   40.900;  -36.000;  -51.000
296.005; -125.200; -584.000; -341.000
296.143; -124.400; -558.000; -596.000
296.282; -174.100; -957.000; -881.000
296.420; -132.500; -657.000; -557.000
296.559; -133.400; -892.000; -633.000
296.697;   59.000; -847.000; -665.000
296.835;  160.400;-1141.000;-1002.000
296.974;  119.300;  -23.000;   39.000
297.112;   85.300; -443.000; -504.000
297.251; -101.200; -815.000; -755.000
297.389;  193.600; -576.000; -438.000
297.527;  116.500; -145.000;  -83.000
297.666; -100.200; -486.000; -438.000
297.804;  -72.100; -404.000; -264.000
297.942;   30.000; -136.000; -161.000
298.081;   17.700; -183.000;   63.000
298.219;  167.600;  -17.000;  -19.000
298.357;  148.100; -144.000;  -71.000
298.495;   74.500; -810.000; -812.000
298.634;  154.200;  245.000;  219.000
298.772;  124.300; -220.000; -338.000
298.910;  -40.900; -309.000; -182.000
299.048;   34.700; -130.000; -153.000
299.187;  -15.600; -350.000; -250.000
299.325;  103.800;   52.000;  122.000
299.463;  112.000; -389.000; -299.000
299.601;  271.400; -327.000; -271.000
299.739; -209.800; -908.000; -883.000
299.877; -128.900; -791.000; -703.000
300.016; -127.600;-1095.000; -935.000
300.154;  334.100;  -19.000; -161.000
300.292;  138.700; -428.000; -348.000
300.430;   87.500; -408.000; -291.000
300.568; -205.500; -940.000; -874.000
300.706;  -94.000; -366.000; -469.000
300.844; -124.800;-1108.000; -979.000
300.982;  260.900;  246.000;  282.000
301.120; -202.000; -965.000; -866.000
301.258;  -83.500; -812.000; -705.000
301.396;  100.600;  104.000;  -41.000
301.534;  148.800; -218.000; -293.000
301.672;  -27.500; -664.000; -521.000
301.810;   70.600; -613.000; -545.000
301.948;  288.300;   53.000;  149.000
302.086; 1131.300; -250.000;  -32.000
302.224; 1803.600; -610.000; -585.000
302.362;  111.700; -558.000; -622.000
302.500;  -70.200; -923.000; -893.000
302.638;  231.000;  128.000;  245.000
302.776;   29.300; -352.000; -408.000
302.913;  137.500;  447.000;  236.000
303.051;   26.900;  -86.000;  -23.000
303.189;  166.300;   90.000;  118.000
303.327;  -26.300; -341.000; -256.000
303.465; -123.500; -832.000; -588.000
303.603; -148.500; -805.000; -604.000
303.740;  256.700;  417.000;  241.000
303.878;   41.600; -800.000; -759.000
304.016; -145.600; -915.000; -790.000
304.154; -253.900;-1123.000;-1152.000
304.291;  -43.900; -505.000; -554.000
304.429;   59.000;  102.000;   74.000
304.567; -250.600; -908.000; -893.000
304.705;  -71.500; -408.000; -515.000
304.842;  164.400; -616.000; -540.000
304.980;  147.000;  215.000;   35.000
305.118;  103.800; -367.000; -365.000
305.255; -123.500; -945.000; -927.000
305.393;  137.800;  178.000;  239.000
305.531; -195.400;-1173.000; -956.000
305.668; -106.600; -663.000; -582.000
305.806;  161.700; -358.000; -439.000
305.943;  225.700; -629.000; -637.000
306.081;  117.800; -378.000; -267.000
306.219; -186.800; -863.000; -748.000
306.356;    8.700;  158.000;   27.000
306.494;  302.000;  981.000;  761.000
306.631;   58.900;  -11.000;  -55.000
306.769;   -1.200; -613.000; -485.000
306.906;    6.000; -284.000; -258.000
307.044;  -84.700; -473.000; -488.000
307.181;  -96.900; -410.000; -332.000
307.319;   69.300;  112.000;   87.000
307.456; -331.100;-1191.000;-1153.000
307.594; -178.500; -980.000; -727.000
307.731;   16.100; -371.000; -164.000
307.868;   38.200;  -15.000;   20.000
308.006; -249.100; -961.000; -847.000
308.143;  -99.500; -618.000; -330.000
308.281;  484.200;  -37.000; -254.000
308.418;   62.400; -748.000; -640.000
308.555; -111.900; -400.000; -250.000
308.693;  -79.700; -577.000; -573.000
308.830; -172.800; -712.000; -657.000
308.967;    0.500; -215.000;  -95.000
309.105;  -34.100; -507.000; -396.000
309.242;  116.300; -468.000; -367.000
309.379;  845.100; -577.000; -655.000
309.517;  -44.400; -936.000; -948.000
309.654; -166.600; -910.000; -734.000
309.791;  -92.100; -662.000; -580.000
309.928; -200.900; -977.000; -914.000
310.065;  377.800;  819.000;  697.000
310.203;  -18.000; -825.000; -850.000
310.340;   29.500; -465.000; -321.000
310.477; -107.300; -412.000; -516.000
310.614;  -85.800; -383.000; -473.000
310.751; -130.100; -427.000; -518.000
310.889;   17.100;    1.000;   11.000
311.026; -273.700;-1161.000; -939.000
311.163;  -46.000; -386.000; -380.000
311.300; -128.900; -512.000; -479.000
311.437;  -95.100; -658.000; -619.000
311.574; -318.900;-1226.000; -985.000
311.711;  -51.500; -595.000; -433.000
311.848;  -37.100; -380.000; -388.000
311.985;   67.600;  270.000;   93.000
312.122; -194.500; -932.000; -762.000
312.259; -210.900; -941.000; -994.000
312.396; -149.500; -508.000; -551.000
312.533; -128.500; -812.000; -790.000
312.670; -225.400;-1070.000; -898.000
312.807;    2.600; -352.000; -367.000
312.944; -148.400; -513.000; -611.000
313.081;  -11.200; -150.000; -415.000
313.218; -195.000;-1111.000; -867.000
313.355;   38.800; -531.000; -449.000
313.492;   28.400; -455.000; -292.000
313.629;  337.800;  815.000;  735.000
313.766; -304.900;-1176.000;-1008.000
313.902;   30.800; -186.000;   21.000
314.039;  -63.800; -372.000; -289.000
314.176;  116.700;  286.000;  192.000
314.313; -100.700; -569.000; -473.000
314.450; -111.600; -788.000; -684.000
314.587;  -66.600; -468.000; -480.000
314.723;   89.800;  -78.000;  130.000
314.860;   90.900;  318.000;  332.000
314.997;  112.300;  223.000;  142.000
315.134;  -56.300; -385.000; -368.000
315.270;  -12.400; -480.000; -496.000
315.407; -240.600;-1094.000; -967.000
315.544;  -77.600; -657.000; -538.000
315.681; -106.200; -681.000; -565.000
315.817;   85.700; -133.000; -176.000
315.954;   64.600; -613.000; -392.000
316.091; -225.000;-1045.000;-1023.000
316.227;  -62.500;  -71.000; -179.000
316.364;   53.800;   23.000;    6.000
316.500;  -54.900; -113.000; -300.000
316.637;   10.400; -181.000; -302.000
316.774; -155.600; -625.000; -358.000
316.910; -140.000; -598.000; -629.000
317.047;  -95.700; -487.000; -351.000
317.183;  -63.600; -435.000; -566.000
317.320;   23.600; -367.000; -321.000
317.456; -147.400; -733.000; -805.000
317.593; -162.800; -598.000; -641.000
317.729;   34.700;  168.000;  -67.000
317.866; -381.200;-1434.000;-1285.000
318.002; -146.700; -708.000; -948.000
318.139; -145.000; -883.000; -867.000
318.275; -175.100;-1003.000; -738.000
318.412;  -68.000; -517.000; -336.000
318.548;  -25.500; -751.000; -720.000
318.685; -155.900; -985.000; -888.000
318.821; -172.500; -762.000; -735.000
318.957;    0.300;   34.000;  -23.000
319.094;  133.600;  297.000;  154.000
319.230; -143.900; -756.000; -742.000
319.367;  241.000; -471.000; -520.000
319.503;  150.400; -538.000; -436.000
319.639; -146.900; -877.000; -793.000
319.775; -117.100; -750.000; -685.000
319.912;  -70.900; -424.000; -519.000
320.048; -183.000;-1184.000;-1184.000
320.184;  186.800;   59.000;   70.000
320.321;  -64.100; -497.000; -467.000
320.457;  184.900;  475.000;  662.000
320.593; -109.900; -375.000; -382.000
320.729; -182.900; -732.000; -734.000
320.866; -107.100; -577.000; -635.000
321.002; -121.300; -759.000; -809.000
321.138;   18.600; -135.000; -211.000
321.274;  171.300; -148.000; -115.000
321.410;  -48.000; -585.000; -353.000
321.546;  -23.300;-1011.000; -911.000
321.683;  154.900;  400.000;  185.000
321.819;   61.100;  -48.000; -117.000
321.955; -231.700; -743.000; -722.000
322.091;  -66.900; -585.000; -540.000
322.227;   21.900; -382.000; -202.000
322.363;   11.700; -320.000; -215.000
322.499;  -53.500; -343.000; -331.000
322.635;  378.600;  636.000;  443.000
322.771;   87.400; -139.000;   12.000
322.907;  239.300;  129.000;  327.000
323.043;   10.600; -115.000; -206.000
323.179;  -26.500; -394.000; -363.000
323.315;   42.500; -401.000; -371.000
323.451;  222.100; -328.000; -236.000
323.587;  139.200;  -60.000;  -77.000
323.723;   56.000; -682.000; -601.000
323.859;  -11.700; -258.000;  -76.000
323.995;  -28.800; -467.000; -409.000
324.131; -227.600; -967.000; -892.000
324.267;    3.200; -254.000; -276.000
324.402; -254.400; -960.000; -983.000
324.538;  -15.100; -279.000; -104.000
324.674;   92.900;  164.000;   77.000
324.810;  330.500;  226.000;  308.000
324.946;   76.300; -810.000; -658.000
325.082;  -90.600; -568.000; -475.000
325.217;   19.300;  -62.000;   16.000
325.353; -192.600; -764.000; -659.000
325.489; -145.700; -540.000; -506.000
325.625; -106.300; -579.000; -525.000
325.760;  155.600;  517.000;  376.000
325.896;   -5.400; -515.000; -702.000
326.032;  -49.100; -403.000; -352.000
326.168;  -76.100; -462.000; -369.000
326.303;  -73.700; -352.000; -461.000
326.439;   20.500; -336.000; -276.000
326.575;   37.400; -190.000;  -29.000
326.710;   40.500; -156.000;  -30.000
326.846;  -20.100;  146.000;  103.000
326.982; -151.400; -530.000; -548.000
327.117; -129.100; -481.000; -442.000
327.253; -113.500; -745.000; -742.000
327.388; -303.500;-1137.000;-1153.000
327.524;  -35.500; -811.000; -578.000
327.659;    7.200;  -58.000;  -22.000
327.795;   31.100;   69.000;   45.000
327.931; -144.100; -723.000; -499.000
328.066;   12.100; -417.000; -276.000
328.202;   33.300;   12.000; -129.000
328.337;  260.900;  957.000;  713.000
328.473;   -8.000;  -12.000;  -74.000
328.608;  -13.200; -256.000; -267.000
328.743; -123.100; -799.000; -664.000
328.879;  106.500;  214.000;  114.000
329.014;  -95.900; -102.000; -122.000
329.150; -148.700; -358.000; -483.000
329.285; -119.400; -465.000; -466.000
329.421;  -51.200; -548.000; -246.000
329.556;    5.600;  -36.000;   85.000
329.691; -147.200; -633.000; -615.000
329.827; -175.100; -626.000; -480.000
329.962;  -56.800;  131.000; -301.000
330.097; -160.700; -673.000; -585.000
330.233;  -23.000; -410.000; -223.000
330.368; -219.200; -839.000; -628.000
330.503;    8.400;    3.000;   98.000
330.638;   19.600;  -93.000; -125.000
330.774;  -84.200; -609.000; -530.000
330.909;  -48.100; -434.000; -244.000
331.044; -134.500; -714.000; -708.000
331.179; -320.700;-1217.000;-1109.000
331.315;   63.000;   77.000;   20.000
331.450;   68.200;  157.000;  285.000
331.585; -156.100; -805.000; -706.000
331.720; -147.100; -510.000; -460.000
331.855;   53.900;  -35.000; -102.000
331.990;  489.200;   62.000;  138.000
332.126;  281.400; -110.000;   71.000
332.261;   -8.600; -379.000; -265.000
332.396;   54.700; -135.000; -242.000
332.531; -227.800;-1074.000;-1031.000
332.666;   92.000; -519.000; -363.000
332.801; -179.800; -726.000; -807.000
332.936;   16.800; -192.000; -122.000
333.071; -294.000; -870.000; -817.000
333.206;   92.300;  307.000;  379.000
333.341;  142.100;  344.000;  418.000
333.476; -146.100; -627.000; -623.000
333.611;  -84.900; -251.000; -173.000
333.746;  -82.200; -381.000; -464.000
333.881; -232.600; -973.000; -935.000
334.016; -194.700; -936.000; -917.000
334.151; -249.400; -746.000; -702.000
334.286;  109.500;  152.000;  186.000
334.421;    5.200; -125.000; -178.000
334.556; -116.400; -611.000; -567.000
334.690; -114.200; -631.000; -577.000
334.825;  181.500;  381.000;   83.000
334.960;  -87.200; -285.000; -413.000
335.095;   48.300;  135.000;  -91.000
335.230; -156.600; -722.000; -738.000
335.365; -247.300;-1084.000; -990.000
335.499; -245.900;-1108.000;-1037.000
335.634;  127.000;    9.000;  534.000
335.769; -179.400; -755.000; -720.000
335.904; -124.400; -603.000; -561.000
336.038;  -85.300; -735.000; -657.000
336.173; -196.700;-1206.000;-1194.000
336.308;   55.600; -116.000; -189.000
336.443;   49.500; -544.000; -634.000
336.577; -141.900; -936.000; -787.000
336.712;  177.700;   -4.000;  -12.000
336.847;  -74.600; -724.000; -607.000
336.981;  134.200; -272.000; -208.000
337.116;  573.900;  615.000;  501.000
337.250;  315.300; -434.000; -421.000
337.385;  515.800; -297.000; -208.000
337.520;  162.000; -632.000; -603.000
337.654;  -43.000; -215.000; -126.000
337.789; -218.300; -989.000; -933.000
337.923;  -26.700; -104.000; -205.000
338.058; -149.700; -673.000; -738.000
338.192;  -31.400; -611.000; -488.000
338.327;   15.100;  -18.000; -155.000
338.461;  -90.300; -299.000; -469.000
338.596; -140.000; -780.000; -638.000
338.730; -159.800; -767.000; -803.000
338.865;  199.100;  -46.000; -140.000
338.999;  -84.400; -846.000; -702.000
339.134;  -32.300; -634.000; -536.000
339.268;   38.300; -741.000; -603.000
339.403;  673.000; -740.000; -775.000
339.537;  194.100; -894.000; -820.000
339.671; -171.900; -829.000; -813.000
339.806;  -81.600; -556.000; -512.000
339.940;   61.900; -261.000; -235.000
340.074; -152.100; -685.000; -510.000
340.209;  -33.100; -351.000; -230.000
340.343; -113.700; -517.000; -573.000
340.477;  399.100;  998.000; 1036.000
340.612;  -94.800;-1033.000; -900.000
340.746;  239.700; -199.000; -243.000
340.880; -112.800; -924.000; -785.000
341.014;   -3.700;  -45.000; -154.000
341.149; -216.600; -756.000; -718.000
341.283; -163.400; -839.000; -754.000
341.417; -164.100;-1124.000; -938.000
341.551;  296.000; -768.000; -708.000
341.685;  -69.200; -633.000; -611.000
341.820;  -76.000; -562.000; -493.000
341.954;  -62.900; -218.000; -349.000
342.088; -256.700;-1102.000;-1019.000
342.222;  110.500;  565.000;  618.000
342.356;  -50.400; -395.000; -335.000
342.490; -157.700; -880.000; -841.000
342.624;  -38.200; -339.000; -242.000
342.758;   23.900; -364.000; -312.000
342.892;  -79.800; -710.000; -585.000
343.026;  -13.700;  -58.000; -116.000
343.160;  -51.300; -426.000; -376.000
343.294; -134.300; -474.000; -337.000
343.428;  -11.600; -488.000; -448.000
343.562;   -5.000; -172.000;  -23.000
343.696;    8.400; -385.000; -314.000
343.830;   -3.600; -362.000; -356.000
343.964;   55.900; -231.000; -168.000
344.098; 1721.800;  199.000;   70.000
344.232; 1465.200; -266.000; -127.000
344.366;  168.100; -567.000; -453.000
344.500;  149.400; -665.000; -744.000
344.634;   85.300; -324.000; -164.000
344.768;   27.100; -531.000; -341.000
344.902;  104.600;  278.000;  256.000
345.035;  -93.700; -556.000; -496.000
345.169; -255.400; -933.000; -656.000
345.303;  -32.100; -308.000; -482.000
345.437; -105.100; -826.000; -717.000
345.571; -120.100; -675.000; -594.000
345.704;  -74.200; -309.000; -532.000
345.838;   25.500; -331.000; -284.000
345.972;  -40.600; -543.000; -495.000
346.106;  356.400; -179.000; -190.000
346.239;  819.000; -312.000; -243.000
346.373;   35.700; -343.000; -302.000
346.507; -260.600; -950.000; -962.000
346.640;  318.300;  -30.000;   13.000
346.774;  -54.500; -650.000; -797.000
346.908;   13.700; -138.000;  -11.000
347.041; -130.700; -646.000; -593.000
347.175;   66.600;  259.000;   27.000
347.309; -116.100; -698.000; -628.000
347.442; -159.000; -883.000; -732.000
347.576;  563.000;  670.000;  668.000
347.709;  405.800; -123.000;  -52.000
347.843; -167.700; -933.000; -825.000
347.976;  129.800;  235.000;  294.000
348.110; -330.400;-1268.000;-1186.000
348.243; -165.700; -679.000; -772.000
348.377;   42.900;  -26.000;   60.000
348.510;  167.500;  403.000;  540.000
348.644;  -42.800;  -37.000; -159.000
348.777;   57.000;  180.000;  191.000
348.911;  -34.600; -142.000; -112.000
349.044;  370.800;  471.000;  448.000
349.178;  299.600;-1069.000;-1006.000
349.311;  262.300;  141.000;  255.000
349.444;    2.700; -927.000; -813.000
349.578;   11.700; -347.000; -200.000
349.711; -179.500; -959.000; -862.000
349.845;   26.900; -661.000; -591.000
349.978; -264.300;-1224.000;-1137.000
350.111; -121.900; -546.000; -612.000
350.244;  -82.900; -596.000; -700.000
350.378;   57.500; -392.000; -393.000
350.511; -115.900; -393.000; -426.000
350.644; -170.100; -808.000; -806.000
350.778;   60.800;  168.000;  104.000
350.911;   55.200;  134.000;  140.000
351.044; -132.300; -685.000; -615.000
351.177;   -4.200; -321.000; -281.000
351.310;    8.200;    3.000; -131.000
351.444; -135.300; -888.000; -788.000
351.577;  233.800;  140.000;   90.000
351.710;  225.900;  593.000;  417.000
351.843;  -33.200; -165.000;  -77.000
351.976;   79.200;  149.000;  -79.000
352.109; -143.700; -621.000; -612.000
352.242;   12.900; -464.000; -419.000
352.376; -102.200; -580.000; -636.000
352.509;  359.900; -437.000; -356.000
352.642;   30.700; -654.000; -604.000
352.775;  141.600; -141.000;  -98.000
352.908; -205.100; -933.000; -904.000
353.041; -175.800; -814.000; -824.000
353.174;  -71.900; -551.000; -424.000
353.307; -152.200; -753.000; -764.000
353.440;  184.500;  541.000;  453.000
353.573; -232.400; -957.000;-1008.000
353.706;  -97.000; -384.000; -558.000
353.839;   52.500; -264.000; -220.000
353.971; -152.900; -657.000; -512.000
354.104; -157.400; -896.000; -835.000
354.237;  -63.100; -627.000; -662.000
354.370; -125.800; -846.000; -879.000
354.503; -336.300;-1231.000;-1308.000
354.636;  -10.300; -529.000; -348.000
354.769; -223.000; -937.000; -860.000
354.902;   14.200; -230.000; -139.000
355.034;  -31.500; -164.000; -220.000
355.167;   18.100; -262.000; -162.000
355.300; -186.300;-1061.000; -880.000
355.433; 1796.400;  -71.000;  -14.000
355.565; 2769.500; -402.000; -384.000
355.698;  716.000; -356.000; -296.000
355.831;   27.900; -882.000; -801.000
355.964;  222.300; -285.000; -170.000
356.096; -146.200; -856.000; -843.000
356.229;   38.100; -523.000; -530.000
356.362;  587.200; -373.000; -266.000
356.494; 1109.300; -229.000; -162.000
356.627;  956.100;  269.000;  377.000
356.760; 1244.800;  120.000;   53.000
356.892; 1719.400; -286.000; -601.000
357.025; 1316.400;  403.000;  389.000
357.157; 1152.700; -167.000; -179.000
357.290; 1191.900; -856.000; -713.000
357.423;  317.200; -667.000; -556.000
357.555;  280.400; -217.000; -228.000
357.688;  239.700; -483.000; -364.000
357.820;  823.700; -870.000; -877.000
357.953; 6733.700; -563.000; -589.000
358.085; 1399.500; -632.000; -612.000
358.218; 2165.600;-1131.000; -932.000
358.350;  416.700;  -58.000;  312.000
358.483; -238.900;-1300.000;-1187.000
358.615;  -12.500;-1182.000;-1078.000
358.747; -108.800;-1187.000;-1058.000
358.880;   98.000; -810.000; -744.000
359.012;   19.100; -376.000; -202.000
359.145;   -9.200; -480.000; -511.000
359.277;   89.600; -962.000; -913.000
359.409; 5508.300;  536.000;  231.000
359.542; 1404.700; -738.000; -688.000
359.674;  143.200;   46.000;   13.000
359.806;  -86.600; -565.000; -438.000
359.939;  -41.100; -617.000; -516.000
360.071;    4.000; -583.000; -579.000
360.203;    4.100; -411.000; -364.000
360.335;  123.300;  164.000;  -16.000
360.468;  355.700; -249.000; -307.000
360.600; 4496.900; -547.000; -454.000
360.732; 5118.100; -546.000; -423.000
360.864;  706.800;-1216.000;-1044.000
360.996;  580.400; -516.000; -554.000
361.129;  128.400; -389.000; -598.000
361.261;   72.000;  110.000; -113.000
361.393;    9.900; -252.000; -214.000
361.525;  123.500;   94.000;  244.000
361.657;  -47.400; -821.000; -703.000
361.789;   77.300; -139.000; -155.000
361.921;  452.500; -642.000; -593.000
362.053;  562.600;  524.000;  541.000
362.185;  147.700;  288.000;   72.000
362.318; -101.600; -709.000; -705.000
362.450;  297.000;  294.000;  444.000
362.582;  233.000; -913.000; -870.000
362.714;  -17.000; -353.000; -332.000
362.846; -116.800; -606.000; -490.000
362.978; -264.700; -941.000; -811.000
363.109;  165.100; -161.000; -260.000
363.241;  854.700; -739.000; -749.000
363.373;  805.900; -649.000; -564.000
363.505; 1217.300; -186.000;  -91.000
363.637;  316.800; -787.000; -601.000
363.769; -253.000;-1067.000;-1080.000
363.901;  -95.900; -596.000; -654.000
364.033; -206.600;-1103.000;-1062.000
364.165;   16.800; -283.000; -283.000
364.296;  205.600; -316.000; -177.000
364.428;  137.500;-1344.000;-1220.000
364.560; -115.700; -679.000; -661.000
364.692;  -93.200; -738.000; -835.000
364.824;  566.700; -588.000; -456.000
364.955;  820.600; -402.000; -564.000
365.087; 1630.300;-1097.000; -852.000
365.219;   60.100; -686.000; -816.000
365.351; -111.300; -526.000; -572.000
365.482;  214.700;  300.000;  240.000
365.614;  -50.100; -402.000; -314.000
365.746; -147.600; -729.000; -752.000
365.877; -184.200; -706.000; -672.000
366.009;  565.900;  -35.000;  -62.000
366.141; -169.000;-1249.000;-1134.000
366.272; -174.000; -803.000; -719.000
366.404; -203.500;-1005.000; -874.000
366.535;   50.300; -139.000;  -12.000
366.667; -155.600; -644.000; -649.000
366.799;  126.600;  353.000;  203.000
366.930; -208.900; -862.000; -996.000
367.062;  285.200; -639.000; -613.000
367.193;  239.600; -872.000; -842.000
367.325;  -84.100; -580.000; -684.000
367.456;  134.800; -246.000;   31.000
367.588;  334.400; -371.000; -318.000
367.719;   54.300;  -44.000;  -45.000
367.851;   14.900; -222.000; -241.000
367.982;  -65.600; -875.000; -732.000
368.113;  234.200; -475.000; -358.000
368.245; -205.000; -960.000; -841.000
368.376;   15.600; -254.000; -302.000
368.508;  -30.500; -188.000; -263.000
368.639; -234.900;-1166.000;-1034.000
368.770;  -18.000; -670.000; -589.000
368.902;  -78.000; -836.000; -926.000
369.033; -159.100; -906.000; -855.000
369.164;  -62.600; -720.000; -653.000
369.296; -181.100; -452.000; -601.000
369.427;   73.300; -209.000; -144.000
369.558;  -38.100; -593.000; -377.000
369.689; -106.300; -721.000; -569.000
369.821; -216.900; -951.000; -845.000
369.952;    3.400;   42.000; -108.000
370.083;  -43.700; -229.000; -108.000
370.214;  -92.200; -735.000; -650.000
370.345;   27.300;   65.000;   81.000
370.477; -111.400; -810.000; -790.000
370.608;  501.500; -328.000; -264.000
370.739;  -77.700;-1233.000;-1292.000
370.870;  -31.700;-1102.000; -923.000
371.001;  202.500; -378.000; -467.000
371.132; -116.400; -754.000; -735.000
371.263;    0.200;  -42.000; -148.000
371.394; -231.200; -841.000; -748.000
371.525;  107.700;  345.000;  225.000
371.657; -135.700; -808.000; -670.000
371.788;  210.900;  103.000;  199.000
371.919;  289.900; -384.000; -304.000
372.050; 6765.200;  -91.000; -156.000
372.181; 1930.800; -188.000; -294.000
372.311;  776.600;   42.000; -127.000
372.442;  112.200; -457.000; -451.000
372.573;   29.200; -444.000; -340.000
372.704; -242.100;-1008.000; -980.000
372.835;  202.900; -228.000; -289.000
372.966;  -90.300; -646.000; -554.000
373.097;  -68.100; -575.000; -711.000
373.228;  -45.600; -717.000; -542.000
373.359;  346.900; -824.000; -536.000
373.490; 1747.800; -881.000; -727.000
373.620; 2157.800;-1001.000; -803.000
373.751; 3381.000; -332.000; -396.000
373.882; 1385.000; -663.000; -733.000
374.013;  158.000; -449.000; -262.000
374.143;  -32.100; -581.000; -659.000
374.274; -186.600; -987.000; -908.000
374.405;  366.500; -388.000; -276.000
374.536;  834.600; -526.000; -387.000
374.666; 2075.100; -759.000; -807.000
374.797;  432.500; -817.000; -868.000
374.928; 1667.300; -710.000; -560.000
375.058; 1691.800; -535.000; -500.000
375.189;  204.300;  -59.000;  -93.000
375.320; -172.100; -928.000;-1034.000
375.450;  -48.000; -625.000; -616.000
375.581;  -43.200; -526.000; -436.000
375.712;   -3.300; -574.000; -250.000
375.842;  626.200; -438.000; -415.000
375.973;  440.200; -554.000; -513.000
376.103;  -35.800; -665.000; -648.000
376.234; -120.600; -531.000; -552.000
376.364;  -72.000; -944.000; -867.000
376.495;  727.400;  925.000;  529.000
376.625;   38.400; -472.000; -485.000
376.756;  136.400; -709.000; -678.000
376.886; -102.500;-1178.000;-1026.000
377.017;  119.500;-1048.000;-1061.000
377.147;  647.100; -786.000; -782.000
377.278;  152.500;  174.000;  228.000
377.408; -210.400; -801.000; -815.000
377.538; -134.500; -707.000; -693.000
377.669; -115.500; -537.000; -613.000
377.799; -125.300; -645.000; -635.000
377.929;  -78.800; -610.000; -428.000
378.060; -204.400; -781.000; -847.000
378.190;  -65.300; -726.000; -531.000
378.320;  -49.600; -401.000; -406.000
378.451;   31.000; -131.000;  -22.000
378.581;   30.400;  -67.000; -110.000
378.711;  381.100; 1035.000;  866.000
378.841;   20.600; -533.000; -675.000
378.972; -132.000; -871.000; -751.000
379.102;   34.600; -652.000; -579.000
379.232;   13.500; -126.000;  -73.000
379.362; -181.600;-1001.000; -885.000
379.492;   32.700; -373.000; -424.000
379.623;  253.400;    0.000;  111.000
379.753; -172.200;-1107.000; -974.000
379.883;  456.300;   59.000;  156.000
380.013;   25.000;-1081.000;-1017.000
380.143; -155.800;-1097.000;-1056.000
380.273; -185.200; -985.000; -861.000
380.403;   54.600; -344.000; -257.000
380.533;  -53.500; -651.000; -664.000
380.663;  193.500;  173.000;  128.000
380.793; -163.800;-1027.000;-1074.000
380.923;   35.500; -103.000;  -34.000
381.053; -131.300; -613.000; -623.000
381.183;   24.400; -106.000; -248.000
381.313;   88.700; -656.000; -470.000
381.443;   90.500; -692.000; -473.000
381.573;  416.400; -402.000; -409.000
381.703;  527.200;-1249.000;-1095.000
381.833; -240.100;-1454.000;-1336.000
381.963;  249.100; -134.000;  -87.000
382.093; 2660.000; -925.000; -909.000
382.223;  788.800; -713.000; -602.000
382.353;   23.000; -801.000; -608.000
382.482;  747.500;-1091.000; -964.000
382.612; 1444.500; -872.000; -644.000
382.742;  834.600; -695.000; -622.000
382.872;  509.900; -565.000; -551.000
383.002;  203.000;  347.000; -132.000
383.131;   18.600; -226.000; -160.000
383.261;  -52.800; -706.000; -768.000
383.391;  616.200; -552.000; -377.000
383.521; 5794.700;  451.000;  263.000
383.650; 1272.900; -947.000; -904.000
383.780;   34.800; -783.000; -656.000
383.910;  286.500;  880.000;  802.000
384.039;  132.000; -794.000; -656.000
384.169;  415.700;-1205.000;-1017.000
384.299;   -9.200; -650.000; -662.000
384.428; -136.300; -764.000; -680.000
384.558;    4.500; -308.000; -275.000
384.687;  -14.500; -414.000; -334.000
384.817;   98.900;   75.000;   -2.000
384.947;   83.500; -234.000; -141.000
385.076;  616.500;  982.000;  912.000
385.206;  234.200;  369.000;  480.000
385.335;  -20.700; -549.000; -417.000
385.465; -111.400; -655.000; -663.000
385.594;  354.800;  -53.000;  -44.000
385.724;  804.500; -868.000; -838.000
385.853;  267.300; -296.000; -270.000
385.982; 2656.100; -743.000; -787.000
386.112; 3889.700;-1052.000; -871.000
386.241;  305.700; -307.000; -312.000
386.371;   85.500; -174.000;  -87.000
386.500;   16.400; -825.000; -789.000
386.629;   69.000; -874.000; -817.000
386.759;  146.900;  -43.000;   68.000
386.888;   43.900; -170.000; -250.000
387.017;  -98.400; -648.000; -620.000
387.147;  -95.100; -771.000; -798.000
387.276;   50.400; -410.000; -397.000
387.405;   56.800; -398.000; -342.000
387.535;  -56.000; -452.000; -361.000
387.664;  -55.200; -692.000; -620.000
387.793;  202.100; -198.000; -113.000
387.922; 1030.800;  255.000;  200.000
388.052;   40.400; -576.000; -423.000
388.181;   86.400; -342.000; -472.000
388.310;   47.200; -889.000; -710.000
388.439;   -8.200; -749.000; -742.000
388.568;  399.300;  365.000;  244.000
388.697; 2031.500; -756.000; -653.000
388.826;  369.800; -768.000; -666.000
388.956;  143.200; -285.000; -307.000
389.085;  -40.700; -347.000; -287.000
389.214; -174.200; -842.000; -872.000
389.343;  -54.600; -645.000; -413.000
389.472;  849.500;  126.000;  149.000
389.601;  970.100;   91.000;    0.000
389.730;   40.300; -568.000; -687.000
389.859;  174.500;  226.000;   46.000
389.988;  422.600; -423.000; -408.000
390.117;  289.200; -168.000; -146.000
390.246;   56.600; -331.000; -320.000
390.375;  251.400; -673.000; -626.000
390.504;  -62.800; -703.000; -621.000
390.633; -187.000; -672.000; -726.000
390.761;  -87.400; -732.000; -645.000
390.890;  110.900;   -4.000; -130.000
391.019;  -26.300; -421.000; -441.000
391.148; -219.900; -826.000; -855.000
391.277;  -70.600; -576.000; -493.000
391.406; -122.000; -821.000; -805.000
391.534;   93.500;  574.000; -301.000
391.663;  -65.300; -583.000; -645.000
391.792; -105.900; -673.000; -701.000
391.921;  223.500;   -3.000;   15.000
392.050;  423.200; -287.000; -228.000
392.178;  -47.100;-1206.000;-1061.000
392.307;  315.200; -758.000; -712.000
392.436;  166.200; -427.000; -641.000
392.564;  129.900;  166.000;   -6.000
392.693; -148.900; -860.000; -682.000
392.822;  467.500; -529.000; -534.000
392.950;  155.800; -880.000; -714.000
393.079;  636.100; -188.000; -328.000
393.208;   91.300; -488.000; -511.000
393.336;   38.200; -170.000; -145.000
393.465;  -34.700; -317.000; -199.000
393.593;  102.600;   62.000;   79.000
393.722; -278.400;-1121.000; -916.000
393.850;   36.300; -188.000;  -61.000
393.979; -259.600; -926.000; -805.000
394.107;  -71.100; -517.000; -537.000
394.236;   -9.600; -570.000; -507.000
394.364;  572.000;  383.000;  206.000
394.493;  912.000; -911.000; -767.000
394.621;   25.100; -955.000; -916.000
394.750; 1410.300; -873.000; -923.000
394.878; 5617.500; -247.000; -149.000
395.007; 7188.900; -721.000; -807.000
395.135;  566.300; -790.000; -721.000
395.263; -161.100;-1038.000;-1040.000
395.392;   44.200;  -25.000; -107.000
395.520; -243.800; -818.000; -679.000
395.648; -143.500; -865.000; -915.000
395.777;    2.600; -366.000; -405.000
395.905;  -29.800; -449.000; -564.000
396.033;   94.300;  217.000;  172.000
396.162; 1575.800; -399.000; -453.000
396.290; 1302.500;  -17.000;   -2.000
396.418;  242.900; -555.000; -514.000
396.546; -120.900; -571.000; -466.000
396.674; -158.200; -850.000; -878.000
396.803;   91.300;  -72.000;  -23.000
396.931;  215.100; -179.000; -199.000
397.059;  109.000;-1026.000; -989.000
397.187; -163.200;-1026.000; -975.000
397.315; -244.800; -884.000; -649.000
397.443; -117.900; -592.000; -443.000
397.572; -114.000; -578.000; -424.000
397.700;   54.700; -607.000; -614.000
397.828;   49.900;  120.000;  -90.000
397.956;  -32.400; -508.000; -478.000
398.084;  -55.500; -767.000; -626.000
398.212;  160.500;  137.000;  124.000
398.340;   63.000;  -56.000;  159.000
398.468;  117.400; -390.000; -169.000
398.596; -213.100; -993.000; -953.000
398.724; -188.200; -762.000; -767.000
398.852; -290.700;-1024.000; -976.000
398.980;  -74.600; -560.000; -560.000
399.108;  -51.600; -982.000; -735.000
399.236;  117.400;   13.000;    8.000
399.363;   73.600;  222.000;  196.000
399.491;  -74.900; -404.000; -398.000
399.619; -198.900; -829.000; -800.000
399.747; -128.800; -859.000; -771.000
399.875;  200.300;  220.000;  234.000
400.003;   11.700; -359.000; -284.000
400.130; -141.000; -421.000; -341.000
400.258;  -14.100;  -83.000;   38.000
400.386;  -46.300; -352.000; -168.000
400.514;  -42.300; -526.000; -587.000
400.641; -139.100; -928.000; -802.000
400.769; -237.600; -979.000; -888.000
400.897; -146.500; -838.000; -793.000
401.025;   34.400; -166.000; -152.000
401.152;   70.500;  220.000;   38.000
401.280; -112.500; -430.000; -429.000
401.408; -200.700; -712.000; -576.000
401.535; -167.800; -735.000; -758.000
401.663; -325.000;-1134.000;-1054.000
401.790; -129.700; -514.000; -525.000
401.918;  138.300;  436.000;  405.000
402.046;   23.700;  134.000;  122.000
402.173;   -7.100;  -18.000;    7.000
402.301;  -81.700; -519.000; -397.000
402.428;  112.600;  528.000;  383.000
402.556; -231.200;-1188.000; -913.000
402.683;    9.300;  -20.000;   -1.000
402.811;   13.400;  -37.000; -206.000
402.938;    3.500;   20.000;   27.000
403.066;  403.200; -574.000; -558.000
403.193;  653.100;  299.000;  239.000
403.321;  506.100; -396.000; -574.000
403.448;  584.500;   83.000;   27.000
403.575;  301.500;  -90.000;  -46.000
403.703; -156.100; -732.000; -557.000
403.830;  -88.700; -531.000; -496.000
403.957; -255.800;-1117.000;-1023.000
404.085;   62.400;  -61.000; -172.000
404.212;  258.600;  -50.000;   63.000
404.339;  598.500; -566.000; -306.000
404.467;10938.000; -612.000; -524.000
404.594; 6935.800; -287.000; -227.000
404.721; 1615.000; -869.000; -764.000
404.848;  190.300; -113.000; -202.000
404.976; -155.100; -856.000; -783.000
405.103;   39.600;  -14.000;  -82.000
405.230;   70.000;  190.000;  226.000
405.357;   89.100;  117.000;   44.000
405.484;  560.900;  -49.000;    5.000
405.612;  104.200; -548.000; -563.000
405.739;  -62.000; -488.000; -243.000
405.866;  251.300;  669.000;  385.000
405.993;   -8.800; -398.000; -102.000
406.120; -213.000; -801.000; -887.000
406.247;  -37.200; -323.000; -342.000
406.374;  956.600;  540.000;  629.000
406.501;  204.100; -632.000; -702.000
406.628;  -77.200; -621.000; -589.000
406.755; -151.200; -803.000; -620.000
406.882;  -28.300; -228.000; -277.000
407.009; -144.000; -719.000; -628.000
407.136;  193.700; -480.000; -401.000
407.263;  292.300; -939.000; -829.000
407.390; -118.200; -692.000; -614.000
407.517; -289.600;-1139.000;-1187.000
407.644;  -46.500; -332.000; -256.000
407.771;  -80.200; -249.000; -287.000
407.898;   95.600;  168.000;  328.000
408.025;  -77.000; -421.000; -313.000
408.151;   85.000;   82.000;  153.000
408.278;  -92.200; -267.000; -216.000
408.405; -185.200; -931.000; -899.000
408.532;  -88.400; -549.000; -542.000
408.659; -188.600; -677.000; -648.000
408.785; -368.900;-1298.000;-1170.000
408.912;  -60.400; -412.000; -296.000
409.039; -172.000; -610.000; -686.000
409.166; -144.000; -591.000; -555.000
409.292; -180.200; -571.000; -534.000
409.419; -155.000; -665.000; -649.000
409.546; -119.500; -431.000; -192.000
409.672; -115.800; -713.000; -545.000
409.799;   -3.900;  -36.000;   34.000
409.926;  -31.300; -180.000; -179.000
410.052; -336.500;-1127.000;-1091.000
410.179;  -65.800; -368.000; -392.000
410.305; -100.600; -375.000; -493.000
410.432;  -15.000; -220.000; -333.000
410.558; -113.500; -305.000; -380.000
410.685; -146.600; -688.000; -431.000
410.812; -164.800; -409.000; -588.000
410.938; -229.400; -964.000; -808.000
411.065; -134.100; -671.000; -645.000
411.191;   29.200; -189.000; -174.000
411.317; -159.100; -823.000; -742.000
411.444;  -60.400; -317.000; -246.000
411.570;  -81.000; -339.000; -294.000
411.697; -227.800; -758.000; -752.000
411.823; -288.900; -989.000; -999.000
411.949;   15.300;  -56.000;   17.000
412.076; -159.300; -539.000; -519.000
412.202; -159.000; -758.000; -757.000
412.329; -200.800; -798.000; -752.000
412.455; -135.200; -821.000; -657.000
412.581;   52.600;  -15.000;  172.000
412.707;  -73.400; -540.000; -457.000
412.834;   85.400;  156.000;  219.000
412.960; -142.700; -785.000; -784.000
413.086; -150.400; -743.000; -701.000
413.212;  354.700;  604.000;  578.000
413.339;  -81.400; -685.000; -701.000
413.465;   72.000; -364.000; -310.000
413.591; -170.500; -757.000; -474.000
413.717;  -50.900; -358.000; -366.000
413.843; -235.000; -839.000; -861.000
413.969;  -40.000;  -47.000; -292.000
414.096; -163.400; -679.000; -679.000
414.222;   39.900;  -33.000;   85.000
414.348;   35.900; -652.000; -385.000
414.474;  273.500;   38.000;  -52.000
414.600;   15.400; -126.000; -144.000
414.726;   47.700;  -96.000;  -55.000
414.852;  -55.200; -365.000; -342.000
414.978;  137.900;  104.000;  -18.000
415.104;  123.000;   38.000;   80.000
415.230;   69.100; -329.000; -330.000
415.356;  133.500; -409.000; -514.000
415.482;  435.800;   13.000;  -35.000
415.608;  561.900; -247.000; -323.000
415.734; 1929.900;   67.000;   38.000
415.860;39214.100; -875.000; -767.000
415.986;25644.700; -685.000; -607.000
416.111; 2135.400; -798.000; -652.000
416.237;  507.000; -424.000; -571.000
416.363; 2261.500; -765.000; -733.000
416.489; 7601.500; -324.000; -251.000
416.615;  761.900; -707.000; -742.000
416.741;  -23.100; -677.000; -784.000
416.866; -143.800; -673.000; -736.000
416.992; -174.900; -801.000; -818.000
417.118;  -13.000;  -41.000;  -80.000
417.244;  -64.500; -798.000; -531.000
417.369; -139.400; -801.000; -612.000
417.495;   66.200; -325.000; -254.000
417.621; -141.800;-1015.000; -803.000
417.746;   73.500; -579.000; -572.000
417.872;  153.400; -254.000; -144.000
417.998;  145.100; -515.000; -530.000
418.123; 2152.100;-1073.000; -845.000
418.249; 9935.800; -512.000; -601.000
418.374; 1288.100; -916.000; -824.000
418.500;  228.200; -383.000; -482.000
418.626;  286.800;   70.000;  -59.000
418.751;  248.600; -549.000; -448.000
418.877;  417.400; -637.000; -643.000
419.002; 3707.100; -688.000; -560.000
419.128;23679.500; -930.000; -721.000
419.253; 5219.300; -967.000; -837.000
419.379;  689.200; -391.000; -338.000
419.504;  752.400;  325.000;  415.000
419.629;  994.000; -393.000; -212.000
419.755; 7211.600; -317.000; -254.000
419.880;38308.200;  -98.000;   67.000
420.006;21867.500; -280.000; -221.000
420.131;53102.400; -662.000; -775.000
420.256; 6971.600; -315.000; -316.000
420.382;  996.400; -665.000; -687.000
420.507;  155.700; -649.000; -778.000
420.632;  306.500; -337.000; -339.000
420.758;  431.700; -251.000; -425.000
420.883; -120.300; -876.000; -672.000
421.008; -105.200; -775.000; -619.000
421.133; -113.900; -509.000; -467.000
421.259;  -18.500; -325.000; -259.000
421.384; -202.900; -834.000; -693.000
421.509;  -42.300;-1052.000; -862.000
421.634; 2259.500; -936.000; -820.000
421.759;  904.900; -359.000; -327.000
421.885;  -97.400; -717.000; -656.000
422.010;  -90.500; -673.000; -542.000
422.135; -245.800; -695.000; -727.000
422.260;  137.100;  340.000;  280.000
422.385;  -24.400;   12.000;  -98.000
422.510;   61.600;  151.000;  -26.000
422.635;  127.100;  -87.000;  -43.000
422.760;  246.700; -766.000; -791.000
422.885;  158.300;  -57.000;  -80.000
423.010;  -23.200; -112.000; -169.000
423.135; -110.400; -481.000; -561.000
423.260;   12.900; -150.000; -245.000
423.385;  194.400;  476.000;  222.000
423.510;  136.900;   71.000;  -22.000
423.635;  225.300;  133.000;   45.000
423.760;  175.100;  383.000;  328.000
423.885;  137.900;  336.000;  391.000
424.010;   88.600;  -68.000;  -13.000
424.135;   55.200;    5.000;  -33.000
424.259; -123.000; -654.000; -457.000
424.384;  -86.500; -279.000; -272.000
424.509;  -21.000; -260.000; -186.000
424.634; -128.000; -761.000; -623.000
424.759;   -7.000; -688.000; -544.000
424.883;   -3.000; -506.000; -527.000
425.008;  373.900; -502.000; -410.000
425.133; 3945.200; -679.000; -653.000
425.258; 1684.800; -517.000; -381.000
425.382; 2025.900; -867.000; -774.000
425.507; 4641.700; -487.000; -543.000
425.632;  740.600; -802.000; -663.000
425.756;  908.500; -256.000; -146.000
425.881;13170.200; -831.000; -857.000
426.006;31550.200; -604.000; -355.000
426.130; 4467.500; -696.000; -508.000
426.255;  596.700; -611.000; -491.000
426.379;  346.900; -189.000; -577.000
426.504;  791.300;  660.000;  544.000
426.629; 8063.700; -519.000; -466.000
426.753; 4837.500;   64.000;  -46.000
426.878;  613.200; -252.000; -288.000
427.002;  321.900; -651.000; -668.000
427.127; 3295.400;  -35.000; -158.000
427.251;21449.200;  372.000;  401.000
427.375; 5466.100; -191.000; -173.000
427.500; 4217.300; -616.000; -610.000
427.624; 1342.500; -234.000; -400.000
427.749;  215.300; -216.000; -225.000
427.873;  -50.100; -499.000; -412.000
427.997;  -13.400; -222.000; -230.000
428.122;  248.300;  795.000;  703.000
428.246;  260.900;  433.000;  434.000
428.371; -212.900; -869.000; -773.000
428.495; -166.200; -624.000; -646.000
428.619;   10.600; -186.000; -117.000
428.743;  135.600;   65.000;  132.000
428.868;   74.700; -732.000; -643.000
428.992; 2685.100; -219.000; -326.000
429.116; 1034.600; -329.000; -357.000
429.240;  582.200;  419.000;  426.000
429.365;    2.300; -454.000; -574.000
429.489;   -0.200; -638.000; -647.000
429.613;  105.200; -236.000; -177.000
429.737;  127.600; -563.000; -432.000
429.861;  593.600; -247.000; -133.000
429.985;11105.800; -425.000; -305.000
430.109;10826.100; -770.000; -908.000
430.234; 1288.500;   76.000;  -50.000
430.358;  153.800; -250.000; -160.000
430.482;  -74.000; -672.000; -564.000
430.606;  -72.700; -655.000; -375.000
430.730;   97.900; -437.000; -388.000
430.854;  271.300; -909.000; -835.000
430.978; -109.200; -795.000; -764.000
431.102; -102.800; -499.000; -422.000
431.226; -159.900; -874.000; -815.000
431.350;  146.600;  345.000;  422.000
431.474;  -77.900; -661.000; -373.000
431.597; -231.000;-1060.000; -848.000
431.721;  -76.700; -276.000; -267.000
431.845; -226.900; -704.000; -472.000
431.969;  -92.300; -304.000; -349.000
432.093; -130.700; -395.000; -317.000
432.217;   41.000;   32.000;   82.000
432.341; -135.500; -523.000; -518.000
432.464;   93.500;   96.000;   40.000
432.588;  416.300; -401.000; -329.000
432.712;  228.600;  -52.000;  -52.000
432.836;  159.400;  213.000;  263.000
432.959;    9.100; -372.000; -311.000
433.083;  236.700;   11.000;    2.000
433.207;  766.700;  285.000;  930.000
433.330; 9923.700; -391.000; -200.000
433.454;11159.900; -654.000; -638.000
433.578; 6669.800;  583.000;  278.000
433.701; 1063.700; -623.000; -675.000
433.825;  256.200; -292.000; -299.000
433.949;  418.800;   28.000;  -72.000
434.072;  134.500; -410.000; -323.000
434.196;   50.500; -309.000; -117.000
434.319; 8007.800;25482.000;25124.000
434.443; 1508.100; -656.000; -603.000
434.566; 4924.100;  281.000;   62.000
434.690;  774.300; -637.000; -383.000
434.813;  133.500; -251.000; -173.000
434.937;  -98.100; -569.000; -696.000
435.060;  -29.500; -423.000; -332.000
435.184;  681.800; -492.000; -217.000
435.307;  350.000;  159.000;  102.000
435.431;   56.900;  -40.000;   24.000
435.554;  -73.000; -399.000; -240.000
435.677; -115.600; -350.000; -258.000
435.801;  -36.200;  -25.000;   49.000
435.924;   39.500;    1.000;  -67.000
436.048; -201.900;-1019.000; -732.000
436.171;  -57.200; -240.000;  -66.000
436.294;   -0.400; -248.000; -229.000
436.417;  243.000; -963.000; -849.000
436.541; -135.200; -814.000; -840.000
436.664;  -49.000; -242.000; -316.000
436.787;   44.300;   13.000;  113.000
436.910; -148.700; -792.000; -422.000
437.034;   90.100;  142.000;  143.000
437.157;  159.400;  -11.000;    0.000
437.280;  -38.300; -392.000; -292.000
437.403; -126.500; -982.000; -869.000
437.526; 1277.100; -903.000; -865.000
437.649; 4087.800; -505.000; -332.000
437.772;  560.900; -692.000; -540.000
437.896;  296.500;  700.000;  544.000
438.019; -134.000; -758.000; -503.000
438.142; -109.200; -596.000; -506.000
438.265;   -7.700; -639.000; -670.000
438.388; 1182.200; -520.000; -410.000
438.511;  174.000; -597.000; -394.000
438.634;  -32.900; -247.000; -125.000
438.757; -213.600; -693.000; -619.000
438.880;   54.000;  -34.000;  -57.000
439.003;  -83.200; -417.000; -437.000
439.126;  -63.700; -287.000; -167.000
439.248;  -82.500;  -98.000; -139.000
439.371;  -21.000;    9.000;  -53.000
439.494;  125.800;  510.000;  439.000
439.617;  -40.300;   65.000;  -88.000
439.740; -290.400; -968.000; -816.000
439.863; -225.900; -755.000; -595.000
439.986; -199.900; -476.000; -431.000
440.108;  -63.800; -161.000; -112.000
440.231; -274.800; -950.000; -836.000
440.354;  -13.900;  -64.000; -150.000
440.477;  109.100; -566.000; -542.000
440.599;  100.600; -200.000; -225.000
440.722; -208.900; -709.000; -586.000
440.845;  223.300;  751.000;  928.000
440.968; -180.300; -415.000; -311.000
441.090;  -49.600; -199.000;  -33.000
441.213; -274.100;-1021.000; -825.000
441.336;  -34.600; -159.000;   -5.000
441.458;  -79.900; -549.000; -396.000
441.581; -132.200; -628.000; -629.000
441.703;  -67.200; -152.000;   13.000
441.826; -138.900; -557.000; -400.000
441.948;  -49.800;   56.000;   51.000
442.071;  153.800;  555.000;  424.000
442.193; -166.200; -531.000; -485.000
442.316;   93.600;  152.000;   97.000
442.438;  152.700; -233.000;  -10.000
442.561;  195.500;  272.000;  262.000
442.683; 1110.900; -809.000; -522.000
442.806; 2144.400;   -8.000;   74.000
442.928;   46.600; -859.000; -604.000
443.051;  -98.000; -577.000; -373.000
443.173; -127.800; -341.000; -339.000
443.295; -123.600; -263.000; -371.000
443.418;  -61.700; -321.000;  -29.000
443.540;   29.400; -106.000;   -4.000
443.662; -205.800; -563.000; -465.000
443.785;   37.700;  335.000;  199.000
443.907; -204.900; -362.000; -208.000
444.029; -203.300; -767.000; -494.000
444.152; -220.200; -644.000; -554.000
444.274;   24.900;  -18.000;  -24.000
444.396; -158.100; -461.000; -221.000
444.518; -188.600; -691.000; -454.000
444.640; -179.300; -268.000; -111.000
444.763;   87.800;  388.000;  249.000
444.885; -166.000; -432.000; -392.000
445.007;   13.400;   35.000;   86.000
445.129; -161.800; -610.000; -515.000
445.251; -117.900; -372.000; -439.000
445.373; -211.000; -537.000; -386.000
445.495;   83.700;  242.000;  350.000
445.617;  181.600;  853.000;  753.000
445.739;  -42.500; -215.000;  -97.000
445.861;  -13.700; -245.000; -112.000
445.984;    7.200; -267.000; -101.000
446.105;  458.800; -418.000; -251.000
446.227; 1152.400; -176.000;  -19.000
446.349;   19.700; -358.000; -249.000
446.471; -152.600; -615.000; -448.000
446.593;  -43.200; -316.000;   19.000
446.715;   29.300;  -67.000;   41.000
446.837;  185.000;  697.000;  832.000
446.959; -125.000; -457.000; -478.000
447.081; -198.900; -628.000; -518.000
447.203;  206.800;  862.000;  834.000
447.325;  -79.500; -270.000;   42.000
447.446;   81.300;  286.000;  530.000
447.568; -268.100; -921.000; -803.000
447.690;  -98.500; -236.000; -245.000
447.812; -275.700; -798.000; -519.000
447.933;   25.100;  155.000;  127.000
448.055;  -55.500; -306.000; -261.000
448.177;  356.700;   31.000;   79.000
448.299;  149.600; -935.000; -727.000
448.420;   70.900;  -25.000;  159.000
448.542;  -38.900;   -3.000;   33.000
448.664;   21.200;  109.000;  322.000
448.785;  -18.400;  265.000;   83.000
448.907; -109.900; -614.000; -353.000
449.028;  -48.000; -771.000; -471.000
449.150;  199.000;  492.000;  589.000
449.272; -330.900;-1044.000; -913.000
449.393;  117.400;  612.000;  694.000
449.515; -220.300; -634.000; -581.000
449.636;  -70.800; -264.000; -155.000
449.758;  193.700;  763.000;  622.000
449.879;  -89.800; -498.000; -396.000
450.001; -105.200; -149.000;  -49.000
450.122;   13.200;  -95.000;  162.000
450.244;   40.600;   37.000;  364.000
450.365; -105.800; -495.000; -301.000
450.486;   27.900;   80.000;  268.000
450.608;  136.000;  393.000;  326.000
450.729;  194.300;  578.000;  645.000
450.850;   62.800; -574.000; -466.000
450.972; 1577.600; -552.000; -389.000
451.093; 9430.400;  190.000;  588.000
451.214; 3512.500; -516.000; -337.000
451.336;  777.400;  773.000;  579.000
451.457;  159.200;  264.000;  393.000
451.578;  -25.000; -118.000;  -74.000
451.699; -165.100; -546.000; -540.000
451.821;  -63.200; -284.000;  -50.000
451.942;   36.300;  278.000;  285.000
452.063;  155.600;  228.000;  419.000
452.184; 1176.400;  -54.000;  -49.000
452.305; 2069.100;  103.000;  170.000
452.427;  209.800; -549.000; -301.000
452.548;   32.300;   23.000;   79.000
452.669;  -28.700; -257.000;  -89.000
452.790;  -13.500;    3.000;  -18.000
452.911;   41.500;  195.000;  259.000
453.032;  -31.000; -289.000;  -60.000
453.153;  -13.200;  -29.000;   81.000
453.274;  214.400;  737.000;  868.000
453.395;  -30.600;  -51.000;  175.000
453.516;  321.100; 1317.000; 1388.000
453.637;  -75.100; -205.000; -150.000
453.758;   -0.500;   15.000;   69.000
453.879; -166.400; -462.000; -250.000
454.000;  239.800; 1086.000;  948.000
454.121; -155.900; -554.000; -326.000
454.242; -173.300; -599.000; -383.000
454.362;  -54.000;  -99.000;  114.000
454.483;    7.000; -309.000; -229.000
454.604;  161.600;  512.000;  580.000
454.725; -172.900; -627.000; -555.000
454.846; -197.900; -474.000; -406.000
454.967;   10.400;  230.000;  539.000
455.087;    0.500;  179.000;  153.000
455.208;  110.900;  554.000;  856.000
455.329;  -57.900;  -22.000;   82.000
455.450;  117.300;  473.000;  633.000
455.570; -100.100; -234.000; -211.000
455.691;    8.100;  201.000;  407.000
455.812; -122.000; -270.000;  -92.000
455.932;  -51.900;  107.000;  -97.000
456.053;  -89.700;   36.000;   24.000
456.173; -152.100; -433.000; -355.000
456.294; -214.400; -476.000; -303.000
456.415;  -58.300;  -73.000;   70.000
456.535;   -1.800;  297.000;  273.000
456.656;  -20.700;  132.000;  240.000
456.776;  -99.700;    3.000;  298.000
456.897;   63.500;  308.000;  513.000
457.017;  -78.300; -153.000;   -3.000
457.138; -160.700; -402.000; -249.000
457.258;   18.600;  263.000;  224.000
457.379;   46.300;  509.000;  521.000
457.499;    8.600;  443.000;  432.000
457.620; -188.600; -407.000; -231.000
457.740; -158.500; -132.000;  -11.000
457.860;  -39.000;   87.000;   44.000
457.981;   -9.800;  132.000;  124.000
458.101; -113.200;  -89.000;   40.000
458.221;   19.300;  336.000;  402.000
458.342;  -65.400;   -4.000;  -37.000
458.462;   84.200;  617.000;  352.000
458.582;  -37.200; -302.000; -294.000
458.703;  103.700;  303.000;  154.000
458.823;    7.700;   22.000;  163.000
458.943;  108.400;  341.000;  467.000
459.063;   42.800; 1124.000;  192.000
459.183;    8.200;  328.000;  313.000
459.304;   87.900;  315.000;  517.000
459.424;  -68.700; -246.000;  -89.000
459.544;  736.500;  388.000;  764.000
459.664; 1634.100;  499.000;  506.000
459.784;  603.800; 1004.000; 1175.000
459.904;  201.400;  867.000;  744.000
460.024;  186.800;  867.000;  684.000
460.144;   91.600;  449.000;  554.000
460.264;   91.800;  515.000;  327.000
460.385; -137.700; -145.000; -119.000
460.505;  157.200;  905.000;  858.000
460.625; -138.900;  -17.000;  -68.000
460.745;   40.300;  396.000;  541.000
460.864;  -38.200;  153.000;  469.000
460.984;  112.200;  499.000;  573.000
461.104;  314.700; 1656.000; 1775.000
461.224;  109.300;  657.000;  650.000
461.344;  -20.800;  431.000;  360.000
461.464;   11.700;  258.000;  513.000
461.584;   32.100;  283.000;  466.000
461.704;   -4.900;   58.000;  108.000
461.824;  -61.200;  238.000;  259.000
461.943;   -4.300;  191.000;  130.000
462.063;  -93.600;    2.000;  324.000
462.183;  150.100;  639.000;  717.000
462.303;  312.300; 1678.000; 1230.000
462.422;  132.500;  781.000;  840.000
462.542;   23.800;  271.000;  391.000
462.662;  151.100;  353.000;  380.000
462.782;  538.700;  833.000;  572.000
462.901;  980.200;  545.000;  717.000
463.021;  586.000; 1702.000; 1638.000
463.141;   85.400;  337.000;  770.000
463.260;   20.000;  614.000;  474.000
463.380;  112.200;  902.000;  884.000
463.499;   -4.900;  342.000;  332.000
463.619;   17.500;  581.000;  559.000
463.738;  275.500; 1644.000;  903.000
463.858;   78.100;  657.000;  811.000
463.978;  -11.100;  542.000;  396.000
464.097;  167.200;  921.000; 1114.000
464.217;  321.100; 1196.000; 1143.000
464.336;  301.300; 1068.000; 1130.000
464.455;  -33.800;  328.000;  659.000
464.575;  178.200;  597.000;  602.000
464.694;  401.800; 1204.000; 1179.000
464.814;  313.700; 1190.000; 1138.000
464.933;  167.700; 1095.000; 1027.000
465.052;  274.100; 1412.000; 1054.000
465.172;  209.600;  922.000;  799.000
465.291;  320.800; 1376.000; 1320.000
465.410;   95.900;  462.000;  735.000
465.530;  261.200; 1355.000; 1310.000
465.649;  203.000; 1209.000; 1273.000
465.768;  364.900; 1673.000; 1508.000
465.888;  137.100;  941.000; 1174.000
466.007;  279.600; 1335.000; 1440.000
466.126;   87.000;  721.000;  641.000
466.245;  163.700; 1176.000; 1187.000
466.364;  112.000;  950.000; 1060.000
466.484;  182.400; 1024.000; 1213.000
466.603;  138.100; 1101.000; 1222.000
466.722;  318.900; 1490.000; 1769.000
466.841;  232.100; 1151.000; 1401.000
466.960;  182.600; 1069.000;  972.000
467.079;  345.700; 1971.000; 1786.000
467.198;  178.100; 1238.000; 1181.000
467.317;  243.200; 1768.000; 1162.000
467.436;  253.100; 1709.000; 1261.000
467.555;  349.000; 1796.000; 1746.000
467.674;  196.300; 1227.000; 1329.000
467.793;  169.000; 1376.000; 1374.000
467.912;  287.500; 1658.000; 1539.000
468.031;  352.700; 2038.000; 1930.000
468.150;  379.800; 1842.000; 1837.000
468.269;  492.100; 2313.000; 2090.000
468.388;  492.200; 2168.000; 2339.000
468.507;  587.400; 2884.000; 2903.000
468.626;  660.600; 2555.000; 2541.000
468.744;  332.000; 2018.000; 2174.000
468.863;  533.800; 2312.000; 2523.000
468.982;  267.300; 1503.000; 1555.000
469.101;  508.800; 2788.000; 2692.000
469.220;  370.900; 2333.000; 2176.000
469.338;  588.900; 2935.000; 3051.000
469.457;  454.600; 2719.000; 2545.000
469.576;  773.100; 3953.000; 3784.000
469.695;  586.700; 2877.000; 3066.000
469.813;  905.600; 4148.000; 4192.000
469.932;  886.900; 4255.000; 4485.000
470.051;  939.200; 4075.000; 4161.000
470.169; 1831.600; 4470.000; 4338.000
470.288; 2856.700; 4700.000; 4809.000
470.406; 1711.000; 5059.000; 5194.000
470.525; 1356.500; 6101.000; 5787.000
470.644; 1379.100; 6847.000; 6794.000
470.762; 1804.600; 8397.000; 7873.000
470.881; 1864.700; 8651.000; 8464.000
470.999; 2178.300; 9685.000; 9151.000
471.118; 2339.100;11174.000;10711.000

