
Integration time [ms]: 200.000
Averaging Nr. [scans]: 10
Smoothing Nr. [pixels]: 0
Data measured with spectrometer [name]: 2101012U2
Wave   ;Sample   ;Dark     ;Reference
[nm]   ;[counts] ;[counts] ;[counts] 

197.733;  123.100;  516.000;  404.000
197.879; -174.500; -610.000; -634.000
198.025;  -80.500; -475.000; -420.000
198.171; -192.100; -602.000; -612.000
198.317;  -50.100; -401.000; -316.000
198.463; -129.700; -655.000; -404.000
198.609;   35.200;  181.000; -137.000
198.755; -185.200; -644.000; -410.000
198.901;  -94.800; -505.000; -424.000
199.047; -135.700; -615.000; -488.000
199.193;  -89.000; -230.000; -468.000
199.339; -107.700; -222.000; -369.000
199.485;   96.400;  330.000;  271.000
199.631;   39.200;  227.000;  310.000
199.777; -124.000; -466.000; -398.000
199.923; -124.200; -610.000; -424.000
200.069;   12.700; -141.000;  -58.000
200.215;  102.100;  128.000;  453.000
200.361;  106.100;  243.000;  477.000
200.507; -155.500; -600.000; -373.000
200.653;  -60.700; -371.000; -194.000
200.798;  -90.200; -215.000; -125.000
200.944;   -1.900; -146.000;  -41.000
201.090;   55.100;   61.000;  222.000
201.236;    2.000; -116.000; -158.000
201.382;  237.200;  874.000;  903.000
201.528;   32.900;  -58.000;  -48.000
201.674; -140.800; -386.000; -293.000
201.819; -132.000; -540.000; -439.000
201.965; -191.300; -699.000; -447.000
202.111;  -28.000; -273.000; -226.000
202.257; -105.300; -250.000; -238.000
202.402;   34.500;   13.000;  -36.000
202.548;  -57.700; -169.000; -116.000
202.694;  201.000;  410.000; -183.000
202.840; -144.400; -603.000; -531.000
202.985; -157.200; -681.000; -639.000
203.131; -239.800; -832.000; -666.000
203.277;  -43.200; -199.000; -262.000
203.423; -136.900; -434.000; -520.000
203.568;  -68.800; -462.000; -237.000
203.714; -155.200; -535.000; -542.000
203.860; -171.700; -682.000; -641.000
204.005;   13.100;  112.000;  167.000
204.151;  178.900;  561.000;  556.000
204.296;  -89.200; -354.000; -221.000
204.442; -129.700; -600.000; -547.000
204.588; -154.300; -592.000; -579.000
204.733;   45.900;  178.000;  168.000
204.879; -290.400;-1018.000; -822.000
205.025;   22.900;  -99.000;  126.000
205.170;   -9.600;  -17.000;   94.000
205.316;  174.100;  438.000;  661.000
205.461; -205.500; -698.000; -554.000
205.607;  190.500;  609.000;  665.000
205.752; -185.100; -626.000; -551.000
205.898; -107.800; -501.000; -391.000
206.043; -127.500; -578.000; -506.000
206.189;  -78.000; -243.000; -285.000
206.334;  138.400;  554.000;  606.000
206.480;  159.100;  409.000;  239.000
206.625; -191.100; -529.000; -552.000
206.771;  -84.700; -451.000; -373.000
206.916;  -25.000; -210.000; -537.000
207.062; -132.500; -545.000; -591.000
207.207; -134.700; -546.000; -443.000
207.353;   94.400;  185.000;  460.000
207.498;   48.500;  196.000;   85.000
207.643; -135.700; -501.000; -370.000
207.789; -289.200;-1069.000; -910.000
207.934; -190.800; -665.000; -713.000
208.080;  -73.700; -154.000;   66.000
208.225;    7.500;  -22.000;  -57.000
208.370; -156.300; -727.000; -619.000
208.516; -154.800; -741.000; -487.000
208.661;  -74.600; -127.000;  -69.000
208.806;  -26.200; -165.000; -171.000
208.952; -288.600;-1044.000; -731.000
209.097;  164.800;  378.000;  349.000
209.242; -103.400; -307.000; -382.000
209.387;  124.200;  392.000;  350.000
209.533; -126.000; -321.000; -350.000
209.678;  200.100;  472.000;  543.000
209.823; -108.700; -408.000; -310.000
209.969; -212.000; -860.000; -757.000
210.114; -257.900; -907.000; -719.000
210.259; -248.300; -939.000; -889.000
210.404;  -16.400; -171.000;  103.000
210.549;   31.100;  108.000;    3.000
210.695;  -68.200;   -3.000;  -95.000
210.840;   75.300;   94.000;   67.000
210.985; -136.400; -484.000; -303.000
211.130;  150.200;  268.000;  406.000
211.275;   13.200;  207.000;  199.000
211.420;  -88.000; -300.000; -289.000
211.566; -152.700; -536.000; -489.000
211.711;   59.600;  218.000;  157.000
211.856; -156.500; -545.000; -519.000
212.001;   50.200;  151.000;   44.000
212.146;   33.600;  153.000;   49.000
212.291;  -32.300; -210.000; -186.000
212.436;  -54.600; -280.000;   -6.000
212.581; -162.300; -685.000; -653.000
212.726; -167.800; -487.000; -538.000
212.871; -119.400; -552.000; -217.000
213.016; -305.700;-1172.000;-1029.000
213.161;  145.700;  406.000;  291.000
213.306; -168.200; -435.000; -577.000
213.451; -189.100; -778.000; -689.000
213.596;  -68.400; -455.000; -347.000
213.741; -119.500; -448.000; -538.000
213.886; -163.500; -498.000; -517.000
214.031;  -24.600; -294.000; -124.000
214.176;  -90.100; -408.000; -341.000
214.321;  -31.900; -296.000; -157.000
214.466;  -51.100; -163.000;  -43.000
214.611;    5.500;  -61.000;  -10.000
214.756; -248.300; -948.000; -858.000
214.901;  -25.700; -388.000; -226.000
215.046; -249.700; -797.000; -825.000
215.191;   12.400;  128.000;   35.000
215.336;  -53.400; -157.000;  -19.000
215.480; -129.700; -684.000; -505.000
215.625;  -33.800; -175.000;  -19.000
215.770; -148.800; -757.000; -662.000
215.915;  -34.700;   -5.000;  -97.000
216.060;   28.300; -113.000;  -21.000
216.205; -222.200; -731.000; -779.000
216.349; -139.800; -470.000; -533.000
216.494; -275.400; -939.000; -867.000
216.639; -228.500; -823.000; -888.000
216.784; -161.700; -577.000; -525.000
216.929;  126.400;  392.000;  281.000
217.073;  -43.000; -244.000;  -31.000
217.218;   21.100;   78.000;  -47.000
217.363; -187.800; -656.000; -618.000
217.507; -160.300; -623.000; -588.000
217.652; -255.100; -845.000; -874.000
217.797; -189.100; -708.000; -659.000
217.942; -260.800; -856.000; -720.000
218.086;  156.900;  608.000;  539.000
218.231;  -28.200; -174.000;  -26.000
218.376;  -34.000; -337.000; -229.000
218.520;  -24.300;  -41.000;   96.000
218.665;  -32.900; -338.000; -204.000
218.810;  -61.800; -275.000; -233.000
218.954;   70.300;  201.000;   35.000
219.099; -235.600; -713.000; -963.000
219.243; -125.800; -589.000; -554.000
219.388;  -67.000; -264.000; -136.000
219.532;    5.200; -116.000; -116.000
219.677; -146.500; -564.000; -521.000
219.822;   28.200;   33.000;   89.000
219.966;   53.700;   17.000;  -99.000
220.111;  -46.100; -328.000;  -40.000
220.255; -205.100; -797.000; -750.000
220.400;  -39.900; -180.000; -146.000
220.544; -123.000; -516.000; -450.000
220.689; -106.400; -422.000; -451.000
220.833;  -61.200; -123.000;  -58.000
220.978;  -96.000; -393.000; -563.000
221.122;   69.500;  319.000;  307.000
221.267; -240.500; -906.000; -837.000
221.411; -134.100; -478.000; -394.000
221.555;  -18.900; -104.000;  -23.000
221.700;  -95.800; -329.000; -222.000
221.844;   63.800;  255.000;  272.000
221.989; -125.400; -328.000; -311.000
222.133;  -50.900; -289.000; -307.000
222.277;  -41.900;    5.000;   78.000
222.422;   54.500;  227.000;  113.000
222.566;  -62.300; -381.000; -214.000
222.711; -110.500; -414.000; -479.000
222.855; -156.900; -643.000; -586.000
222.999; -185.300; -642.000; -717.000
223.144;  -86.500; -195.000; -194.000
223.288;  137.700;  423.000;  251.000
223.432;   16.700;  184.000;  230.000
223.576;   39.900;  152.000;  -21.000
223.721;   80.500;  364.000;  273.000
223.865; -133.800; -472.000; -475.000
224.009;  465.700; 1673.000; 1631.000
224.153; -179.500; -660.000; -671.000
224.298; -169.900; -531.000; -489.000
224.442;  -36.200;  -74.000;  -33.000
224.586;   11.700; -169.000; -106.000
224.730; -171.100; -858.000; -670.000
224.875; -240.900; -739.000; -688.000
225.019;   44.200;  102.000;  188.000
225.163;  118.700;  208.000;  341.000
225.307;   36.200;   97.000;  -91.000
225.451;  101.700;  360.000;  481.000
225.595;   97.400;  264.000;  176.000
225.739;  -43.600; -170.000;  -94.000
225.884;   54.300;   86.000;    5.000
226.028; -201.800; -760.000; -626.000
226.172;  -66.700; -260.000; -273.000
226.316; -260.600; -941.000; -902.000
226.460; -145.700; -645.000; -493.000
226.604;  -95.000; -406.000; -400.000
226.748; -200.900; -836.000; -733.000
226.892;  -46.200; -227.000; -181.000
227.036;  -72.000; -537.000; -447.000
227.180;  -99.200; -551.000; -375.000
227.324; -118.300; -561.000; -580.000
227.468; -235.700; -819.000; -717.000
227.612;   38.600;  242.000;  -28.000
227.756; -221.800; -845.000; -698.000
227.900;  149.700;  342.000;  441.000
228.044; -144.700; -509.000; -290.000
228.188;  133.000;  448.000;  568.000
228.332; -166.200; -546.000; -472.000
228.476;  -32.600; -223.000; -149.000
228.620;  -73.700; -210.000; -150.000
228.764;  170.800;  431.000;  349.000
228.908;  -67.000; -155.000;   30.000
229.052; -115.500; -615.000; -528.000
229.195;  -27.600; -172.000;   13.000
229.339;  -60.400; -235.000; -305.000
229.483;  -69.700;    5.000; -162.000
229.627;   31.200; -156.000;  139.000
229.771;  -93.700; -218.000; -294.000
229.915;   57.400;  230.000;   79.000
230.059; -205.700; -648.000; -663.000
230.202;  -48.900; -370.000; -317.000
230.346;  -21.900; -107.000;  107.000
230.490; -125.400; -489.000; -521.000
230.634; -188.300; -736.000; -553.000
230.777;  218.500;  478.000;  509.000
230.921; -131.900; -450.000; -359.000
231.065;  -54.700; -246.000; -286.000
231.209;   69.300;  261.000;  265.000
231.352;   75.300;   54.000;   40.000
231.496;   39.900;  568.000;  188.000
231.640; -155.600; -693.000; -621.000
231.783;  149.300;  546.000;  525.000
231.927;  -40.700; -294.000; -365.000
232.071; -280.400; -962.000; -736.000
232.214; -214.300; -980.000; -764.000
232.358; -203.600; -683.000; -599.000
232.502;   38.300;  -19.000;    7.000
232.645; -273.800;-1090.000; -927.000
232.789;  -18.500; -257.000; -218.000
232.933;  -84.300; -407.000; -224.000
233.076; -264.200;-1038.000; -897.000
233.220; -222.900; -752.000; -777.000
233.363; -132.500; -669.000; -477.000
233.507;  173.500;  371.000;  129.000
233.650; -185.000; -764.000; -834.000
233.794;   92.000;  438.000;  461.000
233.938; -122.500; -530.000; -362.000
234.081;  -27.100;  -93.000;   31.000
234.225; -127.100; -631.000; -539.000
234.368; -245.400; -773.000; -723.000
234.512;  -61.500; -385.000; -299.000
234.655; -211.400; -582.000; -555.000
234.798; -121.000; -493.000; -466.000
234.942; -261.600; -884.000;-1002.000
235.085; -133.900; -651.000; -443.000
235.229; -134.600; -405.000; -410.000
235.372;  -87.500; -247.000; -191.000
235.516; -133.100; -397.000; -321.000
235.659;   54.800;   92.000;  121.000
235.802;  -20.500;  -38.000;  -22.000
235.946;   47.800;  335.000;  215.000
236.089;   59.200;  126.000;  250.000
236.233;  132.100;  275.000;  298.000
236.376;  -71.400; -235.000; -378.000
236.519;  -54.900; -297.000; -319.000
236.663;  -51.100; -215.000; -117.000
236.806; -242.800;-1029.000; -999.000
236.949;  140.900;  543.000;  431.000
237.092;  169.500;  412.000;  391.000
237.236; -184.300; -589.000; -502.000
237.379;  173.200;  352.000;  428.000
237.522; -251.700; -879.000; -768.000
237.666;  -17.300; -271.000;   18.000
237.809; -261.300; -851.000; -823.000
237.952;   78.100;  469.000;  271.000
238.095; -126.700; -447.000; -442.000
238.238;  204.600;  688.000;  700.000
238.382;   31.000;  166.000;  103.000
238.525; -163.400; -598.000; -511.000
238.668; -293.600;-1060.000; -985.000
238.811; -179.300; -638.000; -643.000
238.954; -126.200; -483.000; -334.000
239.097;  232.000;  617.000;  664.000
239.241;   71.800;  394.000;  326.000
239.384;  -67.500; -254.000; -214.000
239.527; -114.800; -424.000; -224.000
239.670; -295.200; -994.000;-1091.000
239.813; -211.800; -696.000; -658.000
239.956;  202.100;  579.000;  473.000
240.099; -240.000; -778.000; -725.000
240.242;  149.100;  428.000;  432.000
240.385;  109.100;  466.000;  450.000
240.528;  -99.200; -706.000; -473.000
240.671;   29.800;  189.000;  134.000
240.814;  -74.900; -441.000; -158.000
240.957; -199.700; -767.000; -578.000
241.100; -202.700; -779.000; -755.000
241.243; -316.200;-1234.000; -893.000
241.386; -124.000; -508.000; -379.000
241.529; -153.700; -735.000; -547.000
241.672;  -92.600; -566.000; -495.000
241.815; -241.400; -832.000; -808.000
241.958;  -25.400; -125.000; -182.000
242.101; -155.800; -545.000; -390.000
242.244;  -37.700; -270.000; -325.000
242.387;  -75.100; -304.000; -246.000
242.530;  142.800;  470.000;  134.000
242.673; -103.800; -381.000; -309.000
242.815; -232.500; -925.000; -899.000
242.958; -110.500; -482.000; -381.000
243.101;   57.800;  132.000;  187.000
243.244; -171.600; -564.000; -521.000
243.387;  -82.600; -313.000; -316.000
243.530; -216.400; -657.000; -674.000
243.672;   39.100;   43.000;  -92.000
243.815; -112.100; -355.000; -283.000
243.958;    1.100;   98.000;  -26.000
244.101;    8.100;   59.000;  -16.000
244.243;   -3.200;  -47.000;  101.000
244.386; -235.500; -761.000; -630.000
244.529;  -27.800; -132.000; -139.000
244.672; -303.800;-1154.000; -951.000
244.814; -196.700; -621.000; -794.000
244.957;  -84.800; -380.000; -304.000
245.100;  -90.800; -489.000; -489.000
245.242; -129.800; -387.000; -374.000
245.385;    5.000;  -59.000;  -39.000
245.528; -234.300; -871.000; -705.000
245.670;  193.300;  612.000;  634.000
245.813; -184.900; -599.000; -547.000
245.956;  -38.700; -324.000; -275.000
246.098; -194.100; -508.000; -650.000
246.241;   42.900;  194.000;   48.000
246.383;   -5.100; -119.000;  -73.000
246.526; -142.800; -454.000; -525.000
246.669; -230.200; -889.000; -780.000
246.811;   45.600;  172.000;   -1.000
246.954; -111.900; -512.000; -426.000
247.096;  -22.200;  -84.000;   -6.000
247.239; -125.800; -482.000; -445.000
247.381;  -98.600; -647.000; -488.000
247.524;  172.800;  645.000;  679.000
247.666;   -1.600;   58.000;   11.000
247.809; -206.400; -887.000; -691.000
247.951;   -7.500;  -75.000;  138.000
248.094;   24.000;  432.000;  308.000
248.236; -313.500;-1262.000;-1238.000
248.378;  -12.300; -356.000;  -81.000
248.521;    1.700; -334.000; -337.000
248.663; -103.100; -236.000; -267.000
248.806;  -60.200; -300.000; -266.000
248.948; -187.900; -886.000; -763.000
249.090;  -95.500; -428.000; -398.000
249.233; -121.000; -344.000; -381.000
249.375; -101.500; -474.000; -451.000
249.518;  -10.800;  -83.000; -133.000
249.660;  -20.600; -103.000;    3.000
249.802; -352.900;-1303.000;-1189.000
249.945; -108.600; -612.000; -540.000
250.087; -235.500; -834.000; -768.000
250.229;  -84.700; -362.000; -480.000
250.371; -175.000; -494.000; -439.000
250.514;  -76.600; -310.000; -244.000
250.656;  -57.800;   69.000;  102.000
250.798; -236.900; -849.000; -800.000
250.940; -129.000; -322.000; -322.000
251.083;  -27.800; -335.000; -111.000
251.225;  151.400;  338.000;  310.000
251.367;  -66.600; -274.000; -373.000
251.509;  -52.400; -265.000; -210.000
251.651; -188.600; -731.000; -671.000
251.794;  129.600;  538.000;  632.000
251.936; -232.200; -821.000; -747.000
252.078; -134.600; -540.000; -461.000
252.220; -132.100; -645.000; -477.000
252.362;  142.600;  344.000;  462.000
252.504; -171.300; -677.000; -584.000
252.646; -237.500; -875.000; -722.000
252.788;    2.900;   14.000; -128.000
252.931; -100.600; -257.000; -253.000
253.073;  -60.500; -376.000; -317.000
253.215;    1.900;  141.000;  122.000
253.357;  -20.900;   82.000; -153.000
253.499; -102.200; -374.000; -234.000
253.641; -171.200; -749.000; -594.000
253.783; -193.300; -609.000; -527.000
253.925; -164.000; -586.000; -591.000
254.067; -249.000; -744.000; -667.000
254.209;  -18.300; -391.000; -259.000
254.351; -268.900; -865.000; -883.000
254.493;  -85.900; -441.000; -417.000
254.635; -232.600; -936.000; -818.000
254.777; -174.300; -752.000; -687.000
254.918; -156.600; -512.000; -430.000
255.060; -108.900; -551.000; -395.000
255.202; -115.400; -473.000; -261.000
255.344; -144.600; -658.000; -455.000
255.486; -106.800; -471.000; -406.000
255.628; -202.800; -780.000; -781.000
255.770; -170.600; -676.000; -536.000
255.912; -146.400; -559.000; -468.000
256.053; -158.700; -730.000; -508.000
256.195;  370.300; 1008.000;  903.000
256.337; -201.000; -861.000; -595.000
256.479;  174.000;  532.000;  416.000
256.621;  -80.700; -394.000; -212.000
256.762; -157.000; -789.000; -742.000
256.904;  145.400;  485.000;  487.000
257.046; -102.500; -381.000; -271.000
257.188;  -86.600; -351.000; -264.000
257.329; -144.300; -525.000; -464.000
257.471; -214.500; -939.000; -807.000
257.613;  -99.800; -584.000; -498.000
257.755; -295.500;-1073.000; -982.000
257.896;   79.100;  286.000;  392.000
258.038; -115.500; -403.000; -352.000
258.180;  -72.400; -354.000; -279.000
258.321; -190.100; -581.000; -457.000
258.463;    0.700;  -71.000;  133.000
258.605; -193.500; -562.000; -570.000
258.746; -203.100; -886.000; -772.000
258.888; -317.200;-1026.000;-1020.000
259.029;   58.900;  121.000;   -8.000
259.171; -191.500; -614.000; -550.000
259.313;   35.800;  -49.000;  -47.000
259.454; -146.400; -536.000; -414.000
259.596;  -69.000; -483.000; -390.000
259.737; -188.800; -590.000; -474.000
259.879;  111.700;  217.000;  311.000
260.020;  183.000;  901.000;  636.000
260.162;  -36.300; -146.000; -253.000
260.303; -209.600; -768.000; -687.000
260.445; -148.800; -609.000; -613.000
260.586;   73.000;  392.000;  157.000
260.728;  -59.900; -360.000; -248.000
260.869; -163.600; -350.000; -343.000
261.011;  192.300;  706.000;  537.000
261.152;  -91.100; -479.000; -319.000
261.293; -132.800; -576.000; -595.000
261.435;  -49.600; -219.000; -184.000
261.576;  -92.700; -455.000; -325.000
261.718;  120.700;  420.000;  470.000
261.859; -255.500; -940.000; -949.000
262.000; -270.900; -951.000;-1016.000
262.142;  -32.100;  -52.000;  -60.000
262.283; -227.800; -808.000; -691.000
262.424; -142.100; -666.000; -625.000
262.566; -336.100;-1161.000; -983.000
262.707; -201.600; -840.000; -830.000
262.848; -248.800; -769.000; -726.000
262.990;  -82.200; -362.000; -345.000
263.131;  201.200;  650.000;  681.000
263.272;   17.600;  -61.000;  -41.000
263.413; -197.100; -589.000; -561.000
263.555; -125.900; -669.000; -143.000
263.696; -153.900; -550.000; -641.000
263.837; -100.800; -449.000; -551.000
263.978;   -6.200;   -5.000;  -77.000
264.119;  -93.800; -283.000; -264.000
264.261; -229.600; -847.000; -630.000
264.402;    3.300;   33.000;   40.000
264.543; -150.100; -509.000; -524.000
264.684;    5.300;   61.000;  -50.000
264.825; -126.500; -816.000; -538.000
264.966;   24.000;  -84.000;  -67.000
265.107; -229.000; -646.000; -670.000
265.248; -231.100; -825.000; -812.000
265.390;   13.500;  152.000;   -9.000
265.531;  -27.900; -238.000; -107.000
265.672; -176.400; -557.000; -630.000
265.813;  121.300;  563.000;  439.000
265.954; -294.300; -959.000; -940.000
266.095;    4.800; -372.000; -322.000
266.236; -200.800; -686.000; -548.000
266.377;  -48.700; -243.000; -297.000
266.518; -141.500; -619.000; -547.000
266.659;   80.400;  170.000;  268.000
266.800;   43.700;   83.000;   85.000
266.941; -159.400; -487.000; -478.000
267.082;   58.100;  354.000;   99.000
267.223;  -67.600; -344.000; -273.000
267.364; -257.800; -892.000; -686.000
267.504;    3.800;    3.000;  135.000
267.645;   26.500;  160.000;   67.000
267.786;  -50.200; -147.000;  -86.000
267.927; -137.400; -473.000; -379.000
268.068;   -0.800; -186.000;  -61.000
268.209;  -93.500; -175.000; -413.000
268.350;  -87.100; -388.000; -532.000
268.490; -171.900; -648.000; -521.000
268.631;   49.600;  127.000;  225.000
268.772; -241.900; -874.000; -647.000
268.913;  -75.100; -328.000; -476.000
269.054;   -6.000; -117.000;   12.000
269.194;  -70.500; -418.000; -402.000
269.335; -339.100;-1137.000;-1074.000
269.476;   15.100;   33.000;  -35.000
269.617;  -87.300; -347.000; -392.000
269.757; -184.700; -713.000; -646.000
269.898; -217.200; -856.000; -613.000
270.039; -123.800; -415.000; -405.000
270.180; -289.900; -952.000; -816.000
270.320;  -19.800; -190.000; -250.000
270.461;  -94.000; -277.000; -249.000
270.602;   10.000; -186.000; -156.000
270.742; -291.100; -868.000; -943.000
270.883; -105.700; -442.000; -390.000
271.023; -125.800; -358.000; -357.000
271.164; -122.200; -607.000; -528.000
271.305; -190.500; -666.000; -654.000
271.445; -176.000; -722.000; -683.000
271.586; -134.100; -462.000; -283.000
271.726;  -63.000; -397.000; -322.000
271.867; -155.800; -594.000; -534.000
272.008;  298.900; -473.000; -285.000
272.148;  208.800;  462.000;  468.000
272.289;   45.500; -113.000; -181.000
272.429;   21.200;   19.000;  185.000
272.570; -164.000; -633.000; -737.000
272.710; -223.800; -825.000; -775.000
272.851;   -6.700;  113.000; -130.000
272.991; -367.900;-1173.000;-1077.000
273.131; -105.200; -419.000; -459.000
273.272; -224.600; -683.000; -723.000
273.412;   30.100; -143.000;  -31.000
273.553; -120.600; -488.000; -507.000
273.693;  273.600;  913.000;  858.000
273.834; -177.700; -894.000; -692.000
273.974; -142.200; -664.000; -615.000
274.114; -179.400; -772.000; -560.000
274.255;  185.800;  414.000;  373.000
274.395;   -5.800; -180.000; -125.000
274.535;   91.300;  199.000;  350.000
274.676;   72.700;  225.000;   94.000
274.816;    8.000;  110.000;   34.000
274.956; -162.200; -624.000; -690.000
275.097; -161.900;-1014.000; -922.000
275.237; -229.600; -913.000; -803.000
275.377; -212.000; -778.000; -689.000
275.517; -281.300; -878.000; -937.000
275.658;  -98.300; -590.000; -555.000
275.798; -137.100; -606.000; -413.000
275.938;   65.200;  215.000;  323.000
276.078; -167.900; -626.000; -395.000
276.218;   41.700;   99.000;  104.000
276.359; -260.300;-1026.000;-1024.000
276.499; -124.700; -605.000; -446.000
276.639;  -40.200; -305.000; -151.000
276.779;  -74.100; -475.000; -357.000
276.919; -213.000; -783.000; -624.000
277.059;  -21.100; -261.000; -212.000
277.199;  -84.800; -357.000; -259.000
277.340;  122.600;  287.000;  175.000
277.480; -228.200; -840.000; -693.000
277.620;   81.000;  192.000;   16.000
277.760; -391.900;-1533.000;-1294.000
277.900;   45.500;  113.000;   33.000
278.040;   32.700;  137.000;  159.000
278.180;   89.700;  270.000;  170.000
278.320;   13.800;   21.000;   56.000
278.460; -117.100; -443.000; -469.000
278.600; -170.600; -708.000; -598.000
278.740;  139.200;  448.000;  224.000
278.880; -149.700; -768.000; -791.000
279.020;   35.400; -194.000; -144.000
279.160; -186.800; -672.000; -595.000
279.300; -242.900; -926.000; -873.000
279.440; -187.300; -709.000; -622.000
279.579;  -75.900;-1014.000; -929.000
279.719;  -89.100; -410.000; -394.000
279.859;  133.700;   -4.000;   41.000
279.999;   50.900; -208.000;  101.000
280.139;  -21.000; -435.000; -387.000
280.279; -168.900; -708.000; -745.000
280.419;    8.700; -229.000; -147.000
280.559;  -42.900; -259.000; -180.000
280.698; -168.300; -790.000; -639.000
280.838; -194.100; -778.000; -800.000
280.978; -183.400; -846.000; -790.000
281.118; -230.700; -811.000; -704.000
281.257;   36.300;   24.000;    6.000
281.397; -250.900;-1094.000; -960.000
281.537; -165.900; -599.000; -712.000
281.677;  -57.700; -150.000; -101.000
281.816; -151.700; -700.000; -630.000
281.956;  -19.400; -193.000; -257.000
282.096;  -89.700; -539.000; -396.000
282.235; -217.400; -672.000; -638.000
282.375;   -2.500; -243.000;  -98.000
282.515; -194.100; -715.000; -707.000
282.654;   76.400;   29.000;  106.000
282.794;   55.400;  388.000;  244.000
282.934;  -74.700; -530.000; -491.000
283.073; -245.400;-1030.000; -857.000
283.213;  -85.800; -460.000; -467.000
283.353;  -41.400; -408.000; -349.000
283.492;  -52.900; -264.000; -296.000
283.632;  -69.500; -254.000; -168.000
283.771; -177.900; -859.000; -730.000
283.911;  -67.000; -369.000; -260.000
284.050; -219.600; -794.000; -748.000
284.190; -294.800;-1229.000;-1096.000
284.329; -262.900;-1055.000; -964.000
284.469; -154.900; -516.000; -591.000
284.608;  -81.700; -559.000; -598.000
284.748; -169.000; -614.000; -570.000
284.887;   32.300;  -87.000;  -20.000
285.027; -242.700; -844.000; -892.000
285.166;  -37.900; -192.000; -249.000
285.306;  -22.900; -116.000;  -33.000
285.445;  -46.600; -229.000; -343.000
285.584; -169.600; -630.000; -494.000
285.724;  -64.100; -282.000; -322.000
285.863; -221.300; -857.000; -507.000
286.002; -105.900; -366.000; -276.000
286.142; -225.600; -715.000; -622.000
286.281; -141.100; -525.000; -493.000
286.420; -134.500; -554.000; -417.000
286.560;  241.000;  653.000;  623.000
286.699; -271.900; -958.000; -912.000
286.838; -125.800; -590.000; -591.000
286.978; -152.300; -533.000; -537.000
287.117; -229.000;-1085.000; -950.000
287.256;  -81.700; -228.000; -211.000
287.395;  -38.200; -197.000; -378.000
287.535;  -73.700; -370.000; -298.000
287.674; -115.400; -509.000; -484.000
287.813;  149.100;  661.000;  533.000
287.952; -244.100;-1010.000; -871.000
288.091; -289.000;-1049.000; -915.000
288.231;   50.400;   13.000;   15.000
288.370; -322.600;-1217.000;-1200.000
288.509; -131.200; -728.000; -645.000
288.648; -192.300; -770.000; -548.000
288.787;  -48.500; -243.000;  -87.000
288.926; -127.300; -454.000; -475.000
289.065;  267.600;  859.000;  672.000
289.204; -113.300; -377.000; -217.000
289.344; -164.300; -791.000; -690.000
289.483;   83.400;  416.000;  304.000
289.622;  -27.300; -291.000; -149.000
289.761;  -31.000; -309.000; -166.000
289.900; -181.000; -785.000; -626.000
290.039;  -42.300;  -12.000;  -95.000
290.178;  -48.400; -274.000; -180.000
290.317; -170.100; -618.000; -479.000
290.456; -114.800; -463.000; -451.000
290.595; -271.700; -961.000; -833.000
290.734; -259.600; -904.000; -891.000
290.873; -130.500; -456.000; -420.000
291.011; -173.500; -833.000; -843.000
291.150; -205.800; -770.000; -682.000
291.289;  -40.400; -343.000; -110.000
291.428; -155.100; -599.000; -480.000
291.567;  -65.100; -370.000; -442.000
291.706;   19.500;  109.000;  154.000
291.845; -186.400; -597.000; -505.000
291.984; -349.300;-1234.000;-1061.000
292.122;  189.000;  602.000;  582.000
292.261;  115.400;  620.000;  463.000
292.400;   56.300; -144.000;  211.000
292.539; -254.000; -959.000; -813.000
292.678;  -69.500; -325.000; -300.000
292.816; -319.700;-1136.000; -965.000
292.955; -183.700; -844.000; -684.000
293.094;  -30.800; -173.000; -337.000
293.233;  -85.500; -556.000; -400.000
293.371;  -86.100; -225.000;  -84.000
293.510; -204.800; -866.000; -780.000
293.649; -256.700; -959.000; -924.000
293.787; -150.800;-1083.000;-1012.000
293.926;    0.500; -113.000;  -32.000
294.065;  -51.100; -379.000; -290.000
294.203;   82.800;  298.000;  406.000
294.342;   66.000;   74.000;  156.000
294.481;11526.600;51180.000; -836.000
294.619;  -20.800; -425.000; -582.000
294.758; -305.500;-1230.000;-1137.000
294.896;  165.600; -125.000;    5.000
295.035; -242.200;-1040.000;-1006.000
295.174; -223.600;-1082.000; -954.000
295.312;  -90.000; -323.000; -203.000
295.451;  -13.300; -307.000; -428.000
295.589;  -81.600; -389.000; -518.000
295.728;   67.400; -292.000; -165.000
295.866;   48.200;  -36.000;  -51.000
296.005; -117.000; -584.000; -341.000
296.143; -158.100; -558.000; -596.000
296.282; -213.900; -957.000; -881.000
296.420; -163.000; -657.000; -557.000
296.559; -163.300; -892.000; -633.000
296.697;  -40.000; -847.000; -665.000
296.835;   43.600;-1141.000;-1002.000
296.974;  107.300;  -23.000;   39.000
297.112;   22.100; -443.000; -504.000
297.251; -132.000; -815.000; -755.000
297.389;  117.400; -576.000; -438.000
297.527;   59.500; -145.000;  -83.000
297.666;  -73.900; -486.000; -438.000
297.804;  -93.900; -404.000; -264.000
297.942;   12.100; -136.000; -161.000
298.081;   11.000; -183.000;   63.000
298.219;  159.000;  -17.000;  -19.000
298.357;   63.000; -144.000;  -71.000
298.495;   13.800; -810.000; -812.000
298.634;  133.200;  245.000;  219.000
298.772;   65.300; -220.000; -338.000
298.910;  -75.700; -309.000; -182.000
299.048;   10.100; -130.000; -153.000
299.187;  -46.100; -350.000; -250.000
299.325;   32.400;   52.000;  122.000
299.463;   66.800; -389.000; -299.000
299.601;  177.100; -327.000; -271.000
299.739; -250.700; -908.000; -883.000
299.877; -165.700; -791.000; -703.000
300.016; -162.600;-1095.000; -935.000
300.154;  238.000;  -19.000; -161.000
300.292;   81.200; -428.000; -348.000
300.430;   56.600; -408.000; -291.000
300.568; -190.200; -940.000; -874.000
300.706;  -94.200; -366.000; -469.000
300.844; -172.100;-1108.000; -979.000
300.982;  276.500;  246.000;  282.000
301.120; -224.900; -965.000; -866.000
301.258; -116.800; -812.000; -705.000
301.396;  117.900;  104.000;  -41.000
301.534;  102.700; -218.000; -293.000
301.672;  -55.600; -664.000; -521.000
301.810;   12.000; -613.000; -545.000
301.948;  256.100;   53.000;  149.000
302.086;  946.000; -250.000;  -32.000
302.224; 1432.200; -610.000; -585.000
302.362;   64.600; -558.000; -622.000
302.500;  -83.100; -923.000; -893.000
302.638;  233.300;  128.000;  245.000
302.776;   -1.300; -352.000; -408.000
302.913;  134.800;  447.000;  236.000
303.051;   -0.500;  -86.000;  -23.000
303.189;  117.200;   90.000;  118.000
303.327;  -51.700; -341.000; -256.000
303.465; -147.500; -832.000; -588.000
303.603; -170.200; -805.000; -604.000
303.740;  200.900;  417.000;  241.000
303.878;   -6.100; -800.000; -759.000
304.016; -158.200; -915.000; -790.000
304.154; -262.300;-1123.000;-1152.000
304.291;  -41.800; -505.000; -554.000
304.429;   10.400;  102.000;   74.000
304.567; -237.700; -908.000; -893.000
304.705; -111.800; -408.000; -515.000
304.842;  127.400; -616.000; -540.000
304.980;  133.600;  215.000;   35.000
305.118;   74.500; -367.000; -365.000
305.255; -171.600; -945.000; -927.000
305.393;  150.000;  178.000;  239.000
305.531; -210.900;-1173.000; -956.000
305.668; -116.600; -663.000; -582.000
305.806;  155.700; -358.000; -439.000
305.943;  164.800; -629.000; -637.000
306.081;  101.000; -378.000; -267.000
306.219; -184.000; -863.000; -748.000
306.356;   43.300;  158.000;   27.000
306.494;  284.300;  981.000;  761.000
306.631;   47.000;  -11.000;  -55.000
306.769;    6.500; -613.000; -485.000
306.906;  -10.600; -284.000; -258.000
307.044; -110.700; -473.000; -488.000
307.181; -104.600; -410.000; -332.000
307.319;  114.400;  112.000;   87.000
307.456; -348.400;-1191.000;-1153.000
307.594; -165.500; -980.000; -727.000
307.731;   -9.200; -371.000; -164.000
307.868;   30.500;  -15.000;   20.000
308.006; -230.300; -961.000; -847.000
308.143; -117.000; -618.000; -330.000
308.281;  320.000;  -37.000; -254.000
308.418;   10.900; -748.000; -640.000
308.555; -130.600; -400.000; -250.000
308.693; -111.700; -577.000; -573.000
308.830; -204.700; -712.000; -657.000
308.967;    0.600; -215.000;  -95.000
309.105;  -62.400; -507.000; -396.000
309.242;   89.800; -468.000; -367.000
309.379;  683.900; -577.000; -655.000
309.517; -134.200; -936.000; -948.000
309.654; -191.400; -910.000; -734.000
309.791; -135.500; -662.000; -580.000
309.928; -263.300; -977.000; -914.000
310.065;  359.400;  819.000;  697.000
310.203;  -43.700; -825.000; -850.000
310.340;  -30.700; -465.000; -321.000
310.477; -121.100; -412.000; -516.000
310.614;  -86.400; -383.000; -473.000
310.751; -134.400; -427.000; -518.000
310.889;   -8.800;    1.000;   11.000
311.026; -308.400;-1161.000; -939.000
311.163;  -52.900; -386.000; -380.000
311.300; -116.100; -512.000; -479.000
311.437; -122.700; -658.000; -619.000
311.574; -307.600;-1226.000; -985.000
311.711; -103.400; -595.000; -433.000
311.848;  -55.200; -380.000; -388.000
311.985;   63.300;  270.000;   93.000
312.122; -224.100; -932.000; -762.000
312.259; -223.400; -941.000; -994.000
312.396; -123.900; -508.000; -551.000
312.533; -137.900; -812.000; -790.000
312.670; -232.200;-1070.000; -898.000
312.807;  -11.300; -352.000; -367.000
312.944; -125.100; -513.000; -611.000
313.081;  -44.300; -150.000; -415.000
313.218; -223.000;-1111.000; -867.000
313.355;   47.300; -531.000; -449.000
313.492;   11.500; -455.000; -292.000
313.629;  298.600;  815.000;  735.000
313.766; -320.100;-1176.000;-1008.000
313.902;   23.600; -186.000;   21.000
314.039;  -59.000; -372.000; -289.000
314.176;   72.800;  286.000;  192.000
314.313; -119.500; -569.000; -473.000
314.450; -122.600; -788.000; -684.000
314.587; -130.500; -468.000; -480.000
314.723;   44.000;  -78.000;  130.000
314.860;   59.700;  318.000;  332.000
314.997;   95.000;  223.000;  142.000
315.134;  -94.700; -385.000; -368.000
315.270;  -39.700; -480.000; -496.000
315.407; -243.800;-1094.000; -967.000
315.544;  -81.900; -657.000; -538.000
315.681; -126.600; -681.000; -565.000
315.817;   82.100; -133.000; -176.000
315.954;  -16.400; -613.000; -392.000
316.091; -241.600;-1045.000;-1023.000
316.227;   -9.100;  -71.000; -179.000
316.364;   30.900;   23.000;    6.000
316.500;  -72.800; -113.000; -300.000
316.637;  -44.900; -181.000; -302.000
316.774; -134.800; -625.000; -358.000
316.910; -164.600; -598.000; -629.000
317.047; -131.000; -487.000; -351.000
317.183;  -65.200; -435.000; -566.000
317.320;    2.500; -367.000; -321.000
317.456; -109.500; -733.000; -805.000
317.593; -184.100; -598.000; -641.000
317.729;   53.600;  168.000;  -67.000
317.866; -402.900;-1434.000;-1285.000
318.002; -158.400; -708.000; -948.000
318.139; -202.900; -883.000; -867.000
318.275; -171.900;-1003.000; -738.000
318.412; -117.200; -517.000; -336.000
318.548;  -47.500; -751.000; -720.000
318.685; -228.900; -985.000; -888.000
318.821; -158.800; -762.000; -735.000
318.957;    6.500;   34.000;  -23.000
319.094;  124.700;  297.000;  154.000
319.230; -140.000; -756.000; -742.000
319.367;  190.600; -471.000; -520.000
319.503;   83.600; -538.000; -436.000
319.639; -180.100; -877.000; -793.000
319.775; -115.100; -750.000; -685.000
319.912;  -79.100; -424.000; -519.000
320.048; -184.100;-1184.000;-1184.000
320.184;  206.100;   59.000;   70.000
320.321; -101.700; -497.000; -467.000
320.457;  208.200;  475.000;  662.000
320.593; -125.700; -375.000; -382.000
320.729; -187.800; -732.000; -734.000
320.866; -129.600; -577.000; -635.000
321.002; -166.400; -759.000; -809.000
321.138;  -18.100; -135.000; -211.000
321.274;  110.700; -148.000; -115.000
321.410;  -73.200; -585.000; -353.000
321.546;  -80.300;-1011.000; -911.000
321.683;  115.600;  400.000;  185.000
321.819;   30.700;  -48.000; -117.000
321.955; -193.400; -743.000; -722.000
322.091;  -73.900; -585.000; -540.000
322.227;    4.000; -382.000; -202.000
322.363;   -6.200; -320.000; -215.000
322.499;  -62.700; -343.000; -331.000
322.635;  334.600;  636.000;  443.000
322.771;   74.900; -139.000;   12.000
322.907;  209.400;  129.000;  327.000
323.043;  -13.000; -115.000; -206.000
323.179;  -27.100; -394.000; -363.000
323.315;   13.800; -401.000; -371.000
323.451;  156.200; -328.000; -236.000
323.587;  140.600;  -60.000;  -77.000
323.723;   20.400; -682.000; -601.000
323.859;  -31.400; -258.000;  -76.000
323.995;  -62.800; -467.000; -409.000
324.131; -231.700; -967.000; -892.000
324.267;  -18.200; -254.000; -276.000
324.402; -279.600; -960.000; -983.000
324.538;  -12.300; -279.000; -104.000
324.674;   24.300;  164.000;   77.000
324.810;  257.200;  226.000;  308.000
324.946;    7.300; -810.000; -658.000
325.082; -101.400; -568.000; -475.000
325.217;   -5.100;  -62.000;   16.000
325.353; -181.100; -764.000; -659.000
325.489; -156.600; -540.000; -506.000
325.625; -105.500; -579.000; -525.000
325.760;  156.100;  517.000;  376.000
325.896;  -30.200; -515.000; -702.000
326.032;  -93.600; -403.000; -352.000
326.168;  -99.300; -462.000; -369.000
326.303;  -99.400; -352.000; -461.000
326.439;   -3.700; -336.000; -276.000
326.575;    1.300; -190.000;  -29.000
326.710;    7.100; -156.000;  -30.000
326.846;  -22.400;  146.000;  103.000
326.982; -137.300; -530.000; -548.000
327.117; -155.900; -481.000; -442.000
327.253; -168.300; -745.000; -742.000
327.388; -271.400;-1137.000;-1153.000
327.524; -109.900; -811.000; -578.000
327.659;   -9.700;  -58.000;  -22.000
327.795;   52.100;   69.000;   45.000
327.931; -168.000; -723.000; -499.000
328.066;  -42.000; -417.000; -276.000
328.202;   -3.300;   12.000; -129.000
328.337;  239.500;  957.000;  713.000
328.473;   26.200;  -12.000;  -74.000
328.608;  -23.700; -256.000; -267.000
328.743; -176.400; -799.000; -664.000
328.879;   79.700;  214.000;  114.000
329.014;  -96.500; -102.000; -122.000
329.150; -135.900; -358.000; -483.000
329.285; -124.000; -465.000; -466.000
329.421;  -69.600; -548.000; -246.000
329.556;  -30.000;  -36.000;   85.000
329.691; -160.800; -633.000; -615.000
329.827; -123.300; -626.000; -480.000
329.962;  -35.900;  131.000; -301.000
330.097; -159.400; -673.000; -585.000
330.233;  -80.200; -410.000; -223.000
330.368; -225.300; -839.000; -628.000
330.503;    9.500;    3.000;   98.000
330.638;    7.600;  -93.000; -125.000
330.774; -113.800; -609.000; -530.000
330.909;  -43.100; -434.000; -244.000
331.044; -154.400; -714.000; -708.000
331.179; -349.000;-1217.000;-1109.000
331.315;   29.200;   77.000;   20.000
331.450;   47.200;  157.000;  285.000
331.585; -148.100; -805.000; -706.000
331.720; -155.500; -510.000; -460.000
331.855;   22.400;  -35.000; -102.000
331.990;  526.000;   62.000;  138.000
332.126;  305.000; -110.000;   71.000
332.261;  -27.500; -379.000; -265.000
332.396;   26.000; -135.000; -242.000
332.531; -199.100;-1074.000;-1031.000
332.666;   99.100; -519.000; -363.000
332.801; -191.700; -726.000; -807.000
332.936;   -6.400; -192.000; -122.000
333.071; -322.600; -870.000; -817.000
333.206;   70.400;  307.000;  379.000
333.341;   85.000;  344.000;  418.000
333.476; -156.800; -627.000; -623.000
333.611;  -11.000; -251.000; -173.000
333.746;  -65.400; -381.000; -464.000
333.881; -247.200; -973.000; -935.000
334.016; -242.700; -936.000; -917.000
334.151; -217.600; -746.000; -702.000
334.286;   83.400;  152.000;  186.000
334.421;   11.600; -125.000; -178.000
334.556; -141.000; -611.000; -567.000
334.690; -192.100; -631.000; -577.000
334.825;  137.900;  381.000;   83.000
334.960; -102.900; -285.000; -413.000
335.095;   60.800;  135.000;  -91.000
335.230; -202.300; -722.000; -738.000
335.365; -239.900;-1084.000; -990.000
335.499; -238.900;-1108.000;-1037.000
335.634;   69.700;    9.000;  534.000
335.769; -211.700; -755.000; -720.000
335.904; -105.200; -603.000; -561.000
336.038; -114.100; -735.000; -657.000
336.173; -249.600;-1206.000;-1194.000
336.308;   18.200; -116.000; -189.000
336.443;   53.100; -544.000; -634.000
336.577; -181.600; -936.000; -787.000
336.712;  148.700;   -4.000;  -12.000
336.847;  -93.200; -724.000; -607.000
336.981;  106.000; -272.000; -208.000
337.116;  478.400;  615.000;  501.000
337.250;  242.300; -434.000; -421.000
337.385;  522.700; -297.000; -208.000
337.520;  208.700; -632.000; -603.000
337.654;  -85.100; -215.000; -126.000
337.789; -244.000; -989.000; -933.000
337.923;  -43.300; -104.000; -205.000
338.058; -145.000; -673.000; -738.000
338.192;  -73.200; -611.000; -488.000
338.327;   42.900;  -18.000; -155.000
338.461; -126.700; -299.000; -469.000
338.596; -139.300; -780.000; -638.000
338.730; -174.600; -767.000; -803.000
338.865;  237.800;  -46.000; -140.000
338.999; -105.600; -846.000; -702.000
339.134;  -32.800; -634.000; -536.000
339.268;    9.600; -741.000; -603.000
339.403;  696.100; -740.000; -775.000
339.537;  198.600; -894.000; -820.000
339.671; -180.800; -829.000; -813.000
339.806; -119.900; -556.000; -512.000
339.940;   68.500; -261.000; -235.000
340.074; -163.900; -685.000; -510.000
340.209;  -58.200; -351.000; -230.000
340.343; -137.500; -517.000; -573.000
340.477;  357.400;  998.000; 1036.000
340.612; -112.000;-1033.000; -900.000
340.746;  319.200; -199.000; -243.000
340.880; -145.400; -924.000; -785.000
341.014;   11.800;  -45.000; -154.000
341.149; -218.400; -756.000; -718.000
341.283; -166.100; -839.000; -754.000
341.417; -235.500;-1124.000; -938.000
341.551;  190.800; -768.000; -708.000
341.685;  -65.700; -633.000; -611.000
341.820;  -85.400; -562.000; -493.000
341.954;  -91.700; -218.000; -349.000
342.088; -278.500;-1102.000;-1019.000
342.222;  118.600;  565.000;  618.000
342.356;  -87.400; -395.000; -335.000
342.490; -175.600; -880.000; -841.000
342.624;  -53.900; -339.000; -242.000
342.758;   11.200; -364.000; -312.000
342.892; -108.400; -710.000; -585.000
343.026;  -45.100;  -58.000; -116.000
343.160;  -89.800; -426.000; -376.000
343.294; -141.800; -474.000; -337.000
343.428;  -66.400; -488.000; -448.000
343.562;  -19.400; -172.000;  -23.000
343.696;    2.600; -385.000; -314.000
343.830;  -64.000; -362.000; -356.000
343.964;   56.900; -231.000; -168.000
344.098; 1370.200;  199.000;   70.000
344.232; 1151.600; -266.000; -127.000
344.366;  133.900; -567.000; -453.000
344.500;  111.500; -665.000; -744.000
344.634;   40.200; -324.000; -164.000
344.768;  -16.800; -531.000; -341.000
344.902;   74.500;  278.000;  256.000
345.035;  -81.500; -556.000; -496.000
345.169; -283.400; -933.000; -656.000
345.303;  -39.000; -308.000; -482.000
345.437; -167.700; -826.000; -717.000
345.571;  -91.800; -675.000; -594.000
345.704; -105.800; -309.000; -532.000
345.838;   -4.900; -331.000; -284.000
345.972;  -39.600; -543.000; -495.000
346.106;  320.500; -179.000; -190.000
346.239;  774.800; -312.000; -243.000
346.373;   16.600; -343.000; -302.000
346.507; -244.200; -950.000; -962.000
346.640;  262.300;  -30.000;   13.000
346.774; -138.200; -650.000; -797.000
346.908;   27.600; -138.000;  -11.000
347.041; -174.800; -646.000; -593.000
347.175;   42.300;  259.000;   27.000
347.309; -154.000; -698.000; -628.000
347.442; -194.600; -883.000; -732.000
347.576;  449.400;  670.000;  668.000
347.709;  327.200; -123.000;  -52.000
347.843; -186.400; -933.000; -825.000
347.976;  110.800;  235.000;  294.000
348.110; -346.200;-1268.000;-1186.000
348.243; -190.800; -679.000; -772.000
348.377;   46.800;  -26.000;   60.000
348.510;  164.500;  403.000;  540.000
348.644;  -74.600;  -37.000; -159.000
348.777;   59.700;  180.000;  191.000
348.911;  -44.600; -142.000; -112.000
349.044;  316.600;  471.000;  448.000
349.178;  193.500;-1069.000;-1006.000
349.311;  224.700;  141.000;  255.000
349.444;   22.700; -927.000; -813.000
349.578;   -1.200; -347.000; -200.000
349.711; -225.600; -959.000; -862.000
349.845;   -5.500; -661.000; -591.000
349.978; -304.300;-1224.000;-1137.000
350.111; -155.600; -546.000; -612.000
350.244; -134.800; -596.000; -700.000
350.378;   16.700; -392.000; -393.000
350.511;  -96.900; -393.000; -426.000
350.644; -190.500; -808.000; -806.000
350.778;   76.000;  168.000;  104.000
350.911;   74.100;  134.000;  140.000
351.044; -152.800; -685.000; -615.000
351.177;  -28.500; -321.000; -281.000
351.310;    2.000;    3.000; -131.000
351.444; -132.200; -888.000; -788.000
351.577;  213.000;  140.000;   90.000
351.710;  211.600;  593.000;  417.000
351.843;  -46.700; -165.000;  -77.000
351.976;   21.300;  149.000;  -79.000
352.109; -159.800; -621.000; -612.000
352.242;  -24.400; -464.000; -419.000
352.376; -129.100; -580.000; -636.000
352.509;  225.200; -437.000; -356.000
352.642;  -67.900; -654.000; -604.000
352.775;  130.700; -141.000;  -98.000
352.908; -202.300; -933.000; -904.000
353.041; -186.900; -814.000; -824.000
353.174;  -94.300; -551.000; -424.000
353.307; -168.900; -753.000; -764.000
353.440;  162.100;  541.000;  453.000
353.573; -218.000; -957.000;-1008.000
353.706; -146.500; -384.000; -558.000
353.839;   -2.500; -264.000; -220.000
353.971; -158.700; -657.000; -512.000
354.104; -149.200; -896.000; -835.000
354.237;  -81.700; -627.000; -662.000
354.370; -158.100; -846.000; -879.000
354.503; -332.100;-1231.000;-1308.000
354.636;  -45.900; -529.000; -348.000
354.769; -256.100; -937.000; -860.000
354.902;   -3.000; -230.000; -139.000
355.034;  -16.000; -164.000; -220.000
355.167;   15.200; -262.000; -162.000
355.300; -167.600;-1061.000; -880.000
355.433; 1954.100;  -71.000;  -14.000
355.565; 2891.900; -402.000; -384.000
355.698;  717.700; -356.000; -296.000
355.831;   -6.300; -882.000; -801.000
355.964;  151.100; -285.000; -170.000
356.096; -186.400; -856.000; -843.000
356.229;   31.100; -523.000; -530.000
356.362;  586.200; -373.000; -266.000
356.494; 1069.200; -229.000; -162.000
356.627;  793.200;  269.000;  377.000
356.760; 1277.100;  120.000;   53.000
356.892; 1783.500; -286.000; -601.000
357.025; 1082.600;  403.000;  389.000
357.157;  964.800; -167.000; -179.000
357.290; 1341.300; -856.000; -713.000
357.423;  344.300; -667.000; -556.000
357.555;  222.300; -217.000; -228.000
357.688;  170.400; -483.000; -364.000
357.820;  665.800; -870.000; -877.000
357.953; 5730.500; -563.000; -589.000
358.085; 1218.000; -632.000; -612.000
358.218; 1639.400;-1131.000; -932.000
358.350;  326.000;  -58.000;  312.000
358.483; -260.100;-1300.000;-1187.000
358.615;  -61.600;-1182.000;-1078.000
358.747; -135.800;-1187.000;-1058.000
358.880;   39.900; -810.000; -744.000
359.012;    0.100; -376.000; -202.000
359.145;  -38.100; -480.000; -511.000
359.277;   29.300; -962.000; -913.000
359.409; 4722.500;  536.000;  231.000
359.542; 1145.700; -738.000; -688.000
359.674;  147.400;   46.000;   13.000
359.806; -122.500; -565.000; -438.000
359.939;  -47.700; -617.000; -516.000
360.071;   -0.900; -583.000; -579.000
360.203;   -6.100; -411.000; -364.000
360.335;   91.700;  164.000;  -16.000
360.468;  329.600; -249.000; -307.000
360.600; 3859.900; -547.000; -454.000
360.732; 5338.600; -546.000; -423.000
360.864;  681.400;-1216.000;-1044.000
360.996;  410.500; -516.000; -554.000
361.129;   72.200; -389.000; -598.000
361.261;   95.000;  110.000; -113.000
361.393;  -58.300; -252.000; -214.000
361.525;  110.900;   94.000;  244.000
361.657; -102.800; -821.000; -703.000
361.789;   47.300; -139.000; -155.000
361.921;  377.300; -642.000; -593.000
362.053;  472.400;  524.000;  541.000
362.185;  125.000;  288.000;   72.000
362.318; -130.300; -709.000; -705.000
362.450;  243.200;  294.000;  444.000
362.582;   99.800; -913.000; -870.000
362.714;  -83.600; -353.000; -332.000
362.846; -151.900; -606.000; -490.000
362.978; -218.500; -941.000; -811.000
363.109;   68.100; -161.000; -260.000
363.241;  657.600; -739.000; -749.000
363.373;  873.000; -649.000; -564.000
363.505; 1322.000; -186.000;  -91.000
363.637;  325.800; -787.000; -601.000
363.769; -224.400;-1067.000;-1080.000
363.901;  -81.900; -596.000; -654.000
364.033; -220.200;-1103.000;-1062.000
364.165;   26.300; -283.000; -283.000
364.296;  154.000; -316.000; -177.000
364.428;  153.800;-1344.000;-1220.000
364.560; -112.000; -679.000; -661.000
364.692;  -89.100; -738.000; -835.000
364.824;  404.600; -588.000; -456.000
364.955;  800.500; -402.000; -564.000
365.087; 1849.300;-1097.000; -852.000
365.219;   63.700; -686.000; -816.000
365.351; -118.000; -526.000; -572.000
365.482;  155.300;  300.000;  240.000
365.614;  -62.500; -402.000; -314.000
365.746; -174.400; -729.000; -752.000
365.877; -192.300; -706.000; -672.000
366.009;  537.200;  -35.000;  -62.000
366.141; -157.700;-1249.000;-1134.000
366.272; -181.400; -803.000; -719.000
366.404; -198.700;-1005.000; -874.000
366.535;   24.300; -139.000;  -12.000
366.667; -171.800; -644.000; -649.000
366.799;  125.600;  353.000;  203.000
366.930; -211.000; -862.000; -996.000
367.062;  288.600; -639.000; -613.000
367.193;  285.700; -872.000; -842.000
367.325;  -71.700; -580.000; -684.000
367.456;   63.700; -246.000;   31.000
367.588;  349.600; -371.000; -318.000
367.719;   46.400;  -44.000;  -45.000
367.851;   -0.200; -222.000; -241.000
367.982; -125.200; -875.000; -732.000
368.113;  190.800; -475.000; -358.000
368.245; -196.500; -960.000; -841.000
368.376;  -23.700; -254.000; -302.000
368.508;  -57.400; -188.000; -263.000
368.639; -252.300;-1166.000;-1034.000
368.770;  -66.400; -670.000; -589.000
368.902; -126.200; -836.000; -926.000
369.033; -207.100; -906.000; -855.000
369.164;  -48.600; -720.000; -653.000
369.296; -199.300; -452.000; -601.000
369.427;   41.500; -209.000; -144.000
369.558;  -88.400; -593.000; -377.000
369.689; -132.400; -721.000; -569.000
369.821; -230.500; -951.000; -845.000
369.952;   60.100;   42.000; -108.000
370.083;  -63.100; -229.000; -108.000
370.214; -159.200; -735.000; -650.000
370.345;   10.100;   65.000;   81.000
370.477; -146.000; -810.000; -790.000
370.608;  350.300; -328.000; -264.000
370.739; -116.800;-1233.000;-1292.000
370.870;  -93.200;-1102.000; -923.000
371.001;  169.300; -378.000; -467.000
371.132; -162.500; -754.000; -735.000
371.263;   16.400;  -42.000; -148.000
371.394; -254.400; -841.000; -748.000
371.525;   87.700;  345.000;  225.000
371.657; -166.500; -808.000; -670.000
371.788;  179.700;  103.000;  199.000
371.919;  294.800; -384.000; -304.000
372.050; 5612.100;  -91.000; -156.000
372.181; 1605.700; -188.000; -294.000
372.311;  607.300;   42.000; -127.000
372.442;   35.800; -457.000; -451.000
372.573;   17.000; -444.000; -340.000
372.704; -215.200;-1008.000; -980.000
372.835;  130.200; -228.000; -289.000
372.966; -106.100; -646.000; -554.000
373.097; -101.600; -575.000; -711.000
373.228;  -63.800; -717.000; -542.000
373.359;  205.000; -824.000; -536.000
373.490; 1363.500; -881.000; -727.000
373.620; 1689.200;-1001.000; -803.000
373.751; 2628.200; -332.000; -396.000
373.882; 1123.700; -663.000; -733.000
374.013;  113.900; -449.000; -262.000
374.143;  -79.300; -581.000; -659.000
374.274; -206.700; -987.000; -908.000
374.405;  274.700; -388.000; -276.000
374.536;  679.100; -526.000; -387.000
374.666; 1686.800; -759.000; -807.000
374.797;  273.900; -817.000; -868.000
374.928; 1282.100; -710.000; -560.000
375.058; 1329.400; -535.000; -500.000
375.189;  149.400;  -59.000;  -93.000
375.320; -201.500; -928.000;-1034.000
375.450;  -61.200; -625.000; -616.000
375.581;  -68.700; -526.000; -436.000
375.712;  -60.100; -574.000; -250.000
375.842;  437.900; -438.000; -415.000
375.973;  304.300; -554.000; -513.000
376.103;  -77.000; -665.000; -648.000
376.234; -126.800; -531.000; -552.000
376.364; -111.900; -944.000; -867.000
376.495;  631.900;  925.000;  529.000
376.625;  -12.600; -472.000; -485.000
376.756;   85.500; -709.000; -678.000
376.886; -174.700;-1178.000;-1026.000
377.017;   92.600;-1048.000;-1061.000
377.147;  702.000; -786.000; -782.000
377.278;  187.900;  174.000;  228.000
377.408; -233.600; -801.000; -815.000
377.538; -170.600; -707.000; -693.000
377.669; -139.800; -537.000; -613.000
377.799; -151.900; -645.000; -635.000
377.929; -117.600; -610.000; -428.000
378.060; -247.800; -781.000; -847.000
378.190;  -71.600; -726.000; -531.000
378.320;  -43.900; -401.000; -406.000
378.451;    2.100; -131.000;  -22.000
378.581;   34.500;  -67.000; -110.000
378.711;  353.300; 1035.000;  866.000
378.841;  -12.700; -533.000; -675.000
378.972; -136.900; -871.000; -751.000
379.102;   -5.000; -652.000; -579.000
379.232;  -19.200; -126.000;  -73.000
379.362; -198.000;-1001.000; -885.000
379.492;  -16.200; -373.000; -424.000
379.623;  210.500;    0.000;  111.000
379.753; -183.400;-1107.000; -974.000
379.883;  360.500;   59.000;  156.000
380.013;  -27.500;-1081.000;-1017.000
380.143; -187.700;-1097.000;-1056.000
380.273; -181.200; -985.000; -861.000
380.403;   25.300; -344.000; -257.000
380.533;  -66.900; -651.000; -664.000
380.663;  157.600;  173.000;  128.000
380.793; -200.000;-1027.000;-1074.000
380.923;    4.500; -103.000;  -34.000
381.053; -165.500; -613.000; -623.000
381.183;  -16.600; -106.000; -248.000
381.313;   51.700; -656.000; -470.000
381.443;   92.400; -692.000; -473.000
381.573;  316.000; -402.000; -409.000
381.703;  376.100;-1249.000;-1095.000
381.833; -282.400;-1454.000;-1336.000
381.963;  225.200; -134.000;  -87.000
382.093; 2173.100; -925.000; -909.000
382.223;  602.600; -713.000; -602.000
382.353;  -50.200; -801.000; -608.000
382.482;  505.800;-1091.000; -964.000
382.612; 1173.400; -872.000; -644.000
382.742;  629.600; -695.000; -622.000
382.872;  395.400; -565.000; -551.000
383.002;  154.400;  347.000; -132.000
383.131;    9.300; -226.000; -160.000
383.261;  -81.100; -706.000; -768.000
383.391;  531.800; -552.000; -377.000
383.521; 6276.700;  451.000;  263.000
383.650; 1355.700; -947.000; -904.000
383.780;   11.700; -783.000; -656.000
383.910;  240.100;  880.000;  802.000
384.039;   36.100; -794.000; -656.000
384.169;  234.600;-1205.000;-1017.000
384.299;  -31.800; -650.000; -662.000
384.428; -134.600; -764.000; -680.000
384.558;  -43.100; -308.000; -275.000
384.687;  -55.600; -414.000; -334.000
384.817;   59.700;   75.000;   -2.000
384.947;   57.600; -234.000; -141.000
385.076;  547.700;  982.000;  912.000
385.206;  212.800;  369.000;  480.000
385.335;  -37.000; -549.000; -417.000
385.465; -134.200; -655.000; -663.000
385.594;  243.500;  -53.000;  -44.000
385.724;  532.800; -868.000; -838.000
385.853;  240.300; -296.000; -270.000
385.982; 2046.700; -743.000; -787.000
386.112; 3096.000;-1052.000; -871.000
386.241;  181.000; -307.000; -312.000
386.371;   68.500; -174.000;  -87.000
386.500;  -25.200; -825.000; -789.000
386.629;   67.000; -874.000; -817.000
386.759;  157.800;  -43.000;   68.000
386.888;   41.700; -170.000; -250.000
387.017; -115.100; -648.000; -620.000
387.147; -156.800; -771.000; -798.000
387.276;    3.100; -410.000; -397.000
387.405;   23.000; -398.000; -342.000
387.535;  -47.600; -452.000; -361.000
387.664;  -76.200; -692.000; -620.000
387.793;  111.700; -198.000; -113.000
387.922;  828.400;  255.000;  200.000
388.052;   42.700; -576.000; -423.000
388.181;   36.700; -342.000; -472.000
388.310;  -36.700; -889.000; -710.000
388.439;  -57.400; -749.000; -742.000
388.568;  331.600;  365.000;  244.000
388.697; 1552.200; -756.000; -653.000
388.826;  261.800; -768.000; -666.000
388.956;   91.900; -285.000; -307.000
389.085;  -67.900; -347.000; -287.000
389.214; -174.900; -842.000; -872.000
389.343; -107.000; -645.000; -413.000
389.472;  833.100;  126.000;  149.000
389.601;  960.900;   91.000;    0.000
389.730;   22.200; -568.000; -687.000
389.859;  124.700;  226.000;   46.000
389.988;  333.300; -423.000; -408.000
390.117;  223.000; -168.000; -146.000
390.246;    1.400; -331.000; -320.000
390.375;  153.600; -673.000; -626.000
390.504;  -93.600; -703.000; -621.000
390.633; -189.500; -672.000; -726.000
390.761;  -95.700; -732.000; -645.000
390.890;   68.500;   -4.000; -130.000
391.019;   -4.900; -421.000; -441.000
391.148; -231.100; -826.000; -855.000
391.277;  -87.600; -576.000; -493.000
391.406; -150.500; -821.000; -805.000
391.534;  103.000;  574.000; -301.000
391.663; -126.200; -583.000; -645.000
391.792; -139.000; -673.000; -701.000
391.921;  183.500;   -3.000;   15.000
392.050;  264.600; -287.000; -228.000
392.178; -152.500;-1206.000;-1061.000
392.307;  212.500; -758.000; -712.000
392.436;   57.200; -427.000; -641.000
392.564;  136.900;  166.000;   -6.000
392.693; -157.600; -860.000; -682.000
392.822;  331.900; -529.000; -534.000
392.950;   71.000; -880.000; -714.000
393.079;  526.600; -188.000; -328.000
393.208;   25.300; -488.000; -511.000
393.336;   24.500; -170.000; -145.000
393.465;  -73.700; -317.000; -199.000
393.593;   30.600;   62.000;   79.000
393.722; -275.300;-1121.000; -916.000
393.850;    8.300; -188.000;  -61.000
393.979; -289.600; -926.000; -805.000
394.107;  -80.800; -517.000; -537.000
394.236;  -55.200; -570.000; -507.000
394.364;  498.600;  383.000;  206.000
394.493;  719.000; -911.000; -767.000
394.621;   36.600; -955.000; -916.000
394.750; 1400.700; -873.000; -923.000
394.878; 5855.500; -247.000; -149.000
395.007; 7518.900; -721.000; -807.000
395.135;  559.500; -790.000; -721.000
395.263; -148.600;-1038.000;-1040.000
395.392;   76.100;  -25.000; -107.000
395.520; -262.300; -818.000; -679.000
395.648; -137.000; -865.000; -915.000
395.777;  -16.900; -366.000; -405.000
395.905;  -62.100; -449.000; -564.000
396.033;   42.600;  217.000;  172.000
396.162; 1257.200; -399.000; -453.000
396.290; 1043.100;  -17.000;   -2.000
396.418;  161.400; -555.000; -514.000
396.546; -153.800; -571.000; -466.000
396.674; -141.500; -850.000; -878.000
396.803;   63.200;  -72.000;  -23.000
396.931;  140.400; -179.000; -199.000
397.059;  -22.700;-1026.000; -989.000
397.187; -160.900;-1026.000; -975.000
397.315; -246.600; -884.000; -649.000
397.443; -150.300; -592.000; -443.000
397.572; -142.900; -578.000; -424.000
397.700;  -45.400; -607.000; -614.000
397.828;   14.500;  120.000;  -90.000
397.956;  -65.700; -508.000; -478.000
398.084; -101.300; -767.000; -626.000
398.212;  112.900;  137.000;  124.000
398.340;   46.000;  -56.000;  159.000
398.468;   85.300; -390.000; -169.000
398.596; -264.200; -993.000; -953.000
398.724; -203.900; -762.000; -767.000
398.852; -279.000;-1024.000; -976.000
398.980;  -80.600; -560.000; -560.000
399.108;  -86.000; -982.000; -735.000
399.236;   90.900;   13.000;    8.000
399.363;   69.200;  222.000;  196.000
399.491;  -92.100; -404.000; -398.000
399.619; -214.400; -829.000; -800.000
399.747; -158.100; -859.000; -771.000
399.875;  181.600;  220.000;  234.000
400.003;  -31.600; -359.000; -284.000
400.130; -143.000; -421.000; -341.000
400.258;  -12.900;  -83.000;   38.000
400.386; -117.800; -352.000; -168.000
400.514;  -73.700; -526.000; -587.000
400.641; -187.400; -928.000; -802.000
400.769; -244.100; -979.000; -888.000
400.897; -176.700; -838.000; -793.000
401.025;  -16.300; -166.000; -152.000
401.152;   29.100;  220.000;   38.000
401.280;  -89.500; -430.000; -429.000
401.408; -197.900; -712.000; -576.000
401.535; -176.600; -735.000; -758.000
401.663; -360.700;-1134.000;-1054.000
401.790; -125.300; -514.000; -525.000
401.918;  130.500;  436.000;  405.000
402.046;   32.400;  134.000;  122.000
402.173;  -20.600;  -18.000;    7.000
402.301;  -71.400; -519.000; -397.000
402.428;   83.100;  528.000;  383.000
402.556; -269.400;-1188.000; -913.000
402.683;  -33.500;  -20.000;   -1.000
402.811;   20.900;  -37.000; -206.000
402.938;   29.100;   20.000;   27.000
403.066;  288.600; -574.000; -558.000
403.193;  520.200;  299.000;  239.000
403.321;  402.600; -396.000; -574.000
403.448;  478.700;   83.000;   27.000
403.575;  248.600;  -90.000;  -46.000
403.703; -162.800; -732.000; -557.000
403.830;  -71.000; -531.000; -496.000
403.957; -264.000;-1117.000;-1023.000
404.085;   63.100;  -61.000; -172.000
404.212;  240.200;  -50.000;   63.000
404.339;  563.600; -566.000; -306.000
404.467;11438.200; -612.000; -524.000
404.594; 6756.300; -287.000; -227.000
404.721; 1463.100; -869.000; -764.000
404.848;  212.800; -113.000; -202.000
404.976; -210.900; -856.000; -783.000
405.103;   38.600;  -14.000;  -82.000
405.230;   15.300;  190.000;  226.000
405.357;   81.100;  117.000;   44.000
405.484;  576.300;  -49.000;    5.000
405.612;  104.300; -548.000; -563.000
405.739;  -92.700; -488.000; -243.000
405.866;  240.200;  669.000;  385.000
405.993;  -39.700; -398.000; -102.000
406.120; -235.800; -801.000; -887.000
406.247;  -98.700; -323.000; -342.000
406.374;  776.500;  540.000;  629.000
406.501;  104.200; -632.000; -702.000
406.628; -102.400; -621.000; -589.000
406.755; -169.800; -803.000; -620.000
406.882;  -23.000; -228.000; -277.000
407.009; -173.400; -719.000; -628.000
407.136;  110.300; -480.000; -401.000
407.263;  152.500; -939.000; -829.000
407.390; -106.400; -692.000; -614.000
407.517; -324.100;-1139.000;-1187.000
407.644;  -89.700; -332.000; -256.000
407.771;  -90.600; -249.000; -287.000
407.898;   68.400;  168.000;  328.000
408.025;  -92.500; -421.000; -313.000
408.151;   34.900;   82.000;  153.000
408.278;  -99.900; -267.000; -216.000
408.405; -175.500; -931.000; -899.000
408.532; -134.600; -549.000; -542.000
408.659; -179.200; -677.000; -648.000
408.785; -395.600;-1298.000;-1170.000
408.912;  -45.000; -412.000; -296.000
409.039; -183.500; -610.000; -686.000
409.166; -166.700; -591.000; -555.000
409.292; -212.600; -571.000; -534.000
409.419; -184.000; -665.000; -649.000
409.546; -126.900; -431.000; -192.000
409.672; -172.100; -713.000; -545.000
409.799;    2.600;  -36.000;   34.000
409.926;  -22.600; -180.000; -179.000
410.052; -310.700;-1127.000;-1091.000
410.179;  -59.300; -368.000; -392.000
410.305; -128.000; -375.000; -493.000
410.432;  -35.900; -220.000; -333.000
410.558; -128.600; -305.000; -380.000
410.685; -151.800; -688.000; -431.000
410.812; -174.000; -409.000; -588.000
410.938; -209.800; -964.000; -808.000
411.065; -176.300; -671.000; -645.000
411.191;   -3.700; -189.000; -174.000
411.317; -195.900; -823.000; -742.000
411.444;  -72.800; -317.000; -246.000
411.570;  -90.100; -339.000; -294.000
411.697; -198.500; -758.000; -752.000
411.823; -316.500; -989.000; -999.000
411.949;  -13.600;  -56.000;   17.000
412.076; -197.800; -539.000; -519.000
412.202; -194.400; -758.000; -757.000
412.329; -223.800; -798.000; -752.000
412.455; -197.200; -821.000; -657.000
412.581;  -15.800;  -15.000;  172.000
412.707; -112.600; -540.000; -457.000
412.834;   93.400;  156.000;  219.000
412.960; -117.600; -785.000; -784.000
413.086; -179.600; -743.000; -701.000
413.212;  326.500;  604.000;  578.000
413.339; -129.500; -685.000; -701.000
413.465;   19.100; -364.000; -310.000
413.591; -165.300; -757.000; -474.000
413.717;  -52.500; -358.000; -366.000
413.843; -278.900; -839.000; -861.000
413.969;  -58.400;  -47.000; -292.000
414.096; -152.900; -679.000; -679.000
414.222;   47.000;  -33.000;   85.000
414.348;  -47.800; -652.000; -385.000
414.474;  177.700;   38.000;  -52.000
414.600;   22.500; -126.000; -144.000
414.726;   35.000;  -96.000;  -55.000
414.852; -101.300; -365.000; -342.000
414.978;  155.200;  104.000;  -18.000
415.104;  105.400;   38.000;   80.000
415.230;   64.700; -329.000; -330.000
415.356;  106.400; -409.000; -514.000
415.482;  440.900;   13.000;  -35.000
415.608;  578.600; -247.000; -323.000
415.734; 1985.900;   67.000;   38.000
415.860;40085.800; -875.000; -767.000
415.986;26168.000; -685.000; -607.000
416.111; 2212.500; -798.000; -652.000
416.237;  566.200; -424.000; -571.000
416.363; 2423.600; -765.000; -733.000
416.489; 8051.700; -324.000; -251.000
416.615;  824.400; -707.000; -742.000
416.741;    2.800; -677.000; -784.000
416.866; -142.000; -673.000; -736.000
416.992; -187.400; -801.000; -818.000
417.118;   15.600;  -41.000;  -80.000
417.244;  -95.900; -798.000; -531.000
417.369; -122.100; -801.000; -612.000
417.495;   70.900; -325.000; -254.000
417.621; -144.200;-1015.000; -803.000
417.746;   52.200; -579.000; -572.000
417.872;  144.600; -254.000; -144.000
417.998;  123.700; -515.000; -530.000
418.123; 2275.800;-1073.000; -845.000
418.249;10423.000; -512.000; -601.000
418.374; 1276.700; -916.000; -824.000
418.500;  266.000; -383.000; -482.000
418.626;  274.900;   70.000;  -59.000
418.751;  270.900; -549.000; -448.000
418.877;  394.000; -637.000; -643.000
419.002; 3979.500; -688.000; -560.000
419.128;24672.000; -930.000; -721.000
419.253; 5426.700; -967.000; -837.000
419.379;  746.400; -391.000; -338.000
419.504;  819.500;  325.000;  415.000
419.629; 1032.300; -393.000; -212.000
419.755; 7601.500; -317.000; -254.000
419.880;40876.600;  -98.000;   67.000
420.006;22778.200; -280.000; -221.000
420.131;54925.900; -662.000; -775.000
420.256; 7100.600; -315.000; -316.000
420.382;  948.300; -665.000; -687.000
420.507;  175.400; -649.000; -778.000
420.632;  200.300; -337.000; -339.000
420.758;  357.400; -251.000; -425.000
420.883; -153.200; -876.000; -672.000
421.008; -142.100; -775.000; -619.000
421.133; -115.400; -509.000; -467.000
421.259;  -71.300; -325.000; -259.000
421.384; -189.900; -834.000; -693.000
421.509; -102.100;-1052.000; -862.000
421.634; 1619.200; -936.000; -820.000
421.759;  649.300; -359.000; -327.000
421.885; -130.700; -717.000; -656.000
422.010; -104.200; -673.000; -542.000
422.135; -253.300; -695.000; -727.000
422.260;  151.600;  340.000;  280.000
422.385;  -72.800;   12.000;  -98.000
422.510;   80.800;  151.000;  -26.000
422.635;   14.900;  -87.000;  -43.000
422.760;  164.800; -766.000; -791.000
422.885;  140.800;  -57.000;  -80.000
423.010;  -16.300; -112.000; -169.000
423.135; -137.900; -481.000; -561.000
423.260;   18.400; -150.000; -245.000
423.385;  151.500;  476.000;  222.000
423.510;  104.400;   71.000;  -22.000
423.635;  179.600;  133.000;   45.000
423.760;  172.100;  383.000;  328.000
423.885;  142.800;  336.000;  391.000
424.010;   86.800;  -68.000;  -13.000
424.135;   21.200;    5.000;  -33.000
424.259;  -87.600; -654.000; -457.000
424.384;  -81.500; -279.000; -272.000
424.509;  -16.500; -260.000; -186.000
424.634; -132.000; -761.000; -623.000
424.759;  -17.100; -688.000; -544.000
424.883;  -19.000; -506.000; -527.000
425.008;  374.400; -502.000; -410.000
425.133; 4064.600; -679.000; -653.000
425.258; 1693.800; -517.000; -381.000
425.382; 1724.300; -867.000; -774.000
425.507; 3930.700; -487.000; -543.000
425.632;  665.600; -802.000; -663.000
425.756;  915.500; -256.000; -146.000
425.881;14104.100; -831.000; -857.000
426.006;34019.300; -604.000; -355.000
426.130; 4721.200; -696.000; -508.000
426.255;  705.200; -611.000; -491.000
426.379;  337.800; -189.000; -577.000
426.504;  817.100;  660.000;  544.000
426.629; 8169.600; -519.000; -466.000
426.753; 5029.300;   64.000;  -46.000
426.878;  642.100; -252.000; -288.000
427.002;  347.300; -651.000; -668.000
427.127; 3355.500;  -35.000; -158.000
427.251;22489.200;  372.000;  401.000
427.375; 5576.200; -191.000; -173.000
427.500; 3611.700; -616.000; -610.000
427.624; 1033.300; -234.000; -400.000
427.749;  145.900; -216.000; -225.000
427.873;  -63.500; -499.000; -412.000
427.997;  -13.300; -222.000; -230.000
428.122;  234.100;  795.000;  703.000
428.246;  241.000;  433.000;  434.000
428.371; -211.600; -869.000; -773.000
428.495; -148.700; -624.000; -646.000
428.619;   20.800; -186.000; -117.000
428.743;   90.400;   65.000;  132.000
428.868;   22.700; -732.000; -643.000
428.992; 2154.800; -219.000; -326.000
429.116;  788.300; -329.000; -357.000
429.240;  435.800;  419.000;  426.000
429.365;  -26.600; -454.000; -574.000
429.489;  -45.800; -638.000; -647.000
429.613;  125.600; -236.000; -177.000
429.737;  155.200; -563.000; -432.000
429.861;  565.200; -247.000; -133.000
429.985;11506.400; -425.000; -305.000
430.109;11201.900; -770.000; -908.000
430.234; 1287.100;   76.000;  -50.000
430.358;  145.900; -250.000; -160.000
430.482;  -94.800; -672.000; -564.000
430.606; -100.600; -655.000; -375.000
430.730;   56.100; -437.000; -388.000
430.854;  130.600; -909.000; -835.000
430.978; -101.800; -795.000; -764.000
431.102; -131.900; -499.000; -422.000
431.226; -174.700; -874.000; -815.000
431.350;   96.600;  345.000;  422.000
431.474;  -91.500; -661.000; -373.000
431.597; -279.800;-1060.000; -848.000
431.721;  -65.500; -276.000; -267.000
431.845; -214.100; -704.000; -472.000
431.969; -121.800; -304.000; -349.000
432.093; -128.800; -395.000; -317.000
432.217;   56.200;   32.000;   82.000
432.341; -158.000; -523.000; -518.000
432.464;  105.300;   96.000;   40.000
432.588;  306.800; -401.000; -329.000
432.712;  234.300;  -52.000;  -52.000
432.836;  141.700;  213.000;  263.000
432.959;   27.200; -372.000; -311.000
433.083;  247.100;   11.000;    2.000
433.207;  817.000;  285.000;  930.000
433.330;10467.300; -391.000; -200.000
433.454;11767.100; -654.000; -638.000
433.578; 6949.800;  583.000;  278.000
433.701; 1135.300; -623.000; -675.000
433.825;  230.200; -292.000; -299.000
433.949;  319.600;   28.000;  -72.000
434.072;   84.800; -410.000; -323.000
434.196;   27.900; -309.000; -117.000
434.319; 7978.100;25482.000;25124.000
434.443; 1517.000; -656.000; -603.000
434.566; 5116.200;  281.000;   62.000
434.690;  783.100; -637.000; -383.000
434.813;   97.900; -251.000; -173.000
434.937;  -82.800; -569.000; -696.000
435.060;  -30.600; -423.000; -332.000
435.184;  447.400; -492.000; -217.000
435.307;  221.000;  159.000;  102.000
435.431;   18.400;  -40.000;   24.000
435.554; -101.600; -399.000; -240.000
435.677;  -85.100; -350.000; -258.000
435.801;  -24.200;  -25.000;   49.000
435.924;   39.600;    1.000;  -67.000
436.048; -230.500;-1019.000; -732.000
436.171;  -60.100; -240.000;  -66.000
436.294;   22.200; -248.000; -229.000
436.417;  254.900; -963.000; -849.000
436.541; -134.100; -814.000; -840.000
436.664;  -35.700; -242.000; -316.000
436.787;   11.500;   13.000;  113.000
436.910; -159.600; -792.000; -422.000
437.034;   69.500;  142.000;  143.000
437.157;  120.300;  -11.000;    0.000
437.280;  -87.900; -392.000; -292.000
437.403; -160.900; -982.000; -869.000
437.526;  834.900; -903.000; -865.000
437.649; 3021.900; -505.000; -332.000
437.772;  306.700; -692.000; -540.000
437.896;  249.600;  700.000;  544.000
438.019; -171.400; -758.000; -503.000
438.142; -114.100; -596.000; -506.000
438.265;  -30.800; -639.000; -670.000
438.388;  914.800; -520.000; -410.000
438.511;   81.000; -597.000; -394.000
438.634;  -94.300; -247.000; -125.000
438.757; -228.000; -693.000; -619.000
438.880;   -2.200;  -34.000;  -57.000
439.003; -108.800; -417.000; -437.000
439.126;  -64.900; -287.000; -167.000
439.248;  -70.000;  -98.000; -139.000
439.371;  -30.000;    9.000;  -53.000
439.494;  116.600;  510.000;  439.000
439.617;  -43.200;   65.000;  -88.000
439.740; -310.000; -968.000; -816.000
439.863; -220.500; -755.000; -595.000
439.986; -175.100; -476.000; -431.000
440.108;  -31.900; -161.000; -112.000
440.231; -266.800; -950.000; -836.000
440.354;  -30.300;  -64.000; -150.000
440.477;   42.200; -566.000; -542.000
440.599;   21.200; -200.000; -225.000
440.722; -203.500; -709.000; -586.000
440.845;  228.900;  751.000;  928.000
440.968; -163.800; -415.000; -311.000
441.090;  -75.300; -199.000;  -33.000
441.213; -303.300;-1021.000; -825.000
441.336;  -16.800; -159.000;   -5.000
441.458; -104.400; -549.000; -396.000
441.581; -146.900; -628.000; -629.000
441.703;  -92.900; -152.000;   13.000
441.826; -138.800; -557.000; -400.000
441.948;  -51.000;   56.000;   51.000
442.071;  149.300;  555.000;  424.000
442.193; -209.700; -531.000; -485.000
442.316;   71.500;  152.000;   97.000
442.438;  111.400; -233.000;  -10.000
442.561;  171.800;  272.000;  262.000
442.683;  736.700; -809.000; -522.000
442.806; 1610.600;   -8.000;   74.000
442.928;  -22.100; -859.000; -604.000
443.051; -107.500; -577.000; -373.000
443.173; -145.300; -341.000; -339.000
443.295; -119.100; -263.000; -371.000
443.418; -105.000; -321.000;  -29.000
443.540;   18.200; -106.000;   -4.000
443.662; -196.400; -563.000; -465.000
443.785;   55.500;  335.000;  199.000
443.907; -184.600; -362.000; -208.000
444.029; -197.500; -767.000; -494.000
444.152; -258.300; -644.000; -554.000
444.274;   -4.900;  -18.000;  -24.000
444.396; -150.500; -461.000; -221.000
444.518; -170.900; -691.000; -454.000
444.640; -208.700; -268.000; -111.000
444.763;   47.100;  388.000;  249.000
444.885; -188.500; -432.000; -392.000
445.007;   38.800;   35.000;   86.000
445.129; -180.900; -610.000; -515.000
445.251; -145.400; -372.000; -439.000
445.373; -235.400; -537.000; -386.000
445.495;   80.300;  242.000;  350.000
445.617;  177.100;  853.000;  753.000
445.739;  -24.100; -215.000;  -97.000
445.861;  -51.100; -245.000; -112.000
445.984;  -35.100; -267.000; -101.000
446.105;  320.100; -418.000; -251.000
446.227;  894.600; -176.000;  -19.000
446.349;  -15.500; -358.000; -249.000
446.471; -160.000; -615.000; -448.000
446.593;  -81.800; -316.000;   19.000
446.715;   31.200;  -67.000;   41.000
446.837;  190.600;  697.000;  832.000
446.959; -134.200; -457.000; -478.000
447.081; -214.200; -628.000; -518.000
447.203;  202.500;  862.000;  834.000
447.325; -128.200; -270.000;   42.000
447.446;   98.100;  286.000;  530.000
447.568; -284.800; -921.000; -803.000
447.690;  -82.000; -236.000; -245.000
447.812; -266.000; -798.000; -519.000
447.933;   16.000;  155.000;  127.000
448.055; -100.200; -306.000; -261.000
448.177;  290.900;   31.000;   79.000
448.299;   20.700; -935.000; -727.000
448.420;   72.800;  -25.000;  159.000
448.542;  -36.600;   -3.000;   33.000
448.664;   43.100;  109.000;  322.000
448.785;   -0.200;  265.000;   83.000
448.907;  -96.400; -614.000; -353.000
449.028;  -66.200; -771.000; -471.000
449.150;  209.400;  492.000;  589.000
449.272; -301.200;-1044.000; -913.000
449.393;  144.000;  612.000;  694.000
449.515; -245.400; -634.000; -581.000
449.636;  -66.700; -264.000; -155.000
449.758;  220.800;  763.000;  622.000
449.879; -111.200; -498.000; -396.000
450.001;  -94.800; -149.000;  -49.000
450.122;   -5.000;  -95.000;  162.000
450.244;   25.500;   37.000;  364.000
450.365; -102.700; -495.000; -301.000
450.486;   -5.300;   80.000;  268.000
450.608;  130.300;  393.000;  326.000
450.729;  210.200;  578.000;  645.000
450.850;   70.400; -574.000; -466.000
450.972; 1600.700; -552.000; -389.000
451.093; 9998.700;  190.000;  588.000
451.214; 3698.300; -516.000; -337.000
451.336;  708.900;  773.000;  579.000
451.457;  161.000;  264.000;  393.000
451.578;    6.700; -118.000;  -74.000
451.699; -170.500; -546.000; -540.000
451.821;  -51.500; -284.000;  -50.000
451.942;   47.000;  278.000;  285.000
452.063;  133.300;  228.000;  419.000
452.184; 1219.600;  -54.000;  -49.000
452.305; 2163.000;  103.000;  170.000
452.427;  217.400; -549.000; -301.000
452.548;   64.300;   23.000;   79.000
452.669;  -37.100; -257.000;  -89.000
452.790;  -18.100;    3.000;  -18.000
452.911;   46.500;  195.000;  259.000
453.032;  -83.600; -289.000;  -60.000
453.153;  -45.100;  -29.000;   81.000
453.274;  231.100;  737.000;  868.000
453.395;  -43.700;  -51.000;  175.000
453.516;  346.600; 1317.000; 1388.000
453.637; -104.600; -205.000; -150.000
453.758;  -28.000;   15.000;   69.000
453.879; -176.100; -462.000; -250.000
454.000;  218.500; 1086.000;  948.000
454.121; -177.300; -554.000; -326.000
454.242; -179.500; -599.000; -383.000
454.362;  -41.600;  -99.000;  114.000
454.483;  -18.600; -309.000; -229.000
454.604;  121.300;  512.000;  580.000
454.725; -212.500; -627.000; -555.000
454.846; -177.100; -474.000; -406.000
454.967;   37.100;  230.000;  539.000
455.087;  -15.100;  179.000;  153.000
455.208;  125.600;  554.000;  856.000
455.329;  -62.700;  -22.000;   82.000
455.450;  174.800;  473.000;  633.000
455.570;  -87.200; -234.000; -211.000
455.691;   -5.800;  201.000;  407.000
455.812; -142.600; -270.000;  -92.000
455.932;  -67.700;  107.000;  -97.000
456.053; -125.100;   36.000;   24.000
456.173; -158.400; -433.000; -355.000
456.294; -237.100; -476.000; -303.000
456.415;  -48.000;  -73.000;   70.000
456.535;   42.300;  297.000;  273.000
456.656;  -31.400;  132.000;  240.000
456.776; -105.500;    3.000;  298.000
456.897;   47.300;  308.000;  513.000
457.017;  -98.300; -153.000;   -3.000
457.138; -185.800; -402.000; -249.000
457.258;   16.400;  263.000;  224.000
457.379;   36.400;  509.000;  521.000
457.499;    8.900;  443.000;  432.000
457.620; -198.900; -407.000; -231.000
457.740; -150.800; -132.000;  -11.000
457.860;  -32.400;   87.000;   44.000
457.981;  -43.600;  132.000;  124.000
458.101;  -90.200;  -89.000;   40.000
458.221;   22.400;  336.000;  402.000
458.342;  -50.200;   -4.000;  -37.000
458.462;  115.200;  617.000;  352.000
458.582;   35.800; -302.000; -294.000
458.703;   78.100;  303.000;  154.000
458.823;    6.300;   22.000;  163.000
458.943;   79.600;  341.000;  467.000
459.063;   37.600; 1124.000;  192.000
459.183;    3.500;  328.000;  313.000
459.304;   81.000;  315.000;  517.000
459.424;  -63.300; -246.000;  -89.000
459.544;  783.900;  388.000;  764.000
459.664; 1723.300;  499.000;  506.000
459.784;  614.200; 1004.000; 1175.000
459.904;  172.500;  867.000;  744.000
460.024;  216.000;  867.000;  684.000
460.144;   57.300;  449.000;  554.000
460.264;   76.600;  515.000;  327.000
460.385; -137.800; -145.000; -119.000
460.505;  176.200;  905.000;  858.000
460.625; -114.500;  -17.000;  -68.000
460.745;   50.300;  396.000;  541.000
460.864;  -37.600;  153.000;  469.000
460.984;   79.900;  499.000;  573.000
461.104;  343.000; 1656.000; 1775.000
461.224;   93.900;  657.000;  650.000
461.344;    9.700;  431.000;  360.000
461.464;    8.800;  258.000;  513.000
461.584;   13.400;  283.000;  466.000
461.704;  -47.800;   58.000;  108.000
461.824;  -34.600;  238.000;  259.000
461.943;  -14.100;  191.000;  130.000
462.063;  -92.100;    2.000;  324.000
462.183;  125.700;  639.000;  717.000
462.303;  244.100; 1678.000; 1230.000
462.422;  151.000;  781.000;  840.000
462.542;  -26.000;  271.000;  391.000
462.662;  144.600;  353.000;  380.000
462.782;  556.500;  833.000;  572.000
462.901; 1012.400;  545.000;  717.000
463.021;  615.800; 1702.000; 1638.000
463.141;   33.400;  337.000;  770.000
463.260;   16.500;  614.000;  474.000
463.380;   88.400;  902.000;  884.000
463.499;  -21.400;  342.000;  332.000
463.619;   26.900;  581.000;  559.000
463.738;  286.500; 1644.000;  903.000
463.858;  124.200;  657.000;  811.000
463.978;  -15.000;  542.000;  396.000
464.097;  201.500;  921.000; 1114.000
464.217;  295.500; 1196.000; 1143.000
464.336;  330.800; 1068.000; 1130.000
464.455;   15.000;  328.000;  659.000
464.575;  130.600;  597.000;  602.000
464.694;  343.500; 1204.000; 1179.000
464.814;  375.000; 1190.000; 1138.000
464.933;  212.600; 1095.000; 1027.000
465.052;  277.800; 1412.000; 1054.000
465.172;  210.100;  922.000;  799.000
465.291;  357.600; 1376.000; 1320.000
465.410;   76.700;  462.000;  735.000
465.530;  256.300; 1355.000; 1310.000
465.649;  207.800; 1209.000; 1273.000
465.768;  369.200; 1673.000; 1508.000
465.888;  151.300;  941.000; 1174.000
466.007;  282.900; 1335.000; 1440.000
466.126;    8.800;  721.000;  641.000
466.245;  195.300; 1176.000; 1187.000
466.364;   90.700;  950.000; 1060.000
466.484;  195.300; 1024.000; 1213.000
466.603;  123.100; 1101.000; 1222.000
466.722;  299.100; 1490.000; 1769.000
466.841;  207.900; 1151.000; 1401.000
466.960;  126.300; 1069.000;  972.000
467.079;  330.500; 1971.000; 1786.000
467.198;  189.000; 1238.000; 1181.000
467.317;  242.700; 1768.000; 1162.000
467.436;  214.500; 1709.000; 1261.000
467.555;  301.400; 1796.000; 1746.000
467.674;  220.400; 1227.000; 1329.000
467.793;  119.500; 1376.000; 1374.000
467.912;  236.300; 1658.000; 1539.000
468.031;  347.100; 2038.000; 1930.000
468.150;  365.700; 1842.000; 1837.000
468.269;  483.400; 2313.000; 2090.000
468.388;  464.200; 2168.000; 2339.000
468.507;  604.600; 2884.000; 2903.000
468.626;  643.600; 2555.000; 2541.000
468.744;  358.800; 2018.000; 2174.000
468.863;  504.100; 2312.000; 2523.000
468.982;  273.400; 1503.000; 1555.000
469.101;  516.600; 2788.000; 2692.000
469.220;  359.200; 2333.000; 2176.000
469.338;  597.700; 2935.000; 3051.000
469.457;  454.400; 2719.000; 2545.000
469.576;  758.700; 3953.000; 3784.000
469.695;  526.600; 2877.000; 3066.000
469.813;  943.600; 4148.000; 4192.000
469.932;  842.200; 4255.000; 4485.000
470.051;  930.700; 4075.000; 4161.000
470.169; 1831.000; 4470.000; 4338.000
470.288; 3046.600; 4700.000; 4809.000
470.406; 1708.400; 5059.000; 5194.000
470.525; 1337.400; 6101.000; 5787.000
470.644; 1361.100; 6847.000; 6794.000
470.762; 1696.700; 8397.000; 7873.000
470.881; 1962.700; 8651.000; 8464.000
470.999; 2183.800; 9685.000; 9151.000
471.118; 2261.900;11174.000;10711.000

