
Integration time [ms]: 100.000
Averaging Nr. [scans]: 40
Smoothing Nr. [pixels]: 0
Data measured with spectrometer [name]: 2101012U2
Wave   ;Sample   ;Dark     ;Reference
[nm]   ;[counts] ;[counts] ;[counts] 

197.733;   61.875;  516.000;  404.000
197.879;  -80.925; -610.000; -634.000
198.025;  -45.550; -475.000; -420.000
198.171;  -63.650; -602.000; -612.000
198.317;  -31.600; -401.000; -316.000
198.463;  -46.600; -655.000; -404.000
198.609;   25.450;  181.000; -137.000
198.755;  -65.225; -644.000; -410.000
198.901;  -59.175; -505.000; -424.000
199.047;  -67.325; -615.000; -488.000
199.193;  -33.275; -230.000; -468.000
199.339;  -49.625; -222.000; -369.000
199.485;   39.875;  330.000;  271.000
199.631;   15.975;  227.000;  310.000
199.777;  -46.650; -466.000; -398.000
199.923;  -53.875; -610.000; -424.000
200.069;    0.950; -141.000;  -58.000
200.215;   46.525;  128.000;  453.000
200.361;   42.725;  243.000;  477.000
200.507;  -51.950; -600.000; -373.000
200.653;  -20.750; -371.000; -194.000
200.798;  -19.800; -215.000; -125.000
200.944;    1.700; -146.000;  -41.000
201.090;   41.150;   61.000;  222.000
201.236;  -13.425; -116.000; -158.000
201.382;  114.075;  874.000;  903.000
201.528;   -7.425;  -58.000;  -48.000
201.674;  -46.700; -386.000; -293.000
201.819;  -66.650; -540.000; -439.000
201.965;  -74.825; -699.000; -447.000
202.111;   -8.325; -273.000; -226.000
202.257;  -25.325; -250.000; -238.000
202.402;    4.800;   13.000;  -36.000
202.548;  -37.250; -169.000; -116.000
202.694;   84.850;  410.000; -183.000
202.840;  -66.850; -603.000; -531.000
202.985;  -64.075; -681.000; -639.000
203.131;  -93.850; -832.000; -666.000
203.277;  -22.775; -199.000; -262.000
203.423;  -39.625; -434.000; -520.000
203.568;  -33.550; -462.000; -237.000
203.714;  -66.200; -535.000; -542.000
203.860;  -76.575; -682.000; -641.000
204.005;   19.225;  112.000;  167.000
204.151;   81.600;  561.000;  556.000
204.296;  -44.650; -354.000; -221.000
204.442;  -59.475; -600.000; -547.000
204.588;  -78.425; -592.000; -579.000
204.733;   10.725;  178.000;  168.000
204.879; -121.975;-1018.000; -822.000
205.025;    2.775;  -99.000;  126.000
205.170;    5.850;  -17.000;   94.000
205.316;   70.775;  438.000;  661.000
205.461;  -78.475; -698.000; -554.000
205.607;   79.625;  609.000;  665.000
205.752;  -73.775; -626.000; -551.000
205.898;  -44.275; -501.000; -391.000
206.043;  -62.350; -578.000; -506.000
206.189;  -41.025; -243.000; -285.000
206.334;   75.800;  554.000;  606.000
206.480;   67.275;  409.000;  239.000
206.625;  -87.050; -529.000; -552.000
206.771;  -49.400; -451.000; -373.000
206.916;  -35.375; -210.000; -537.000
207.062;  -67.650; -545.000; -591.000
207.207;  -61.825; -546.000; -443.000
207.353;   61.500;  185.000;  460.000
207.498;   15.175;  196.000;   85.000
207.643;  -39.850; -501.000; -370.000
207.789; -118.925;-1069.000; -910.000
207.934;  -96.925; -665.000; -713.000
208.080;  -32.650; -154.000;   66.000
208.225;    5.650;  -22.000;  -57.000
208.370;  -84.075; -727.000; -619.000
208.516;  -71.900; -741.000; -487.000
208.661;  -32.450; -127.000;  -69.000
208.806;  -32.825; -165.000; -171.000
208.952; -115.300;-1044.000; -731.000
209.097;   66.600;  378.000;  349.000
209.242;  -37.625; -307.000; -382.000
209.387;   79.250;  392.000;  350.000
209.533;  -48.475; -321.000; -350.000
209.678;   88.925;  472.000;  543.000
209.823;  -51.025; -408.000; -310.000
209.969;  -97.250; -860.000; -757.000
210.114;  -98.000; -907.000; -719.000
210.259; -103.600; -939.000; -889.000
210.404;   -4.625; -171.000;  103.000
210.549;   14.125;  108.000;    3.000
210.695;  -16.025;   -3.000;  -95.000
210.840;   42.475;   94.000;   67.000
210.985;  -57.975; -484.000; -303.000
211.130;   63.150;  268.000;  406.000
211.275;   12.800;  207.000;  199.000
211.420;  -52.525; -300.000; -289.000
211.566;  -72.050; -536.000; -489.000
211.711;   22.000;  218.000;  157.000
211.856;  -55.600; -545.000; -519.000
212.001;   13.750;  151.000;   44.000
212.146;   22.650;  153.000;   49.000
212.291;  -19.200; -210.000; -186.000
212.436;  -22.600; -280.000;   -6.000
212.581;  -72.450; -685.000; -653.000
212.726;  -68.125; -487.000; -538.000
212.871;  -40.400; -552.000; -217.000
213.016; -139.225;-1172.000;-1029.000
213.161;   63.675;  406.000;  291.000
213.306;  -68.325; -435.000; -577.000
213.451;  -80.575; -778.000; -689.000
213.596;  -34.075; -455.000; -347.000
213.741;  -46.675; -448.000; -538.000
213.886;  -83.975; -498.000; -517.000
214.031;  -23.350; -294.000; -124.000
214.176;  -56.000; -408.000; -341.000
214.321;  -16.975; -296.000; -157.000
214.466;  -19.275; -163.000;  -43.000
214.611;   11.050;  -61.000;  -10.000
214.756; -107.900; -948.000; -858.000
214.901;  -34.400; -388.000; -226.000
215.046; -104.825; -797.000; -825.000
215.191;    3.800;  128.000;   35.000
215.336;  -25.650; -157.000;  -19.000
215.480;  -65.750; -684.000; -505.000
215.625;  -15.600; -175.000;  -19.000
215.770;  -78.500; -757.000; -662.000
215.915;    3.275;   -5.000;  -97.000
216.060;   -0.550; -113.000;  -21.000
216.205; -110.375; -731.000; -779.000
216.349;  -58.200; -470.000; -533.000
216.494; -122.975; -939.000; -867.000
216.639;  -89.550; -823.000; -888.000
216.784;  -72.250; -577.000; -525.000
216.929;   41.400;  392.000;  281.000
217.073;  -21.250; -244.000;  -31.000
217.218;   21.575;   78.000;  -47.000
217.363;  -82.375; -656.000; -618.000
217.507;  -85.850; -623.000; -588.000
217.652; -114.925; -845.000; -874.000
217.797;  -86.200; -708.000; -659.000
217.942;  -99.375; -856.000; -720.000
218.086;   78.675;  608.000;  539.000
218.231;  -28.475; -174.000;  -26.000
218.376;  -34.900; -337.000; -229.000
218.520;   12.600;  -41.000;   96.000
218.665;  -32.625; -338.000; -204.000
218.810;  -33.100; -275.000; -233.000
218.954;   24.400;  201.000;   35.000
219.099; -101.525; -713.000; -963.000
219.243;  -59.000; -589.000; -554.000
219.388;  -23.925; -264.000; -136.000
219.532;  -11.175; -116.000; -116.000
219.677;  -68.525; -564.000; -521.000
219.822;   12.125;   33.000;   89.000
219.966;    4.400;   17.000;  -99.000
220.111;  -32.225; -328.000;  -40.000
220.255;  -98.650; -797.000; -750.000
220.400;    1.975; -180.000; -146.000
220.544;  -71.325; -516.000; -450.000
220.689;  -57.150; -422.000; -451.000
220.833;  -17.300; -123.000;  -58.000
220.978;  -41.525; -393.000; -563.000
221.122;   15.425;  319.000;  307.000
221.267; -100.700; -906.000; -837.000
221.411;  -68.825; -478.000; -394.000
221.555;   -5.075; -104.000;  -23.000
221.700;  -35.125; -329.000; -222.000
221.844;   27.550;  255.000;  272.000
221.989;  -51.950; -328.000; -311.000
222.133;  -30.200; -289.000; -307.000
222.277;  -10.500;    5.000;   78.000
222.422;    2.150;  227.000;  113.000
222.566;  -31.475; -381.000; -214.000
222.711;  -43.150; -414.000; -479.000
222.855;  -76.525; -643.000; -586.000
222.999;  -73.300; -642.000; -717.000
223.144;  -32.875; -195.000; -194.000
223.288;   54.300;  423.000;  251.000
223.432;   32.125;  184.000;  230.000
223.576;   10.175;  152.000;  -21.000
223.721;   36.900;  364.000;  273.000
223.865;  -40.250; -472.000; -475.000
224.009;  227.175; 1673.000; 1631.000
224.153;  -85.400; -660.000; -671.000
224.298;  -70.125; -531.000; -489.000
224.442;  -27.450;  -74.000;  -33.000
224.586;   -7.850; -169.000; -106.000
224.730;  -89.900; -858.000; -670.000
224.875;  -95.025; -739.000; -688.000
225.019;    6.725;  102.000;  188.000
225.163;   41.775;  208.000;  341.000
225.307;    9.375;   97.000;  -91.000
225.451;   51.700;  360.000;  481.000
225.595;   29.350;  264.000;  176.000
225.739;  -20.925; -170.000;  -94.000
225.884;   10.500;   86.000;    5.000
226.028; -103.325; -760.000; -626.000
226.172;  -35.075; -260.000; -273.000
226.316; -119.525; -941.000; -902.000
226.460;  -79.075; -645.000; -493.000
226.604;  -57.675; -406.000; -400.000
226.748; -101.500; -836.000; -733.000
226.892;  -29.400; -227.000; -181.000
227.036;  -38.575; -537.000; -447.000
227.180;  -56.200; -551.000; -375.000
227.324;  -60.750; -561.000; -580.000
227.468; -107.525; -819.000; -717.000
227.612;    4.875;  242.000;  -28.000
227.756;  -96.950; -845.000; -698.000
227.900;   50.525;  342.000;  441.000
228.044;  -57.425; -509.000; -290.000
228.188;   55.375;  448.000;  568.000
228.332;  -86.725; -546.000; -472.000
228.476;  -20.800; -223.000; -149.000
228.620;  -35.175; -210.000; -150.000
228.764;   69.725;  431.000;  349.000
228.908;  -23.250; -155.000;   30.000
229.052;  -58.100; -615.000; -528.000
229.195;  -13.575; -172.000;   13.000
229.339;  -21.950; -235.000; -305.000
229.483;  -27.325;    5.000; -162.000
229.627;    2.700; -156.000;  139.000
229.771;  -44.750; -218.000; -294.000
229.915;    8.625;  230.000;   79.000
230.059;  -80.375; -648.000; -663.000
230.202;  -47.000; -370.000; -317.000
230.346;  -17.950; -107.000;  107.000
230.490;  -63.450; -489.000; -521.000
230.634; -101.850; -736.000; -553.000
230.777;   73.575;  478.000;  509.000
230.921;  -51.900; -450.000; -359.000
231.065;  -23.750; -246.000; -286.000
231.209;   19.750;  261.000;  265.000
231.352;   28.625;   54.000;   40.000
231.496;   15.400;  568.000;  188.000
231.640;  -84.425; -693.000; -621.000
231.783;   53.000;  546.000;  525.000
231.927;  -38.300; -294.000; -365.000
232.071; -114.400; -962.000; -736.000
232.214;  -99.625; -980.000; -764.000
232.358; -102.350; -683.000; -599.000
232.502;    8.200;  -19.000;    7.000
232.645; -129.075;-1090.000; -927.000
232.789;  -16.075; -257.000; -218.000
232.933;  -48.250; -407.000; -224.000
233.076; -122.350;-1038.000; -897.000
233.220;  -94.075; -752.000; -777.000
233.363;  -75.450; -669.000; -477.000
233.507;   50.525;  371.000;  129.000
233.650;  -89.875; -764.000; -834.000
233.794;   33.750;  438.000;  461.000
233.938;  -47.275; -530.000; -362.000
234.081;  -20.650;  -93.000;   31.000
234.225;  -60.850; -631.000; -539.000
234.368;  -99.025; -773.000; -723.000
234.512;  -38.025; -385.000; -299.000
234.655;  -95.850; -582.000; -555.000
234.798;  -64.675; -493.000; -466.000
234.942; -116.625; -884.000;-1002.000
235.085;  -71.100; -651.000; -443.000
235.229;  -70.725; -405.000; -410.000
235.372;  -50.325; -247.000; -191.000
235.516;  -68.800; -397.000; -321.000
235.659;   13.900;   92.000;  121.000
235.802;  -18.350;  -38.000;  -22.000
235.946;   32.025;  335.000;  215.000
236.089;   25.200;  126.000;  250.000
236.233;   48.325;  275.000;  298.000
236.376;  -49.500; -235.000; -378.000
236.519;  -39.600; -297.000; -319.000
236.663;   -9.425; -215.000; -117.000
236.806; -129.050;-1029.000; -999.000
236.949;   57.300;  543.000;  431.000
237.092;   46.950;  412.000;  391.000
237.236;  -89.775; -589.000; -502.000
237.379;   53.100;  352.000;  428.000
237.522; -105.150; -879.000; -768.000
237.666;   -7.525; -271.000;   18.000
237.809; -113.650; -851.000; -823.000
237.952;   20.950;  469.000;  271.000
238.095;  -57.550; -447.000; -442.000
238.238;   82.450;  688.000;  700.000
238.382;    1.150;  166.000;  103.000
238.525;  -65.150; -598.000; -511.000
238.668; -139.100;-1060.000; -985.000
238.811;  -77.275; -638.000; -643.000
238.954;  -54.225; -483.000; -334.000
239.097;  100.475;  617.000;  664.000
239.241;   37.850;  394.000;  326.000
239.384;  -28.975; -254.000; -214.000
239.527;  -67.075; -424.000; -224.000
239.670; -137.450; -994.000;-1091.000
239.813; -106.250; -696.000; -658.000
239.956;   76.100;  579.000;  473.000
240.099; -111.750; -778.000; -725.000
240.242;   54.275;  428.000;  432.000
240.385;   34.875;  466.000;  450.000
240.528;  -75.750; -706.000; -473.000
240.671;    2.850;  189.000;  134.000
240.814;  -29.500; -441.000; -158.000
240.957; -107.950; -767.000; -578.000
241.100;  -71.350; -779.000; -755.000
241.243; -139.925;-1234.000; -893.000
241.386;  -61.700; -508.000; -379.000
241.529;  -80.400; -735.000; -547.000
241.672;  -65.700; -566.000; -495.000
241.815; -115.850; -832.000; -808.000
241.958;  -26.725; -125.000; -182.000
242.101;  -78.775; -545.000; -390.000
242.244;  -25.425; -270.000; -325.000
242.387;  -48.875; -304.000; -246.000
242.530;   52.400;  470.000;  134.000
242.673;  -35.850; -381.000; -309.000
242.815; -109.600; -925.000; -899.000
242.958;  -67.225; -482.000; -381.000
243.101;    9.925;  132.000;  187.000
243.244;  -87.200; -564.000; -521.000
243.387;  -42.575; -313.000; -316.000
243.530;  -98.175; -657.000; -674.000
243.672;   -2.350;   43.000;  -92.000
243.815;  -54.775; -355.000; -283.000
243.958;   -3.675;   98.000;  -26.000
244.101;    7.800;   59.000;  -16.000
244.243;  -15.300;  -47.000;  101.000
244.386; -101.525; -761.000; -630.000
244.529;  -37.350; -132.000; -139.000
244.672; -149.850;-1154.000; -951.000
244.814;  -94.075; -621.000; -794.000
244.957;  -47.250; -380.000; -304.000
245.100;  -79.775; -489.000; -489.000
245.242;  -55.975; -387.000; -374.000
245.385;   11.125;  -59.000;  -39.000
245.528; -119.750; -871.000; -705.000
245.670;   79.975;  612.000;  634.000
245.813;  -92.175; -599.000; -547.000
245.956;  -35.525; -324.000; -275.000
246.098;  -66.675; -508.000; -650.000
246.241;   19.125;  194.000;   48.000
246.383;  -31.450; -119.000;  -73.000
246.526;  -63.750; -454.000; -525.000
246.669; -108.050; -889.000; -780.000
246.811;   28.800;  172.000;   -1.000
246.954;  -48.750; -512.000; -426.000
247.096;  -19.000;  -84.000;   -6.000
247.239;  -73.250; -482.000; -445.000
247.381;  -73.125; -647.000; -488.000
247.524;   72.450;  645.000;  679.000
247.666;  -17.750;   58.000;   11.000
247.809; -105.850; -887.000; -691.000
247.951;   -5.400;  -75.000;  138.000
248.094;   13.750;  432.000;  308.000
248.236; -156.775;-1262.000;-1238.000
248.378;  -23.600; -356.000;  -81.000
248.521;  -42.775; -334.000; -337.000
248.663;  -42.475; -236.000; -267.000
248.806;  -29.850; -300.000; -266.000
248.948; -109.050; -886.000; -763.000
249.090;  -57.675; -428.000; -398.000
249.233;  -59.000; -344.000; -381.000
249.375;  -55.300; -474.000; -451.000
249.518;  -34.625;  -83.000; -133.000
249.660;   -0.325; -103.000;    3.000
249.802; -174.575;-1303.000;-1189.000
249.945;  -76.050; -612.000; -540.000
250.087; -110.150; -834.000; -768.000
250.229;  -49.850; -362.000; -480.000
250.371;  -81.700; -494.000; -439.000
250.514;  -50.125; -310.000; -244.000
250.656;  -55.000;   69.000;  102.000
250.798; -105.150; -849.000; -800.000
250.940;  -69.425; -322.000; -322.000
251.083;  -37.650; -335.000; -111.000
251.225;   49.550;  338.000;  310.000
251.367;  -39.675; -274.000; -373.000
251.509;  -40.150; -265.000; -210.000
251.651;  -93.275; -731.000; -671.000
251.794;   46.750;  538.000;  632.000
251.936; -104.350; -821.000; -747.000
252.078;  -69.725; -540.000; -461.000
252.220;  -63.700; -645.000; -477.000
252.362;   39.950;  344.000;  462.000
252.504;  -74.550; -677.000; -584.000
252.646; -107.000; -875.000; -722.000
252.788;  -13.125;   14.000; -128.000
252.931;  -49.675; -257.000; -253.000
253.073;  -46.725; -376.000; -317.000
253.215;   -4.875;  141.000;  122.000
253.357;  -11.525;   82.000; -153.000
253.499;  -43.400; -374.000; -234.000
253.641;  -86.775; -749.000; -594.000
253.783;  -89.250; -609.000; -527.000
253.925;  -89.900; -586.000; -591.000
254.067; -103.050; -744.000; -667.000
254.209;  -32.300; -391.000; -259.000
254.351; -131.000; -865.000; -883.000
254.493;  -57.000; -441.000; -417.000
254.635; -132.450; -936.000; -818.000
254.777;  -86.975; -752.000; -687.000
254.918;  -56.625; -512.000; -430.000
255.060;  -68.650; -551.000; -395.000
255.202;  -64.800; -473.000; -261.000
255.344;  -71.100; -658.000; -455.000
255.486;  -68.150; -471.000; -406.000
255.628; -100.725; -780.000; -781.000
255.770;  -83.100; -676.000; -536.000
255.912;  -68.725; -559.000; -468.000
256.053;  -93.975; -730.000; -508.000
256.195;  146.825; 1008.000;  903.000
256.337; -116.650; -861.000; -595.000
256.479;   43.650;  532.000;  416.000
256.621;  -38.725; -394.000; -212.000
256.762;  -92.300; -789.000; -742.000
256.904;   48.725;  485.000;  487.000
257.046;  -39.250; -381.000; -271.000
257.188;  -42.525; -351.000; -264.000
257.329;  -62.200; -525.000; -464.000
257.471; -111.100; -939.000; -807.000
257.613;  -70.550; -584.000; -498.000
257.755; -140.550;-1073.000; -982.000
257.896;   33.475;  286.000;  392.000
258.038;  -63.075; -403.000; -352.000
258.180;  -38.900; -354.000; -279.000
258.321;  -78.675; -581.000; -457.000
258.463;   -6.825;  -71.000;  133.000
258.605; -101.450; -562.000; -570.000
258.746;  -96.925; -886.000; -772.000
258.888; -141.850;-1026.000;-1020.000
259.029;    3.175;  121.000;   -8.000
259.171;  -76.050; -614.000; -550.000
259.313;  -12.225;  -49.000;  -47.000
259.454;  -75.475; -536.000; -414.000
259.596;  -51.775; -483.000; -390.000
259.737;  -75.200; -590.000; -474.000
259.879;   50.300;  217.000;  311.000
260.020;   69.675;  901.000;  636.000
260.162;  -34.275; -146.000; -253.000
260.303; -102.375; -768.000; -687.000
260.445;  -79.675; -609.000; -613.000
260.586;   13.200;  392.000;  157.000
260.728;  -48.575; -360.000; -248.000
260.869;  -72.650; -350.000; -343.000
261.011;   81.175;  706.000;  537.000
261.152;  -57.925; -479.000; -319.000
261.293;  -81.000; -576.000; -595.000
261.435;  -44.050; -219.000; -184.000
261.576;  -49.950; -455.000; -325.000
261.718;   40.550;  420.000;  470.000
261.859; -122.100; -940.000; -949.000
262.000; -127.825; -951.000;-1016.000
262.142;  -23.975;  -52.000;  -60.000
262.283; -115.725; -808.000; -691.000
262.424;  -78.875; -666.000; -625.000
262.566; -148.150;-1161.000; -983.000
262.707; -103.275; -840.000; -830.000
262.848; -112.375; -769.000; -726.000
262.990;  -38.175; -362.000; -345.000
263.131;   65.700;  650.000;  681.000
263.272;  -20.225;  -61.000;  -41.000
263.413; -101.425; -589.000; -561.000
263.555;  -60.350; -669.000; -143.000
263.696;  -81.725; -550.000; -641.000
263.837;  -34.450; -449.000; -551.000
263.978;  -12.075;   -5.000;  -77.000
264.119;  -50.725; -283.000; -264.000
264.261; -106.400; -847.000; -630.000
264.402;   -5.550;   33.000;   40.000
264.543;  -79.325; -509.000; -524.000
264.684;  -18.925;   61.000;  -50.000
264.825;  -94.850; -816.000; -538.000
264.966;  -14.800;  -84.000;  -67.000
265.107; -105.875; -646.000; -670.000
265.248; -110.075; -825.000; -812.000
265.390;  -11.175;  152.000;   -9.000
265.531;  -24.500; -238.000; -107.000
265.672;  -79.825; -557.000; -630.000
265.813;   56.950;  563.000;  439.000
265.954; -131.950; -959.000; -940.000
266.095;  -14.175; -372.000; -322.000
266.236;  -81.775; -686.000; -548.000
266.377;  -28.900; -243.000; -297.000
266.518;  -72.300; -619.000; -547.000
266.659;   21.350;  170.000;  268.000
266.800;   -7.950;   83.000;   85.000
266.941;  -65.975; -487.000; -478.000
267.082;    6.275;  354.000;   99.000
267.223;  -57.600; -344.000; -273.000
267.364; -108.450; -892.000; -686.000
267.504;  -16.875;    3.000;  135.000
267.645;   -8.100;  160.000;   67.000
267.786;  -45.375; -147.000;  -86.000
267.927;  -71.600; -473.000; -379.000
268.068;  -26.975; -186.000;  -61.000
268.209;  -44.650; -175.000; -413.000
268.350;  -39.325; -388.000; -532.000
268.490;  -86.125; -648.000; -521.000
268.631;   29.025;  127.000;  225.000
268.772; -113.500; -874.000; -647.000
268.913;  -55.675; -328.000; -476.000
269.054;  -21.250; -117.000;   12.000
269.194;  -46.500; -418.000; -402.000
269.335; -150.675;-1137.000;-1074.000
269.476;   -3.650;   33.000;  -35.000
269.617;  -50.775; -347.000; -392.000
269.757;  -88.775; -713.000; -646.000
269.898;  -97.550; -856.000; -613.000
270.039;  -63.175; -415.000; -405.000
270.180; -126.975; -952.000; -816.000
270.320;  -27.900; -190.000; -250.000
270.461;  -40.025; -277.000; -249.000
270.602;  -20.600; -186.000; -156.000
270.742; -118.650; -868.000; -943.000
270.883;  -59.025; -442.000; -390.000
271.023;  -54.175; -358.000; -357.000
271.164;  -74.875; -607.000; -528.000
271.305;  -98.075; -666.000; -654.000
271.445;  -86.275; -722.000; -683.000
271.586;  -67.400; -462.000; -283.000
271.726;  -56.425; -397.000; -322.000
271.867;  -63.875; -594.000; -534.000
272.008;   56.850; -473.000; -285.000
272.148;   80.475;  462.000;  468.000
272.289;   -9.000; -113.000; -181.000
272.429;   -3.050;   19.000;  185.000
272.570; -105.800; -633.000; -737.000
272.710; -115.975; -825.000; -775.000
272.851;  -25.950;  113.000; -130.000
272.991; -146.800;-1173.000;-1077.000
273.131;  -66.450; -419.000; -459.000
273.272;  -92.050; -683.000; -723.000
273.412;  -14.250; -143.000;  -31.000
273.553;  -64.550; -488.000; -507.000
273.693;  113.575;  913.000;  858.000
273.834; -108.900; -894.000; -692.000
273.974;  -86.800; -664.000; -615.000
274.114; -102.225; -772.000; -560.000
274.255;   42.125;  414.000;  373.000
274.395;  -24.950; -180.000; -125.000
274.535;   27.300;  199.000;  350.000
274.676;   22.575;  225.000;   94.000
274.816;   -9.500;  110.000;   34.000
274.956;  -89.900; -624.000; -690.000
275.097; -100.900;-1014.000; -922.000
275.237; -124.500; -913.000; -803.000
275.377;  -96.475; -778.000; -689.000
275.517; -138.050; -878.000; -937.000
275.658;  -77.125; -590.000; -555.000
275.798;  -70.475; -606.000; -413.000
275.938;   16.050;  215.000;  323.000
276.078;  -87.250; -626.000; -395.000
276.218;    6.375;   99.000;  104.000
276.359; -138.750;-1026.000;-1024.000
276.499;  -65.750; -605.000; -446.000
276.639;  -33.800; -305.000; -151.000
276.779;  -52.775; -475.000; -357.000
276.919;  -92.300; -783.000; -624.000
277.059;  -25.200; -261.000; -212.000
277.199;  -61.800; -357.000; -259.000
277.340;   26.275;  287.000;  175.000
277.480; -117.350; -840.000; -693.000
277.620;   16.425;  192.000;   16.000
277.760; -181.650;-1533.000;-1294.000
277.900;   -2.800;  113.000;   33.000
278.040;  -24.900;  137.000;  159.000
278.180;   22.725;  270.000;  170.000
278.320;   -0.700;   21.000;   56.000
278.460;  -68.925; -443.000; -469.000
278.600;  -83.250; -708.000; -598.000
278.740;   39.075;  448.000;  224.000
278.880; -102.700; -768.000; -791.000
279.020;  -22.150; -194.000; -144.000
279.160;  -89.975; -672.000; -595.000
279.300; -111.450; -926.000; -873.000
279.440;  -93.200; -709.000; -622.000
279.579;  -85.100;-1014.000; -929.000
279.719;  -61.375; -410.000; -394.000
279.859;   31.875;   -4.000;   41.000
279.999;   -4.000; -208.000;  101.000
280.139;  -48.700; -435.000; -387.000
280.279;  -85.775; -708.000; -745.000
280.419;  -19.425; -229.000; -147.000
280.559;  -28.300; -259.000; -180.000
280.698;  -99.475; -790.000; -639.000
280.838;  -96.725; -778.000; -800.000
280.978;  -83.600; -846.000; -790.000
281.118; -115.375; -811.000; -704.000
281.257;   14.175;   24.000;    6.000
281.397; -142.100;-1094.000; -960.000
281.537;  -84.025; -599.000; -712.000
281.677;   -9.125; -150.000; -101.000
281.816;  -86.325; -700.000; -630.000
281.956;  -33.875; -193.000; -257.000
282.096;  -67.250; -539.000; -396.000
282.235; -100.300; -672.000; -638.000
282.375;  -20.150; -243.000;  -98.000
282.515;  -80.950; -715.000; -707.000
282.654;   15.725;   29.000;  106.000
282.794;   22.775;  388.000;  244.000
282.934;  -54.925; -530.000; -491.000
283.073; -127.550;-1030.000; -857.000
283.213;  -42.625; -460.000; -467.000
283.353;  -62.100; -408.000; -349.000
283.492;  -24.725; -264.000; -296.000
283.632;  -45.100; -254.000; -168.000
283.771; -101.750; -859.000; -730.000
283.911;  -61.850; -369.000; -260.000
284.050;  -95.400; -794.000; -748.000
284.190; -156.650;-1229.000;-1096.000
284.329; -127.300;-1055.000; -964.000
284.469;  -81.400; -516.000; -591.000
284.608;  -65.150; -559.000; -598.000
284.748;  -74.600; -614.000; -570.000
284.887;    5.175;  -87.000;  -20.000
285.027; -125.400; -844.000; -892.000
285.166;  -18.875; -192.000; -249.000
285.306;   -2.175; -116.000;  -33.000
285.445;  -42.225; -229.000; -343.000
285.584;  -95.950; -630.000; -494.000
285.724;  -35.475; -282.000; -322.000
285.863; -105.175; -857.000; -507.000
286.002;  -44.175; -366.000; -276.000
286.142;  -98.375; -715.000; -622.000
286.281;  -64.150; -525.000; -493.000
286.420;  -70.325; -554.000; -417.000
286.560;   91.075;  653.000;  623.000
286.699; -131.225; -958.000; -912.000
286.838;  -77.850; -590.000; -591.000
286.978;  -87.725; -533.000; -537.000
287.117; -119.250;-1085.000; -950.000
287.256;  -34.100; -228.000; -211.000
287.395;  -37.800; -197.000; -378.000
287.535;  -45.600; -370.000; -298.000
287.674;  -80.150; -509.000; -484.000
287.813;   40.550;  661.000;  533.000
287.952; -112.825;-1010.000; -871.000
288.091; -129.350;-1049.000; -915.000
288.231;    2.525;   13.000;   15.000
288.370; -166.250;-1217.000;-1200.000
288.509;  -68.375; -728.000; -645.000
288.648;  -76.675; -770.000; -548.000
288.787;  -37.150; -243.000;  -87.000
288.926;  -71.700; -454.000; -475.000
289.065;   94.925;  859.000;  672.000
289.204;  -59.950; -377.000; -217.000
289.344;  -91.625; -791.000; -690.000
289.483;   22.950;  416.000;  304.000
289.622;  -25.750; -291.000; -149.000
289.761;  -20.225; -309.000; -166.000
289.900;  -78.475; -785.000; -626.000
290.039;  -25.100;  -12.000;  -95.000
290.178;  -54.575; -274.000; -180.000
290.317;  -73.700; -618.000; -479.000
290.456;  -63.125; -463.000; -451.000
290.595; -112.650; -961.000; -833.000
290.734; -129.350; -904.000; -891.000
290.873;  -65.150; -456.000; -420.000
291.011; -101.375; -833.000; -843.000
291.150;  -96.450; -770.000; -682.000
291.289;  -30.475; -343.000; -110.000
291.428;  -84.975; -599.000; -480.000
291.567;  -50.075; -370.000; -442.000
291.706;    6.200;  109.000;  154.000
291.845;  -85.300; -597.000; -505.000
291.984; -158.025;-1234.000;-1061.000
292.122;   69.900;  602.000;  582.000
292.261;   41.850;  620.000;  463.000
292.400;   13.425; -144.000;  211.000
292.539; -129.825; -959.000; -813.000
292.678;  -39.650; -325.000; -300.000
292.816; -143.850;-1136.000; -965.000
292.955; -107.425; -844.000; -684.000
293.094;  -21.350; -173.000; -337.000
293.233;  -48.150; -556.000; -400.000
293.371;  -48.625; -225.000;  -84.000
293.510;  -96.725; -866.000; -780.000
293.649; -128.175; -959.000; -924.000
293.787; -112.600;-1083.000;-1012.000
293.926;  -19.225; -113.000;  -32.000
294.065;  -39.125; -379.000; -290.000
294.203;   43.000;  298.000;  406.000
294.342;   25.625;   74.000;  156.000
294.481; 5166.250;51180.000; -836.000
294.619;  -34.975; -425.000; -582.000
294.758; -144.975;-1230.000;-1137.000
294.896;   15.675; -125.000;    5.000
295.035; -129.500;-1040.000;-1006.000
295.174; -117.750;-1082.000; -954.000
295.312;  -36.050; -323.000; -203.000
295.451;  -34.000; -307.000; -428.000
295.589;  -66.675; -389.000; -518.000
295.728;    5.400; -292.000; -165.000
295.866;    0.025;  -36.000;  -51.000
296.005;  -53.550; -584.000; -341.000
296.143;  -72.000; -558.000; -596.000
296.282;  -91.750; -957.000; -881.000
296.420;  -78.800; -657.000; -557.000
296.559;  -79.325; -892.000; -633.000
296.697;  -43.175; -847.000; -665.000
296.835;  -75.525;-1141.000;-1002.000
296.974;   19.350;  -23.000;   39.000
297.112;  -30.450; -443.000; -504.000
297.251;  -84.850; -815.000; -755.000
297.389;   -5.150; -576.000; -438.000
297.527;   12.825; -145.000;  -83.000
297.666;  -52.525; -486.000; -438.000
297.804;  -47.450; -404.000; -264.000
297.942;    2.725; -136.000; -161.000
298.081;   -0.125; -183.000;   63.000
298.219;   20.125;  -17.000;  -19.000
298.357;    2.925; -144.000;  -71.000
298.495;  -48.950; -810.000; -812.000
298.634;   16.775;  245.000;  219.000
298.772;  -12.250; -220.000; -338.000
298.910;  -45.175; -309.000; -182.000
299.048;  -18.375; -130.000; -153.000
299.187;  -42.750; -350.000; -250.000
299.325;   -3.125;   52.000;  122.000
299.463;  -13.500; -389.000; -299.000
299.601;   -7.725; -327.000; -271.000
299.739; -123.625; -908.000; -883.000
299.877;  -90.475; -791.000; -703.000
300.016;  -94.525;-1095.000; -935.000
300.154;   56.725;  -19.000; -161.000
300.292;  -20.375; -428.000; -348.000
300.430;  -18.600; -408.000; -291.000
300.568; -122.525; -940.000; -874.000
300.706;  -54.475; -366.000; -469.000
300.844; -113.900;-1108.000; -979.000
300.982;   63.650;  246.000;  282.000
301.120; -109.000; -965.000; -866.000
301.258;  -78.875; -812.000; -705.000
301.396;    2.650;  104.000;  -41.000
301.534;  -11.275; -218.000; -293.000
301.672;  -72.850; -664.000; -521.000
301.810;  -59.375; -613.000; -545.000
301.948;   38.025;   53.000;  149.000
302.086;  233.000; -250.000;  -32.000
302.224;  270.150; -610.000; -585.000
302.362;  -57.200; -558.000; -622.000
302.500;  -97.075; -923.000; -893.000
302.638;   26.675;  128.000;  245.000
302.776;  -21.850; -352.000; -408.000
302.913;   56.675;  447.000;  236.000
303.051;  -32.550;  -86.000;  -23.000
303.189;   36.000;   90.000;  118.000
303.327;  -33.500; -341.000; -256.000
303.465;  -76.375; -832.000; -588.000
303.603;  -93.800; -805.000; -604.000
303.740;   59.000;  417.000;  241.000
303.878;  -65.600; -800.000; -759.000
304.016; -107.625; -915.000; -790.000
304.154; -132.875;-1123.000;-1152.000
304.291;  -53.975; -505.000; -554.000
304.429;    4.900;  102.000;   74.000
304.567; -131.775; -908.000; -893.000
304.705;  -50.325; -408.000; -515.000
304.842;  -16.975; -616.000; -540.000
304.980;   20.800;  215.000;   35.000
305.118;  -10.250; -367.000; -365.000
305.255; -116.575; -945.000; -927.000
305.393;   36.075;  178.000;  239.000
305.531; -133.525;-1173.000; -956.000
305.668;  -78.625; -663.000; -582.000
305.806;    1.550; -358.000; -439.000
305.943;   -3.950; -629.000; -637.000
306.081;   -6.525; -378.000; -267.000
306.219; -104.750; -863.000; -748.000
306.356;   17.125;  158.000;   27.000
306.494;  135.225;  981.000;  761.000
306.631;   20.700;  -11.000;  -55.000
306.769;   20.200; -613.000; -485.000
306.906;   -8.675; -284.000; -258.000
307.044;  -44.325; -473.000; -488.000
307.181;  -54.475; -410.000; -332.000
307.319;   20.525;  112.000;   87.000
307.456; -156.425;-1191.000;-1153.000
307.594; -101.500; -980.000; -727.000
307.731;  -19.650; -371.000; -164.000
307.868;    9.875;  -15.000;   20.000
308.006; -121.525; -961.000; -847.000
308.143;  -55.625; -618.000; -330.000
308.281;   56.800;  -37.000; -254.000
308.418;  -23.425; -748.000; -640.000
308.555;  -63.775; -400.000; -250.000
308.693;  -47.450; -577.000; -573.000
308.830;  -84.025; -712.000; -657.000
308.967;    3.525; -215.000;  -95.000
309.105;   -8.950; -507.000; -396.000
309.242;   15.650; -468.000; -367.000
309.379;   87.425; -577.000; -655.000
309.517;  -72.400; -936.000; -948.000
309.654;  -59.600; -910.000; -734.000
309.791;  -40.225; -662.000; -580.000
309.928;  -97.250; -977.000; -914.000
310.065;  149.675;  819.000;  697.000
310.203;  -63.025; -825.000; -850.000
310.340;   -9.300; -465.000; -321.000
310.477;  -58.200; -412.000; -516.000
310.614;  -45.825; -383.000; -473.000
310.751;  -36.675; -427.000; -518.000
310.889;   -8.450;    1.000;   11.000
311.026; -138.275;-1161.000; -939.000
311.163;  -21.625; -386.000; -380.000
311.300;  -62.175; -512.000; -479.000
311.437;  -38.750; -658.000; -619.000
311.574; -121.250;-1226.000; -985.000
311.711;  -52.650; -595.000; -433.000
311.848;  -17.300; -380.000; -388.000
311.985;   27.450;  270.000;   93.000
312.122;  -96.300; -932.000; -762.000
312.259;  -88.675; -941.000; -994.000
312.396;  -54.000; -508.000; -551.000
312.533;  -58.550; -812.000; -790.000
312.670;  -94.400;-1070.000; -898.000
312.807;   -9.800; -352.000; -367.000
312.944;  -38.600; -513.000; -611.000
313.081;    6.625; -150.000; -415.000
313.218;  -59.150;-1111.000; -867.000
313.355;    5.650; -531.000; -449.000
313.492;    3.375; -455.000; -292.000
313.629;  132.750;  815.000;  735.000
313.766; -129.625;-1176.000;-1008.000
313.902;   10.050; -186.000;   21.000
314.039;  -32.200; -372.000; -289.000
314.176;   42.700;  286.000;  192.000
314.313;  -79.925; -569.000; -473.000
314.450;  -53.075; -788.000; -684.000
314.587;  -42.475; -468.000; -480.000
314.723;   34.325;  -78.000;  130.000
314.860;   54.650;  318.000;  332.000
314.997;   46.900;  223.000;  142.000
315.134;   -6.000; -385.000; -368.000
315.270;   -4.925; -480.000; -496.000
315.407;  -89.300;-1094.000; -967.000
315.544;  -34.850; -657.000; -538.000
315.681;  -43.275; -681.000; -565.000
315.817;   62.400; -133.000; -176.000
315.954;   66.150; -613.000; -392.000
316.091;  -93.375;-1045.000;-1023.000
316.227;  -19.500;  -71.000; -179.000
316.364;   13.050;   23.000;    6.000
316.500;  -31.250; -113.000; -300.000
316.637;  -48.650; -181.000; -302.000
316.774;  -71.325; -625.000; -358.000
316.910;  -78.375; -598.000; -629.000
317.047;  -49.700; -487.000; -351.000
317.183;  -50.875; -435.000; -566.000
317.320;   33.175; -367.000; -321.000
317.456;  -24.875; -733.000; -805.000
317.593;  -65.425; -598.000; -641.000
317.729;    2.400;  168.000;  -67.000
317.866; -183.425;-1434.000;-1285.000
318.002;  -91.075; -708.000; -948.000
318.139; -110.425; -883.000; -867.000
318.275; -118.925;-1003.000; -738.000
318.412;  -60.950; -517.000; -336.000
318.548;  -63.050; -751.000; -720.000
318.685; -106.400; -985.000; -888.000
318.821;  -80.450; -762.000; -735.000
318.957;  -23.150;   34.000;  -23.000
319.094;   34.850;  297.000;  154.000
319.230;  -87.350; -756.000; -742.000
319.367;   20.450; -471.000; -520.000
319.503;  -22.775; -538.000; -436.000
319.639;  -99.650; -877.000; -793.000
319.775;  -87.125; -750.000; -685.000
319.912;  -47.225; -424.000; -519.000
320.048;  -92.850;-1184.000;-1184.000
320.184;   83.200;   59.000;   70.000
320.321;  -44.450; -497.000; -467.000
320.457;   77.275;  475.000;  662.000
320.593;  -65.150; -375.000; -382.000
320.729; -104.025; -732.000; -734.000
320.866;  -62.900; -577.000; -635.000
321.002;  -89.300; -759.000; -809.000
321.138;  -40.575; -135.000; -211.000
321.274;   19.200; -148.000; -115.000
321.410;  -49.975; -585.000; -353.000
321.546;  -95.325;-1011.000; -911.000
321.683;   29.325;  400.000;  185.000
321.819;   -9.250;  -48.000; -117.000
321.955; -105.000; -743.000; -722.000
322.091;  -56.450; -585.000; -540.000
322.227;  -35.050; -382.000; -202.000
322.363;  -43.300; -320.000; -215.000
322.499;  -50.425; -343.000; -331.000
322.635;   92.450;  636.000;  443.000
322.771;  -12.425; -139.000;   12.000
322.907;   56.100;  129.000;  327.000
323.043;  -47.550; -115.000; -206.000
323.179;  -53.275; -394.000; -363.000
323.315;  -35.575; -401.000; -371.000
323.451;   24.925; -328.000; -236.000
323.587;   46.500;  -60.000;  -77.000
323.723;  -37.775; -682.000; -601.000
323.859;  -24.225; -258.000;  -76.000
323.995;  -53.950; -467.000; -409.000
324.131; -128.050; -967.000; -892.000
324.267;  -46.850; -254.000; -276.000
324.402; -127.525; -960.000; -983.000
324.538;  -47.000; -279.000; -104.000
324.674;    2.225;  164.000;   77.000
324.810;   60.575;  226.000;  308.000
324.946;  -47.625; -810.000; -658.000
325.082;  -67.725; -568.000; -475.000
325.217;  -22.350;  -62.000;   16.000
325.353; -106.100; -764.000; -659.000
325.489;  -80.975; -540.000; -506.000
325.625;  -60.400; -579.000; -525.000
325.760;   79.575;  517.000;  376.000
325.896;   17.875; -515.000; -702.000
326.032;  -48.500; -403.000; -352.000
326.168;  -61.200; -462.000; -369.000
326.303;  -57.475; -352.000; -461.000
326.439;  -19.325; -336.000; -276.000
326.575;   -0.575; -190.000;  -29.000
326.710;  -17.900; -156.000;  -30.000
326.846;  -12.850;  146.000;  103.000
326.982;  -97.100; -530.000; -548.000
327.117;  -73.875; -481.000; -442.000
327.253;  -81.725; -745.000; -742.000
327.388; -158.875;-1137.000;-1153.000
327.524;  -85.050; -811.000; -578.000
327.659;  -22.925;  -58.000;  -22.000
327.795;   -4.050;   69.000;   45.000
327.931;  -74.725; -723.000; -499.000
328.066;  -25.000; -417.000; -276.000
328.202;  -41.625;   12.000; -129.000
328.337;  101.725;  957.000;  713.000
328.473;   29.600;  -12.000;  -74.000
328.608;  -21.200; -256.000; -267.000
328.743;  -95.225; -799.000; -664.000
328.879;   13.700;  214.000;  114.000
329.014;  -42.250; -102.000; -122.000
329.150;  -63.275; -358.000; -483.000
329.285;  -82.150; -465.000; -466.000
329.421;  -47.825; -548.000; -246.000
329.556;   -6.325;  -36.000;   85.000
329.691;  -88.225; -633.000; -615.000
329.827;  -76.425; -626.000; -480.000
329.962;  -25.625;  131.000; -301.000
330.097;  -66.275; -673.000; -585.000
330.233;  -34.525; -410.000; -223.000
330.368; -109.225; -839.000; -628.000
330.503;  -12.325;    3.000;   98.000
330.638;  -15.500;  -93.000; -125.000
330.774;  -80.075; -609.000; -530.000
330.909;  -47.975; -434.000; -244.000
331.044;  -78.875; -714.000; -708.000
331.179; -169.025;-1217.000;-1109.000
331.315;   10.600;   77.000;   20.000
331.450;    9.500;  157.000;  285.000
331.585;  -79.775; -805.000; -706.000
331.720;  -83.500; -510.000; -460.000
331.855;    2.750;  -35.000; -102.000
331.990;  420.150;   62.000;  138.000
332.126;  209.300; -110.000;   71.000
332.261;   12.200; -379.000; -265.000
332.396;   25.225; -135.000; -242.000
332.531;  -58.650;-1074.000;-1031.000
332.666;   94.725; -519.000; -363.000
332.801;  -86.400; -726.000; -807.000
332.936;  -19.300; -192.000; -122.000
333.071; -132.650; -870.000; -817.000
333.206;    7.300;  307.000;  379.000
333.341;   19.100;  344.000;  418.000
333.476;  -86.900; -627.000; -623.000
333.611;  -31.075; -251.000; -173.000
333.746;  -43.700; -381.000; -464.000
333.881; -110.800; -973.000; -935.000
334.016; -125.975; -936.000; -917.000
334.151; -108.000; -746.000; -702.000
334.286;   25.475;  152.000;  186.000
334.421;   -5.675; -125.000; -178.000
334.556;  -71.000; -611.000; -567.000
334.690;  -54.300; -631.000; -577.000
334.825;   50.300;  381.000;   83.000
334.960;  -54.025; -285.000; -413.000
335.095;   10.800;  135.000;  -91.000
335.230;  -73.200; -722.000; -738.000
335.365; -127.275;-1084.000; -990.000
335.499; -113.850;-1108.000;-1037.000
335.634;   30.375;    9.000;  534.000
335.769;  -90.025; -755.000; -720.000
335.904;  -44.600; -603.000; -561.000
336.038;  -21.225; -735.000; -657.000
336.173;  -88.550;-1206.000;-1194.000
336.308;   43.700; -116.000; -189.000
336.443;   72.950; -544.000; -634.000
336.577;  -37.275; -936.000; -787.000
336.712;   99.900;   -4.000;  -12.000
336.847;    2.150; -724.000; -607.000
336.981;  101.850; -272.000; -208.000
337.116;  341.750;  615.000;  501.000
337.250;  153.725; -434.000; -421.000
337.385;  407.750; -297.000; -208.000
337.520;  199.750; -632.000; -603.000
337.654;  -35.475; -215.000; -126.000
337.789; -124.825; -989.000; -933.000
337.923;  -42.925; -104.000; -205.000
338.058;  -99.950; -673.000; -738.000
338.192;  -54.150; -611.000; -488.000
338.327;    0.700;  -18.000; -155.000
338.461;  -66.700; -299.000; -469.000
338.596;  -95.675; -780.000; -638.000
338.730;  -84.700; -767.000; -803.000
338.865;  139.050;  -46.000; -140.000
338.999;   13.950; -846.000; -702.000
339.134;    1.975; -634.000; -536.000
339.268;   35.950; -741.000; -603.000
339.403;  553.425; -740.000; -775.000
339.537;  263.825; -894.000; -820.000
339.671; -100.900; -829.000; -813.000
339.806;  -32.100; -556.000; -512.000
339.940;   24.875; -261.000; -235.000
340.074;  -91.650; -685.000; -510.000
340.209;  -44.475; -351.000; -230.000
340.343;  -80.700; -517.000; -573.000
340.477;  116.900;  998.000; 1036.000
340.612;   -3.350;-1033.000; -900.000
340.746;  215.425; -199.000; -243.000
340.880;  -88.925; -924.000; -785.000
341.014;  -18.625;  -45.000; -154.000
341.149; -112.525; -756.000; -718.000
341.283; -102.975; -839.000; -754.000
341.417; -124.550;-1124.000; -938.000
341.551;  -10.925; -768.000; -708.000
341.685;  -53.850; -633.000; -611.000
341.820;  -32.900; -562.000; -493.000
341.954;  -51.525; -218.000; -349.000
342.088; -150.025;-1102.000;-1019.000
342.222;   48.200;  565.000;  618.000
342.356;  -68.575; -395.000; -335.000
342.490; -113.650; -880.000; -841.000
342.624;  -58.800; -339.000; -242.000
342.758;  -51.925; -364.000; -312.000
342.892;  -82.950; -710.000; -585.000
343.026;  -41.100;  -58.000; -116.000
343.160;  -50.625; -426.000; -376.000
343.294;  -92.625; -474.000; -337.000
343.428;  -58.250; -488.000; -448.000
343.562;  -37.525; -172.000;  -23.000
343.696;  -34.125; -385.000; -314.000
343.830;  -56.675; -362.000; -356.000
343.964;  -29.775; -231.000; -168.000
344.098;  344.250;  199.000;   70.000
344.232;  290.200; -266.000; -127.000
344.366;   75.025; -567.000; -453.000
344.500;  -33.300; -665.000; -744.000
344.634;  -33.925; -324.000; -164.000
344.768;  -46.850; -531.000; -341.000
344.902;    0.300;  278.000;  256.000
345.035;  -83.275; -556.000; -496.000
345.169; -120.400; -933.000; -656.000
345.303;  -52.150; -308.000; -482.000
345.437;  -96.075; -826.000; -717.000
345.571;  -63.750; -675.000; -594.000
345.704;  -65.500; -309.000; -532.000
345.838;  -21.000; -331.000; -284.000
345.972;  -56.900; -543.000; -495.000
346.106;  245.300; -179.000; -190.000
346.239;  468.075; -312.000; -243.000
346.373;   -1.800; -343.000; -302.000
346.507; -133.350; -950.000; -962.000
346.640;   47.400;  -30.000;   13.000
346.774;  -93.325; -650.000; -797.000
346.908;  -16.200; -138.000;  -11.000
347.041;  -95.625; -646.000; -593.000
347.175;  -17.125;  259.000;   27.000
347.309;  -97.250; -698.000; -628.000
347.442; -115.000; -883.000; -732.000
347.576;  141.625;  670.000;  668.000
347.709;   57.175; -123.000;  -52.000
347.843; -120.150; -933.000; -825.000
347.976;   23.100;  235.000;  294.000
348.110; -176.000;-1268.000;-1186.000
348.243;  -98.400; -679.000; -772.000
348.377;   11.850;  -26.000;   60.000
348.510;   48.250;  403.000;  540.000
348.644;  -50.100;  -37.000; -159.000
348.777;   -4.475;  180.000;  191.000
348.911;  -35.950; -142.000; -112.000
349.044;   82.650;  471.000;  448.000
349.178;  -11.375;-1069.000;-1006.000
349.311;  107.650;  141.000;  255.000
349.444;   29.850; -927.000; -813.000
349.578;  -21.525; -347.000; -200.000
349.711; -119.375; -959.000; -862.000
349.845;  -53.950; -661.000; -591.000
349.978; -152.875;-1224.000;-1137.000
350.111;  -81.600; -546.000; -612.000
350.244;  -94.900; -596.000; -700.000
350.378;  -48.175; -392.000; -393.000
350.511;  -67.400; -393.000; -426.000
350.644;  -99.875; -808.000; -806.000
350.778;   20.700;  168.000;  104.000
350.911;    1.425;  134.000;  140.000
351.044; -101.925; -685.000; -615.000
351.177;  -41.500; -321.000; -281.000
351.310;  -25.350;    3.000; -131.000
351.444; -102.900; -888.000; -788.000
351.577;   42.900;  140.000;   90.000
351.710;   75.725;  593.000;  417.000
351.843;  -30.200; -165.000;  -77.000
351.976;   -3.200;  149.000;  -79.000
352.109;  -90.850; -621.000; -612.000
352.242;  -55.300; -464.000; -419.000
352.376;  -71.900; -580.000; -636.000
352.509;   35.550; -437.000; -356.000
352.642;  -87.075; -654.000; -604.000
352.775;   20.250; -141.000;  -98.000
352.908; -109.500; -933.000; -904.000
353.041; -107.575; -814.000; -824.000
353.174;  -59.900; -551.000; -424.000
353.307; -100.250; -753.000; -764.000
353.440;   64.350;  541.000;  453.000
353.573;  -85.475; -957.000;-1008.000
353.706;  -43.775; -384.000; -558.000
353.839;  -23.225; -264.000; -220.000
353.971;  -88.850; -657.000; -512.000
354.104; -100.550; -896.000; -835.000
354.237;  -80.125; -627.000; -662.000
354.370; -105.175; -846.000; -879.000
354.503; -172.850;-1231.000;-1308.000
354.636;   -5.375; -529.000; -348.000
354.769; -106.550; -937.000; -860.000
354.902;  -20.000; -230.000; -139.000
355.034;  -19.975; -164.000; -220.000
355.167;    1.700; -262.000; -162.000
355.300;  -58.350;-1061.000; -880.000
355.433; 1458.150;  -71.000;  -14.000
355.565; 2266.975; -402.000; -384.000
355.698;  593.400; -356.000; -296.000
355.831;   -0.250; -882.000; -801.000
355.964;   37.950; -285.000; -170.000
356.096;  -60.200; -856.000; -843.000
356.229;   10.750; -523.000; -530.000
356.362;  500.575; -373.000; -266.000
356.494;  909.675; -229.000; -162.000
356.627;  351.575;  269.000;  377.000
356.760;  889.025;  120.000;   53.000
356.892; 1515.175; -286.000; -601.000
357.025;  380.025;  403.000;  389.000
357.157;  272.150; -167.000; -179.000
357.290; 1113.025; -856.000; -713.000
357.423;  351.150; -667.000; -556.000
357.555;  109.800; -217.000; -228.000
357.688;  171.125; -483.000; -364.000
357.820;  203.300; -870.000; -877.000
357.953; 1609.200; -563.000; -589.000
358.085;  290.950; -632.000; -612.000
358.218;  193.000;-1131.000; -932.000
358.350;   74.575;  -58.000;  312.000
358.483; -146.825;-1300.000;-1187.000
358.615; -109.950;-1182.000;-1078.000
358.747; -141.150;-1187.000;-1058.000
358.880;  -24.975; -810.000; -744.000
359.012;  -25.550; -376.000; -202.000
359.145;  -56.350; -480.000; -511.000
359.277;  -41.475; -962.000; -913.000
359.409; 1331.925;  536.000;  231.000
359.542;  310.625; -738.000; -688.000
359.674;   22.500;   46.000;   13.000
359.806;  -76.100; -565.000; -438.000
359.939;  -44.950; -617.000; -516.000
360.071;   38.525; -583.000; -579.000
360.203;  -26.500; -411.000; -364.000
360.335;   36.275;  164.000;  -16.000
360.468;   82.500; -249.000; -307.000
360.600; 1334.300; -547.000; -454.000
360.732; 3978.400; -546.000; -423.000
360.864;  627.550;-1216.000;-1044.000
360.996;   93.925; -516.000; -554.000
361.129;  -22.850; -389.000; -598.000
361.261;    6.675;  110.000; -113.000
361.393;  -47.425; -252.000; -214.000
361.525;    3.200;   94.000;  244.000
361.657; -103.325; -821.000; -703.000
361.789;  -24.000; -139.000; -155.000
361.921;  -30.250; -642.000; -593.000
362.053;  104.150;  524.000;  541.000
362.185;   10.600;  288.000;   72.000
362.318; -111.625; -709.000; -705.000
362.450;   49.825;  294.000;  444.000
362.582;  -61.775; -913.000; -870.000
362.714;  -57.575; -353.000; -332.000
362.846;  -89.325; -606.000; -490.000
362.978; -125.875; -941.000; -811.000
363.109;  -15.350; -161.000; -260.000
363.241;  171.025; -739.000; -749.000
363.373;  638.775; -649.000; -564.000
363.505;  973.550; -186.000;  -91.000
363.637;  221.575; -787.000; -601.000
363.769; -120.100;-1067.000;-1080.000
363.901;  -78.625; -596.000; -654.000
364.033; -133.900;-1103.000;-1062.000
364.165;  -27.475; -283.000; -283.000
364.296;   81.150; -316.000; -177.000
364.428;  177.000;-1344.000;-1220.000
364.560;  -53.050; -679.000; -661.000
364.692;  -73.675; -738.000; -835.000
364.824;    9.800; -588.000; -456.000
364.955;  470.525; -402.000; -564.000
365.087; 1561.700;-1097.000; -852.000
365.219;   92.075; -686.000; -816.000
365.351;  -74.475; -526.000; -572.000
365.482;   27.075;  300.000;  240.000
365.614;  -59.200; -402.000; -314.000
365.746; -106.400; -729.000; -752.000
365.877;  -82.450; -706.000; -672.000
366.009;  413.025;  -35.000;  -62.000
366.141;  -32.200;-1249.000;-1134.000
366.272; -105.400; -803.000; -719.000
366.404; -108.200;-1005.000; -874.000
366.535;  -19.050; -139.000;  -12.000
366.667; -113.925; -644.000; -649.000
366.799;   27.225;  353.000;  203.000
366.930; -132.675; -862.000; -996.000
367.062;  194.025; -639.000; -613.000
367.193;  333.275; -872.000; -842.000
367.325;  -35.750; -580.000; -684.000
367.456;   -2.325; -246.000;   31.000
367.588;  242.675; -371.000; -318.000
367.719;   43.100;  -44.000;  -45.000
367.851;  -39.925; -222.000; -241.000
367.982; -114.925; -875.000; -732.000
368.113;   -6.825; -475.000; -358.000
368.245; -129.850; -960.000; -841.000
368.376;  -36.925; -254.000; -302.000
368.508;  -47.275; -188.000; -263.000
368.639; -152.525;-1166.000;-1034.000
368.770;  -76.675; -670.000; -589.000
368.902; -103.875; -836.000; -926.000
369.033; -115.350; -906.000; -855.000
369.164;  -34.300; -720.000; -653.000
369.296;  -87.575; -452.000; -601.000
369.427;  -20.300; -209.000; -144.000
369.558;  -77.575; -593.000; -377.000
369.689;  -78.325; -721.000; -569.000
369.821; -126.825; -951.000; -845.000
369.952;  -26.000;   42.000; -108.000
370.083;  -48.200; -229.000; -108.000
370.214;  -89.375; -735.000; -650.000
370.345;  -11.400;   65.000;   81.000
370.477; -101.750; -810.000; -790.000
370.608;   41.050; -328.000; -264.000
370.739; -114.850;-1233.000;-1292.000
370.870; -109.900;-1102.000; -923.000
371.001;    2.725; -378.000; -467.000
371.132;  -82.125; -754.000; -735.000
371.263;  -20.800;  -42.000; -148.000
371.394; -134.900; -841.000; -748.000
371.525;   18.825;  345.000;  225.000
371.657; -111.500; -808.000; -670.000
371.788;   26.350;  103.000;  199.000
371.919;   19.475; -384.000; -304.000
372.050; 1396.825;  -91.000; -156.000
372.181;  443.850; -188.000; -294.000
372.311;  122.200;   42.000; -127.000
372.442;  -48.375; -457.000; -451.000
372.573;  -22.850; -444.000; -340.000
372.704; -141.425;-1008.000; -980.000
372.835;  -10.325; -228.000; -289.000
372.966;  -68.325; -646.000; -554.000
373.097;  -90.050; -575.000; -711.000
373.228;  -81.300; -717.000; -542.000
373.359;  -35.700; -824.000; -536.000
373.490;  208.275; -881.000; -727.000
373.620;  299.100;-1001.000; -803.000
373.751;  628.850; -332.000; -396.000
373.882;  285.775; -663.000; -733.000
374.013;  -25.575; -449.000; -262.000
374.143;  -73.750; -581.000; -659.000
374.274; -121.925; -987.000; -908.000
374.405;   56.800; -388.000; -276.000
374.536;  139.800; -526.000; -387.000
374.666;  374.700; -759.000; -807.000
374.797;   35.250; -817.000; -868.000
374.928;  258.125; -710.000; -560.000
375.058;  241.700; -535.000; -500.000
375.189;    9.125;  -59.000;  -93.000
375.320;  -97.650; -928.000;-1034.000
375.450;  -39.200; -625.000; -616.000
375.581;  -34.675; -526.000; -436.000
375.712;  -37.200; -574.000; -250.000
375.842;   26.125; -438.000; -415.000
375.973;    6.275; -554.000; -513.000
376.103;  -90.925; -665.000; -648.000
376.234;  -89.425; -531.000; -552.000
376.364; -108.275; -944.000; -867.000
376.495;  158.250;  925.000;  529.000
376.625;  -43.300; -472.000; -485.000
376.756;  -43.300; -709.000; -678.000
376.886; -123.425;-1178.000;-1026.000
377.017;  144.100;-1048.000;-1061.000
377.147;  638.300; -786.000; -782.000
377.278;   87.325;  174.000;  228.000
377.408; -110.800; -801.000; -815.000
377.538;  -81.275; -707.000; -693.000
377.669;  -79.400; -537.000; -613.000
377.799;  -78.375; -645.000; -635.000
377.929;  -68.200; -610.000; -428.000
378.060; -126.925; -781.000; -847.000
378.190;  -24.675; -726.000; -531.000
378.320;  -34.600; -401.000; -406.000
378.451;   -2.750; -131.000;  -22.000
378.581;  -10.400;  -67.000; -110.000
378.711;  111.925; 1035.000;  866.000
378.841;  -66.400; -533.000; -675.000
378.972; -106.175; -871.000; -751.000
379.102;  -60.250; -652.000; -579.000
379.232;  -40.200; -126.000;  -73.000
379.362; -111.825;-1001.000; -885.000
379.492;  -41.025; -373.000; -424.000
379.623;   46.525;    0.000;  111.000
379.753; -107.425;-1107.000; -974.000
379.883;   78.750;   59.000;  156.000
380.013;  -76.850;-1081.000;-1017.000
380.143; -118.500;-1097.000;-1056.000
380.273;  -86.600; -985.000; -861.000
380.403;   16.075; -344.000; -257.000
380.533;  -28.425; -651.000; -664.000
380.663;   23.125;  173.000;  128.000
380.793; -136.225;-1027.000;-1074.000
380.923;  -38.525; -103.000;  -34.000
381.053;  -95.350; -613.000; -623.000
381.183;  -43.100; -106.000; -248.000
381.313;  -57.525; -656.000; -470.000
381.443;  -41.275; -692.000; -473.000
381.573;   -9.075; -402.000; -409.000
381.703;  -66.850;-1249.000;-1095.000
381.833; -170.375;-1454.000;-1336.000
381.963;   34.525; -134.000;  -87.000
382.093;  427.650; -925.000; -909.000
382.223;  115.100; -713.000; -602.000
382.353;  -54.075; -801.000; -608.000
382.482;   45.475;-1091.000; -964.000
382.612;  223.050; -872.000; -644.000
382.742;  101.475; -695.000; -622.000
382.872;    1.225; -565.000; -551.000
383.002;   31.325;  347.000; -132.000
383.131;  -22.350; -226.000; -160.000
383.261;  -54.525; -706.000; -768.000
383.391;  308.275; -552.000; -377.000
383.521; 4715.625;  451.000;  263.000
383.650; 1424.950; -947.000; -904.000
383.780;   45.400; -783.000; -656.000
383.910;   88.275;  880.000;  802.000
384.039;  -69.275; -794.000; -656.000
384.169;  -67.200;-1205.000;-1017.000
384.299;  -73.725; -650.000; -662.000
384.428; -106.775; -764.000; -680.000
384.558;  -69.075; -308.000; -275.000
384.687;  -73.700; -414.000; -334.000
384.817;   -1.550;   75.000;   -2.000
384.947;  -21.600; -234.000; -141.000
385.076;  180.125;  982.000;  912.000
385.206;   74.850;  369.000;  480.000
385.335;  -60.125; -549.000; -417.000
385.465; -103.700; -655.000; -663.000
385.594;   31.400;  -53.000;  -44.000
385.724;   62.100; -868.000; -838.000
385.853;    3.475; -296.000; -270.000
385.982;  415.275; -743.000; -787.000
386.112;  762.700;-1052.000; -871.000
386.241;   26.250; -307.000; -312.000
386.371;  -13.025; -174.000;  -87.000
386.500;  -47.425; -825.000; -789.000
386.629;   -0.475; -874.000; -817.000
386.759;   84.850;  -43.000;   68.000
386.888;  -14.125; -170.000; -250.000
387.017;  -87.250; -648.000; -620.000
387.147;  -95.400; -771.000; -798.000
387.276;  -36.900; -410.000; -397.000
387.405;  -38.425; -398.000; -342.000
387.535;  -56.025; -452.000; -361.000
387.664;  -69.375; -692.000; -620.000
387.793;  -14.325; -198.000; -113.000
387.922;  192.625;  255.000;  200.000
388.052;  -39.550; -576.000; -423.000
388.181;  -32.925; -342.000; -472.000
388.310;  -78.525; -889.000; -710.000
388.439;  -88.150; -749.000; -742.000
388.568;   44.725;  365.000;  244.000
388.697;  320.475; -756.000; -653.000
388.826;   15.725; -768.000; -666.000
388.956;  -18.150; -285.000; -307.000
389.085;  -51.775; -347.000; -287.000
389.214; -112.000; -842.000; -872.000
389.343;  -54.125; -645.000; -413.000
389.472;  560.775;  126.000;  149.000
389.601;  633.325;   91.000;    0.000
389.730;   -3.900; -568.000; -687.000
389.859;   22.475;  226.000;   46.000
389.988;   42.350; -423.000; -408.000
390.117;   44.425; -168.000; -146.000
390.246;  -33.975; -331.000; -320.000
390.375;  -41.075; -673.000; -626.000
390.504;  -82.625; -703.000; -621.000
390.633; -112.200; -672.000; -726.000
390.761;  -80.400; -732.000; -645.000
390.890;  -13.225;   -4.000; -130.000
391.019;  -60.150; -421.000; -441.000
391.148; -123.600; -826.000; -855.000
391.277;  -80.700; -576.000; -493.000
391.406; -127.300; -821.000; -805.000
391.534;   19.400;  574.000; -301.000
391.663;  -84.175; -583.000; -645.000
391.792; -106.325; -673.000; -701.000
391.921;    0.700;   -3.000;   15.000
392.050;   16.375; -287.000; -228.000
392.178; -123.725;-1206.000;-1061.000
392.307;  -11.550; -758.000; -712.000
392.436;  -32.525; -427.000; -641.000
392.564;   11.425;  166.000;   -6.000
392.693;  -96.300; -860.000; -682.000
392.822;   21.375; -529.000; -534.000
392.950;  -28.775; -880.000; -714.000
393.079;   93.000; -188.000; -328.000
393.208;  -27.725; -488.000; -511.000
393.336;  -14.400; -170.000; -145.000
393.465;  -50.275; -317.000; -199.000
393.593;   -7.625;   62.000;   79.000
393.722; -133.000;-1121.000; -916.000
393.850;  -24.450; -188.000;  -61.000
393.979; -139.300; -926.000; -805.000
394.107;  -55.025; -517.000; -537.000
394.236;  -40.000; -570.000; -507.000
394.364;  112.450;  383.000;  206.000
394.493;   94.375; -911.000; -767.000
394.621;   23.525; -955.000; -916.000
394.750; 1133.100; -873.000; -923.000
394.878; 4485.650; -247.000; -149.000
395.007; 6602.200; -721.000; -807.000
395.135;  600.050; -790.000; -721.000
395.263;  -55.950;-1038.000;-1040.000
395.392;    7.350;  -25.000; -107.000
395.520; -119.900; -818.000; -679.000
395.648; -122.650; -865.000; -915.000
395.777;  -64.500; -366.000; -405.000
395.905;  -76.450; -449.000; -564.000
396.033;   -7.900;  217.000;  172.000
396.162;  131.925; -399.000; -453.000
396.290;  154.875;  -17.000;   -2.000
396.418;  -43.900; -555.000; -514.000
396.546;  -87.700; -571.000; -466.000
396.674; -134.675; -850.000; -878.000
396.803;  -16.475;  -72.000;  -23.000
396.931;  -14.525; -179.000; -199.000
397.059; -124.500;-1026.000; -989.000
397.187; -126.400;-1026.000; -975.000
397.315; -126.050; -884.000; -649.000
397.443;  -90.325; -592.000; -443.000
397.572;  -81.250; -578.000; -424.000
397.700;  -92.275; -607.000; -614.000
397.828;  -39.875;  120.000;  -90.000
397.956;  -49.350; -508.000; -478.000
398.084;  -33.050; -767.000; -626.000
398.212;   13.200;  137.000;  124.000
398.340;   -5.250;  -56.000;  159.000
398.468;  -42.150; -390.000; -169.000
398.596; -148.850; -993.000; -953.000
398.724; -119.650; -762.000; -767.000
398.852; -147.600;-1024.000; -976.000
398.980;  -80.975; -560.000; -560.000
399.108; -104.125; -982.000; -735.000
399.236;  -21.050;   13.000;    8.000
399.363;   11.625;  222.000;  196.000
399.491;  -43.900; -404.000; -398.000
399.619; -110.625; -829.000; -800.000
399.747;  -91.675; -859.000; -771.000
399.875;   38.275;  220.000;  234.000
400.003;  -66.075; -359.000; -284.000
400.130;  -94.175; -421.000; -341.000
400.258;  -35.925;  -83.000;   38.000
400.386;  -67.600; -352.000; -168.000
400.514;  -86.075; -526.000; -587.000
400.641; -147.050; -928.000; -802.000
400.769; -131.050; -979.000; -888.000
400.897; -126.325; -838.000; -793.000
401.025;  -40.575; -166.000; -152.000
401.152;   -5.050;  220.000;   38.000
401.280;  -82.750; -430.000; -429.000
401.408; -103.450; -712.000; -576.000
401.535; -111.900; -735.000; -758.000
401.663; -183.450;-1134.000;-1054.000
401.790;  -88.675; -514.000; -525.000
401.918;   21.025;  436.000;  405.000
402.046;  -19.550;  134.000;  122.000
402.173;  -34.300;  -18.000;    7.000
402.301;  -65.475; -519.000; -397.000
402.428;   34.075;  528.000;  383.000
402.556; -141.750;-1188.000; -913.000
402.683;  -39.275;  -20.000;   -1.000
402.811;  -33.450;  -37.000; -206.000
402.938;  -13.650;   20.000;   27.000
403.066;   28.000; -574.000; -558.000
403.193;  112.925;  299.000;  239.000
403.321;   76.500; -396.000; -574.000
403.448;  147.425;   83.000;   27.000
403.575;   65.100;  -90.000;  -46.000
403.703;  -78.950; -732.000; -557.000
403.830;  -39.475; -531.000; -496.000
403.957; -116.450;-1117.000;-1023.000
404.085;   23.075;  -61.000; -172.000
404.212;  124.725;  -50.000;   63.000
404.339;  422.000; -566.000; -306.000
404.467; 8875.800; -612.000; -524.000
404.594; 5598.925; -287.000; -227.000
404.721;  998.025; -869.000; -764.000
404.848;  115.600; -113.000; -202.000
404.976; -100.925; -856.000; -783.000
405.103;  -10.750;  -14.000;  -82.000
405.230;   18.325;  190.000;  226.000
405.357;   54.700;  117.000;   44.000
405.484;  413.450;  -49.000;    5.000
405.612;  129.975; -548.000; -563.000
405.739;  -44.500; -488.000; -243.000
405.866;   69.375;  669.000;  385.000
405.993;  -46.475; -398.000; -102.000
406.120; -136.600; -801.000; -887.000
406.247;  -73.175; -323.000; -342.000
406.374;  124.775;  540.000;  629.000
406.501;  -62.000; -632.000; -702.000
406.628;  -84.800; -621.000; -589.000
406.755; -112.650; -803.000; -620.000
406.882;  -65.925; -228.000; -277.000
407.009; -120.750; -719.000; -628.000
407.136;  -46.100; -480.000; -401.000
407.263;  -26.975; -939.000; -829.000
407.390;  -82.500; -692.000; -614.000
407.517; -164.225;-1139.000;-1187.000
407.644;  -72.450; -332.000; -256.000
407.771;  -68.300; -249.000; -287.000
407.898;   -7.225;  168.000;  328.000
408.025;  -69.925; -421.000; -313.000
408.151;  -18.825;   82.000;  153.000
408.278;  -73.200; -267.000; -216.000
408.405; -131.800; -931.000; -899.000
408.532;  -91.900; -549.000; -542.000
408.659; -122.175; -677.000; -648.000
408.785; -175.750;-1298.000;-1170.000
408.912;  -64.900; -412.000; -296.000
409.039; -114.850; -610.000; -686.000
409.166;  -99.250; -591.000; -555.000
409.292; -106.550; -571.000; -534.000
409.419; -116.425; -665.000; -649.000
409.546;  -86.575; -431.000; -192.000
409.672; -111.775; -713.000; -545.000
409.799;  -38.050;  -36.000;   34.000
409.926;  -46.850; -180.000; -179.000
410.052; -172.100;-1127.000;-1091.000
410.179;  -68.000; -368.000; -392.000
410.305;  -84.125; -375.000; -493.000
410.432;  -34.325; -220.000; -333.000
410.558;  -79.050; -305.000; -380.000
410.685; -104.500; -688.000; -431.000
410.812;  -95.675; -409.000; -588.000
410.938; -130.725; -964.000; -808.000
411.065;  -97.975; -671.000; -645.000
411.191;  -31.075; -189.000; -174.000
411.317; -130.975; -823.000; -742.000
411.444;  -72.775; -317.000; -246.000
411.570;  -82.900; -339.000; -294.000
411.697; -130.850; -758.000; -752.000
411.823; -165.625; -989.000; -999.000
411.949;  -37.550;  -56.000;   17.000
412.076; -119.500; -539.000; -519.000
412.202; -124.025; -758.000; -757.000
412.329; -136.775; -798.000; -752.000
412.455; -109.475; -821.000; -657.000
412.581;  -36.425;  -15.000;  172.000
412.707;  -86.075; -540.000; -457.000
412.834;   -0.325;  156.000;  219.000
412.960;  -95.550; -785.000; -784.000
413.086; -107.325; -743.000; -701.000
413.212;  127.075;  604.000;  578.000
413.339;  -83.400; -685.000; -701.000
413.465;  -38.025; -364.000; -310.000
413.591;  -99.050; -757.000; -474.000
413.717;  -51.275; -358.000; -366.000
413.843; -127.575; -839.000; -861.000
413.969;  -42.000;  -47.000; -292.000
414.096;  -81.750; -679.000; -679.000
414.222;  -11.700;  -33.000;   85.000
414.348;  -68.525; -652.000; -385.000
414.474;   -9.825;   38.000;  -52.000
414.600;   -9.050; -126.000; -144.000
414.726;   -2.450;  -96.000;  -55.000
414.852;  -38.500; -365.000; -342.000
414.978;   46.800;  104.000;  -18.000
415.104;   51.425;   38.000;   80.000
415.230;   49.025; -329.000; -330.000
415.356;   74.350; -409.000; -514.000
415.482;  251.250;   13.000;  -35.000
415.608;  416.450; -247.000; -323.000
415.734; 1356.125;   67.000;   38.000
415.860;28211.050; -875.000; -767.000
415.986;23644.650; -685.000; -607.000
416.111; 2231.700; -798.000; -652.000
416.237;  485.850; -424.000; -571.000
416.363; 1648.425; -765.000; -733.000
416.489; 6751.125; -324.000; -251.000
416.615;  939.450; -707.000; -742.000
416.741;   62.700; -677.000; -784.000
416.866;  -50.525; -673.000; -736.000
416.992;  -86.175; -801.000; -818.000
417.118;  -23.775;  -41.000;  -80.000
417.244;  -69.625; -798.000; -531.000
417.369;  -72.000; -801.000; -612.000
417.495;   -9.525; -325.000; -254.000
417.621;  -72.825;-1015.000; -803.000
417.746;   12.000; -579.000; -572.000
417.872;   93.075; -254.000; -144.000
417.998;  125.575; -515.000; -530.000
418.123; 1522.800;-1073.000; -845.000
418.249; 8684.425; -512.000; -601.000
418.374; 1531.275; -916.000; -824.000
418.500;  244.025; -383.000; -482.000
418.626;  176.600;   70.000;  -59.000
418.751;  169.800; -549.000; -448.000
418.877;  304.825; -637.000; -643.000
419.002; 2561.550; -688.000; -560.000
419.128;19500.825; -930.000; -721.000
419.253; 5609.525; -967.000; -837.000
419.379;  771.100; -391.000; -338.000
419.504;  600.025;  325.000;  415.000
419.629;  812.750; -393.000; -212.000
419.755; 5172.025; -317.000; -254.000
419.880;34075.425;  -98.000;   67.000
420.006;17407.250; -280.000; -221.000
420.131;43899.075; -662.000; -775.000
420.256; 7248.450; -315.000; -316.000
420.382;  994.900; -665.000; -687.000
420.507;  197.300; -649.000; -778.000
420.632;   61.950; -337.000; -339.000
420.758;   93.550; -251.000; -425.000
420.883;  -99.250; -876.000; -672.000
421.008;  -97.400; -775.000; -619.000
421.133;  -87.350; -509.000; -467.000
421.259;  -35.775; -325.000; -259.000
421.384; -113.025; -834.000; -693.000
421.509; -103.275;-1052.000; -862.000
421.634;  285.050; -936.000; -820.000
421.759;  142.100; -359.000; -327.000
421.885;  -92.375; -717.000; -656.000
422.010;  -92.050; -673.000; -542.000
422.135; -134.500; -695.000; -727.000
422.260;   37.100;  340.000;  280.000
422.385;  -47.275;   12.000;  -98.000
422.510;   -0.325;  151.000;  -26.000
422.635;   -4.200;  -87.000;  -43.000
422.760;  -24.150; -766.000; -791.000
422.885;   38.050;  -57.000;  -80.000
423.010;  -23.025; -112.000; -169.000
423.135;  -88.550; -481.000; -561.000
423.260;  -27.925; -150.000; -245.000
423.385;   22.650;  476.000;  222.000
423.510;   14.100;   71.000;  -22.000
423.635;   28.050;  133.000;   45.000
423.760;   47.900;  383.000;  328.000
423.885;   36.100;  336.000;  391.000
424.010;   -4.875;  -68.000;  -13.000
424.135;  -24.525;    5.000;  -33.000
424.259;  -76.025; -654.000; -457.000
424.384;  -38.425; -279.000; -272.000
424.509;   -5.225; -260.000; -186.000
424.634;  -99.350; -761.000; -623.000
424.759;  -32.800; -688.000; -544.000
424.883;    6.750; -506.000; -527.000
425.008;  186.375; -502.000; -410.000
425.133; 2859.925; -679.000; -653.000
425.258; 1571.975; -517.000; -381.000
425.382;  523.600; -867.000; -774.000
425.507; 1253.975; -487.000; -543.000
425.632;  393.525; -802.000; -663.000
425.756;  688.975; -256.000; -146.000
425.881; 9447.350; -831.000; -857.000
426.006;29677.375; -604.000; -355.000
426.130; 5003.925; -696.000; -508.000
426.255;  682.600; -611.000; -491.000
426.379;  288.175; -189.000; -577.000
426.504;  512.950;  660.000;  544.000
426.629; 5895.600; -519.000; -466.000
426.753; 4697.525;   64.000;  -46.000
426.878;  593.425; -252.000; -288.000
427.002;  327.675; -651.000; -668.000
427.127; 2090.500;  -35.000; -158.000
427.251;17154.800;  372.000;  401.000
427.375; 5749.275; -191.000; -173.000
427.500; 1420.475; -616.000; -610.000
427.624;  457.225; -234.000; -400.000
427.749;  111.275; -216.000; -225.000
427.873;    2.875; -499.000; -412.000
427.997;  -21.525; -222.000; -230.000
428.122;   75.875;  795.000;  703.000
428.246;   35.300;  433.000;  434.000
428.371; -135.750; -869.000; -773.000
428.495; -107.825; -624.000; -646.000
428.619;  -39.825; -186.000; -117.000
428.743;    7.700;   65.000;  132.000
428.868;  -70.050; -732.000; -643.000
428.992;  507.300; -219.000; -326.000
429.116;  234.600; -329.000; -357.000
429.240;  150.725;  419.000;  426.000
429.365;  -31.250; -454.000; -574.000
429.489;  -42.050; -638.000; -647.000
429.613;   32.575; -236.000; -177.000
429.737;   88.575; -563.000; -432.000
429.861;  380.175; -247.000; -133.000
429.985; 7949.425; -425.000; -305.000
430.109;10321.300; -770.000; -908.000
430.234; 1269.725;   76.000;  -50.000
430.358;  176.775; -250.000; -160.000
430.482;  -19.650; -672.000; -564.000
430.606;  -62.400; -655.000; -375.000
430.730;  -28.300; -437.000; -388.000
430.854;  -54.850; -909.000; -835.000
430.978;  -70.125; -795.000; -764.000
431.102;  -76.775; -499.000; -422.000
431.226; -106.450; -874.000; -815.000
431.350;   39.375;  345.000;  422.000
431.474;  -73.800; -661.000; -373.000
431.597; -152.025;-1060.000; -848.000
431.721;  -65.075; -276.000; -267.000
431.845; -109.750; -704.000; -472.000
431.969;  -79.875; -304.000; -349.000
432.093;  -72.300; -395.000; -317.000
432.217;  -11.350;   32.000;   82.000
432.341;  -94.300; -523.000; -518.000
432.464;    9.525;   96.000;   40.000
432.588;  -15.375; -401.000; -329.000
432.712;   31.400;  -52.000;  -52.000
432.836;   58.925;  213.000;  263.000
432.959;   34.450; -372.000; -311.000
433.083;  162.300;   11.000;    2.000
433.207;  571.650;  285.000;  930.000
433.330; 7542.225; -391.000; -200.000
433.454;10639.375; -654.000; -638.000
433.578; 5906.300;  583.000;  278.000
433.701; 1297.825; -623.000; -675.000
433.825;  181.575; -292.000; -299.000
433.949;   77.300;   28.000;  -72.000
434.072;    3.600; -410.000; -323.000
434.196;    7.575; -309.000; -117.000
434.319; 3442.875;25482.000;25124.000
434.443;  856.700; -656.000; -603.000
434.566; 4060.850;  281.000;   62.000
434.690;  926.700; -637.000; -383.000
434.813;  170.225; -251.000; -173.000
434.937;  -20.200; -569.000; -696.000
435.060;  -60.925; -423.000; -332.000
435.184;   19.925; -492.000; -217.000
435.307;   23.725;  159.000;  102.000
435.431;  -20.500;  -40.000;   24.000
435.554;  -80.200; -399.000; -240.000
435.677;  -80.675; -350.000; -258.000
435.801;  -45.750;  -25.000;   49.000
435.924;  -31.125;    1.000;  -67.000
436.048; -133.075;-1019.000; -732.000
436.171;  -78.875; -240.000;  -66.000
436.294;  -16.500; -248.000; -229.000
436.417;  234.100; -963.000; -849.000
436.541;   -9.600; -814.000; -840.000
436.664;  -34.300; -242.000; -316.000
436.787;  -18.525;   13.000;  113.000
436.910; -113.600; -792.000; -422.000
437.034;   -3.525;  142.000;  143.000
437.157;   34.950;  -11.000;    0.000
437.280;  -78.225; -392.000; -292.000
437.403; -122.225; -982.000; -869.000
437.526;   59.675; -903.000; -865.000
437.649;  702.250; -505.000; -332.000
437.772;   56.025; -692.000; -540.000
437.896;   29.250;  700.000;  544.000
438.019;  -94.875; -758.000; -503.000
438.142;  -89.625; -596.000; -506.000
438.265; -111.625; -639.000; -670.000
438.388;   59.450; -520.000; -410.000
438.511;  -39.750; -597.000; -394.000
438.634;  -67.625; -247.000; -125.000
438.757; -127.800; -693.000; -619.000
438.880;  -49.825;  -34.000;  -57.000
439.003;  -83.025; -417.000; -437.000
439.126;  -78.025; -287.000; -167.000
439.248;  -52.825;  -98.000; -139.000
439.371;  -40.100;    9.000;  -53.000
439.494;   24.225;  510.000;  439.000
439.617;  -54.650;   65.000;  -88.000
439.740; -175.175; -968.000; -816.000
439.863; -133.625; -755.000; -595.000
439.986; -105.275; -476.000; -431.000
440.108;  -58.600; -161.000; -112.000
440.231; -158.875; -950.000; -836.000
440.354;  -57.175;  -64.000; -150.000
440.477;  -81.650; -566.000; -542.000
440.599;  -67.225; -200.000; -225.000
440.722; -119.825; -709.000; -586.000
440.845;   52.550;  751.000;  928.000
440.968; -103.625; -415.000; -311.000
441.090;  -58.575; -199.000;  -33.000
441.213; -161.975;-1021.000; -825.000
441.336;  -79.250; -159.000;   -5.000
441.458;  -95.250; -549.000; -396.000
441.581; -120.775; -628.000; -629.000
441.703;  -83.650; -152.000;   13.000
441.826; -115.725; -557.000; -400.000
441.948;  -50.550;   56.000;   51.000
442.071;   16.425;  555.000;  424.000
442.193; -111.500; -531.000; -485.000
442.316;    4.625;  152.000;   97.000
442.438;   69.025; -233.000;  -10.000
442.561;   77.650;  272.000;  262.000
442.683;  112.875; -809.000; -522.000
442.806;  366.175;   -8.000;   74.000
442.928;  -77.150; -859.000; -604.000
443.051;  -65.500; -577.000; -373.000
443.173;  -88.950; -341.000; -339.000
443.295;  -84.750; -263.000; -371.000
443.418;  -71.650; -321.000;  -29.000
443.540;  -37.350; -106.000;   -4.000
443.662; -128.350; -563.000; -465.000
443.785;  -25.300;  335.000;  199.000
443.907; -100.125; -362.000; -208.000
444.029; -124.625; -767.000; -494.000
444.152; -137.175; -644.000; -554.000
444.274;  -36.350;  -18.000;  -24.000
444.396; -113.150; -461.000; -221.000
444.518; -140.575; -691.000; -454.000
444.640;  -91.575; -268.000; -111.000
444.763;  -11.825;  388.000;  249.000
444.885;  -96.725; -432.000; -392.000
445.007;  -38.325;   35.000;   86.000
445.129; -127.550; -610.000; -515.000
445.251; -112.700; -372.000; -439.000
445.373; -132.500; -537.000; -386.000
445.495;  -10.850;  242.000;  350.000
445.617;   29.750;  853.000;  753.000
445.739;  -68.025; -215.000;  -97.000
445.861;  -56.225; -245.000; -112.000
445.984;  -57.950; -267.000; -101.000
446.105;   -9.550; -418.000; -251.000
446.227;  150.400; -176.000;  -19.000
446.349;  -66.600; -358.000; -249.000
446.471; -115.350; -615.000; -448.000
446.593;  -85.825; -316.000;   19.000
446.715;  -49.275;  -67.000;   41.000
446.837;   22.275;  697.000;  832.000
446.959; -103.625; -457.000; -478.000
447.081; -127.025; -628.000; -518.000
447.203;   34.100;  862.000;  834.000
447.325; -105.525; -270.000;   42.000
447.446;   -7.975;  286.000;  530.000
447.568; -157.400; -921.000; -803.000
447.690;  -92.850; -236.000; -245.000
447.812; -149.425; -798.000; -519.000
447.933;  -32.225;  155.000;  127.000
448.055;  -62.925; -306.000; -261.000
448.177;   35.800;   31.000;   79.000
448.299;  -88.350; -935.000; -727.000
448.420;   -1.875;  -25.000;  159.000
448.542;  -47.575;   -3.000;   33.000
448.664;  -13.700;  109.000;  322.000
448.785;  -34.075;  265.000;   83.000
448.907;  -90.775; -614.000; -353.000
449.028;  -96.000; -771.000; -471.000
449.150;   37.550;  492.000;  589.000
449.272; -169.025;-1044.000; -913.000
449.393;   28.375;  612.000;  694.000
449.515; -135.225; -634.000; -581.000
449.636;  -73.400; -264.000; -155.000
449.758;   39.250;  763.000;  622.000
449.879;  -84.375; -498.000; -396.000
450.001;  -77.300; -149.000;  -49.000
450.122;  -39.400;  -95.000;  162.000
450.244;  -23.650;   37.000;  364.000
450.365;  -71.475; -495.000; -301.000
450.486;   -9.750;   80.000;  268.000
450.608;   38.475;  393.000;  326.000
450.729;  104.875;  578.000;  645.000
450.850;   98.025; -574.000; -466.000
450.972; 1175.025; -552.000; -389.000
451.093; 7745.450;  190.000;  588.000
451.214; 4090.425; -516.000; -337.000
451.336;  706.050;  773.000;  579.000
451.457;  117.750;  264.000;  393.000
451.578;  -16.700; -118.000;  -74.000
451.699; -106.600; -546.000; -540.000
451.821;  -55.275; -284.000;  -50.000
451.942;    4.450;  278.000;  285.000
452.063;   60.275;  228.000;  419.000
452.184;  800.375;  -54.000;  -49.000
452.305; 1747.075;  103.000;  170.000
452.427;  355.675; -549.000; -301.000
452.548;    3.500;   23.000;   79.000
452.669;  -64.650; -257.000;  -89.000
452.790;  -52.650;    3.000;  -18.000
452.911;  -23.725;  195.000;  259.000
453.032;  -75.375; -289.000;  -60.000
453.153;  -49.450;  -29.000;   81.000
453.274;   40.425;  737.000;  868.000
453.395;  -56.900;  -51.000;  175.000
453.516;  104.725; 1317.000; 1388.000
453.637;  -87.200; -205.000; -150.000
453.758;  -59.675;   15.000;   69.000
453.879; -123.800; -462.000; -250.000
454.000;   68.875; 1086.000;  948.000
454.121; -112.150; -554.000; -326.000
454.242; -119.225; -599.000; -383.000
454.362;  -47.300;  -99.000;  114.000
454.483;   -8.975; -309.000; -229.000
454.604;   79.750;  512.000;  580.000
454.725; -119.925; -627.000; -555.000
454.846; -114.450; -474.000; -406.000
454.967;  -24.375;  230.000;  539.000
455.087;  -52.450;  179.000;  153.000
455.208;    0.925;  554.000;  856.000
455.329;  -55.425;  -22.000;   82.000
455.450;   55.125;  473.000;  633.000
455.570;  -50.325; -234.000; -211.000
455.691;  -27.325;  201.000;  407.000
455.812; -105.600; -270.000;  -92.000
455.932;  -49.450;  107.000;  -97.000
456.053;  -83.125;   36.000;   24.000
456.173; -113.475; -433.000; -355.000
456.294; -119.425; -476.000; -303.000
456.415;  -62.025;  -73.000;   70.000
456.535;  -32.725;  297.000;  273.000
456.656;  -48.075;  132.000;  240.000
456.776;  -76.775;    3.000;  298.000
456.897;    4.475;  308.000;  513.000
457.017;  -60.625; -153.000;   -3.000
457.138; -113.825; -402.000; -249.000
457.258;  -23.275;  263.000;  224.000
457.379;  -20.775;  509.000;  521.000
457.499;  -40.925;  443.000;  432.000
457.620; -120.125; -407.000; -231.000
457.740;  -83.025; -132.000;  -11.000
457.860;  -35.425;   87.000;   44.000
457.981;  -18.600;  132.000;  124.000
458.101;  -57.475;  -89.000;   40.000
458.221;  -14.350;  336.000;  402.000
458.342;  -63.150;   -4.000;  -37.000
458.462;   37.225;  617.000;  352.000
458.582;    9.975; -302.000; -294.000
458.703;   62.650;  303.000;  154.000
458.823;   16.675;   22.000;  163.000
458.943;   66.875;  341.000;  467.000
459.063;   22.950; 1124.000;  192.000
459.183;  -18.250;  328.000;  313.000
459.304;    4.550;  315.000;  517.000
459.424;  -30.150; -246.000;  -89.000
459.544;  466.600;  388.000;  764.000
459.664; 1298.100;  499.000;  506.000
459.784;  532.600; 1004.000; 1175.000
459.904;   89.150;  867.000;  744.000
460.024;   55.300;  867.000;  684.000
460.144;   -4.250;  449.000;  554.000
460.264;  -10.750;  515.000;  327.000
460.385;  -91.000; -145.000; -119.000
460.505;   33.900;  905.000;  858.000
460.625;  -84.475;  -17.000;  -68.000
460.745;  -28.900;  396.000;  541.000
460.864;  -51.675;  153.000;  469.000
460.984;   48.300;  499.000;  573.000
461.104;  151.700; 1656.000; 1775.000
461.224;   19.175;  657.000;  650.000
461.344;  -38.150;  431.000;  360.000
461.464;  -27.100;  258.000;  513.000
461.584;  -29.550;  283.000;  466.000
461.704;  -56.050;   58.000;  108.000
461.824;  -63.175;  238.000;  259.000
461.943;  -41.675;  191.000;  130.000
462.063;  -70.400;    2.000;  324.000
462.183;   26.250;  639.000;  717.000
462.303;   89.750; 1678.000; 1230.000
462.422;   20.450;  781.000;  840.000
462.542;  -40.300;  271.000;  391.000
462.662;   43.550;  353.000;  380.000
462.782;  342.550;  833.000;  572.000
462.901;  737.050;  545.000;  717.000
463.021;  408.000; 1702.000; 1638.000
463.141;    8.050;  337.000;  770.000
463.260;    1.625;  614.000;  474.000
463.380;   34.350;  902.000;  884.000
463.499;  -29.375;  342.000;  332.000
463.619;  -39.975;  581.000;  559.000
463.738;  103.300; 1644.000;  903.000
463.858;    4.950;  657.000;  811.000
463.978;  -40.200;  542.000;  396.000
464.097;   53.850;  921.000; 1114.000
464.217;  150.775; 1196.000; 1143.000
464.336;  148.700; 1068.000; 1130.000
464.455;  -28.725;  328.000;  659.000
464.575;    6.975;  597.000;  602.000
464.694;  117.500; 1204.000; 1179.000
464.814;  146.725; 1190.000; 1138.000
464.933;   81.675; 1095.000; 1027.000
465.052;  101.000; 1412.000; 1054.000
465.172;   79.650;  922.000;  799.000
465.291;  131.650; 1376.000; 1320.000
465.410;    0.850;  462.000;  735.000
465.530;   80.050; 1355.000; 1310.000
465.649;   33.600; 1209.000; 1273.000
465.768;  138.650; 1673.000; 1508.000
465.888;   89.775;  941.000; 1174.000
466.007;   95.700; 1335.000; 1440.000
466.126;   10.525;  721.000;  641.000
466.245;   50.550; 1176.000; 1187.000
466.364;   17.100;  950.000; 1060.000
466.484;   54.275; 1024.000; 1213.000
466.603;   29.575; 1101.000; 1222.000
466.722;  118.250; 1490.000; 1769.000
466.841;   57.925; 1151.000; 1401.000
466.960;   40.850; 1069.000;  972.000
467.079;  115.075; 1971.000; 1786.000
467.198;   53.000; 1238.000; 1181.000
467.317;   79.650; 1768.000; 1162.000
467.436;   64.650; 1709.000; 1261.000
467.555;  121.050; 1796.000; 1746.000
467.674;   70.300; 1227.000; 1329.000
467.793;   49.625; 1376.000; 1374.000
467.912;   96.725; 1658.000; 1539.000
468.031;  128.700; 2038.000; 1930.000
468.150;  145.500; 1842.000; 1837.000
468.269;  184.550; 2313.000; 2090.000
468.388;  187.550; 2168.000; 2339.000
468.507;  264.225; 2884.000; 2903.000
468.626;  231.050; 2555.000; 2541.000
468.744;  145.925; 2018.000; 2174.000
468.863;  208.075; 2312.000; 2523.000
468.982;  101.700; 1503.000; 1555.000
469.101;  226.700; 2788.000; 2692.000
469.220;  147.725; 2333.000; 2176.000
469.338;  247.800; 2935.000; 3051.000
469.457;  191.600; 2719.000; 2545.000
469.576;  335.175; 3953.000; 3784.000
469.695;  236.475; 2877.000; 3066.000
469.813;  435.375; 4148.000; 4192.000
469.932;  403.400; 4255.000; 4485.000
470.051;  429.625; 4075.000; 4161.000
470.169; 1039.350; 4470.000; 4338.000
470.288; 2002.750; 4700.000; 4809.000
470.406; 1178.125; 5059.000; 5194.000
470.525;  695.575; 6101.000; 5787.000
470.644;  655.250; 6847.000; 6794.000
470.762;  807.475; 8397.000; 7873.000
470.881;  930.875; 8651.000; 8464.000
470.999; 1067.550; 9685.000; 9151.000
471.118; 1121.775;11174.000;10711.000

