
Integration time [ms]: 100.000
Averaging Nr. [scans]: 40
Smoothing Nr. [pixels]: 0
Data measured with spectrometer [name]: 2101012U2
Wave   ;Sample   ;Dark     ;Reference
[nm]   ;[counts] ;[counts] ;[counts] 

197.733;   60.375;  516.000;  404.000
197.879;  -77.950; -610.000; -634.000
198.025;  -57.750; -475.000; -420.000
198.171;  -79.500; -602.000; -612.000
198.317;  -38.975; -401.000; -316.000
198.463;  -56.350; -655.000; -404.000
198.609;   18.650;  181.000; -137.000
198.755;  -82.950; -644.000; -410.000
198.901;  -72.800; -505.000; -424.000
199.047;  -65.175; -615.000; -488.000
199.193;  -40.650; -230.000; -468.000
199.339;  -41.100; -222.000; -369.000
199.485;   40.725;  330.000;  271.000
199.631;   30.275;  227.000;  310.000
199.777;  -51.850; -466.000; -398.000
199.923;  -57.375; -610.000; -424.000
200.069;  -11.825; -141.000;  -58.000
200.215;   74.550;  128.000;  453.000
200.361;   46.125;  243.000;  477.000
200.507;  -60.325; -600.000; -373.000
200.653;  -22.075; -371.000; -194.000
200.798;  -42.450; -215.000; -125.000
200.944;  -10.900; -146.000;  -41.000
201.090;   28.200;   61.000;  222.000
201.236;    4.475; -116.000; -158.000
201.382;  143.600;  874.000;  903.000
201.528;    4.875;  -58.000;  -48.000
201.674;  -50.875; -386.000; -293.000
201.819;  -68.500; -540.000; -439.000
201.965;  -86.450; -699.000; -447.000
202.111;  -14.850; -273.000; -226.000
202.257;  -26.350; -250.000; -238.000
202.402;    3.150;   13.000;  -36.000
202.548;  -28.575; -169.000; -116.000
202.694;   78.750;  410.000; -183.000
202.840;  -73.550; -603.000; -531.000
202.985;  -70.100; -681.000; -639.000
203.131; -101.275; -832.000; -666.000
203.277;  -17.850; -199.000; -262.000
203.423;  -47.725; -434.000; -520.000
203.568;  -39.250; -462.000; -237.000
203.714;  -49.975; -535.000; -542.000
203.860;  -73.975; -682.000; -641.000
204.005;   25.000;  112.000;  167.000
204.151;   75.875;  561.000;  556.000
204.296;  -49.100; -354.000; -221.000
204.442;  -76.425; -600.000; -547.000
204.588;  -80.375; -592.000; -579.000
204.733;   26.075;  178.000;  168.000
204.879; -129.525;-1018.000; -822.000
205.025;   18.000;  -99.000;  126.000
205.170;    8.500;  -17.000;   94.000
205.316;   69.875;  438.000;  661.000
205.461;  -69.325; -698.000; -554.000
205.607;   80.450;  609.000;  665.000
205.752;  -71.650; -626.000; -551.000
205.898;  -56.800; -501.000; -391.000
206.043;  -60.475; -578.000; -506.000
206.189;  -42.325; -243.000; -285.000
206.334;   71.250;  554.000;  606.000
206.480;   54.850;  409.000;  239.000
206.625;  -79.850; -529.000; -552.000
206.771;  -51.075; -451.000; -373.000
206.916;  -26.150; -210.000; -537.000
207.062;  -79.650; -545.000; -591.000
207.207;  -60.475; -546.000; -443.000
207.353;   53.900;  185.000;  460.000
207.498;   22.200;  196.000;   85.000
207.643;  -48.925; -501.000; -370.000
207.789; -123.925;-1069.000; -910.000
207.934;  -85.925; -665.000; -713.000
208.080;  -17.225; -154.000;   66.000
208.225;  -21.525;  -22.000;  -57.000
208.370;  -70.950; -727.000; -619.000
208.516;  -75.250; -741.000; -487.000
208.661;  -26.000; -127.000;  -69.000
208.806;  -24.300; -165.000; -171.000
208.952; -117.950;-1044.000; -731.000
209.097;   82.075;  378.000;  349.000
209.242;  -63.150; -307.000; -382.000
209.387;   78.975;  392.000;  350.000
209.533;  -48.325; -321.000; -350.000
209.678;   77.525;  472.000;  543.000
209.823;  -63.950; -408.000; -310.000
209.969;  -89.125; -860.000; -757.000
210.114; -107.625; -907.000; -719.000
210.259; -113.700; -939.000; -889.000
210.404;  -15.925; -171.000;  103.000
210.549;    9.850;  108.000;    3.000
210.695;  -17.825;   -3.000;  -95.000
210.840;   32.700;   94.000;   67.000
210.985;  -50.550; -484.000; -303.000
211.130;   59.075;  268.000;  406.000
211.275;   17.075;  207.000;  199.000
211.420;  -53.500; -300.000; -289.000
211.566;  -68.750; -536.000; -489.000
211.711;   14.425;  218.000;  157.000
211.856;  -58.900; -545.000; -519.000
212.001;    1.500;  151.000;   44.000
212.146;   29.775;  153.000;   49.000
212.291;   -6.525; -210.000; -186.000
212.436;  -25.425; -280.000;   -6.000
212.581;  -82.625; -685.000; -653.000
212.726;  -78.125; -487.000; -538.000
212.871;  -55.675; -552.000; -217.000
213.016; -149.650;-1172.000;-1029.000
213.161;   65.600;  406.000;  291.000
213.306;  -68.375; -435.000; -577.000
213.451;  -95.050; -778.000; -689.000
213.596;  -41.075; -455.000; -347.000
213.741;  -61.425; -448.000; -538.000
213.886;  -77.050; -498.000; -517.000
214.031;   -8.375; -294.000; -124.000
214.176;  -38.475; -408.000; -341.000
214.321;  -19.400; -296.000; -157.000
214.466;  -27.500; -163.000;  -43.000
214.611;  -11.450;  -61.000;  -10.000
214.756; -122.200; -948.000; -858.000
214.901;  -35.650; -388.000; -226.000
215.046; -124.725; -797.000; -825.000
215.191;   10.000;  128.000;   35.000
215.336;  -16.075; -157.000;  -19.000
215.480;  -81.775; -684.000; -505.000
215.625;  -24.100; -175.000;  -19.000
215.770;  -87.750; -757.000; -662.000
215.915;   -8.475;   -5.000;  -97.000
216.060;  -10.800; -113.000;  -21.000
216.205; -117.200; -731.000; -779.000
216.349;  -67.625; -470.000; -533.000
216.494; -123.525; -939.000; -867.000
216.639; -112.850; -823.000; -888.000
216.784;  -87.450; -577.000; -525.000
216.929;   56.850;  392.000;  281.000
217.073;  -17.475; -244.000;  -31.000
217.218;    7.850;   78.000;  -47.000
217.363;  -90.025; -656.000; -618.000
217.507;  -86.500; -623.000; -588.000
217.652; -118.450; -845.000; -874.000
217.797;  -83.975; -708.000; -659.000
217.942; -115.475; -856.000; -720.000
218.086;   61.350;  608.000;  539.000
218.231;  -13.550; -174.000;  -26.000
218.376;  -34.200; -337.000; -229.000
218.520;    1.150;  -41.000;   96.000
218.665;  -45.300; -338.000; -204.000
218.810;  -39.975; -275.000; -233.000
218.954;   15.425;  201.000;   35.000
219.099; -114.575; -713.000; -963.000
219.243;  -70.050; -589.000; -554.000
219.388;  -32.525; -264.000; -136.000
219.532;  -12.200; -116.000; -116.000
219.677;  -85.300; -564.000; -521.000
219.822;    4.650;   33.000;   89.000
219.966;    4.150;   17.000;  -99.000
220.111;  -36.075; -328.000;  -40.000
220.255;  -98.750; -797.000; -750.000
220.400;   -8.400; -180.000; -146.000
220.544;  -69.800; -516.000; -450.000
220.689;  -39.475; -422.000; -451.000
220.833;  -21.175; -123.000;  -58.000
220.978;  -43.850; -393.000; -563.000
221.122;   13.000;  319.000;  307.000
221.267; -108.450; -906.000; -837.000
221.411;  -59.050; -478.000; -394.000
221.555;  -26.225; -104.000;  -23.000
221.700;  -52.225; -329.000; -222.000
221.844;   46.400;  255.000;  272.000
221.989;  -41.600; -328.000; -311.000
222.133;  -36.875; -289.000; -307.000
222.277;   -9.350;    5.000;   78.000
222.422;   18.975;  227.000;  113.000
222.566;  -37.225; -381.000; -214.000
222.711;  -64.275; -414.000; -479.000
222.855;  -73.925; -643.000; -586.000
222.999;  -84.075; -642.000; -717.000
223.144;  -38.275; -195.000; -194.000
223.288;   49.325;  423.000;  251.000
223.432;   27.275;  184.000;  230.000
223.576;    2.650;  152.000;  -21.000
223.721;   33.750;  364.000;  273.000
223.865;  -58.425; -472.000; -475.000
224.009;  232.200; 1673.000; 1631.000
224.153;  -94.050; -660.000; -671.000
224.298;  -69.700; -531.000; -489.000
224.442;  -22.625;  -74.000;  -33.000
224.586;  -14.525; -169.000; -106.000
224.730;  -75.025; -858.000; -670.000
224.875; -121.600; -739.000; -688.000
225.019;   21.100;  102.000;  188.000
225.163;   39.650;  208.000;  341.000
225.307;   22.800;   97.000;  -91.000
225.451;   49.275;  360.000;  481.000
225.595;   15.975;  264.000;  176.000
225.739;  -17.275; -170.000;  -94.000
225.884;   13.375;   86.000;    5.000
226.028;  -97.575; -760.000; -626.000
226.172;  -30.300; -260.000; -273.000
226.316; -121.925; -941.000; -902.000
226.460;  -62.300; -645.000; -493.000
226.604;  -48.475; -406.000; -400.000
226.748;  -96.975; -836.000; -733.000
226.892;  -36.400; -227.000; -181.000
227.036;  -37.400; -537.000; -447.000
227.180;  -52.325; -551.000; -375.000
227.324;  -49.650; -561.000; -580.000
227.468; -115.900; -819.000; -717.000
227.612;    4.775;  242.000;  -28.000
227.756;  -95.750; -845.000; -698.000
227.900;   66.575;  342.000;  441.000
228.044;  -60.950; -509.000; -290.000
228.188;   53.875;  448.000;  568.000
228.332;  -79.400; -546.000; -472.000
228.476;  -30.600; -223.000; -149.000
228.620;  -24.550; -210.000; -150.000
228.764;   65.475;  431.000;  349.000
228.908;  -25.850; -155.000;   30.000
229.052;  -61.900; -615.000; -528.000
229.195;  -20.875; -172.000;   13.000
229.339;  -31.625; -235.000; -305.000
229.483;  -16.825;    5.000; -162.000
229.627;   -9.675; -156.000;  139.000
229.771;  -44.450; -218.000; -294.000
229.915;    2.300;  230.000;   79.000
230.059;  -93.325; -648.000; -663.000
230.202;  -40.675; -370.000; -317.000
230.346;  -21.125; -107.000;  107.000
230.490;  -63.800; -489.000; -521.000
230.634; -110.625; -736.000; -553.000
230.777;   66.750;  478.000;  509.000
230.921;  -46.875; -450.000; -359.000
231.065;  -35.325; -246.000; -286.000
231.209;   26.200;  261.000;  265.000
231.352;   32.225;   54.000;   40.000
231.496;   16.150;  568.000;  188.000
231.640;  -78.050; -693.000; -621.000
231.783;   63.400;  546.000;  525.000
231.927;  -50.975; -294.000; -365.000
232.071; -122.125; -962.000; -736.000
232.214; -100.800; -980.000; -764.000
232.358;  -90.875; -683.000; -599.000
232.502;    9.425;  -19.000;    7.000
232.645; -140.500;-1090.000; -927.000
232.789;  -10.300; -257.000; -218.000
232.933;  -39.300; -407.000; -224.000
233.076; -122.925;-1038.000; -897.000
233.220; -107.625; -752.000; -777.000
233.363;  -69.175; -669.000; -477.000
233.507;   65.000;  371.000;  129.000
233.650;  -91.425; -764.000; -834.000
233.794;   44.825;  438.000;  461.000
233.938;  -61.525; -530.000; -362.000
234.081;  -23.000;  -93.000;   31.000
234.225;  -71.300; -631.000; -539.000
234.368; -121.325; -773.000; -723.000
234.512;  -54.150; -385.000; -299.000
234.655;  -99.300; -582.000; -555.000
234.798;  -66.100; -493.000; -466.000
234.942; -116.050; -884.000;-1002.000
235.085;  -71.175; -651.000; -443.000
235.229;  -73.050; -405.000; -410.000
235.372;  -33.750; -247.000; -191.000
235.516;  -63.625; -397.000; -321.000
235.659;    9.900;   92.000;  121.000
235.802;   -6.075;  -38.000;  -22.000
235.946;   11.625;  335.000;  215.000
236.089;   36.200;  126.000;  250.000
236.233;   48.575;  275.000;  298.000
236.376;  -43.450; -235.000; -378.000
236.519;  -56.375; -297.000; -319.000
236.663;  -29.000; -215.000; -117.000
236.806; -133.750;-1029.000; -999.000
236.949;   38.875;  543.000;  431.000
237.092;   50.575;  412.000;  391.000
237.236;  -86.500; -589.000; -502.000
237.379;   54.125;  352.000;  428.000
237.522; -120.275; -879.000; -768.000
237.666;  -19.950; -271.000;   18.000
237.809; -125.875; -851.000; -823.000
237.952;   38.025;  469.000;  271.000
238.095;  -62.725; -447.000; -442.000
238.238;   73.175;  688.000;  700.000
238.382;    5.375;  166.000;  103.000
238.525;  -77.500; -598.000; -511.000
238.668; -124.775;-1060.000; -985.000
238.811;  -71.300; -638.000; -643.000
238.954;  -56.500; -483.000; -334.000
239.097;   96.350;  617.000;  664.000
239.241;   37.925;  394.000;  326.000
239.384;  -30.100; -254.000; -214.000
239.527;  -62.650; -424.000; -224.000
239.670; -138.225; -994.000;-1091.000
239.813; -108.350; -696.000; -658.000
239.956;   79.600;  579.000;  473.000
240.099; -101.975; -778.000; -725.000
240.242;   50.575;  428.000;  432.000
240.385;   49.025;  466.000;  450.000
240.528;  -78.700; -706.000; -473.000
240.671;   24.125;  189.000;  134.000
240.814;  -40.950; -441.000; -158.000
240.957; -106.075; -767.000; -578.000
241.100;  -94.950; -779.000; -755.000
241.243; -129.550;-1234.000; -893.000
241.386;  -61.400; -508.000; -379.000
241.529;  -90.425; -735.000; -547.000
241.672;  -54.275; -566.000; -495.000
241.815; -121.325; -832.000; -808.000
241.958;  -30.225; -125.000; -182.000
242.101;  -85.475; -545.000; -390.000
242.244;  -36.275; -270.000; -325.000
242.387;  -30.200; -304.000; -246.000
242.530;   65.300;  470.000;  134.000
242.673;  -41.525; -381.000; -309.000
242.815; -105.550; -925.000; -899.000
242.958;  -72.275; -482.000; -381.000
243.101;    8.950;  132.000;  187.000
243.244;  -86.125; -564.000; -521.000
243.387;  -51.875; -313.000; -316.000
243.530;  -82.000; -657.000; -674.000
243.672;    4.125;   43.000;  -92.000
243.815;  -46.375; -355.000; -283.000
243.958;   -1.625;   98.000;  -26.000
244.101;    7.950;   59.000;  -16.000
244.243;  -10.125;  -47.000;  101.000
244.386; -119.525; -761.000; -630.000
244.529;  -22.975; -132.000; -139.000
244.672; -151.400;-1154.000; -951.000
244.814;  -96.025; -621.000; -794.000
244.957;  -55.350; -380.000; -304.000
245.100;  -63.350; -489.000; -489.000
245.242;  -67.825; -387.000; -374.000
245.385;   -1.000;  -59.000;  -39.000
245.528; -124.950; -871.000; -705.000
245.670;   80.075;  612.000;  634.000
245.813;  -88.125; -599.000; -547.000
245.956;  -36.400; -324.000; -275.000
246.098;  -77.650; -508.000; -650.000
246.241;   -4.975;  194.000;   48.000
246.383;  -21.350; -119.000;  -73.000
246.526;  -68.000; -454.000; -525.000
246.669; -115.525; -889.000; -780.000
246.811;   24.950;  172.000;   -1.000
246.954;  -63.475; -512.000; -426.000
247.096;  -21.525;  -84.000;   -6.000
247.239;  -70.200; -482.000; -445.000
247.381;  -73.150; -647.000; -488.000
247.524;   61.575;  645.000;  679.000
247.666;   -6.175;   58.000;   11.000
247.809; -102.100; -887.000; -691.000
247.951;   -6.500;  -75.000;  138.000
248.094;   31.800;  432.000;  308.000
248.236; -157.500;-1262.000;-1238.000
248.378;    1.275; -356.000;  -81.000
248.521;  -37.350; -334.000; -337.000
248.663;  -54.025; -236.000; -267.000
248.806;  -37.900; -300.000; -266.000
248.948;  -94.600; -886.000; -763.000
249.090;  -34.650; -428.000; -398.000
249.233;  -58.350; -344.000; -381.000
249.375;  -65.950; -474.000; -451.000
249.518;  -29.275;  -83.000; -133.000
249.660;   -1.000; -103.000;    3.000
249.802; -168.925;-1303.000;-1189.000
249.945;  -81.350; -612.000; -540.000
250.087; -117.100; -834.000; -768.000
250.229;  -66.150; -362.000; -480.000
250.371;  -73.075; -494.000; -439.000
250.514;  -51.875; -310.000; -244.000
250.656;   -9.025;   69.000;  102.000
250.798; -116.375; -849.000; -800.000
250.940;  -64.775; -322.000; -322.000
251.083;  -19.925; -335.000; -111.000
251.225;   47.550;  338.000;  310.000
251.367;  -51.150; -274.000; -373.000
251.509;  -51.050; -265.000; -210.000
251.651; -108.000; -731.000; -671.000
251.794;   54.550;  538.000;  632.000
251.936; -105.325; -821.000; -747.000
252.078;  -82.775; -540.000; -461.000
252.220;  -70.775; -645.000; -477.000
252.362;   88.825;  344.000;  462.000
252.504;  -71.200; -677.000; -584.000
252.646; -115.000; -875.000; -722.000
252.788;   -2.100;   14.000; -128.000
252.931;  -40.150; -257.000; -253.000
253.073;  -46.275; -376.000; -317.000
253.215;  -15.775;  141.000;  122.000
253.357;  -20.725;   82.000; -153.000
253.499;  -49.650; -374.000; -234.000
253.641;  -86.325; -749.000; -594.000
253.783;  -87.750; -609.000; -527.000
253.925;  -89.800; -586.000; -591.000
254.067; -117.225; -744.000; -667.000
254.209;  -19.400; -391.000; -259.000
254.351; -134.400; -865.000; -883.000
254.493;  -69.575; -441.000; -417.000
254.635; -125.700; -936.000; -818.000
254.777;  -92.500; -752.000; -687.000
254.918;  -77.725; -512.000; -430.000
255.060;  -53.625; -551.000; -395.000
255.202;  -52.650; -473.000; -261.000
255.344;  -80.375; -658.000; -455.000
255.486;  -69.525; -471.000; -406.000
255.628; -106.375; -780.000; -781.000
255.770;  -95.600; -676.000; -536.000
255.912;  -62.125; -559.000; -468.000
256.053;  -90.075; -730.000; -508.000
256.195;  152.275; 1008.000;  903.000
256.337;  -86.050; -861.000; -595.000
256.479;   73.925;  532.000;  416.000
256.621;  -48.900; -394.000; -212.000
256.762; -103.600; -789.000; -742.000
256.904;   45.100;  485.000;  487.000
257.046;  -51.100; -381.000; -271.000
257.188;  -30.025; -351.000; -264.000
257.329;  -80.950; -525.000; -464.000
257.471; -114.825; -939.000; -807.000
257.613;  -65.000; -584.000; -498.000
257.755; -136.925;-1073.000; -982.000
257.896;   33.250;  286.000;  392.000
258.038;  -77.775; -403.000; -352.000
258.180;  -47.275; -354.000; -279.000
258.321;  -89.125; -581.000; -457.000
258.463;   -5.450;  -71.000;  133.000
258.605; -101.125; -562.000; -570.000
258.746; -101.175; -886.000; -772.000
258.888; -150.800;-1026.000;-1020.000
259.029;    9.900;  121.000;   -8.000
259.171; -101.075; -614.000; -550.000
259.313;  -14.975;  -49.000;  -47.000
259.454;  -69.750; -536.000; -414.000
259.596;  -56.000; -483.000; -390.000
259.737;  -89.050; -590.000; -474.000
259.879;   28.750;  217.000;  311.000
260.020;   70.100;  901.000;  636.000
260.162;  -40.850; -146.000; -253.000
260.303; -115.950; -768.000; -687.000
260.445;  -84.350; -609.000; -613.000
260.586;   20.450;  392.000;  157.000
260.728;  -39.625; -360.000; -248.000
260.869; -134.850; -350.000; -343.000
261.011;   69.925;  706.000;  537.000
261.152;  -66.650; -479.000; -319.000
261.293;  -95.750; -576.000; -595.000
261.435;  -40.350; -219.000; -184.000
261.576;  -63.225; -455.000; -325.000
261.718;   42.825;  420.000;  470.000
261.859; -121.900; -940.000; -949.000
262.000; -136.175; -951.000;-1016.000
262.142;  -30.125;  -52.000;  -60.000
262.283; -112.225; -808.000; -691.000
262.424;  -92.925; -666.000; -625.000
262.566; -142.975;-1161.000; -983.000
262.707; -106.075; -840.000; -830.000
262.848; -123.200; -769.000; -726.000
262.990;  -45.000; -362.000; -345.000
263.131;   74.325;  650.000;  681.000
263.272;  -13.600;  -61.000;  -41.000
263.413;  -97.825; -589.000; -561.000
263.555;  -68.300; -669.000; -143.000
263.696;  -85.325; -550.000; -641.000
263.837;  -64.425; -449.000; -551.000
263.978;  -15.975;   -5.000;  -77.000
264.119;  -61.775; -283.000; -264.000
264.261; -113.200; -847.000; -630.000
264.402;   -6.000;   33.000;   40.000
264.543;  -76.300; -509.000; -524.000
264.684;  -17.775;   61.000;  -50.000
264.825;  -78.700; -816.000; -538.000
264.966;   -1.300;  -84.000;  -67.000
265.107; -109.875; -646.000; -670.000
265.248; -122.350; -825.000; -812.000
265.390;  -17.200;  152.000;   -9.000
265.531;  -32.350; -238.000; -107.000
265.672;  -79.825; -557.000; -630.000
265.813;   62.350;  563.000;  439.000
265.954; -139.950; -959.000; -940.000
266.095;  -14.225; -372.000; -322.000
266.236; -100.525; -686.000; -548.000
266.377;  -36.600; -243.000; -297.000
266.518;  -68.350; -619.000; -547.000
266.659;   22.825;  170.000;  268.000
266.800;   -0.200;   83.000;   85.000
266.941;  -91.550; -487.000; -478.000
267.082;   -6.150;  354.000;   99.000
267.223;  -60.700; -344.000; -273.000
267.364; -111.050; -892.000; -686.000
267.504;  -14.625;    3.000;  135.000
267.645;  -14.650;  160.000;   67.000
267.786;  -37.875; -147.000;  -86.000
267.927;  -68.475; -473.000; -379.000
268.068;  -13.000; -186.000;  -61.000
268.209;  -47.625; -175.000; -413.000
268.350;  -63.600; -388.000; -532.000
268.490;  -87.875; -648.000; -521.000
268.631;   25.825;  127.000;  225.000
268.772;  -99.150; -874.000; -647.000
268.913;  -51.150; -328.000; -476.000
269.054;  -21.675; -117.000;   12.000
269.194;  -39.250; -418.000; -402.000
269.335; -174.250;-1137.000;-1074.000
269.476;  -24.950;   33.000;  -35.000
269.617;  -42.400; -347.000; -392.000
269.757;  -96.400; -713.000; -646.000
269.898; -105.525; -856.000; -613.000
270.039;  -69.700; -415.000; -405.000
270.180; -132.550; -952.000; -816.000
270.320;  -33.350; -190.000; -250.000
270.461;  -47.525; -277.000; -249.000
270.602;  -13.575; -186.000; -156.000
270.742; -126.325; -868.000; -943.000
270.883;  -55.975; -442.000; -390.000
271.023;  -58.875; -358.000; -357.000
271.164;  -76.650; -607.000; -528.000
271.305; -104.475; -666.000; -654.000
271.445;  -94.725; -722.000; -683.000
271.586;  -67.100; -462.000; -283.000
271.726;  -49.050; -397.000; -322.000
271.867;  -52.725; -594.000; -534.000
272.008;  169.725; -473.000; -285.000
272.148;  112.675;  462.000;  468.000
272.289;   -6.450; -113.000; -181.000
272.429;   25.475;   19.000;  185.000
272.570;  -91.575; -633.000; -737.000
272.710;  -94.475; -825.000; -775.000
272.851;  -25.150;  113.000; -130.000
272.991; -164.450;-1173.000;-1077.000
273.131;  -71.050; -419.000; -459.000
273.272;  -98.875; -683.000; -723.000
273.412;   -1.325; -143.000;  -31.000
273.553;  -61.250; -488.000; -507.000
273.693;  126.025;  913.000;  858.000
273.834; -101.250; -894.000; -692.000
273.974;  -86.400; -664.000; -615.000
274.114;  -99.425; -772.000; -560.000
274.255;   70.875;  414.000;  373.000
274.395;    0.675; -180.000; -125.000
274.535;   38.550;  199.000;  350.000
274.676;   27.775;  225.000;   94.000
274.816;   -2.325;  110.000;   34.000
274.956;  -87.575; -624.000; -690.000
275.097;  -56.175;-1014.000; -922.000
275.237; -106.100; -913.000; -803.000
275.377; -100.175; -778.000; -689.000
275.517; -153.225; -878.000; -937.000
275.658;  -66.250; -590.000; -555.000
275.798;  -68.000; -606.000; -413.000
275.938;   20.625;  215.000;  323.000
276.078;  -96.450; -626.000; -395.000
276.218;   -7.875;   99.000;  104.000
276.359; -136.900;-1026.000;-1024.000
276.499;  -77.025; -605.000; -446.000
276.639;  -30.075; -305.000; -151.000
276.779;  -51.200; -475.000; -357.000
276.919;  -99.850; -783.000; -624.000
277.059;  -28.100; -261.000; -212.000
277.199;  -34.025; -357.000; -259.000
277.340;   41.275;  287.000;  175.000
277.480; -108.600; -840.000; -693.000
277.620;   21.675;  192.000;   16.000
277.760; -187.675;-1533.000;-1294.000
277.900;   -1.700;  113.000;   33.000
278.040;   15.700;  137.000;  159.000
278.180;   34.650;  270.000;  170.000
278.320;   -6.850;   21.000;   56.000
278.460;  -73.950; -443.000; -469.000
278.600;  -87.425; -708.000; -598.000
278.740;   44.800;  448.000;  224.000
278.880;  -58.750; -768.000; -791.000
279.020;  -17.200; -194.000; -144.000
279.160;  -91.775; -672.000; -595.000
279.300; -108.375; -926.000; -873.000
279.440;  -99.450; -709.000; -622.000
279.579;  -28.175;-1014.000; -929.000
279.719;  -43.175; -410.000; -394.000
279.859;   62.050;   -4.000;   41.000
279.999;   22.550; -208.000;  101.000
280.139;  -18.375; -435.000; -387.000
280.279;  -78.650; -708.000; -745.000
280.419;  -16.425; -229.000; -147.000
280.559;  -32.775; -259.000; -180.000
280.698;  -91.650; -790.000; -639.000
280.838;  -97.275; -778.000; -800.000
280.978;  -98.450; -846.000; -790.000
281.118; -130.350; -811.000; -704.000
281.257;  -14.925;   24.000;    6.000
281.397; -121.825;-1094.000; -960.000
281.537;  -88.500; -599.000; -712.000
281.677;  -26.250; -150.000; -101.000
281.816;  -99.050; -700.000; -630.000
281.956;  -31.275; -193.000; -257.000
282.096;  -79.575; -539.000; -396.000
282.235; -117.800; -672.000; -638.000
282.375;  -18.025; -243.000;  -98.000
282.515; -115.625; -715.000; -707.000
282.654;   21.200;   29.000;  106.000
282.794;   22.175;  388.000;  244.000
282.934;  -52.900; -530.000; -491.000
283.073; -126.150;-1030.000; -857.000
283.213;  -54.700; -460.000; -467.000
283.353;  -39.625; -408.000; -349.000
283.492;  -37.875; -264.000; -296.000
283.632;  -44.825; -254.000; -168.000
283.771;  -96.750; -859.000; -730.000
283.911;  -69.575; -369.000; -260.000
284.050;  -89.575; -794.000; -748.000
284.190; -165.875;-1229.000;-1096.000
284.329; -137.500;-1055.000; -964.000
284.469;  -70.150; -516.000; -591.000
284.608;  -68.050; -559.000; -598.000
284.748;  -80.550; -614.000; -570.000
284.887;  -10.725;  -87.000;  -20.000
285.027; -135.800; -844.000; -892.000
285.166;  -25.375; -192.000; -249.000
285.306;   -6.625; -116.000;  -33.000
285.445;  -42.500; -229.000; -343.000
285.584;  -90.675; -630.000; -494.000
285.724;  -57.000; -282.000; -322.000
285.863; -117.025; -857.000; -507.000
286.002;  -47.675; -366.000; -276.000
286.142; -100.725; -715.000; -622.000
286.281;  -58.525; -525.000; -493.000
286.420;  -80.300; -554.000; -417.000
286.560;   95.725;  653.000;  623.000
286.699; -129.250; -958.000; -912.000
286.838;  -81.525; -590.000; -591.000
286.978;  -93.825; -533.000; -537.000
287.117; -131.000;-1085.000; -950.000
287.256;  -31.750; -228.000; -211.000
287.395;  -65.725; -197.000; -378.000
287.535;  -59.550; -370.000; -298.000
287.674;  -76.425; -509.000; -484.000
287.813;   45.625;  661.000;  533.000
287.952; -120.075;-1010.000; -871.000
288.091; -155.325;-1049.000; -915.000
288.231;    4.325;   13.000;   15.000
288.370; -175.325;-1217.000;-1200.000
288.509;  -92.200; -728.000; -645.000
288.648;  -81.575; -770.000; -548.000
288.787;  -41.275; -243.000;  -87.000
288.926;  -71.100; -454.000; -475.000
289.065;  105.200;  859.000;  672.000
289.204;  -46.550; -377.000; -217.000
289.344;  -95.650; -791.000; -690.000
289.483;   16.500;  416.000;  304.000
289.622;  -31.300; -291.000; -149.000
289.761;  -29.850; -309.000; -166.000
289.900; -110.125; -785.000; -626.000
290.039;  -20.475;  -12.000;  -95.000
290.178;  -36.800; -274.000; -180.000
290.317;  -83.800; -618.000; -479.000
290.456;  -73.100; -463.000; -451.000
290.595; -125.575; -961.000; -833.000
290.734; -148.875; -904.000; -891.000
290.873;  -68.425; -456.000; -420.000
291.011; -113.225; -833.000; -843.000
291.150;  -97.875; -770.000; -682.000
291.289;  -37.150; -343.000; -110.000
291.428; -104.775; -599.000; -480.000
291.567;  -44.475; -370.000; -442.000
291.706;   -7.575;  109.000;  154.000
291.845;  -92.750; -597.000; -505.000
291.984; -169.625;-1234.000;-1061.000
292.122;   74.625;  602.000;  582.000
292.261;   44.250;  620.000;  463.000
292.400;   11.600; -144.000;  211.000
292.539; -130.225; -959.000; -813.000
292.678;  -28.950; -325.000; -300.000
292.816; -149.525;-1136.000; -965.000
292.955;  -93.125; -844.000; -684.000
293.094;  -21.050; -173.000; -337.000
293.233;  -68.050; -556.000; -400.000
293.371;  -30.850; -225.000;  -84.000
293.510; -117.275; -866.000; -780.000
293.649; -134.000; -959.000; -924.000
293.787;  -76.675;-1083.000;-1012.000
293.926;  -11.600; -113.000;  -32.000
294.065;  -55.900; -379.000; -290.000
294.203;   43.825;  298.000;  406.000
294.342;   20.975;   74.000;  156.000
294.481; 5622.725;51180.000; -836.000
294.619;  -49.050; -425.000; -582.000
294.758; -148.300;-1230.000;-1137.000
294.896;   47.925; -125.000;    5.000
295.035; -133.825;-1040.000;-1006.000
295.174; -125.400;-1082.000; -954.000
295.312;  -37.925; -323.000; -203.000
295.451;  -20.525; -307.000; -428.000
295.589;  -70.875; -389.000; -518.000
295.728;   21.350; -292.000; -165.000
295.866;    1.400;  -36.000;  -51.000
296.005;  -70.200; -584.000; -341.000
296.143;  -74.775; -558.000; -596.000
296.282; -115.525; -957.000; -881.000
296.420;  -81.600; -657.000; -557.000
296.559;  -88.375; -892.000; -633.000
296.697;    4.375; -847.000; -665.000
296.835;   33.725;-1141.000;-1002.000
296.974;   33.250;  -23.000;   39.000
297.112;   -7.350; -443.000; -504.000
297.251;  -87.625; -815.000; -755.000
297.389;   63.475; -576.000; -438.000
297.527;   17.000; -145.000;  -83.000
297.666;  -74.725; -486.000; -438.000
297.804;  -44.450; -404.000; -264.000
297.942;  -11.000; -136.000; -161.000
298.081;   -5.800; -183.000;   63.000
298.219;   47.150;  -17.000;  -19.000
298.357;   40.175; -144.000;  -71.000
298.495;   10.800; -810.000; -812.000
298.634;   51.750;  245.000;  219.000
298.772;   39.575; -220.000; -338.000
298.910;  -51.200; -309.000; -182.000
299.048;  -15.275; -130.000; -153.000
299.187;  -26.650; -350.000; -250.000
299.325;   10.175;   52.000;  122.000
299.463;   27.275; -389.000; -299.000
299.601;   91.700; -327.000; -271.000
299.739; -109.875; -908.000; -883.000
299.877;  -91.875; -791.000; -703.000
300.016;  -50.000;-1095.000; -935.000
300.154;  131.125;  -19.000; -161.000
300.292;   34.825; -428.000; -348.000
300.430;   16.375; -408.000; -291.000
300.568; -106.975; -940.000; -874.000
300.706;  -62.750; -366.000; -469.000
300.844;  -88.950;-1108.000; -979.000
300.982;  110.700;  246.000;  282.000
301.120; -117.500; -965.000; -866.000
301.258;  -69.500; -812.000; -705.000
301.396;   11.600;  104.000;  -41.000
301.534;   52.850; -218.000; -293.000
301.672;  -25.725; -664.000; -521.000
301.810;    4.900; -613.000; -545.000
301.948;   98.325;   53.000;  149.000
302.086;  561.125; -250.000;  -32.000
302.224;  820.850; -610.000; -585.000
302.362;   23.025; -558.000; -622.000
302.500;  -40.675; -923.000; -893.000
302.638;   76.550;  128.000;  245.000
302.776;   -9.875; -352.000; -408.000
302.913;   36.300;  447.000;  236.000
303.051;  -23.975;  -86.000;  -23.000
303.189;   24.400;   90.000;  118.000
303.327;  -35.675; -341.000; -256.000
303.465;  -84.025; -832.000; -588.000
303.603; -112.375; -805.000; -604.000
303.740;   87.775;  417.000;  241.000
303.878;    0.300; -800.000; -759.000
304.016;  -91.975; -915.000; -790.000
304.154; -129.175;-1123.000;-1152.000
304.291;  -39.550; -505.000; -554.000
304.429;   12.175;  102.000;   74.000
304.567; -138.000; -908.000; -893.000
304.705;  -55.350; -408.000; -515.000
304.842;   76.250; -616.000; -540.000
304.980;   57.750;  215.000;   35.000
305.118;   34.150; -367.000; -365.000
305.255;  -86.325; -945.000; -927.000
305.393;   50.900;  178.000;  239.000
305.531; -100.175;-1173.000; -956.000
305.668;  -71.750; -663.000; -582.000
305.806;   96.525; -358.000; -439.000
305.943;   93.975; -629.000; -637.000
306.081;   40.150; -378.000; -267.000
306.219; -109.625; -863.000; -748.000
306.356;   -1.700;  158.000;   27.000
306.494;  102.000;  981.000;  761.000
306.631;   -0.400;  -11.000;  -55.000
306.769;   -5.000; -613.000; -485.000
306.906;  -34.850; -284.000; -258.000
307.044;  -69.850; -473.000; -488.000
307.181;  -69.425; -410.000; -332.000
307.319;    6.650;  112.000;   87.000
307.456; -177.075;-1191.000;-1153.000
307.594; -110.575; -980.000; -727.000
307.731;  -17.375; -371.000; -164.000
307.868;   -3.325;  -15.000;   20.000
308.006; -144.925; -961.000; -847.000
308.143;  -73.350; -618.000; -330.000
308.281;  154.800;  -37.000; -254.000
308.418;  -23.950; -748.000; -640.000
308.555;  -71.400; -400.000; -250.000
308.693;  -84.525; -577.000; -573.000
308.830; -114.350; -712.000; -657.000
308.967;   -1.150; -215.000;  -95.000
309.105;  -50.275; -507.000; -396.000
309.242;   27.050; -468.000; -367.000
309.379;  290.800; -577.000; -655.000
309.517;  -65.700; -936.000; -948.000
309.654; -110.850; -910.000; -734.000
309.791;  -76.150; -662.000; -580.000
309.928; -122.825; -977.000; -914.000
310.065;  154.000;  819.000;  697.000
310.203;  -13.150; -825.000; -850.000
310.340;  -21.250; -465.000; -321.000
310.477;  -79.200; -412.000; -516.000
310.614;  -72.950; -383.000; -473.000
310.751;  -84.900; -427.000; -518.000
310.889;  -26.450;    1.000;   11.000
311.026; -161.425;-1161.000; -939.000
311.163;  -38.775; -386.000; -380.000
311.300;  -84.750; -512.000; -479.000
311.437;  -85.525; -658.000; -619.000
311.574; -161.675;-1226.000; -985.000
311.711;  -70.875; -595.000; -433.000
311.848;  -56.825; -380.000; -388.000
311.985;    1.750;  270.000;   93.000
312.122; -121.975; -932.000; -762.000
312.259; -128.850; -941.000; -994.000
312.396;  -84.425; -508.000; -551.000
312.533;  -91.675; -812.000; -790.000
312.670; -138.775;-1070.000; -898.000
312.807;  -40.350; -352.000; -367.000
312.944;  -83.000; -513.000; -611.000
313.081;  -45.000; -150.000; -415.000
313.218; -105.325;-1111.000; -867.000
313.355;   -1.025; -531.000; -449.000
313.492;    3.425; -455.000; -292.000
313.629;  125.050;  815.000;  735.000
313.766; -148.575;-1176.000;-1008.000
313.902;  -21.150; -186.000;   21.000
314.039;  -65.900; -372.000; -289.000
314.176;   30.325;  286.000;  192.000
314.313;  -72.375; -569.000; -473.000
314.450;  -83.950; -788.000; -684.000
314.587;  -67.075; -468.000; -480.000
314.723;  -11.325;  -78.000;  130.000
314.860;   32.125;  318.000;  332.000
314.997;   20.225;  223.000;  142.000
315.134;  -38.475; -385.000; -368.000
315.270;  -40.325; -480.000; -496.000
315.407; -124.200;-1094.000; -967.000
315.544;  -55.900; -657.000; -538.000
315.681;  -76.350; -681.000; -565.000
315.817;   21.275; -133.000; -176.000
315.954;    9.150; -613.000; -392.000
316.091; -133.925;-1045.000;-1023.000
316.227;  -32.500;  -71.000; -179.000
316.364;    1.825;   23.000;    6.000
316.500;  -44.650; -113.000; -300.000
316.637;  -41.725; -181.000; -302.000
316.774;  -95.875; -625.000; -358.000
316.910;  -99.475; -598.000; -629.000
317.047;  -78.225; -487.000; -351.000
317.183;  -49.700; -435.000; -566.000
317.320;   -6.100; -367.000; -321.000
317.456;  -75.350; -733.000; -805.000
317.593; -101.425; -598.000; -641.000
317.729;  -11.600;  168.000;  -67.000
317.866; -197.500;-1434.000;-1285.000
318.002;  -90.500; -708.000; -948.000
318.139;  -92.925; -883.000; -867.000
318.275; -104.150;-1003.000; -738.000
318.412;  -60.750; -517.000; -336.000
318.548;  -43.125; -751.000; -720.000
318.685; -114.400; -985.000; -888.000
318.821; -104.975; -762.000; -735.000
318.957;  -31.675;   34.000;  -23.000
319.094;   38.975;  297.000;  154.000
319.230;  -63.400; -756.000; -742.000
319.367;  100.775; -471.000; -520.000
319.503;   38.500; -538.000; -436.000
319.639;  -97.175; -877.000; -793.000
319.775;  -65.775; -750.000; -685.000
319.912;  -57.375; -424.000; -519.000
320.048;  -90.225;-1184.000;-1184.000
320.184;   69.725;   59.000;   70.000
320.321;  -70.200; -497.000; -467.000
320.457;   49.775;  475.000;  662.000
320.593;  -62.750; -375.000; -382.000
320.729; -105.600; -732.000; -734.000
320.866;  -79.225; -577.000; -635.000
321.002;  -90.225; -759.000; -809.000
321.138;  -29.650; -135.000; -211.000
321.274;   63.750; -148.000; -115.000
321.410;  -37.375; -585.000; -353.000
321.546;  -50.900;-1011.000; -911.000
321.683;   50.925;  400.000;  185.000
321.819;   -8.925;  -48.000; -117.000
321.955; -101.575; -743.000; -722.000
322.091;  -47.025; -585.000; -540.000
322.227;  -19.700; -382.000; -202.000
322.363;  -16.400; -320.000; -215.000
322.499;  -56.400; -343.000; -331.000
322.635;  139.575;  636.000;  443.000
322.771;   23.125; -139.000;   12.000
322.907;   88.025;  129.000;  327.000
323.043;  -32.375; -115.000; -206.000
323.179;  -35.150; -394.000; -363.000
323.315;    7.750; -401.000; -371.000
323.451;   79.650; -328.000; -236.000
323.587;   68.150;  -60.000;  -77.000
323.723;   -0.650; -682.000; -601.000
323.859;  -11.025; -258.000;  -76.000
323.995;  -41.375; -467.000; -409.000
324.131; -121.375; -967.000; -892.000
324.267;  -51.225; -254.000; -276.000
324.402; -127.375; -960.000; -983.000
324.538;  -32.400; -279.000; -104.000
324.674;    9.250;  164.000;   77.000
324.810;   99.950;  226.000;  308.000
324.946;  -11.950; -810.000; -658.000
325.082;  -90.050; -568.000; -475.000
325.217;  -15.600;  -62.000;   16.000
325.353; -111.675; -764.000; -659.000
325.489;  -92.700; -540.000; -506.000
325.625;  -84.775; -579.000; -525.000
325.760;   60.100;  517.000;  376.000
325.896;  -23.075; -515.000; -702.000
326.032;  -50.075; -403.000; -352.000
326.168;  -61.975; -462.000; -369.000
326.303;  -66.000; -352.000; -461.000
326.439;  -28.425; -336.000; -276.000
326.575;    7.425; -190.000;  -29.000
326.710;  -14.550; -156.000;  -30.000
326.846;  -17.200;  146.000;  103.000
326.982;  -91.675; -530.000; -548.000
327.117;  -88.450; -481.000; -442.000
327.253;  -98.250; -745.000; -742.000
327.388; -175.075;-1137.000;-1153.000
327.524;  -66.325; -811.000; -578.000
327.659;  -32.400;  -58.000;  -22.000
327.795;  -23.025;   69.000;   45.000
327.931;  -97.625; -723.000; -499.000
328.066;  -30.250; -417.000; -276.000
328.202;  -12.275;   12.000; -129.000
328.337;   86.125;  957.000;  713.000
328.473;   21.925;  -12.000;  -74.000
328.608;  -35.625; -256.000; -267.000
328.743;  -89.950; -799.000; -664.000
328.879;    5.625;  214.000;  114.000
329.014;  -39.575; -102.000; -122.000
329.150;  -87.225; -358.000; -483.000
329.285;  -77.600; -465.000; -466.000
329.421;  -48.900; -548.000; -246.000
329.556;  -38.725;  -36.000;   85.000
329.691;  -97.650; -633.000; -615.000
329.827;  -89.150; -626.000; -480.000
329.962;  -48.850;  131.000; -301.000
330.097;  -96.275; -673.000; -585.000
330.233;  -55.550; -410.000; -223.000
330.368; -109.125; -839.000; -628.000
330.503;  -23.525;    3.000;   98.000
330.638;   -0.775;  -93.000; -125.000
330.774;  -63.400; -609.000; -530.000
330.909;  -52.725; -434.000; -244.000
331.044;  -98.500; -714.000; -708.000
331.179; -162.175;-1217.000;-1109.000
331.315;    4.550;   77.000;   20.000
331.450;  -10.400;  157.000;  285.000
331.585;  -89.300; -805.000; -706.000
331.720;  -83.750; -510.000; -460.000
331.855;   -9.200;  -35.000; -102.000
331.990;  266.425;   62.000;  138.000
332.126;  133.275; -110.000;   71.000
332.261;  -32.050; -379.000; -265.000
332.396;   -0.975; -135.000; -242.000
332.531;  -94.025;-1074.000;-1031.000
332.666;   30.400; -519.000; -363.000
332.801; -108.125; -726.000; -807.000
332.936;  -30.075; -192.000; -122.000
333.071; -152.000; -870.000; -817.000
333.206;    7.050;  307.000;  379.000
333.341;   25.800;  344.000;  418.000
333.476;  -97.450; -627.000; -623.000
333.611;  -42.350; -251.000; -173.000
333.746;  -61.775; -381.000; -464.000
333.881; -104.425; -973.000; -935.000
334.016; -142.725; -936.000; -917.000
334.151; -127.600; -746.000; -702.000
334.286;   13.525;  152.000;  186.000
334.421;  -17.225; -125.000; -178.000
334.556;  -83.975; -611.000; -567.000
334.690;  -98.075; -631.000; -577.000
334.825;   38.100;  381.000;   83.000
334.960;  -67.900; -285.000; -413.000
335.095;    6.875;  135.000;  -91.000
335.230; -106.525; -722.000; -738.000
335.365; -134.250;-1084.000; -990.000
335.499; -139.325;-1108.000;-1037.000
335.634;   21.600;    9.000;  534.000
335.769; -105.175; -755.000; -720.000
335.904;  -77.850; -603.000; -561.000
336.038;  -64.525; -735.000; -657.000
336.173; -118.275;-1206.000;-1194.000
336.308;    0.400; -116.000; -189.000
336.443;   16.600; -544.000; -634.000
336.577;  -72.725; -936.000; -787.000
336.712;   56.025;   -4.000;  -12.000
336.847;  -53.500; -724.000; -607.000
336.981;   56.675; -272.000; -208.000
337.116;  255.800;  615.000;  501.000
337.250;  125.350; -434.000; -421.000
337.385;  291.325; -297.000; -208.000
337.520;  116.025; -632.000; -603.000
337.654;  -36.025; -215.000; -126.000
337.789; -137.875; -989.000; -933.000
337.923;  -42.250; -104.000; -205.000
338.058; -104.300; -673.000; -738.000
338.192;  -52.150; -611.000; -488.000
338.327;  -21.450;  -18.000; -155.000
338.461;  -71.675; -299.000; -469.000
338.596;  -92.575; -780.000; -638.000
338.730;  -98.600; -767.000; -803.000
338.865;  107.375;  -46.000; -140.000
338.999;  -54.700; -846.000; -702.000
339.134;  -30.100; -634.000; -536.000
339.268;   22.325; -741.000; -603.000
339.403;  374.125; -740.000; -775.000
339.537;  128.325; -894.000; -820.000
339.671; -129.675; -829.000; -813.000
339.806;  -50.125; -556.000; -512.000
339.940;   19.150; -261.000; -235.000
340.074; -106.500; -685.000; -510.000
340.209;  -56.900; -351.000; -230.000
340.343;  -86.775; -517.000; -573.000
340.477;  137.975;  998.000; 1036.000
340.612;  -45.400;-1033.000; -900.000
340.746;  146.750; -199.000; -243.000
340.880;  -73.900; -924.000; -785.000
341.014;  -22.425;  -45.000; -154.000
341.149; -116.250; -756.000; -718.000
341.283; -119.600; -839.000; -754.000
341.417; -100.250;-1124.000; -938.000
341.551;  117.825; -768.000; -708.000
341.685;  -32.925; -633.000; -611.000
341.820;  -59.200; -562.000; -493.000
341.954;  -55.550; -218.000; -349.000
342.088; -152.150;-1102.000;-1019.000
342.222;   49.225;  565.000;  618.000
342.356;  -62.525; -395.000; -335.000
342.490;  -97.800; -880.000; -841.000
342.624;  -49.350; -339.000; -242.000
342.758;    0.925; -364.000; -312.000
342.892;  -68.775; -710.000; -585.000
343.026;  -36.600;  -58.000; -116.000
343.160;  -70.875; -426.000; -376.000
343.294;  -68.150; -474.000; -337.000
343.428;  -42.075; -488.000; -448.000
343.562;  -22.575; -172.000;  -23.000
343.696;  -23.275; -385.000; -314.000
343.830;  -33.950; -362.000; -356.000
343.964;    7.475; -231.000; -168.000
344.098;  800.725;  199.000;   70.000
344.232;  677.450; -266.000; -127.000
344.366;   96.650; -567.000; -453.000
344.500;   26.225; -665.000; -744.000
344.634;   21.000; -324.000; -164.000
344.768;  -22.750; -531.000; -341.000
344.902;   13.700;  278.000;  256.000
345.035;  -66.125; -556.000; -496.000
345.169; -133.700; -933.000; -656.000
345.303;  -37.275; -308.000; -482.000
345.437;  -84.575; -826.000; -717.000
345.571;  -67.225; -675.000; -594.000
345.704;  -67.725; -309.000; -532.000
345.838;  -18.375; -331.000; -284.000
345.972;  -37.275; -543.000; -495.000
346.106;  145.300; -179.000; -190.000
346.239;  420.650; -312.000; -243.000
346.373;    2.025; -343.000; -302.000
346.507; -141.125; -950.000; -962.000
346.640;  118.125;  -30.000;   13.000
346.774;  -55.850; -650.000; -797.000
346.908;  -16.150; -138.000;  -11.000
347.041; -102.525; -646.000; -593.000
347.175;    2.100;  259.000;   27.000
347.309;  -82.400; -698.000; -628.000
347.442;  -98.550; -883.000; -732.000
347.576;  246.675;  670.000;  668.000
347.709;  152.350; -123.000;  -52.000
347.843;  -91.400; -933.000; -825.000
347.976;   19.375;  235.000;  294.000
348.110; -175.275;-1268.000;-1186.000
348.243; -102.225; -679.000; -772.000
348.377;   -6.975;  -26.000;   60.000
348.510;   39.325;  403.000;  540.000
348.644;  -50.575;  -37.000; -159.000
348.777;  -10.650;  180.000;  191.000
348.911;  -53.175; -142.000; -112.000
349.044;  154.725;  471.000;  448.000
349.178;  118.250;-1069.000;-1006.000
349.311;  115.150;  141.000;  255.000
349.444;   -6.400; -927.000; -813.000
349.578;  -41.875; -347.000; -200.000
349.711; -121.100; -959.000; -862.000
349.845;  -13.675; -661.000; -591.000
349.978; -158.675;-1224.000;-1137.000
350.111;  -90.950; -546.000; -612.000
350.244;  -85.425; -596.000; -700.000
350.378;  -10.575; -392.000; -393.000
350.511;  -65.900; -393.000; -426.000
350.644; -105.800; -808.000; -806.000
350.778;   -8.825;  168.000;  104.000
350.911;  -12.500;  134.000;  140.000
351.044; -107.150; -685.000; -615.000
351.177;  -25.275; -321.000; -281.000
351.310;  -21.125;    3.000; -131.000
351.444;  -93.500; -888.000; -788.000
351.577;  108.925;  140.000;   90.000
351.710;   92.675;  593.000;  417.000
351.843;  -36.425; -165.000;  -77.000
351.976;   -9.850;  149.000;  -79.000
352.109;  -97.175; -621.000; -612.000
352.242;  -44.875; -464.000; -419.000
352.376;  -69.800; -580.000; -636.000
352.509;  139.775; -437.000; -356.000
352.642;  -12.825; -654.000; -604.000
352.775;   52.625; -141.000;  -98.000
352.908; -113.625; -933.000; -904.000
353.041; -110.150; -814.000; -824.000
353.174;  -65.225; -551.000; -424.000
353.307;  -89.650; -753.000; -764.000
353.440;   54.825;  541.000;  453.000
353.573; -104.325; -957.000;-1008.000
353.706;  -50.525; -384.000; -558.000
353.839;  -28.900; -264.000; -220.000
353.971;  -80.625; -657.000; -512.000
354.104;  -87.700; -896.000; -835.000
354.237;  -37.000; -627.000; -662.000
354.370;  -92.400; -846.000; -879.000
354.503; -173.075;-1231.000;-1308.000
354.636;  -49.950; -529.000; -348.000
354.769; -129.750; -937.000; -860.000
354.902;  -13.725; -230.000; -139.000
355.034;  -32.175; -164.000; -220.000
355.167;  -23.350; -262.000; -162.000
355.300;  -98.225;-1061.000; -880.000
355.433; 1011.750;  -71.000;  -14.000
355.565; 1571.625; -402.000; -384.000
355.698;  409.575; -356.000; -296.000
355.831;   -3.425; -882.000; -801.000
355.964;   60.775; -285.000; -170.000
356.096; -101.175; -856.000; -843.000
356.229;  -21.275; -523.000; -530.000
356.362;  342.000; -373.000; -266.000
356.494;  627.250; -229.000; -162.000
356.627;  437.400;  269.000;  377.000
356.760;  661.525;  120.000;   53.000
356.892; 1025.125; -286.000; -601.000
357.025;  590.575;  403.000;  389.000
357.157;  532.675; -167.000; -179.000
357.290;  718.675; -856.000; -713.000
357.423;  220.700; -667.000; -556.000
357.555;   96.800; -217.000; -228.000
357.688;  105.175; -483.000; -364.000
357.820;  421.250; -870.000; -877.000
357.953; 3412.950; -563.000; -589.000
358.085;  737.950; -632.000; -612.000
358.218;  930.675;-1131.000; -932.000
358.350;  171.175;  -58.000;  312.000
358.483; -125.050;-1300.000;-1187.000
358.615;  -48.500;-1182.000;-1078.000
358.747;  -82.800;-1187.000;-1058.000
358.880;    7.600; -810.000; -744.000
359.012;  -16.975; -376.000; -202.000
359.145;  -44.250; -480.000; -511.000
359.277;   44.250; -962.000; -913.000
359.409; 2793.975;  536.000;  231.000
359.542;  770.200; -738.000; -688.000
359.674;   68.475;   46.000;   13.000
359.806;  -64.450; -565.000; -438.000
359.939;  -46.525; -617.000; -516.000
360.071;  -23.975; -583.000; -579.000
360.203;  -18.400; -411.000; -364.000
360.335;   47.200;  164.000;  -16.000
360.468;  166.225; -249.000; -307.000
360.600; 2307.425; -547.000; -454.000
360.732; 3004.400; -546.000; -423.000
360.864;  430.125;-1216.000;-1044.000
360.996;  223.375; -516.000; -554.000
361.129;   50.300; -389.000; -598.000
361.261;   18.725;  110.000; -113.000
361.393;  -27.775; -252.000; -214.000
361.525;   18.075;   94.000;  244.000
361.657;  -50.100; -821.000; -703.000
361.789;  -10.200; -139.000; -155.000
361.921;  172.950; -642.000; -593.000
362.053;  249.900;  524.000;  541.000
362.185;   33.775;  288.000;   72.000
362.318;  -83.400; -709.000; -705.000
362.450;   86.275;  294.000;  444.000
362.582;   47.975; -913.000; -870.000
362.714;  -42.850; -353.000; -332.000
362.846; -102.025; -606.000; -490.000
362.978; -147.175; -941.000; -811.000
363.109;   20.750; -161.000; -260.000
363.241;  377.650; -739.000; -749.000
363.373;  432.600; -649.000; -564.000
363.505;  714.950; -186.000;  -91.000
363.637;  183.150; -787.000; -601.000
363.769; -103.775;-1067.000;-1080.000
363.901;  -66.250; -596.000; -654.000
364.033; -133.625;-1103.000;-1062.000
364.165;  -10.200; -283.000; -283.000
364.296;   54.825; -316.000; -177.000
364.428;   84.075;-1344.000;-1220.000
364.560;  -68.700; -679.000; -661.000
364.692;  -70.475; -738.000; -835.000
364.824;  208.500; -588.000; -456.000
364.955;  442.550; -402.000; -564.000
365.087; 1031.950;-1097.000; -852.000
365.219;   26.250; -686.000; -816.000
365.351;  -67.300; -526.000; -572.000
365.482;   43.200;  300.000;  240.000
365.614;  -54.725; -402.000; -314.000
365.746; -108.950; -729.000; -752.000
365.877; -102.075; -706.000; -672.000
366.009;  270.100;  -35.000;  -62.000
366.141;  -78.800;-1249.000;-1134.000
366.272; -116.325; -803.000; -719.000
366.404; -126.125;-1005.000; -874.000
366.535;  -14.800; -139.000;  -12.000
366.667; -104.900; -644.000; -649.000
366.799;   31.550;  353.000;  203.000
366.930; -117.550; -862.000; -996.000
367.062;  134.575; -639.000; -613.000
367.193;  172.750; -872.000; -842.000
367.325;  -67.950; -580.000; -684.000
367.456;   31.975; -246.000;   31.000
367.588;  149.700; -371.000; -318.000
367.719;   20.600;  -44.000;  -45.000
367.851;  -29.500; -222.000; -241.000
367.982;  -57.300; -875.000; -732.000
368.113;   73.950; -475.000; -358.000
368.245; -132.675; -960.000; -841.000
368.376;  -28.700; -254.000; -302.000
368.508;  -33.250; -188.000; -263.000
368.639; -128.700;-1166.000;-1034.000
368.770;  -31.650; -670.000; -589.000
368.902;  -67.975; -836.000; -926.000
369.033; -109.025; -906.000; -855.000
369.164;  -52.200; -720.000; -653.000
369.296; -109.150; -452.000; -601.000
369.427;  -15.400; -209.000; -144.000
369.558;  -58.800; -593.000; -377.000
369.689;  -99.375; -721.000; -569.000
369.821; -141.825; -951.000; -845.000
369.952;  -22.975;   42.000; -108.000
370.083;  -63.825; -229.000; -108.000
370.214;  -94.900; -735.000; -650.000
370.345;   -5.775;   65.000;   81.000
370.477;  -99.300; -810.000; -790.000
370.608;  186.525; -328.000; -264.000
370.739;  -64.225;-1233.000;-1292.000
370.870;  -57.675;-1102.000; -923.000
371.001;   52.050; -378.000; -467.000
371.132; -102.500; -754.000; -735.000
371.263;  -23.600;  -42.000; -148.000
371.394; -133.725; -841.000; -748.000
371.525;   22.625;  345.000;  225.000
371.657;  -92.975; -808.000; -670.000
371.788;   59.675;  103.000;  199.000
371.919;  130.050; -384.000; -304.000
372.050; 3209.100;  -91.000; -156.000
372.181; 1013.650; -188.000; -294.000
372.311;  308.675;   42.000; -127.000
372.442;    6.875; -457.000; -451.000
372.573;  -24.975; -444.000; -340.000
372.704; -119.900;-1008.000; -980.000
372.835;   71.875; -228.000; -289.000
372.966;  -64.675; -646.000; -554.000
373.097;  -82.075; -575.000; -711.000
373.228;  -50.275; -717.000; -542.000
373.359;   92.325; -824.000; -536.000
373.490;  794.050; -881.000; -727.000
373.620; 1053.500;-1001.000; -803.000
373.751; 1542.500; -332.000; -396.000
373.882;  697.175; -663.000; -733.000
374.013;   47.400; -449.000; -262.000
374.143;  -40.375; -581.000; -659.000
374.274; -101.700; -987.000; -908.000
374.405;  143.425; -388.000; -276.000
374.536;  372.350; -526.000; -387.000
374.666;  965.950; -759.000; -807.000
374.797;  182.250; -817.000; -868.000
374.928;  730.625; -710.000; -560.000
375.058;  770.200; -535.000; -500.000
375.189;   69.325;  -59.000;  -93.000
375.320; -116.150; -928.000;-1034.000
375.450;  -57.825; -625.000; -616.000
375.581;  -61.000; -526.000; -436.000
375.712;  -40.600; -574.000; -250.000
375.842;  252.675; -438.000; -415.000
375.973;  185.575; -554.000; -513.000
376.103;  -58.875; -665.000; -648.000
376.234;  -82.050; -531.000; -552.000
376.364;  -51.200; -944.000; -867.000
376.495;  289.975;  925.000;  529.000
376.625;  -30.800; -472.000; -485.000
376.756;   33.375; -709.000; -678.000
376.886;  -94.225;-1178.000;-1026.000
377.017;   54.675;-1048.000;-1061.000
377.147;  372.650; -786.000; -782.000
377.278;   62.175;  174.000;  228.000
377.408; -126.550; -801.000; -815.000
377.538; -116.400; -707.000; -693.000
377.669;  -88.950; -537.000; -613.000
377.799; -101.025; -645.000; -635.000
377.929;  -74.875; -610.000; -428.000
378.060; -134.925; -781.000; -847.000
378.190;  -62.950; -726.000; -531.000
378.320;  -58.425; -401.000; -406.000
378.451;  -20.900; -131.000;  -22.000
378.581;  -25.100;  -67.000; -110.000
378.711;  127.025; 1035.000;  866.000
378.841;  -34.875; -533.000; -675.000
378.972;  -89.150; -871.000; -751.000
379.102;  -24.925; -652.000; -579.000
379.232;  -39.650; -126.000;  -73.000
379.362; -127.700;-1001.000; -885.000
379.492;   -1.825; -373.000; -424.000
379.623;   92.475;    0.000;  111.000
379.753; -109.575;-1107.000; -974.000
379.883;  169.175;   59.000;  156.000
380.013;  -20.850;-1081.000;-1017.000
380.143; -107.500;-1097.000;-1056.000
380.273; -113.650; -985.000; -861.000
380.403;   -8.000; -344.000; -257.000
380.533;  -44.600; -651.000; -664.000
380.663;   51.875;  173.000;  128.000
380.793; -112.200;-1027.000;-1074.000
380.923;  -34.675; -103.000;  -34.000
381.053; -101.400; -613.000; -623.000
381.183;  -41.700; -106.000; -248.000
381.313;    9.250; -656.000; -470.000
381.443;   15.200; -692.000; -473.000
381.573;  156.775; -402.000; -409.000
381.703;  234.325;-1249.000;-1095.000
381.833; -132.875;-1454.000;-1336.000
381.963;   83.800; -134.000;  -87.000
382.093; 1294.400; -925.000; -909.000
382.223;  382.300; -713.000; -602.000
382.353;  -35.625; -801.000; -608.000
382.482;  295.325;-1091.000; -964.000
382.612;  675.300; -872.000; -644.000
382.742;  389.450; -695.000; -622.000
382.872;  199.400; -565.000; -551.000
383.002;   67.675;  347.000; -132.000
383.131;  -30.850; -226.000; -160.000
383.261;  -52.000; -706.000; -768.000
383.391;  281.725; -552.000; -377.000
383.521; 3408.975;  451.000;  263.000
383.650;  856.175; -947.000; -904.000
383.780;  -21.975; -783.000; -656.000
383.910;   99.450;  880.000;  802.000
384.039;   -1.850; -794.000; -656.000
384.169;  151.450;-1205.000;-1017.000
384.299;  -39.050; -650.000; -662.000
384.428;  -94.100; -764.000; -680.000
384.558;  -62.625; -308.000; -275.000
384.687;  -67.350; -414.000; -334.000
384.817;   -5.425;   75.000;   -2.000
384.947;    8.150; -234.000; -141.000
385.076;  257.325;  982.000;  912.000
385.206;   87.600;  369.000;  480.000
385.335;  -47.375; -549.000; -417.000
385.465;  -87.475; -655.000; -663.000
385.594;  127.875;  -53.000;  -44.000
385.724;  355.700; -868.000; -838.000
385.853;   85.025; -296.000; -270.000
385.982; 1155.625; -743.000; -787.000
386.112; 1925.700;-1052.000; -871.000
386.241;  116.025; -307.000; -312.000
386.371;    8.425; -174.000;  -87.000
386.500;  -24.250; -825.000; -789.000
386.629;   15.050; -874.000; -817.000
386.759;   45.300;  -43.000;   68.000
386.888;  -11.825; -170.000; -250.000
387.017;  -99.900; -648.000; -620.000
387.147;  -94.200; -771.000; -798.000
387.276;  -11.525; -410.000; -397.000
387.405;   -0.525; -398.000; -342.000
387.535;  -44.975; -452.000; -361.000
387.664;  -63.675; -692.000; -620.000
387.793;   43.400; -198.000; -113.000
387.922;  430.375;  255.000;  200.000
388.052;    8.100; -576.000; -423.000
388.181;   -9.775; -342.000; -472.000
388.310;  -25.775; -889.000; -710.000
388.439;  -70.375; -749.000; -742.000
388.568;  151.100;  365.000;  244.000
388.697;  889.500; -756.000; -653.000
388.826;  188.425; -768.000; -666.000
388.956;   37.500; -285.000; -307.000
389.085;  -39.825; -347.000; -287.000
389.214; -113.250; -842.000; -872.000
389.343;  -66.325; -645.000; -413.000
389.472;  399.875;  126.000;  149.000
389.601;  522.900;   91.000;    0.000
389.730;    1.825; -568.000; -687.000
389.859;   49.725;  226.000;   46.000
389.988;  142.800; -423.000; -408.000
390.117;  130.125; -168.000; -146.000
390.246;  -24.875; -331.000; -320.000
390.375;   59.050; -673.000; -626.000
390.504;  -79.350; -703.000; -621.000
390.633;  -97.100; -672.000; -726.000
390.761;  -72.300; -732.000; -645.000
390.890;    4.200;   -4.000; -130.000
391.019;  -46.225; -421.000; -441.000
391.148; -126.175; -826.000; -855.000
391.277;  -72.875; -576.000; -493.000
391.406;  -83.050; -821.000; -805.000
391.534;   -0.775;  574.000; -301.000
391.663;  -93.225; -583.000; -645.000
391.792;  -99.450; -673.000; -701.000
391.921;   75.700;   -3.000;   15.000
392.050;  134.275; -287.000; -228.000
392.178;  -76.200;-1206.000;-1061.000
392.307;  109.900; -758.000; -712.000
392.436;   55.275; -427.000; -641.000
392.564;    7.050;  166.000;   -6.000
392.693;  -94.875; -860.000; -682.000
392.822;  154.850; -529.000; -534.000
392.950;   69.025; -880.000; -714.000
393.079;  265.250; -188.000; -328.000
393.208;   14.975; -488.000; -511.000
393.336;  -21.475; -170.000; -145.000
393.465;  -41.400; -317.000; -199.000
393.593;   -1.050;   62.000;   79.000
393.722; -151.825;-1121.000; -916.000
393.850;  -30.975; -188.000;  -61.000
393.979; -164.450; -926.000; -805.000
394.107;  -62.825; -517.000; -537.000
394.236;  -35.550; -570.000; -507.000
394.364;  192.650;  383.000;  206.000
394.493;  308.025; -911.000; -767.000
394.621;  -16.200; -955.000; -916.000
394.750;  737.250; -873.000; -923.000
394.878; 3047.500; -247.000; -149.000
395.007; 4291.725; -721.000; -807.000
395.135;  330.550; -790.000; -721.000
395.263;  -81.575;-1038.000;-1040.000
395.392;  -14.400;  -25.000; -107.000
395.520; -141.600; -818.000; -679.000
395.648; -114.325; -865.000; -915.000
395.777;  -27.350; -366.000; -405.000
395.905;  -57.475; -449.000; -564.000
396.033;    2.250;  217.000;  172.000
396.162;  509.300; -399.000; -453.000
396.290;  488.125;  -17.000;   -2.000
396.418;   68.075; -555.000; -514.000
396.546;  -77.825; -571.000; -466.000
396.674;  -97.725; -850.000; -878.000
396.803;   -7.175;  -72.000;  -23.000
396.931;   51.750; -179.000; -199.000
397.059;   10.350;-1026.000; -989.000
397.187; -117.000;-1026.000; -975.000
397.315; -135.575; -884.000; -649.000
397.443; -101.050; -592.000; -443.000
397.572; -103.975; -578.000; -424.000
397.700;  -40.075; -607.000; -614.000
397.828;   -0.350;  120.000;  -90.000
397.956;  -65.250; -508.000; -478.000
398.084;  -56.600; -767.000; -626.000
398.212;   25.825;  137.000;  124.000
398.340;    3.075;  -56.000;  159.000
398.468;   10.400; -390.000; -169.000
398.596; -140.775; -993.000; -953.000
398.724; -121.825; -762.000; -767.000
398.852; -169.600;-1024.000; -976.000
398.980;  -69.850; -560.000; -560.000
399.108;  -78.475; -982.000; -735.000
399.236;   22.025;   13.000;    8.000
399.363;    8.350;  222.000;  196.000
399.491;  -90.850; -404.000; -398.000
399.619; -140.925; -829.000; -800.000
399.747; -104.775; -859.000; -771.000
399.875;   66.400;  220.000;  234.000
400.003;  -62.775; -359.000; -284.000
400.130;  -99.000; -421.000; -341.000
400.258;  -34.550;  -83.000;   38.000
400.386;  -66.450; -352.000; -168.000
400.514;  -53.200; -526.000; -587.000
400.641;  -92.525; -928.000; -802.000
400.769; -149.075; -979.000; -888.000
400.897; -109.550; -838.000; -793.000
401.025;  -31.925; -166.000; -152.000
401.152;   -9.800;  220.000;   38.000
401.280;  -89.850; -430.000; -429.000
401.408; -117.675; -712.000; -576.000
401.535; -119.550; -735.000; -758.000
401.663; -190.075;-1134.000;-1054.000
401.790;  -93.825; -514.000; -525.000
401.918;   42.375;  436.000;  405.000
402.046;   -7.675;  134.000;  122.000
402.173;  -37.975;  -18.000;    7.000
402.301;  -72.475; -519.000; -397.000
402.428;   30.925;  528.000;  383.000
402.556; -148.925;-1188.000; -913.000
402.683;  -38.525;  -20.000;   -1.000
402.811;  -30.450;  -37.000; -206.000
402.938;   -2.450;   20.000;   27.000
403.066;  151.550; -574.000; -558.000
403.193;  316.950;  299.000;  239.000
403.321;  229.500; -396.000; -574.000
403.448;  287.450;   83.000;   27.000
403.575;  127.625;  -90.000;  -46.000
403.703; -100.025; -732.000; -557.000
403.830;  -75.500; -531.000; -496.000
403.957; -138.700;-1117.000;-1023.000
404.085;    7.500;  -61.000; -172.000
404.212;  105.875;  -50.000;   63.000
404.339;  259.700; -566.000; -306.000
404.467; 6021.250; -612.000; -524.000
404.594; 3998.900; -287.000; -227.000
404.721;  890.300; -869.000; -764.000
404.848;   79.150; -113.000; -202.000
404.976; -109.075; -856.000; -783.000
405.103;  -23.900;  -14.000;  -82.000
405.230;  -10.525;  190.000;  226.000
405.357;    2.700;  117.000;   44.000
405.484;  272.275;  -49.000;    5.000
405.612;   76.125; -548.000; -563.000
405.739;  -68.300; -488.000; -243.000
405.866;   57.625;  669.000;  385.000
405.993;  -61.775; -398.000; -102.000
406.120; -137.300; -801.000; -887.000
406.247;  -70.225; -323.000; -342.000
406.374;  356.875;  540.000;  629.000
406.501;   58.750; -632.000; -702.000
406.628;  -85.950; -621.000; -589.000
406.755;  -99.700; -803.000; -620.000
406.882;  -49.925; -228.000; -277.000
407.009; -112.050; -719.000; -628.000
407.136;   17.300; -480.000; -401.000
407.263;   85.625; -939.000; -829.000
407.390;  -92.675; -692.000; -614.000
407.517; -174.975;-1139.000;-1187.000
407.644;  -69.450; -332.000; -256.000
407.771; -135.100; -249.000; -287.000
407.898;   -7.900;  168.000;  328.000
408.025;  -69.350; -421.000; -313.000
408.151;  -22.925;   82.000;  153.000
408.278;  -76.450; -267.000; -216.000
408.405; -114.350; -931.000; -899.000
408.532;  -77.425; -549.000; -542.000
408.659; -124.100; -677.000; -648.000
408.785; -198.075;-1298.000;-1170.000
408.912;  -77.300; -412.000; -296.000
409.039; -102.925; -610.000; -686.000
409.166; -110.750; -591.000; -555.000
409.292; -109.725; -571.000; -534.000
409.419; -114.625; -665.000; -649.000
409.546;  -88.200; -431.000; -192.000
409.672; -122.425; -713.000; -545.000
409.799;  -37.625;  -36.000;   34.000
409.926;  -40.650; -180.000; -179.000
410.052; -181.225;-1127.000;-1091.000
410.179;  -73.325; -368.000; -392.000
410.305;  -95.150; -375.000; -493.000
410.432;  -45.825; -220.000; -333.000
410.558; -100.650; -305.000; -380.000
410.685; -117.525; -688.000; -431.000
410.812; -106.625; -409.000; -588.000
410.938; -143.225; -964.000; -808.000
411.065; -105.375; -671.000; -645.000
411.191;  -28.600; -189.000; -174.000
411.317; -112.825; -823.000; -742.000
411.444;  -69.750; -317.000; -246.000
411.570;  -80.600; -339.000; -294.000
411.697; -130.975; -758.000; -752.000
411.823; -182.300; -989.000; -999.000
411.949;  -33.875;  -56.000;   17.000
412.076; -124.700; -539.000; -519.000
412.202; -125.150; -758.000; -757.000
412.329; -126.475; -798.000; -752.000
412.455; -118.300; -821.000; -657.000
412.581;  -13.275;  -15.000;  172.000
412.707;  -76.800; -540.000; -457.000
412.834;    0.625;  156.000;  219.000
412.960;  -84.450; -785.000; -784.000
413.086; -109.325; -743.000; -701.000
413.212;  129.350;  604.000;  578.000
413.339;  -82.050; -685.000; -701.000
413.465;  -21.025; -364.000; -310.000
413.591;  -93.675; -757.000; -474.000
413.717;  -70.275; -358.000; -366.000
413.843; -150.175; -839.000; -861.000
413.969;  -68.575;  -47.000; -292.000
414.096;  -92.525; -679.000; -679.000
414.222;   -9.975;  -33.000;   85.000
414.348;  -39.475; -652.000; -385.000
414.474;   74.800;   38.000;  -52.000
414.600;  -29.525; -126.000; -144.000
414.726;  -14.425;  -96.000;  -55.000
414.852;  -61.800; -365.000; -342.000
414.978;   13.550;  104.000;  -18.000
415.104;   46.125;   38.000;   80.000
415.230;   13.650; -329.000; -330.000
415.356;   32.150; -409.000; -514.000
415.482;  203.725;   13.000;  -35.000
415.608;  284.250; -247.000; -323.000
415.734;  990.925;   67.000;   38.000
415.860;20455.200; -875.000; -767.000
415.986;15855.225; -685.000; -607.000
416.111; 1397.725; -798.000; -652.000
416.237;  282.300; -424.000; -571.000
416.363; 1142.450; -765.000; -733.000
416.489; 4500.225; -324.000; -251.000
416.615;  518.625; -707.000; -742.000
416.741;  -16.100; -677.000; -784.000
416.866; -103.625; -673.000; -736.000
416.992; -124.400; -801.000; -818.000
417.118;  -36.475;  -41.000;  -80.000
417.244;  -72.125; -798.000; -531.000
417.369;  -86.375; -801.000; -612.000
417.495;  -24.500; -325.000; -254.000
417.621;  -89.575;-1015.000; -803.000
417.746;  -14.975; -579.000; -572.000
417.872;   44.275; -254.000; -144.000
417.998;   42.400; -515.000; -530.000
418.123; 1076.375;-1073.000; -845.000
418.249; 5776.500; -512.000; -601.000
418.374;  860.175; -916.000; -824.000
418.500;  113.175; -383.000; -482.000
418.626;  111.650;   70.000;  -59.000
418.751;  120.175; -549.000; -448.000
418.877;  217.325; -637.000; -643.000
419.002; 1807.250; -688.000; -560.000
419.128;13301.300; -930.000; -721.000
419.253; 3500.800; -967.000; -837.000
419.379;  466.250; -391.000; -338.000
419.504;  403.150;  325.000;  415.000
419.629;  555.575; -393.000; -212.000
419.755; 3607.525; -317.000; -254.000
419.880;22777.400;  -98.000;   67.000
420.006;12113.500; -280.000; -221.000
420.131;31462.500; -662.000; -775.000
420.256; 4837.875; -315.000; -316.000
420.382;  645.925; -665.000; -687.000
420.507;   79.100; -649.000; -778.000
420.632;   99.250; -337.000; -339.000
420.758;  208.825; -251.000; -425.000
420.883;  -84.475; -876.000; -672.000
421.008; -100.375; -775.000; -619.000
421.133;  -88.250; -509.000; -467.000
421.259;  -55.400; -325.000; -259.000
421.384; -120.075; -834.000; -693.000
421.509;  -66.750;-1052.000; -862.000
421.634;  891.075; -936.000; -820.000
421.759;  401.650; -359.000; -327.000
421.885;  -57.250; -717.000; -656.000
422.010;  -83.325; -673.000; -542.000
422.135; -152.025; -695.000; -727.000
422.260;   24.900;  340.000;  280.000
422.385;  -47.450;   12.000;  -98.000
422.510;   -0.775;  151.000;  -26.000
422.635;   -0.025;  -87.000;  -43.000
422.760;   84.875; -766.000; -791.000
422.885;   50.600;  -57.000;  -80.000
423.010;  -29.025; -112.000; -169.000
423.135; -104.950; -481.000; -561.000
423.260;  -23.050; -150.000; -245.000
423.385;   47.200;  476.000;  222.000
423.510;   10.400;   71.000;  -22.000
423.635;   69.600;  133.000;   45.000
423.760;   49.025;  383.000;  328.000
423.885;   44.350;  336.000;  391.000
424.010;    6.075;  -68.000;  -13.000
424.135;  -15.725;    5.000;  -33.000
424.259;  -88.150; -654.000; -457.000
424.384;  -66.600; -279.000; -272.000
424.509;  -33.875; -260.000; -186.000
424.634; -103.075; -761.000; -623.000
424.759;  -28.000; -688.000; -544.000
424.883;   -8.000; -506.000; -527.000
425.008;  147.000; -502.000; -410.000
425.133; 2103.400; -679.000; -653.000
425.258; 1034.600; -517.000; -381.000
425.382;  909.950; -867.000; -774.000
425.507; 2393.425; -487.000; -543.000
425.632;  428.350; -802.000; -663.000
425.756;  479.950; -256.000; -146.000
425.881; 6795.650; -831.000; -857.000
426.006;19595.750; -604.000; -355.000
426.130; 3184.150; -696.000; -508.000
426.255;  417.950; -611.000; -491.000
426.379;  165.725; -189.000; -577.000
426.504;  387.425;  660.000;  544.000
426.629; 4144.825; -519.000; -466.000
426.753; 3051.475;   64.000;  -46.000
426.878;  355.925; -252.000; -288.000
427.002;  177.650; -651.000; -668.000
427.127; 1567.300;  -35.000; -158.000
427.251;12024.400;  372.000;  401.000
427.375; 3684.050; -191.000; -173.000
427.500; 2121.250; -616.000; -610.000
427.624;  754.750; -234.000; -400.000
427.749;   89.375; -216.000; -225.000
427.873;  -43.825; -499.000; -412.000
427.997;  -42.200; -222.000; -230.000
428.122;   71.625;  795.000;  703.000
428.246;   52.375;  433.000;  434.000
428.371; -128.925; -869.000; -773.000
428.495; -113.150; -624.000; -646.000
428.619;  -43.700; -186.000; -117.000
428.743;   10.300;   65.000;  132.000
428.868;   -9.625; -732.000; -643.000
428.992; 1231.950; -219.000; -326.000
429.116;  529.000; -329.000; -357.000
429.240;  230.725;  419.000;  426.000
429.365;  -22.150; -454.000; -574.000
429.489;  -57.950; -638.000; -647.000
429.613;   23.775; -236.000; -177.000
429.737;   36.625; -563.000; -432.000
429.861;  269.250; -247.000; -133.000
429.985; 5693.075; -425.000; -305.000
430.109; 6713.325; -770.000; -908.000
430.234;  795.550;   76.000;  -50.000
430.358;   69.225; -250.000; -160.000
430.482;  -66.675; -672.000; -564.000
430.606;  -77.000; -655.000; -375.000
430.730;  -31.300; -437.000; -388.000
430.854;   81.025; -909.000; -835.000
430.978;  -82.150; -795.000; -764.000
431.102;  -95.050; -499.000; -422.000
431.226; -131.875; -874.000; -815.000
431.350;   23.250;  345.000;  422.000
431.474;  -83.875; -661.000; -373.000
431.597; -156.750;-1060.000; -848.000
431.721;  -95.650; -276.000; -267.000
431.845; -122.475; -704.000; -472.000
431.969;  -80.700; -304.000; -349.000
432.093;  -90.425; -395.000; -317.000
432.217;  -41.100;   32.000;   82.000
432.341;  -98.425; -523.000; -518.000
432.464;    1.475;   96.000;   40.000
432.588;  164.425; -401.000; -329.000
432.712;   93.850;  -52.000;  -52.000
432.836;   28.075;  213.000;  263.000
432.959;  -20.550; -372.000; -311.000
433.083;   81.275;   11.000;    2.000
433.207;  383.050;  285.000;  930.000
433.330; 5187.175; -391.000; -200.000
433.454; 6860.325; -654.000; -638.000
433.578; 3871.625;  583.000;  278.000
433.701;  753.900; -623.000; -675.000
433.825;  131.975; -292.000; -299.000
433.949;  118.950;   28.000;  -72.000
434.072;   27.475; -410.000; -323.000
434.196;  -16.675; -309.000; -117.000
434.319; 3563.100;25482.000;25124.000
434.443;  690.050; -656.000; -603.000
434.566; 2830.425;  281.000;   62.000
434.690;  525.150; -637.000; -383.000
434.813;   54.400; -251.000; -173.000
434.937;  -78.525; -569.000; -696.000
435.060;  -64.650; -423.000; -332.000
435.184;  210.950; -492.000; -217.000
435.307;  126.100;  159.000;  102.000
435.431;  -31.675;  -40.000;   24.000
435.554;  -92.125; -399.000; -240.000
435.677;  -79.425; -350.000; -258.000
435.801;  -46.000;  -25.000;   49.000
435.924;  -22.375;    1.000;  -67.000
436.048; -127.100;-1019.000; -732.000
436.171;  -79.500; -240.000;  -66.000
436.294;  -23.200; -248.000; -229.000
436.417;   87.325; -963.000; -849.000
436.541;  -80.275; -814.000; -840.000
436.664;  -50.425; -242.000; -316.000
436.787;  -39.250;   13.000;  113.000
436.910; -116.500; -792.000; -422.000
437.034;   -0.125;  142.000;  143.000
437.157;   20.175;  -11.000;    0.000
437.280;  -65.625; -392.000; -292.000
437.403; -105.300; -982.000; -869.000
437.526;  410.575; -903.000; -865.000
437.649; 1786.750; -505.000; -332.000
437.772;  272.425; -692.000; -540.000
437.896;   94.650;  700.000;  544.000
438.019;  -97.500; -758.000; -503.000
438.142; -106.475; -596.000; -506.000
438.265;  -48.200; -639.000; -670.000
438.388;  435.625; -520.000; -410.000
438.511;   65.550; -597.000; -394.000
438.634;  -54.300; -247.000; -125.000
438.757; -140.300; -693.000; -619.000
438.880;  -44.600;  -34.000;  -57.000
439.003;  -74.850; -417.000; -437.000
439.126;  -67.725; -287.000; -167.000
439.248;  -69.750;  -98.000; -139.000
439.371;  -52.425;    9.000;  -53.000
439.494;   16.750;  510.000;  439.000
439.617;  -61.075;   65.000;  -88.000
439.740; -181.475; -968.000; -816.000
439.863; -152.425; -755.000; -595.000
439.986; -125.250; -476.000; -431.000
440.108;  -50.975; -161.000; -112.000
440.231; -163.525; -950.000; -836.000
440.354;  -45.025;  -64.000; -150.000
440.477;  -13.850; -566.000; -542.000
440.599;  -23.225; -200.000; -225.000
440.722; -145.475; -709.000; -586.000
440.845;   58.950;  751.000;  928.000
440.968; -110.625; -415.000; -311.000
441.090;  -81.575; -199.000;  -33.000
441.213; -180.100;-1021.000; -825.000
441.336;  -63.900; -159.000;   -5.000
441.458;  -82.700; -549.000; -396.000
441.581;  -98.850; -628.000; -629.000
441.703;  -73.675; -152.000;   13.000
441.826; -111.425; -557.000; -400.000
441.948;  -58.875;   56.000;   51.000
442.071;   22.725;  555.000;  424.000
442.193; -128.350; -531.000; -485.000
442.316;   12.025;  152.000;   97.000
442.438;   43.775; -233.000;  -10.000
442.561;   46.425;  272.000;  262.000
442.683;  373.250; -809.000; -522.000
442.806;  945.150;   -8.000;   74.000
442.928;    0.175; -859.000; -604.000
443.051;  -63.325; -577.000; -373.000
443.173;  -92.650; -341.000; -339.000
443.295;  -96.600; -263.000; -371.000
443.418;  -82.775; -321.000;  -29.000
443.540;  -17.100; -106.000;   -4.000
443.662; -117.375; -563.000; -465.000
443.785;  -23.200;  335.000;  199.000
443.907; -101.825; -362.000; -208.000
444.029; -130.025; -767.000; -494.000
444.152; -143.050; -644.000; -554.000
444.274;  -34.750;  -18.000;  -24.000
444.396; -125.900; -461.000; -221.000
444.518; -130.525; -691.000; -454.000
444.640; -105.150; -268.000; -111.000
444.763;  -37.650;  388.000;  249.000
444.885; -109.000; -432.000; -392.000
445.007;  -39.150;   35.000;   86.000
445.129; -136.775; -610.000; -515.000
445.251; -108.775; -372.000; -439.000
445.373; -152.100; -537.000; -386.000
445.495;    6.925;  242.000;  350.000
445.617;   54.225;  853.000;  753.000
445.739;  -80.125; -215.000;  -97.000
445.861;  -50.275; -245.000; -112.000
445.984;  -29.775; -267.000; -101.000
446.105;  121.825; -418.000; -251.000
446.227;  493.750; -176.000;  -19.000
446.349;  -15.900; -358.000; -249.000
446.471; -102.575; -615.000; -448.000
446.593;  -79.650; -316.000;   19.000
446.715;  -10.400;  -67.000;   41.000
446.837;   45.875;  697.000;  832.000
446.959; -115.875; -457.000; -478.000
447.081; -135.400; -628.000; -518.000
447.203;   25.875;  862.000;  834.000
447.325;  -94.125; -270.000;   42.000
447.446;  -18.600;  286.000;  530.000
447.568; -166.150; -921.000; -803.000
447.690;  -81.900; -236.000; -245.000
447.812; -160.900; -798.000; -519.000
447.933;  -39.775;  155.000;  127.000
448.055;  -69.725; -306.000; -261.000
448.177;  111.650;   31.000;   79.000
448.299;   45.525; -935.000; -727.000
448.420;   12.375;  -25.000;  159.000
448.542;  -52.575;   -3.000;   33.000
448.664;  -23.400;  109.000;  322.000
448.785;  -41.775;  265.000;   83.000
448.907; -104.625; -614.000; -353.000
449.028;  -55.300; -771.000; -471.000
449.150;   47.000;  492.000;  589.000
449.272; -181.125;-1044.000; -913.000
449.393;   33.150;  612.000;  694.000
449.515; -152.275; -634.000; -581.000
449.636;  -69.075; -264.000; -155.000
449.758;   54.625;  763.000;  622.000
449.879; -101.700; -498.000; -396.000
450.001;  -93.025; -149.000;  -49.000
450.122;  -41.750;  -95.000;  162.000
450.244;  -17.050;   37.000;  364.000
450.365; -101.475; -495.000; -301.000
450.486;  -39.225;   80.000;  268.000
450.608;    8.175;  393.000;  326.000
450.729;   46.100;  578.000;  645.000
450.850;    2.650; -574.000; -466.000
450.972;  768.975; -552.000; -389.000
451.093; 5241.750;  190.000;  588.000
451.214; 2491.850; -516.000; -337.000
451.336;  390.825;  773.000;  579.000
451.457;   67.775;  264.000;  393.000
451.578;  -46.250; -118.000;  -74.000
451.699; -121.375; -546.000; -540.000
451.821;  -67.025; -284.000;  -50.000
451.942;   -2.725;  278.000;  285.000
452.063;   30.350;  228.000;  419.000
452.184;  566.950;  -54.000;  -49.000
452.305; 1197.300;  103.000;  170.000
452.427;  167.750; -549.000; -301.000
452.548;  -20.875;   23.000;   79.000
452.669;  -61.475; -257.000;  -89.000
452.790;  -51.825;    3.000;  -18.000
452.911;   -4.875;  195.000;  259.000
453.032;  -75.350; -289.000;  -60.000
453.153;  -51.250;  -29.000;   81.000
453.274;   61.525;  737.000;  868.000
453.395;  -59.700;  -51.000;  175.000
453.516;  110.325; 1317.000; 1388.000
453.637;  -75.225; -205.000; -150.000
453.758;  -57.200;   15.000;   69.000
453.879; -131.825; -462.000; -250.000
454.000;   49.600; 1086.000;  948.000
454.121; -110.650; -554.000; -326.000
454.242; -126.000; -599.000; -383.000
454.362;  -60.225;  -99.000;  114.000
454.483;  -39.600; -309.000; -229.000
454.604;   45.350;  512.000;  580.000
454.725; -132.175; -627.000; -555.000
454.846; -114.150; -474.000; -406.000
454.967;  -38.025;  230.000;  539.000
455.087;  -56.325;  179.000;  153.000
455.208;   12.025;  554.000;  856.000
455.329;  -62.350;  -22.000;   82.000
455.450;   33.825;  473.000;  633.000
455.570;  -73.675; -234.000; -211.000
455.691;  -48.025;  201.000;  407.000
455.812; -112.000; -270.000;  -92.000
455.932;  -59.950;  107.000;  -97.000
456.053;  -85.875;   36.000;   24.000
456.173; -112.975; -433.000; -355.000
456.294; -130.375; -476.000; -303.000
456.415;  -80.350;  -73.000;   70.000
456.535;  -43.875;  297.000;  273.000
456.656;  -57.275;  132.000;  240.000
456.776;  -72.575;    3.000;  298.000
456.897;  -16.575;  308.000;  513.000
457.017;  -83.800; -153.000;   -3.000
457.138; -110.150; -402.000; -249.000
457.258;  -24.125;  263.000;  224.000
457.379;  -17.100;  509.000;  521.000
457.499;  -28.975;  443.000;  432.000
457.620; -123.775; -407.000; -231.000
457.740; -104.025; -132.000;  -11.000
457.860;  -64.125;   87.000;   44.000
457.981;  -40.850;  132.000;  124.000
458.101;  -82.800;  -89.000;   40.000
458.221;  -10.975;  336.000;  402.000
458.342;  -48.775;   -4.000;  -37.000
458.462;   19.000;  617.000;  352.000
458.582;  -25.925; -302.000; -294.000
458.703;   20.375;  303.000;  154.000
458.823;  -40.375;   22.000;  163.000
458.943;   23.500;  341.000;  467.000
459.063;   -7.925; 1124.000;  192.000
459.183;  -22.525;  328.000;  313.000
459.304;    3.650;  315.000;  517.000
459.424;  -67.550; -246.000;  -89.000
459.544;  340.000;  388.000;  764.000
459.664;  917.800;  499.000;  506.000
459.784;  337.375; 1004.000; 1175.000
459.904;   61.175;  867.000;  744.000
460.024;   56.300;  867.000;  684.000
460.144;    6.300;  449.000;  554.000
460.264;  -18.100;  515.000;  327.000
460.385;  -95.350; -145.000; -119.000
460.505;   31.200;  905.000;  858.000
460.625;  -88.700;  -17.000;  -68.000
460.745;  -26.225;  396.000;  541.000
460.864;  -43.025;  153.000;  469.000
460.984;   10.125;  499.000;  573.000
461.104;  146.475; 1656.000; 1775.000
461.224;    9.250;  657.000;  650.000
461.344;  -34.225;  431.000;  360.000
461.464;  -35.725;  258.000;  513.000
461.584;  -27.850;  283.000;  466.000
461.704;  -65.750;   58.000;  108.000
461.824;  -74.475;  238.000;  259.000
461.943;  -46.950;  191.000;  130.000
462.063;  -71.200;    2.000;  324.000
462.183;   32.125;  639.000;  717.000
462.303;   90.325; 1678.000; 1230.000
462.422;   18.175;  781.000;  840.000
462.542;  -36.000;  271.000;  391.000
462.662;   38.450;  353.000;  380.000
462.782;  248.150;  833.000;  572.000
462.901;  510.275;  545.000;  717.000
463.021;  292.125; 1702.000; 1638.000
463.141;   -4.600;  337.000;  770.000
463.260;  -13.525;  614.000;  474.000
463.380;   23.225;  902.000;  884.000
463.499;  -49.250;  342.000;  332.000
463.619;  -35.025;  581.000;  559.000
463.738;  106.275; 1644.000;  903.000
463.858;    2.575;  657.000;  811.000
463.978;  -34.625;  542.000;  396.000
464.097;   29.750;  921.000; 1114.000
464.217;  105.575; 1196.000; 1143.000
464.336;  127.525; 1068.000; 1130.000
464.455;  -45.375;  328.000;  659.000
464.575;   23.450;  597.000;  602.000
464.694;  149.775; 1204.000; 1179.000
464.814;  121.350; 1190.000; 1138.000
464.933;   67.100; 1095.000; 1027.000
465.052;   95.025; 1412.000; 1054.000
465.172;   61.050;  922.000;  799.000
465.291;  135.625; 1376.000; 1320.000
465.410;   19.900;  462.000;  735.000
465.530;   83.125; 1355.000; 1310.000
465.649;   55.600; 1209.000; 1273.000
465.768;  116.050; 1673.000; 1508.000
465.888;   41.925;  941.000; 1174.000
466.007;   80.000; 1335.000; 1440.000
466.126;   -9.775;  721.000;  641.000
466.245;   38.950; 1176.000; 1187.000
466.364;   11.875;  950.000; 1060.000
466.484;   67.525; 1024.000; 1213.000
466.603;   30.425; 1101.000; 1222.000
466.722;  121.625; 1490.000; 1769.000
466.841;   67.275; 1151.000; 1401.000
466.960;   37.800; 1069.000;  972.000
467.079;  125.250; 1971.000; 1786.000
467.198;   38.225; 1238.000; 1181.000
467.317;   87.075; 1768.000; 1162.000
467.436;   57.375; 1709.000; 1261.000
467.555;  113.175; 1796.000; 1746.000
467.674;   54.700; 1227.000; 1329.000
467.793;   35.625; 1376.000; 1374.000
467.912;   79.425; 1658.000; 1539.000
468.031;  146.750; 2038.000; 1930.000
468.150;  140.375; 1842.000; 1837.000
468.269;  200.450; 2313.000; 2090.000
468.388;  183.150; 2168.000; 2339.000
468.507;  248.575; 2884.000; 2903.000
468.626;  261.900; 2555.000; 2541.000
468.744;  142.400; 2018.000; 2174.000
468.863;  197.075; 2312.000; 2523.000
468.982;   91.050; 1503.000; 1555.000
469.101;  206.750; 2788.000; 2692.000
469.220;  155.550; 2333.000; 2176.000
469.338;  234.950; 2935.000; 3051.000
469.457;  208.575; 2719.000; 2545.000
469.576;  332.975; 3953.000; 3784.000
469.695;  230.050; 2877.000; 3066.000
469.813;  423.500; 4148.000; 4192.000
469.932;  409.600; 4255.000; 4485.000
470.051;  434.775; 4075.000; 4161.000
470.169;  851.875; 4470.000; 4338.000
470.288; 1567.575; 4700.000; 4809.000
470.406;  946.325; 5059.000; 5194.000
470.525;  644.450; 6101.000; 5787.000
470.644;  648.275; 6847.000; 6794.000
470.762;  819.550; 8397.000; 7873.000
470.881;  919.650; 8651.000; 8464.000
470.999; 1045.750; 9685.000; 9151.000
471.118; 1108.375;11174.000;10711.000

