
Integration time [ms]: 100.000
Averaging Nr. [scans]: 40
Smoothing Nr. [pixels]: 0
Data measured with spectrometer [name]: 2101012U2
Wave   ;Sample   ;Dark     ;Reference
[nm]   ;[counts] ;[counts] ;[counts] 

197.733;   54.425;  516.000;  404.000
197.879;  -73.200; -610.000; -634.000
198.025;  -42.650; -475.000; -420.000
198.171;  -82.250; -602.000; -612.000
198.317;  -44.150; -401.000; -316.000
198.463;  -61.800; -655.000; -404.000
198.609;   27.000;  181.000; -137.000
198.755;  -78.575; -644.000; -410.000
198.901;  -62.850; -505.000; -424.000
199.047;  -74.450; -615.000; -488.000
199.193;  -43.825; -230.000; -468.000
199.339;  -32.400; -222.000; -369.000
199.485;   25.900;  330.000;  271.000
199.631;    7.425;  227.000;  310.000
199.777;  -50.575; -466.000; -398.000
199.923;  -73.400; -610.000; -424.000
200.069;   -8.950; -141.000;  -58.000
200.215;   50.525;  128.000;  453.000
200.361;   27.600;  243.000;  477.000
200.507;  -78.225; -600.000; -373.000
200.653;  -26.450; -371.000; -194.000
200.798;  -38.850; -215.000; -125.000
200.944;  -12.525; -146.000;  -41.000
201.090;   43.925;   61.000;  222.000
201.236;   -0.975; -116.000; -158.000
201.382;  122.200;  874.000;  903.000
201.528;  -11.075;  -58.000;  -48.000
201.674;  -30.625; -386.000; -293.000
201.819;  -62.225; -540.000; -439.000
201.965;  -86.550; -699.000; -447.000
202.111;  -27.125; -273.000; -226.000
202.257;  -39.575; -250.000; -238.000
202.402;    7.875;   13.000;  -36.000
202.548;  -35.775; -169.000; -116.000
202.694;   81.225;  410.000; -183.000
202.840;  -61.475; -603.000; -531.000
202.985;  -70.000; -681.000; -639.000
203.131; -104.075; -832.000; -666.000
203.277;  -27.350; -199.000; -262.000
203.423;  -66.725; -434.000; -520.000
203.568;  -51.925; -462.000; -237.000
203.714;  -55.200; -535.000; -542.000
203.860;  -77.000; -682.000; -641.000
204.005;   11.475;  112.000;  167.000
204.151;   74.775;  561.000;  556.000
204.296;  -50.600; -354.000; -221.000
204.442;  -64.850; -600.000; -547.000
204.588;  -70.550; -592.000; -579.000
204.733;   19.275;  178.000;  168.000
204.879; -120.675;-1018.000; -822.000
205.025;    3.550;  -99.000;  126.000
205.170;   -9.300;  -17.000;   94.000
205.316;   73.875;  438.000;  661.000
205.461;  -92.875; -698.000; -554.000
205.607;   77.450;  609.000;  665.000
205.752;  -71.025; -626.000; -551.000
205.898;  -51.125; -501.000; -391.000
206.043;  -62.375; -578.000; -506.000
206.189;  -36.900; -243.000; -285.000
206.334;   68.925;  554.000;  606.000
206.480;   84.550;  409.000;  239.000
206.625;  -83.050; -529.000; -552.000
206.771;  -50.325; -451.000; -373.000
206.916;  -22.825; -210.000; -537.000
207.062;  -72.000; -545.000; -591.000
207.207;  -64.775; -546.000; -443.000
207.353;   43.200;  185.000;  460.000
207.498;   14.725;  196.000;   85.000
207.643;  -48.400; -501.000; -370.000
207.789; -139.800;-1069.000; -910.000
207.934;  -97.400; -665.000; -713.000
208.080;  -20.550; -154.000;   66.000
208.225;  -13.825;  -22.000;  -57.000
208.370;  -78.750; -727.000; -619.000
208.516;  -81.625; -741.000; -487.000
208.661;  -37.900; -127.000;  -69.000
208.806;  -26.525; -165.000; -171.000
208.952; -129.025;-1044.000; -731.000
209.097;   69.125;  378.000;  349.000
209.242;  -44.900; -307.000; -382.000
209.387;   62.950;  392.000;  350.000
209.533;  -70.225; -321.000; -350.000
209.678;   74.800;  472.000;  543.000
209.823;  -62.325; -408.000; -310.000
209.969; -104.975; -860.000; -757.000
210.114; -112.250; -907.000; -719.000
210.259; -117.625; -939.000; -889.000
210.404;   -5.525; -171.000;  103.000
210.549;    3.350;  108.000;    3.000
210.695;  -21.500;   -3.000;  -95.000
210.840;   36.100;   94.000;   67.000
210.985;  -62.125; -484.000; -303.000
211.130;   63.200;  268.000;  406.000
211.275;    5.925;  207.000;  199.000
211.420;  -41.200; -300.000; -289.000
211.566;  -65.325; -536.000; -489.000
211.711;   29.800;  218.000;  157.000
211.856;  -71.000; -545.000; -519.000
212.001;    9.100;  151.000;   44.000
212.146;   34.525;  153.000;   49.000
212.291;  -21.200; -210.000; -186.000
212.436;  -29.500; -280.000;   -6.000
212.581;  -82.500; -685.000; -653.000
212.726;  -78.075; -487.000; -538.000
212.871;  -51.175; -552.000; -217.000
213.016; -141.000;-1172.000;-1029.000
213.161;   49.625;  406.000;  291.000
213.306;  -78.075; -435.000; -577.000
213.451;  -88.975; -778.000; -689.000
213.596;  -54.675; -455.000; -347.000
213.741;  -54.625; -448.000; -538.000
213.886;  -84.900; -498.000; -517.000
214.031;  -13.650; -294.000; -124.000
214.176;  -55.500; -408.000; -341.000
214.321;  -14.925; -296.000; -157.000
214.466;  -29.300; -163.000;  -43.000
214.611;   -1.850;  -61.000;  -10.000
214.756; -121.500; -948.000; -858.000
214.901;  -34.800; -388.000; -226.000
215.046; -117.475; -797.000; -825.000
215.191;   13.200;  128.000;   35.000
215.336;  -10.750; -157.000;  -19.000
215.480;  -81.425; -684.000; -505.000
215.625;  -20.275; -175.000;  -19.000
215.770;  -75.450; -757.000; -662.000
215.915;   -4.950;   -5.000;  -97.000
216.060;  -14.500; -113.000;  -21.000
216.205; -112.575; -731.000; -779.000
216.349;  -64.375; -470.000; -533.000
216.494; -136.225; -939.000; -867.000
216.639; -111.300; -823.000; -888.000
216.784;  -91.425; -577.000; -525.000
216.929;   53.525;  392.000;  281.000
217.073;  -14.750; -244.000;  -31.000
217.218;   -0.750;   78.000;  -47.000
217.363;  -85.600; -656.000; -618.000
217.507;  -84.500; -623.000; -588.000
217.652; -123.675; -845.000; -874.000
217.797; -101.575; -708.000; -659.000
217.942; -121.850; -856.000; -720.000
218.086;   67.975;  608.000;  539.000
218.231;  -11.300; -174.000;  -26.000
218.376;  -34.325; -337.000; -229.000
218.520;    2.825;  -41.000;   96.000
218.665;  -42.425; -338.000; -204.000
218.810;  -45.500; -275.000; -233.000
218.954;   23.075;  201.000;   35.000
219.099; -113.400; -713.000; -963.000
219.243;  -71.200; -589.000; -554.000
219.388;  -21.850; -264.000; -136.000
219.532;  -16.500; -116.000; -116.000
219.677;  -83.600; -564.000; -521.000
219.822;   -5.250;   33.000;   89.000
219.966;    2.275;   17.000;  -99.000
220.111;  -33.475; -328.000;  -40.000
220.255; -103.225; -797.000; -750.000
220.400;  -20.050; -180.000; -146.000
220.544;  -65.450; -516.000; -450.000
220.689;  -53.225; -422.000; -451.000
220.833;  -15.800; -123.000;  -58.000
220.978;  -52.300; -393.000; -563.000
221.122;   31.175;  319.000;  307.000
221.267; -111.875; -906.000; -837.000
221.411;  -62.950; -478.000; -394.000
221.555;   -3.850; -104.000;  -23.000
221.700;  -49.725; -329.000; -222.000
221.844;   22.600;  255.000;  272.000
221.989;  -45.900; -328.000; -311.000
222.133;  -44.125; -289.000; -307.000
222.277;   -5.000;    5.000;   78.000
222.422;   18.825;  227.000;  113.000
222.566;  -34.900; -381.000; -214.000
222.711;  -51.375; -414.000; -479.000
222.855;  -81.075; -643.000; -586.000
222.999;  -89.225; -642.000; -717.000
223.144;  -18.800; -195.000; -194.000
223.288;   55.250;  423.000;  251.000
223.432;   16.700;  184.000;  230.000
223.576;   22.450;  152.000;  -21.000
223.721;   20.850;  364.000;  273.000
223.865;  -60.075; -472.000; -475.000
224.009;  208.975; 1673.000; 1631.000
224.153;  -79.825; -660.000; -671.000
224.298;  -64.075; -531.000; -489.000
224.442;   -0.250;  -74.000;  -33.000
224.586;   -5.775; -169.000; -106.000
224.730;  -99.800; -858.000; -670.000
224.875; -102.975; -739.000; -688.000
225.019;   26.175;  102.000;  188.000
225.163;   50.775;  208.000;  341.000
225.307;   25.775;   97.000;  -91.000
225.451;   44.675;  360.000;  481.000
225.595;   30.450;  264.000;  176.000
225.739;  -27.900; -170.000;  -94.000
225.884;   -2.250;   86.000;    5.000
226.028; -101.925; -760.000; -626.000
226.172;  -48.300; -260.000; -273.000
226.316; -121.050; -941.000; -902.000
226.460;  -82.950; -645.000; -493.000
226.604;  -46.400; -406.000; -400.000
226.748;  -87.125; -836.000; -733.000
226.892;  -42.525; -227.000; -181.000
227.036;  -50.850; -537.000; -447.000
227.180;  -54.050; -551.000; -375.000
227.324;  -64.600; -561.000; -580.000
227.468; -113.475; -819.000; -717.000
227.612;    8.200;  242.000;  -28.000
227.756;  -95.125; -845.000; -698.000
227.900;   46.100;  342.000;  441.000
228.044;  -61.750; -509.000; -290.000
228.188;   53.425;  448.000;  568.000
228.332;  -81.500; -546.000; -472.000
228.476;  -19.325; -223.000; -149.000
228.620;  -33.475; -210.000; -150.000
228.764;   62.550;  431.000;  349.000
228.908;  -27.650; -155.000;   30.000
229.052;  -68.000; -615.000; -528.000
229.195;  -36.750; -172.000;   13.000
229.339;  -36.925; -235.000; -305.000
229.483;  -20.225;    5.000; -162.000
229.627;  -12.550; -156.000;  139.000
229.771;  -49.825; -218.000; -294.000
229.915;    8.700;  230.000;   79.000
230.059;  -96.550; -648.000; -663.000
230.202;  -44.375; -370.000; -317.000
230.346;  -16.450; -107.000;  107.000
230.490;  -60.800; -489.000; -521.000
230.634; -114.400; -736.000; -553.000
230.777;   68.725;  478.000;  509.000
230.921;  -59.000; -450.000; -359.000
231.065;  -40.400; -246.000; -286.000
231.209;   15.525;  261.000;  265.000
231.352;   22.525;   54.000;   40.000
231.496;   13.125;  568.000;  188.000
231.640;  -95.500; -693.000; -621.000
231.783;   60.375;  546.000;  525.000
231.927;  -34.075; -294.000; -365.000
232.071; -124.600; -962.000; -736.000
232.214; -100.250; -980.000; -764.000
232.358; -103.675; -683.000; -599.000
232.502;   12.000;  -19.000;    7.000
232.645; -131.250;-1090.000; -927.000
232.789;  -32.525; -257.000; -218.000
232.933;  -50.375; -407.000; -224.000
233.076; -120.800;-1038.000; -897.000
233.220; -101.225; -752.000; -777.000
233.363;  -75.775; -669.000; -477.000
233.507;   48.325;  371.000;  129.000
233.650;  -92.675; -764.000; -834.000
233.794;   50.400;  438.000;  461.000
233.938;  -49.100; -530.000; -362.000
234.081;   -4.925;  -93.000;   31.000
234.225;  -79.325; -631.000; -539.000
234.368; -123.025; -773.000; -723.000
234.512;  -57.650; -385.000; -299.000
234.655;  -96.500; -582.000; -555.000
234.798;  -61.600; -493.000; -466.000
234.942; -126.875; -884.000;-1002.000
235.085;  -81.925; -651.000; -443.000
235.229;  -76.525; -405.000; -410.000
235.372;  -42.750; -247.000; -191.000
235.516;  -58.725; -397.000; -321.000
235.659;   18.725;   92.000;  121.000
235.802;  -22.625;  -38.000;  -22.000
235.946;   17.625;  335.000;  215.000
236.089;   17.600;  126.000;  250.000
236.233;   44.975;  275.000;  298.000
236.376;  -42.425; -235.000; -378.000
236.519;  -57.975; -297.000; -319.000
236.663;  -19.000; -215.000; -117.000
236.806; -142.975;-1029.000; -999.000
236.949;   55.950;  543.000;  431.000
237.092;   58.500;  412.000;  391.000
237.236;  -89.625; -589.000; -502.000
237.379;   62.100;  352.000;  428.000
237.522; -121.000; -879.000; -768.000
237.666;  -28.500; -271.000;   18.000
237.809; -127.000; -851.000; -823.000
237.952;   25.850;  469.000;  271.000
238.095;  -65.100; -447.000; -442.000
238.238;   68.400;  688.000;  700.000
238.382;   -4.700;  166.000;  103.000
238.525;  -88.950; -598.000; -511.000
238.668; -146.225;-1060.000; -985.000
238.811;  -85.625; -638.000; -643.000
238.954;  -65.800; -483.000; -334.000
239.097;   78.325;  617.000;  664.000
239.241;   19.450;  394.000;  326.000
239.384;  -36.225; -254.000; -214.000
239.527;  -57.375; -424.000; -224.000
239.670; -143.200; -994.000;-1091.000
239.813; -113.650; -696.000; -658.000
239.956;   64.825;  579.000;  473.000
240.099; -107.300; -778.000; -725.000
240.242;   78.175;  428.000;  432.000
240.385;   42.025;  466.000;  450.000
240.528;  -54.075; -706.000; -473.000
240.671;   15.275;  189.000;  134.000
240.814;  -42.850; -441.000; -158.000
240.957; -101.825; -767.000; -578.000
241.100; -100.325; -779.000; -755.000
241.243; -144.075;-1234.000; -893.000
241.386;  -77.775; -508.000; -379.000
241.529;  -88.475; -735.000; -547.000
241.672;  -66.925; -566.000; -495.000
241.815; -114.400; -832.000; -808.000
241.958;  -33.950; -125.000; -182.000
242.101;  -78.175; -545.000; -390.000
242.244;  -54.125; -270.000; -325.000
242.387;  -39.400; -304.000; -246.000
242.530;   58.900;  470.000;  134.000
242.673;  -41.375; -381.000; -309.000
242.815; -125.925; -925.000; -899.000
242.958;  -72.300; -482.000; -381.000
243.101;    8.075;  132.000;  187.000
243.244;  -80.025; -564.000; -521.000
243.387;  -36.000; -313.000; -316.000
243.530;  -91.125; -657.000; -674.000
243.672;    2.400;   43.000;  -92.000
243.815;  -64.175; -355.000; -283.000
243.958;   -9.350;   98.000;  -26.000
244.101;    4.075;   59.000;  -16.000
244.243;   -9.875;  -47.000;  101.000
244.386; -110.550; -761.000; -630.000
244.529;  -39.675; -132.000; -139.000
244.672; -162.125;-1154.000; -951.000
244.814; -101.525; -621.000; -794.000
244.957;  -30.700; -380.000; -304.000
245.100;  -66.400; -489.000; -489.000
245.242;  -72.675; -387.000; -374.000
245.385;   -4.400;  -59.000;  -39.000
245.528; -128.025; -871.000; -705.000
245.670;   92.000;  612.000;  634.000
245.813;  -88.825; -599.000; -547.000
245.956;  -43.200; -324.000; -275.000
246.098;  -77.675; -508.000; -650.000
246.241;   -2.025;  194.000;   48.000
246.383;  -36.475; -119.000;  -73.000
246.526;  -66.375; -454.000; -525.000
246.669; -119.475; -889.000; -780.000
246.811;   10.200;  172.000;   -1.000
246.954;  -72.100; -512.000; -426.000
247.096;  -20.450;  -84.000;   -6.000
247.239;  -76.750; -482.000; -445.000
247.381;  -80.275; -647.000; -488.000
247.524;   77.325;  645.000;  679.000
247.666;   -2.875;   58.000;   11.000
247.809; -119.325; -887.000; -691.000
247.951;   -5.500;  -75.000;  138.000
248.094;   32.500;  432.000;  308.000
248.236; -161.250;-1262.000;-1238.000
248.378;    9.325; -356.000;  -81.000
248.521;  -29.875; -334.000; -337.000
248.663;  -35.950; -236.000; -267.000
248.806;  -28.350; -300.000; -266.000
248.948;  -88.800; -886.000; -763.000
249.090;  -41.250; -428.000; -398.000
249.233;  -41.900; -344.000; -381.000
249.375;  -80.675; -474.000; -451.000
249.518;  -21.150;  -83.000; -133.000
249.660;   -9.775; -103.000;    3.000
249.802; -168.775;-1303.000;-1189.000
249.945;  -75.800; -612.000; -540.000
250.087; -103.700; -834.000; -768.000
250.229;  -56.350; -362.000; -480.000
250.371;  -85.675; -494.000; -439.000
250.514;  -47.350; -310.000; -244.000
250.656;  -17.100;   69.000;  102.000
250.798; -129.650; -849.000; -800.000
250.940;  -63.725; -322.000; -322.000
251.083;  -34.250; -335.000; -111.000
251.225;   58.250;  338.000;  310.000
251.367;  -44.700; -274.000; -373.000
251.509;  -36.850; -265.000; -210.000
251.651;  -96.050; -731.000; -671.000
251.794;   48.075;  538.000;  632.000
251.936; -114.650; -821.000; -747.000
252.078;  -79.850; -540.000; -461.000
252.220;  -59.075; -645.000; -477.000
252.362;   75.425;  344.000;  462.000
252.504;  -75.350; -677.000; -584.000
252.646; -115.075; -875.000; -722.000
252.788;   -6.000;   14.000; -128.000
252.931;  -39.975; -257.000; -253.000
253.073;  -42.175; -376.000; -317.000
253.215;  -10.800;  141.000;  122.000
253.357;  -22.300;   82.000; -153.000
253.499;  -68.850; -374.000; -234.000
253.641;  -89.325; -749.000; -594.000
253.783;  -87.475; -609.000; -527.000
253.925;  -83.650; -586.000; -591.000
254.067; -101.850; -744.000; -667.000
254.209;  -37.225; -391.000; -259.000
254.351; -136.725; -865.000; -883.000
254.493;  -68.050; -441.000; -417.000
254.635; -116.975; -936.000; -818.000
254.777;  -90.175; -752.000; -687.000
254.918;  -61.900; -512.000; -430.000
255.060;  -63.925; -551.000; -395.000
255.202;  -59.575; -473.000; -261.000
255.344;  -82.875; -658.000; -455.000
255.486;  -73.550; -471.000; -406.000
255.628; -117.475; -780.000; -781.000
255.770;  -86.825; -676.000; -536.000
255.912;  -73.350; -559.000; -468.000
256.053;  -95.400; -730.000; -508.000
256.195;  145.975; 1008.000;  903.000
256.337; -114.175; -861.000; -595.000
256.479;   61.500;  532.000;  416.000
256.621;  -57.150; -394.000; -212.000
256.762;  -98.200; -789.000; -742.000
256.904;   58.950;  485.000;  487.000
257.046;  -57.925; -381.000; -271.000
257.188;  -41.000; -351.000; -264.000
257.329;  -72.975; -525.000; -464.000
257.471; -122.650; -939.000; -807.000
257.613;  -60.475; -584.000; -498.000
257.755; -141.325;-1073.000; -982.000
257.896;   40.725;  286.000;  392.000
258.038;  -68.025; -403.000; -352.000
258.180;  -58.375; -354.000; -279.000
258.321;  -82.875; -581.000; -457.000
258.463;    3.950;  -71.000;  133.000
258.605;  -93.050; -562.000; -570.000
258.746;  -98.675; -886.000; -772.000
258.888; -149.375;-1026.000;-1020.000
259.029;   14.275;  121.000;   -8.000
259.171;  -76.600; -614.000; -550.000
259.313;  -15.575;  -49.000;  -47.000
259.454;  -74.350; -536.000; -414.000
259.596;  -59.425; -483.000; -390.000
259.737;  -55.300; -590.000; -474.000
259.879;   31.250;  217.000;  311.000
260.020;   91.675;  901.000;  636.000
260.162;  -22.750; -146.000; -253.000
260.303; -106.575; -768.000; -687.000
260.445;  -70.900; -609.000; -613.000
260.586;   30.550;  392.000;  157.000
260.728;  -39.750; -360.000; -248.000
260.869; -118.275; -350.000; -343.000
261.011;   78.650;  706.000;  537.000
261.152;  -64.475; -479.000; -319.000
261.293;  -91.575; -576.000; -595.000
261.435;  -34.675; -219.000; -184.000
261.576;  -54.550; -455.000; -325.000
261.718;   42.550;  420.000;  470.000
261.859; -128.325; -940.000; -949.000
262.000; -136.000; -951.000;-1016.000
262.142;  -31.300;  -52.000;  -60.000
262.283; -117.250; -808.000; -691.000
262.424;  -91.275; -666.000; -625.000
262.566; -147.300;-1161.000; -983.000
262.707; -107.750; -840.000; -830.000
262.848; -129.000; -769.000; -726.000
262.990;  -45.325; -362.000; -345.000
263.131;   83.725;  650.000;  681.000
263.272;  -18.725;  -61.000;  -41.000
263.413;  -87.250; -589.000; -561.000
263.555;  -85.150; -669.000; -143.000
263.696;  -86.725; -550.000; -641.000
263.837;  -72.100; -449.000; -551.000
263.978;   -8.450;   -5.000;  -77.000
264.119;  -45.975; -283.000; -264.000
264.261; -123.450; -847.000; -630.000
264.402;   -9.225;   33.000;   40.000
264.543;  -92.250; -509.000; -524.000
264.684;   -6.850;   61.000;  -50.000
264.825;  -75.500; -816.000; -538.000
264.966;    6.025;  -84.000;  -67.000
265.107; -133.025; -646.000; -670.000
265.248; -131.675; -825.000; -812.000
265.390;  -13.900;  152.000;   -9.000
265.531;  -14.750; -238.000; -107.000
265.672;  -80.375; -557.000; -630.000
265.813;   55.975;  563.000;  439.000
265.954; -143.200; -959.000; -940.000
266.095;  -20.050; -372.000; -322.000
266.236;  -88.950; -686.000; -548.000
266.377;  -51.800; -243.000; -297.000
266.518;  -86.300; -619.000; -547.000
266.659;   19.050;  170.000;  268.000
266.800;   -6.075;   83.000;   85.000
266.941;  -81.525; -487.000; -478.000
267.082;    9.775;  354.000;   99.000
267.223;  -61.825; -344.000; -273.000
267.364; -124.475; -892.000; -686.000
267.504;  -24.050;    3.000;  135.000
267.645;  -19.550;  160.000;   67.000
267.786;  -36.775; -147.000;  -86.000
267.927;  -95.550; -473.000; -379.000
268.068;  -26.750; -186.000;  -61.000
268.209;  -44.300; -175.000; -413.000
268.350;  -72.700; -388.000; -532.000
268.490;  -83.150; -648.000; -521.000
268.631;   28.050;  127.000;  225.000
268.772; -119.575; -874.000; -647.000
268.913;  -54.750; -328.000; -476.000
269.054;   -9.175; -117.000;   12.000
269.194;  -49.950; -418.000; -402.000
269.335; -164.800;-1137.000;-1074.000
269.476;  -26.725;   33.000;  -35.000
269.617;  -66.375; -347.000; -392.000
269.757;  -85.975; -713.000; -646.000
269.898;  -95.850; -856.000; -613.000
270.039;  -63.100; -415.000; -405.000
270.180; -153.850; -952.000; -816.000
270.320;  -23.725; -190.000; -250.000
270.461;  -49.425; -277.000; -249.000
270.602;  -16.450; -186.000; -156.000
270.742; -117.950; -868.000; -943.000
270.883;  -58.275; -442.000; -390.000
271.023;  -59.725; -358.000; -357.000
271.164;  -76.275; -607.000; -528.000
271.305; -103.200; -666.000; -654.000
271.445;  -92.175; -722.000; -683.000
271.586;  -75.925; -462.000; -283.000
271.726;  -44.825; -397.000; -322.000
271.867;  -45.750; -594.000; -534.000
272.008;  176.675; -473.000; -285.000
272.148;  130.400;  462.000;  468.000
272.289;   11.750; -113.000; -181.000
272.429;   37.525;   19.000;  185.000
272.570;  -94.375; -633.000; -737.000
272.710;  -96.500; -825.000; -775.000
272.851;  -12.150;  113.000; -130.000
272.991; -166.600;-1173.000;-1077.000
273.131;  -81.500; -419.000; -459.000
273.272; -104.650; -683.000; -723.000
273.412;    0.400; -143.000;  -31.000
273.553;  -56.150; -488.000; -507.000
273.693;  121.925;  913.000;  858.000
273.834;  -97.350; -894.000; -692.000
273.974;  -76.175; -664.000; -615.000
274.114; -106.600; -772.000; -560.000
274.255;   80.250;  414.000;  373.000
274.395;    2.900; -180.000; -125.000
274.535;   39.125;  199.000;  350.000
274.676;   11.375;  225.000;   94.000
274.816;   -4.350;  110.000;   34.000
274.956;  -91.500; -624.000; -690.000
275.097;  -59.525;-1014.000; -922.000
275.237; -117.850; -913.000; -803.000
275.377; -106.475; -778.000; -689.000
275.517; -142.875; -878.000; -937.000
275.658;  -55.050; -590.000; -555.000
275.798;  -75.375; -606.000; -413.000
275.938;   17.200;  215.000;  323.000
276.078; -102.850; -626.000; -395.000
276.218;   -4.575;   99.000;  104.000
276.359; -136.375;-1026.000;-1024.000
276.499;  -84.025; -605.000; -446.000
276.639;  -25.175; -305.000; -151.000
276.779;  -54.650; -475.000; -357.000
276.919; -100.725; -783.000; -624.000
277.059;  -16.550; -261.000; -212.000
277.199;  -43.350; -357.000; -259.000
277.340;   34.025;  287.000;  175.000
277.480; -107.050; -840.000; -693.000
277.620;   19.700;  192.000;   16.000
277.760; -187.400;-1533.000;-1294.000
277.900;   14.325;  113.000;   33.000
278.040;   17.300;  137.000;  159.000
278.180;   35.525;  270.000;  170.000
278.320;   -7.825;   21.000;   56.000
278.460;  -78.450; -443.000; -469.000
278.600;  -97.925; -708.000; -598.000
278.740;   50.825;  448.000;  224.000
278.880;  -49.125; -768.000; -791.000
279.020;  -15.800; -194.000; -144.000
279.160;  -98.825; -672.000; -595.000
279.300; -115.725; -926.000; -873.000
279.440;  -91.700; -709.000; -622.000
279.579;  -33.250;-1014.000; -929.000
279.719;  -44.775; -410.000; -394.000
279.859;   64.350;   -4.000;   41.000
279.999;   15.825; -208.000;  101.000
280.139;   -6.400; -435.000; -387.000
280.279;  -74.125; -708.000; -745.000
280.419;  -22.925; -229.000; -147.000
280.559;  -19.675; -259.000; -180.000
280.698;  -94.175; -790.000; -639.000
280.838;  -98.700; -778.000; -800.000
280.978; -105.000; -846.000; -790.000
281.118; -115.825; -811.000; -704.000
281.257;   -9.500;   24.000;    6.000
281.397; -124.075;-1094.000; -960.000
281.537;  -90.225; -599.000; -712.000
281.677;  -13.525; -150.000; -101.000
281.816;  -85.625; -700.000; -630.000
281.956;  -35.300; -193.000; -257.000
282.096;  -70.950; -539.000; -396.000
282.235; -103.675; -672.000; -638.000
282.375;  -42.975; -243.000;  -98.000
282.515; -105.425; -715.000; -707.000
282.654;   14.200;   29.000;  106.000
282.794;   10.475;  388.000;  244.000
282.934;  -61.525; -530.000; -491.000
283.073; -140.900;-1030.000; -857.000
283.213;  -59.100; -460.000; -467.000
283.353;  -37.950; -408.000; -349.000
283.492;  -35.925; -264.000; -296.000
283.632;  -60.000; -254.000; -168.000
283.771;  -99.375; -859.000; -730.000
283.911;  -43.850; -369.000; -260.000
284.050; -101.050; -794.000; -748.000
284.190; -174.175;-1229.000;-1096.000
284.329; -134.675;-1055.000; -964.000
284.469;  -72.650; -516.000; -591.000
284.608;  -53.375; -559.000; -598.000
284.748;  -81.000; -614.000; -570.000
284.887;  -10.375;  -87.000;  -20.000
285.027; -128.200; -844.000; -892.000
285.166;  -35.400; -192.000; -249.000
285.306;    4.625; -116.000;  -33.000
285.445;  -33.550; -229.000; -343.000
285.584;  -89.000; -630.000; -494.000
285.724;  -45.300; -282.000; -322.000
285.863; -127.925; -857.000; -507.000
286.002;  -47.425; -366.000; -276.000
286.142; -115.025; -715.000; -622.000
286.281;  -85.050; -525.000; -493.000
286.420;  -92.850; -554.000; -417.000
286.560;   96.000;  653.000;  623.000
286.699; -135.675; -958.000; -912.000
286.838;  -83.100; -590.000; -591.000
286.978; -104.550; -533.000; -537.000
287.117; -128.575;-1085.000; -950.000
287.256;  -43.475; -228.000; -211.000
287.395;  -58.300; -197.000; -378.000
287.535;  -45.575; -370.000; -298.000
287.674;  -83.525; -509.000; -484.000
287.813;   57.950;  661.000;  533.000
287.952; -126.500;-1010.000; -871.000
288.091; -145.900;-1049.000; -915.000
288.231;   10.175;   13.000;   15.000
288.370; -171.775;-1217.000;-1200.000
288.509;  -93.275; -728.000; -645.000
288.648;  -84.025; -770.000; -548.000
288.787;  -43.900; -243.000;  -87.000
288.926;  -51.600; -454.000; -475.000
289.065;  102.500;  859.000;  672.000
289.204;  -50.750; -377.000; -217.000
289.344;  -89.950; -791.000; -690.000
289.483;   18.700;  416.000;  304.000
289.622;  -28.850; -291.000; -149.000
289.761;  -20.850; -309.000; -166.000
289.900; -106.575; -785.000; -626.000
290.039;  -17.375;  -12.000;  -95.000
290.178;  -50.175; -274.000; -180.000
290.317;  -82.150; -618.000; -479.000
290.456;  -62.625; -463.000; -451.000
290.595; -138.775; -961.000; -833.000
290.734; -132.825; -904.000; -891.000
290.873;  -72.625; -456.000; -420.000
291.011; -109.000; -833.000; -843.000
291.150; -104.000; -770.000; -682.000
291.289;  -21.100; -343.000; -110.000
291.428;  -90.650; -599.000; -480.000
291.567;  -58.900; -370.000; -442.000
291.706;   -7.575;  109.000;  154.000
291.845;  -94.800; -597.000; -505.000
291.984; -170.550;-1234.000;-1061.000
292.122;   69.250;  602.000;  582.000
292.261;   43.775;  620.000;  463.000
292.400;    2.275; -144.000;  211.000
292.539; -122.325; -959.000; -813.000
292.678;  -38.075; -325.000; -300.000
292.816; -151.825;-1136.000; -965.000
292.955;  -88.000; -844.000; -684.000
293.094;  -31.650; -173.000; -337.000
293.233;  -53.050; -556.000; -400.000
293.371;  -38.900; -225.000;  -84.000
293.510; -112.475; -866.000; -780.000
293.649; -136.825; -959.000; -924.000
293.787;  -60.450;-1083.000;-1012.000
293.926;   -7.125; -113.000;  -32.000
294.065;  -38.250; -379.000; -290.000
294.203;   33.900;  298.000;  406.000
294.342;   17.100;   74.000;  156.000
294.481; 5338.925;51180.000; -836.000
294.619;  -41.525; -425.000; -582.000
294.758; -147.000;-1230.000;-1137.000
294.896;   67.575; -125.000;    5.000
295.035; -127.075;-1040.000;-1006.000
295.174; -122.350;-1082.000; -954.000
295.312;  -49.400; -323.000; -203.000
295.451;  -10.000; -307.000; -428.000
295.589;  -53.400; -389.000; -518.000
295.728;   10.175; -292.000; -165.000
295.866;    1.725;  -36.000;  -51.000
296.005;  -62.400; -584.000; -341.000
296.143;  -75.800; -558.000; -596.000
296.282; -110.400; -957.000; -881.000
296.420;  -93.575; -657.000; -557.000
296.559;  -90.900; -892.000; -633.000
296.697;   30.550; -847.000; -665.000
296.835;   60.075;-1141.000;-1002.000
296.974;   24.575;  -23.000;   39.000
297.112;    9.900; -443.000; -504.000
297.251;  -84.275; -815.000; -755.000
297.389;   83.500; -576.000; -438.000
297.527;   24.650; -145.000;  -83.000
297.666;  -60.200; -486.000; -438.000
297.804;  -66.375; -404.000; -264.000
297.942;   -5.125; -136.000; -161.000
298.081;   -9.775; -183.000;   63.000
298.219;   65.825;  -17.000;  -19.000
298.357;   47.850; -144.000;  -71.000
298.495;   46.350; -810.000; -812.000
298.634;   82.125;  245.000;  219.000
298.772;   57.200; -220.000; -338.000
298.910;  -41.350; -309.000; -182.000
299.048;  -23.025; -130.000; -153.000
299.187;  -38.800; -350.000; -250.000
299.325;   15.350;   52.000;  122.000
299.463;   43.000; -389.000; -299.000
299.601;  104.325; -327.000; -271.000
299.739; -110.025; -908.000; -883.000
299.877;  -85.925; -791.000; -703.000
300.016;  -44.500;-1095.000; -935.000
300.154;  163.775;  -19.000; -161.000
300.292;   53.725; -428.000; -348.000
300.430;   15.350; -408.000; -291.000
300.568; -109.675; -940.000; -874.000
300.706;  -55.400; -366.000; -469.000
300.844;  -80.150;-1108.000; -979.000
300.982;  117.900;  246.000;  282.000
301.120; -108.300; -965.000; -866.000
301.258;  -53.225; -812.000; -705.000
301.396;   38.000;  104.000;  -41.000
301.534;   70.350; -218.000; -293.000
301.672;  -23.175; -664.000; -521.000
301.810;   25.525; -613.000; -545.000
301.948;  132.175;   53.000;  149.000
302.086;  646.625; -250.000;  -32.000
302.224;  953.275; -610.000; -585.000
302.362;   33.675; -558.000; -622.000
302.500;  -24.000; -923.000; -893.000
302.638;   92.050;  128.000;  245.000
302.776;  -18.600; -352.000; -408.000
302.913;   37.550;  447.000;  236.000
303.051;   -5.950;  -86.000;  -23.000
303.189;   48.325;   90.000;  118.000
303.327;  -39.325; -341.000; -256.000
303.465;  -87.825; -832.000; -588.000
303.603; -106.375; -805.000; -604.000
303.740;  111.000;  417.000;  241.000
303.878;   29.875; -800.000; -759.000
304.016;  -89.700; -915.000; -790.000
304.154; -118.375;-1123.000;-1152.000
304.291;  -44.150; -505.000; -554.000
304.429;    9.175;  102.000;   74.000
304.567; -123.575; -908.000; -893.000
304.705;  -64.525; -408.000; -515.000
304.842;  100.150; -616.000; -540.000
304.980;   46.550;  215.000;   35.000
305.118;   22.975; -367.000; -365.000
305.255;  -88.325; -945.000; -927.000
305.393;   64.775;  178.000;  239.000
305.531;  -94.150;-1173.000; -956.000
305.668;  -73.000; -663.000; -582.000
305.806;  114.250; -358.000; -439.000
305.943;  116.125; -629.000; -637.000
306.081;   55.625; -378.000; -267.000
306.219;  -99.750; -863.000; -748.000
306.356;    4.400;  158.000;   27.000
306.494;  103.600;  981.000;  761.000
306.631;    6.275;  -11.000;  -55.000
306.769;    9.750; -613.000; -485.000
306.906;  -12.625; -284.000; -258.000
307.044;  -79.650; -473.000; -488.000
307.181;  -57.000; -410.000; -332.000
307.319;    3.200;  112.000;   87.000
307.456; -169.850;-1191.000;-1153.000
307.594; -101.325; -980.000; -727.000
307.731;   -8.700; -371.000; -164.000
307.868;  -17.550;  -15.000;   20.000
308.006; -126.650; -961.000; -847.000
308.143;  -72.425; -618.000; -330.000
308.281;  165.000;  -37.000; -254.000
308.418;   -4.500; -748.000; -640.000
308.555;  -73.350; -400.000; -250.000
308.693;  -71.250; -577.000; -573.000
308.830; -118.950; -712.000; -657.000
308.967;  -14.550; -215.000;  -95.000
309.105;  -59.450; -507.000; -396.000
309.242;   24.525; -468.000; -367.000
309.379;  318.200; -577.000; -655.000
309.517;  -67.600; -936.000; -948.000
309.654; -111.750; -910.000; -734.000
309.791;  -83.925; -662.000; -580.000
309.928; -127.850; -977.000; -914.000
310.065;  180.550;  819.000;  697.000
310.203;   -6.825; -825.000; -850.000
310.340;  -12.700; -465.000; -321.000
310.477;  -84.075; -412.000; -516.000
310.614;  -68.650; -383.000; -473.000
310.751;  -74.575; -427.000; -518.000
310.889;  -29.375;    1.000;   11.000
311.026; -155.950;-1161.000; -939.000
311.163;  -46.850; -386.000; -380.000
311.300;  -80.275; -512.000; -479.000
311.437;  -68.925; -658.000; -619.000
311.574; -159.900;-1226.000; -985.000
311.711;  -68.125; -595.000; -433.000
311.848;  -49.575; -380.000; -388.000
311.985;    8.275;  270.000;   93.000
312.122; -117.475; -932.000; -762.000
312.259; -124.650; -941.000; -994.000
312.396;  -88.275; -508.000; -551.000
312.533;  -90.175; -812.000; -790.000
312.670; -131.800;-1070.000; -898.000
312.807;  -53.300; -352.000; -367.000
312.944;  -65.325; -513.000; -611.000
313.081;  -34.525; -150.000; -415.000
313.218; -101.875;-1111.000; -867.000
313.355;   12.225; -531.000; -449.000
313.492;   -6.950; -455.000; -292.000
313.629;  115.300;  815.000;  735.000
313.766; -169.050;-1176.000;-1008.000
313.902;   -8.775; -186.000;   21.000
314.039;  -53.375; -372.000; -289.000
314.176;   15.900;  286.000;  192.000
314.313;  -74.175; -569.000; -473.000
314.450;  -82.650; -788.000; -684.000
314.587;  -52.675; -468.000; -480.000
314.723;    0.275;  -78.000;  130.000
314.860;   29.425;  318.000;  332.000
314.997;   18.000;  223.000;  142.000
315.134;  -41.375; -385.000; -368.000
315.270;  -47.450; -480.000; -496.000
315.407; -124.975;-1094.000; -967.000
315.544;  -63.425; -657.000; -538.000
315.681;  -69.325; -681.000; -565.000
315.817;   30.600; -133.000; -176.000
315.954;    6.675; -613.000; -392.000
316.091; -135.700;-1045.000;-1023.000
316.227;  -26.000;  -71.000; -179.000
316.364;  -13.125;   23.000;    6.000
316.500;  -41.900; -113.000; -300.000
316.637;  -48.950; -181.000; -302.000
316.774;  -82.700; -625.000; -358.000
316.910;  -83.950; -598.000; -629.000
317.047;  -73.100; -487.000; -351.000
317.183;  -52.275; -435.000; -566.000
317.320;  -13.225; -367.000; -321.000
317.456;  -55.700; -733.000; -805.000
317.593;  -97.500; -598.000; -641.000
317.729;   -2.225;  168.000;  -67.000
317.866; -210.450;-1434.000;-1285.000
318.002;  -89.350; -708.000; -948.000
318.139; -102.775; -883.000; -867.000
318.275; -109.650;-1003.000; -738.000
318.412;  -67.050; -517.000; -336.000
318.548;  -22.375; -751.000; -720.000
318.685;  -81.900; -985.000; -888.000
318.821; -103.900; -762.000; -735.000
318.957;  -14.725;   34.000;  -23.000
319.094;   34.800;  297.000;  154.000
319.230;  -64.125; -756.000; -742.000
319.367;  139.175; -471.000; -520.000
319.503;   57.475; -538.000; -436.000
319.639;  -96.325; -877.000; -793.000
319.775;  -56.350; -750.000; -685.000
319.912;  -59.275; -424.000; -519.000
320.048;  -85.475;-1184.000;-1184.000
320.184;   66.200;   59.000;   70.000
320.321;  -66.700; -497.000; -467.000
320.457;   55.875;  475.000;  662.000
320.593;  -75.250; -375.000; -382.000
320.729; -117.575; -732.000; -734.000
320.866;  -77.325; -577.000; -635.000
321.002;  -83.575; -759.000; -809.000
321.138;  -20.375; -135.000; -211.000
321.274;   63.825; -148.000; -115.000
321.410;  -19.375; -585.000; -353.000
321.546;  -36.325;-1011.000; -911.000
321.683;   52.725;  400.000;  185.000
321.819;   -0.075;  -48.000; -117.000
321.955; -113.975; -743.000; -722.000
322.091;  -36.525; -585.000; -540.000
322.227;  -17.200; -382.000; -202.000
322.363;  -18.125; -320.000; -215.000
322.499;  -48.500; -343.000; -331.000
322.635;  147.825;  636.000;  443.000
322.771;   16.500; -139.000;   12.000
322.907;   85.225;  129.000;  327.000
323.043;  -13.475; -115.000; -206.000
323.179;  -33.425; -394.000; -363.000
323.315;   16.450; -401.000; -371.000
323.451;   89.675; -328.000; -236.000
323.587;   61.025;  -60.000;  -77.000
323.723;   13.500; -682.000; -601.000
323.859;  -20.525; -258.000;  -76.000
323.995;  -39.400; -467.000; -409.000
324.131; -125.375; -967.000; -892.000
324.267;  -45.925; -254.000; -276.000
324.402; -127.625; -960.000; -983.000
324.538;  -25.625; -279.000; -104.000
324.674;   18.775;  164.000;   77.000
324.810;  123.475;  226.000;  308.000
324.946;    6.275; -810.000; -658.000
325.082;  -80.325; -568.000; -475.000
325.217;   -4.950;  -62.000;   16.000
325.353; -105.625; -764.000; -659.000
325.489;  -94.050; -540.000; -506.000
325.625;  -84.150; -579.000; -525.000
325.760;   59.350;  517.000;  376.000
325.896;  -26.700; -515.000; -702.000
326.032;  -54.075; -403.000; -352.000
326.168;  -74.100; -462.000; -369.000
326.303;  -60.400; -352.000; -461.000
326.439;  -28.375; -336.000; -276.000
326.575;    0.775; -190.000;  -29.000
326.710;   -2.775; -156.000;  -30.000
326.846;  -15.225;  146.000;  103.000
326.982;  -95.650; -530.000; -548.000
327.117;  -73.750; -481.000; -442.000
327.253;  -95.875; -745.000; -742.000
327.388; -161.150;-1137.000;-1153.000
327.524;  -51.325; -811.000; -578.000
327.659;  -30.975;  -58.000;  -22.000
327.795;  -17.575;   69.000;   45.000
327.931; -100.325; -723.000; -499.000
328.066;  -33.225; -417.000; -276.000
328.202;  -14.950;   12.000; -129.000
328.337;  101.175;  957.000;  713.000
328.473;   33.200;  -12.000;  -74.000
328.608;  -33.725; -256.000; -267.000
328.743;  -74.450; -799.000; -664.000
328.879;   10.425;  214.000;  114.000
329.014;  -35.300; -102.000; -122.000
329.150;  -83.075; -358.000; -483.000
329.285;  -77.075; -465.000; -466.000
329.421;  -49.625; -548.000; -246.000
329.556;  -30.250;  -36.000;   85.000
329.691; -106.300; -633.000; -615.000
329.827;  -92.275; -626.000; -480.000
329.962;  -42.850;  131.000; -301.000
330.097;  -84.500; -673.000; -585.000
330.233;  -49.025; -410.000; -223.000
330.368; -123.375; -839.000; -628.000
330.503;  -20.600;    3.000;   98.000
330.638;    2.625;  -93.000; -125.000
330.774;  -64.350; -609.000; -530.000
330.909;  -49.675; -434.000; -244.000
331.044;  -98.175; -714.000; -708.000
331.179; -171.550;-1217.000;-1109.000
331.315;    3.575;   77.000;   20.000
331.450;    1.550;  157.000;  285.000
331.585; -100.700; -805.000; -706.000
331.720;  -95.850; -510.000; -460.000
331.855;  -10.800;  -35.000; -102.000
331.990;  249.250;   62.000;  138.000
332.126;  118.000; -110.000;   71.000
332.261;  -29.325; -379.000; -265.000
332.396;    0.300; -135.000; -242.000
332.531; -108.850;-1074.000;-1031.000
332.666;   34.300; -519.000; -363.000
332.801; -103.375; -726.000; -807.000
332.936;  -35.375; -192.000; -122.000
333.071; -148.425; -870.000; -817.000
333.206;   10.275;  307.000;  379.000
333.341;   19.750;  344.000;  418.000
333.476;  -94.025; -627.000; -623.000
333.611;  -24.875; -251.000; -173.000
333.746;  -51.900; -381.000; -464.000
333.881; -130.000; -973.000; -935.000
334.016; -126.575; -936.000; -917.000
334.151; -131.575; -746.000; -702.000
334.286;   30.975;  152.000;  186.000
334.421;  -15.100; -125.000; -178.000
334.556;  -80.275; -611.000; -567.000
334.690;  -98.750; -631.000; -577.000
334.825;   55.075;  381.000;   83.000
334.960;  -72.475; -285.000; -413.000
335.095;    1.825;  135.000;  -91.000
335.230; -106.700; -722.000; -738.000
335.365; -133.475;-1084.000; -990.000
335.499; -136.325;-1108.000;-1037.000
335.634;   25.100;    9.000;  534.000
335.769; -103.400; -755.000; -720.000
335.904;  -78.100; -603.000; -561.000
336.038;  -68.200; -735.000; -657.000
336.173; -130.025;-1206.000;-1194.000
336.308;    7.500; -116.000; -189.000
336.443;   25.425; -544.000; -634.000
336.577;  -83.525; -936.000; -787.000
336.712;   52.375;   -4.000;  -12.000
336.847;  -38.200; -724.000; -607.000
336.981;   72.225; -272.000; -208.000
337.116;  283.500;  615.000;  501.000
337.250;  163.450; -434.000; -421.000
337.385;  250.700; -297.000; -208.000
337.520;   81.675; -632.000; -603.000
337.654;  -37.000; -215.000; -126.000
337.789; -129.850; -989.000; -933.000
337.923;  -37.225; -104.000; -205.000
338.058;  -99.600; -673.000; -738.000
338.192;  -47.350; -611.000; -488.000
338.327;  -15.675;  -18.000; -155.000
338.461;  -83.575; -299.000; -469.000
338.596;  -90.375; -780.000; -638.000
338.730;  -98.950; -767.000; -803.000
338.865;   94.150;  -46.000; -140.000
338.999;  -54.175; -846.000; -702.000
339.134;  -28.100; -634.000; -536.000
339.268;   -2.275; -741.000; -603.000
339.403;  359.300; -740.000; -775.000
339.537;  120.675; -894.000; -820.000
339.671; -116.200; -829.000; -813.000
339.806;  -51.750; -556.000; -512.000
339.940;    7.725; -261.000; -235.000
340.074;  -90.400; -685.000; -510.000
340.209;  -56.625; -351.000; -230.000
340.343;  -93.300; -517.000; -573.000
340.477;  140.350;  998.000; 1036.000
340.612;  -56.575;-1033.000; -900.000
340.746;  126.675; -199.000; -243.000
340.880;  -78.175; -924.000; -785.000
341.014;  -23.925;  -45.000; -154.000
341.149; -128.475; -756.000; -718.000
341.283; -105.375; -839.000; -754.000
341.417;  -94.850;-1124.000; -938.000
341.551;  117.800; -768.000; -708.000
341.685;  -41.250; -633.000; -611.000
341.820;  -55.100; -562.000; -493.000
341.954;  -53.475; -218.000; -349.000
342.088; -164.375;-1102.000;-1019.000
342.222;   52.750;  565.000;  618.000
342.356;  -66.000; -395.000; -335.000
342.490;  -88.850; -880.000; -841.000
342.624;  -47.600; -339.000; -242.000
342.758;   -5.625; -364.000; -312.000
342.892;  -75.025; -710.000; -585.000
343.026;  -46.575;  -58.000; -116.000
343.160;  -73.100; -426.000; -376.000
343.294;  -81.600; -474.000; -337.000
343.428;  -25.875; -488.000; -448.000
343.562;  -14.625; -172.000;  -23.000
343.696;  -29.400; -385.000; -314.000
343.830;  -24.700; -362.000; -356.000
343.964;   15.475; -231.000; -168.000
344.098;  920.475;  199.000;   70.000
344.232;  774.975; -266.000; -127.000
344.366;  100.150; -567.000; -453.000
344.500;   58.700; -665.000; -744.000
344.634;   32.850; -324.000; -164.000
344.768;  -19.725; -531.000; -341.000
344.902;   17.450;  278.000;  256.000
345.035;  -88.750; -556.000; -496.000
345.169; -136.275; -933.000; -656.000
345.303;  -32.600; -308.000; -482.000
345.437;  -69.600; -826.000; -717.000
345.571;  -75.225; -675.000; -594.000
345.704;  -75.650; -309.000; -532.000
345.838;   -8.000; -331.000; -284.000
345.972;  -35.250; -543.000; -495.000
346.106;  174.500; -179.000; -190.000
346.239;  424.850; -312.000; -243.000
346.373;    0.025; -343.000; -302.000
346.507; -143.250; -950.000; -962.000
346.640;  139.425;  -30.000;   13.000
346.774;  -46.050; -650.000; -797.000
346.908;  -20.575; -138.000;  -11.000
347.041; -101.700; -646.000; -593.000
347.175;   -1.800;  259.000;   27.000
347.309;  -80.300; -698.000; -628.000
347.442;  -92.700; -883.000; -732.000
347.576;  282.000;  670.000;  668.000
347.709;  189.350; -123.000;  -52.000
347.843;  -89.675; -933.000; -825.000
347.976;   33.575;  235.000;  294.000
348.110; -175.125;-1268.000;-1186.000
348.243; -111.275; -679.000; -772.000
348.377;   -3.525;  -26.000;   60.000
348.510;   32.325;  403.000;  540.000
348.644;  -41.925;  -37.000; -159.000
348.777;   -4.875;  180.000;  191.000
348.911;  -49.100; -142.000; -112.000
349.044;  178.575;  471.000;  448.000
349.178;  170.775;-1069.000;-1006.000
349.311;  112.350;  141.000;  255.000
349.444;   -1.175; -927.000; -813.000
349.578;  -30.100; -347.000; -200.000
349.711; -102.500; -959.000; -862.000
349.845;  -10.050; -661.000; -591.000
349.978; -154.350;-1224.000;-1137.000
350.111;  -84.325; -546.000; -612.000
350.244;  -91.600; -596.000; -700.000
350.378;    4.375; -392.000; -393.000
350.511;  -69.925; -393.000; -426.000
350.644; -116.725; -808.000; -806.000
350.778;    8.250;  168.000;  104.000
350.911;   -9.750;  134.000;  140.000
351.044; -110.050; -685.000; -615.000
351.177;  -43.775; -321.000; -281.000
351.310;  -18.925;    3.000; -131.000
351.444;  -99.725; -888.000; -788.000
351.577;  119.325;  140.000;   90.000
351.710;   87.475;  593.000;  417.000
351.843;  -40.700; -165.000;  -77.000
351.976;  -12.875;  149.000;  -79.000
352.109;  -86.575; -621.000; -612.000
352.242;  -32.975; -464.000; -419.000
352.376;  -64.975; -580.000; -636.000
352.509;  168.100; -437.000; -356.000
352.642;    3.375; -654.000; -604.000
352.775;   51.050; -141.000;  -98.000
352.908; -123.975; -933.000; -904.000
353.041; -115.650; -814.000; -824.000
353.174;  -57.725; -551.000; -424.000
353.307;  -83.700; -753.000; -764.000
353.440;   67.475;  541.000;  453.000
353.573; -124.050; -957.000;-1008.000
353.706;  -56.000; -384.000; -558.000
353.839;  -23.300; -264.000; -220.000
353.971;  -99.450; -657.000; -512.000
354.104;  -82.700; -896.000; -835.000
354.237;  -35.550; -627.000; -662.000
354.370;  -85.200; -846.000; -879.000
354.503; -172.925;-1231.000;-1308.000
354.636;  -47.475; -529.000; -348.000
354.769; -123.100; -937.000; -860.000
354.902;  -18.975; -230.000; -139.000
355.034;  -23.225; -164.000; -220.000
355.167;  -18.350; -262.000; -162.000
355.300;  -94.875;-1061.000; -880.000
355.433;  971.500;  -71.000;  -14.000
355.565; 1483.975; -402.000; -384.000
355.698;  373.950; -356.000; -296.000
355.831;   -9.000; -882.000; -801.000
355.964;   67.050; -285.000; -170.000
356.096;  -97.200; -856.000; -843.000
356.229;    1.250; -523.000; -530.000
356.362;  301.300; -373.000; -266.000
356.494;  579.500; -229.000; -162.000
356.627;  470.125;  269.000;  377.000
356.760;  652.800;  120.000;   53.000
356.892;  945.825; -286.000; -601.000
357.025;  664.525;  403.000;  389.000
357.157;  612.325; -167.000; -179.000
357.290;  658.375; -856.000; -713.000
357.423;  200.300; -667.000; -556.000
357.555;  113.850; -217.000; -228.000
357.688;  121.625; -483.000; -364.000
357.820;  474.525; -870.000; -877.000
357.953; 3859.925; -563.000; -589.000
358.085;  849.225; -632.000; -612.000
358.218; 1166.625;-1131.000; -932.000
358.350;  221.200;  -58.000;  312.000
358.483; -120.450;-1300.000;-1187.000
358.615;  -18.400;-1182.000;-1078.000
358.747;  -66.225;-1187.000;-1058.000
358.880;    9.000; -810.000; -744.000
359.012;   -2.325; -376.000; -202.000
359.145;  -46.325; -480.000; -511.000
359.277;   48.925; -962.000; -913.000
359.409; 3173.825;  536.000;  231.000
359.542;  851.800; -738.000; -688.000
359.674;   67.925;   46.000;   13.000
359.806;  -62.350; -565.000; -438.000
359.939;  -50.525; -617.000; -516.000
360.071;   -7.700; -583.000; -579.000
360.203;  -35.875; -411.000; -364.000
360.335;   45.950;  164.000;  -16.000
360.468;  198.750; -249.000; -307.000
360.600; 2547.075; -547.000; -454.000
360.732; 2883.450; -546.000; -423.000
360.864;  394.900;-1216.000;-1044.000
360.996;  273.125; -516.000; -554.000
361.129;   36.025; -389.000; -598.000
361.261;   23.800;  110.000; -113.000
361.393;  -36.600; -252.000; -214.000
361.525;   24.600;   94.000;  244.000
361.657;  -44.000; -821.000; -703.000
361.789;    9.025; -139.000; -155.000
361.921;  232.350; -642.000; -593.000
362.053;  260.775;  524.000;  541.000
362.185;   37.850;  288.000;   72.000
362.318;  -82.375; -709.000; -705.000
362.450;  116.100;  294.000;  444.000
362.582;   98.075; -913.000; -870.000
362.714;  -40.500; -353.000; -332.000
362.846;  -79.300; -606.000; -490.000
362.978; -142.500; -941.000; -811.000
363.109;   42.000; -161.000; -260.000
363.241;  440.100; -739.000; -749.000
363.373;  429.225; -649.000; -564.000
363.505;  658.525; -186.000;  -91.000
363.637;  158.375; -787.000; -601.000
363.769; -116.875;-1067.000;-1080.000
363.901;  -65.875; -596.000; -654.000
364.033; -115.350;-1103.000;-1062.000
364.165;  -13.225; -283.000; -283.000
364.296;   75.750; -316.000; -177.000
364.428;   51.300;-1344.000;-1220.000
364.560;  -68.175; -679.000; -661.000
364.692;  -67.850; -738.000; -835.000
364.824;  279.025; -588.000; -456.000
364.955;  445.250; -402.000; -564.000
365.087;  933.550;-1097.000; -852.000
365.219;   28.050; -686.000; -816.000
365.351;  -54.950; -526.000; -572.000
365.482;   48.000;  300.000;  240.000
365.614;  -39.750; -402.000; -314.000
365.746;  -99.125; -729.000; -752.000
365.877; -108.850; -706.000; -672.000
366.009;  253.225;  -35.000;  -62.000
366.141;  -89.475;-1249.000;-1134.000
366.272; -119.700; -803.000; -719.000
366.404; -117.800;-1005.000; -874.000
366.535;  -14.650; -139.000;  -12.000
366.667; -117.275; -644.000; -649.000
366.799;   29.825;  353.000;  203.000
366.930; -126.800; -862.000; -996.000
367.062;  116.925; -639.000; -613.000
367.193;  154.450; -872.000; -842.000
367.325;  -66.125; -580.000; -684.000
367.456;   30.225; -246.000;   31.000
367.588;  148.325; -371.000; -318.000
367.719;   30.800;  -44.000;  -45.000
367.851;  -18.100; -222.000; -241.000
367.982;  -49.725; -875.000; -732.000
368.113;   95.450; -475.000; -358.000
368.245; -121.525; -960.000; -841.000
368.376;  -15.125; -254.000; -302.000
368.508;  -43.425; -188.000; -263.000
368.639; -145.600;-1166.000;-1034.000
368.770;  -14.225; -670.000; -589.000
368.902;  -51.850; -836.000; -926.000
369.033; -111.425; -906.000; -855.000
369.164;  -55.775; -720.000; -653.000
369.296; -108.850; -452.000; -601.000
369.427;   -6.200; -209.000; -144.000
369.558;  -62.000; -593.000; -377.000
369.689;  -86.650; -721.000; -569.000
369.821; -134.375; -951.000; -845.000
369.952;  -11.325;   42.000; -108.000
370.083;  -43.700; -229.000; -108.000
370.214;  -86.950; -735.000; -650.000
370.345;   -2.025;   65.000;   81.000
370.477;  -95.000; -810.000; -790.000
370.608;  235.650; -328.000; -264.000
370.739;  -46.900;-1233.000;-1292.000
370.870;  -41.525;-1102.000; -923.000
371.001;   91.825; -378.000; -467.000
371.132;  -80.550; -754.000; -735.000
371.263;  -28.825;  -42.000; -148.000
371.394; -127.900; -841.000; -748.000
371.525;   17.850;  345.000;  225.000
371.657;  -86.575; -808.000; -670.000
371.788;   63.900;  103.000;  199.000
371.919;  165.900; -384.000; -304.000
372.050; 3713.625;  -91.000; -156.000
372.181; 1109.275; -188.000; -294.000
372.311;  365.350;   42.000; -127.000
372.442;   49.850; -457.000; -451.000
372.573;  -30.225; -444.000; -340.000
372.704; -132.900;-1008.000; -980.000
372.835;   86.050; -228.000; -289.000
372.966;  -60.475; -646.000; -554.000
373.097;  -69.600; -575.000; -711.000
373.228;  -39.675; -717.000; -542.000
373.359;  135.925; -824.000; -536.000
373.490;  949.575; -881.000; -727.000
373.620; 1198.650;-1001.000; -803.000
373.751; 1829.600; -332.000; -396.000
373.882;  819.600; -663.000; -733.000
374.013;   61.725; -449.000; -262.000
374.143;  -50.475; -581.000; -659.000
374.274; -104.200; -987.000; -908.000
374.405;  184.175; -388.000; -276.000
374.536;  448.825; -526.000; -387.000
374.666; 1145.875; -759.000; -807.000
374.797;  235.425; -817.000; -868.000
374.928;  883.525; -710.000; -560.000
375.058;  931.050; -535.000; -500.000
375.189;   76.975;  -59.000;  -93.000
375.320; -102.500; -928.000;-1034.000
375.450;  -39.775; -625.000; -616.000
375.581;  -51.025; -526.000; -436.000
375.712;  -48.975; -574.000; -250.000
375.842;  324.925; -438.000; -415.000
375.973;  228.175; -554.000; -513.000
376.103;  -32.850; -665.000; -648.000
376.234;  -75.175; -531.000; -552.000
376.364;  -33.600; -944.000; -867.000
376.495;  325.900;  925.000;  529.000
376.625;  -21.950; -472.000; -485.000
376.756;   55.200; -709.000; -678.000
376.886;  -74.650;-1178.000;-1026.000
377.017;   35.900;-1048.000;-1061.000
377.147;  338.075; -786.000; -782.000
377.278;   43.825;  174.000;  228.000
377.408; -124.025; -801.000; -815.000
377.538; -105.100; -707.000; -693.000
377.669;  -78.275; -537.000; -613.000
377.799;  -98.875; -645.000; -635.000
377.929;  -74.000; -610.000; -428.000
378.060; -138.825; -781.000; -847.000
378.190;  -70.600; -726.000; -531.000
378.320;  -54.000; -401.000; -406.000
378.451;  -18.425; -131.000;  -22.000
378.581;   -8.950;  -67.000; -110.000
378.711;  133.375; 1035.000;  866.000
378.841;  -16.225; -533.000; -675.000
378.972;  -72.150; -871.000; -751.000
379.102;  -12.675; -652.000; -579.000
379.232;  -26.400; -126.000;  -73.000
379.362;  -93.625;-1001.000; -885.000
379.492;   12.350; -373.000; -424.000
379.623;   99.075;    0.000;  111.000
379.753; -103.775;-1107.000; -974.000
379.883;  180.375;   59.000;  156.000
380.013;   12.650;-1081.000;-1017.000
380.143; -113.050;-1097.000;-1056.000
380.273; -106.600; -985.000; -861.000
380.403;    0.300; -344.000; -257.000
380.533;  -28.475; -651.000; -664.000
380.663;   57.575;  173.000;  128.000
380.793;  -99.075;-1027.000;-1074.000
380.923;  -20.075; -103.000;  -34.000
381.053; -110.400; -613.000; -623.000
381.183;  -38.375; -106.000; -248.000
381.313;   17.225; -656.000; -470.000
381.443;   30.225; -692.000; -473.000
381.573;  194.300; -402.000; -409.000
381.703;  263.475;-1249.000;-1095.000
381.833; -125.025;-1454.000;-1336.000
381.963;  103.525; -134.000;  -87.000
382.093; 1423.850; -925.000; -909.000
382.223;  443.350; -713.000; -602.000
382.353;  -12.600; -801.000; -608.000
382.482;  369.900;-1091.000; -964.000
382.612;  795.775; -872.000; -644.000
382.742;  451.800; -695.000; -622.000
382.872;  264.350; -565.000; -551.000
383.002;   49.450;  347.000; -132.000
383.131;  -24.300; -226.000; -160.000
383.261;  -56.175; -706.000; -768.000
383.391;  272.500; -552.000; -377.000
383.521; 3207.250;  451.000;  263.000
383.650;  769.100; -947.000; -904.000
383.780;  -17.925; -783.000; -656.000
383.910;   98.100;  880.000;  802.000
384.039;   34.725; -794.000; -656.000
384.169;  209.925;-1205.000;-1017.000
384.299;  -14.050; -650.000; -662.000
384.428;  -98.300; -764.000; -680.000
384.558;  -52.975; -308.000; -275.000
384.687;  -43.725; -414.000; -334.000
384.817;   -0.750;   75.000;   -2.000
384.947;   13.350; -234.000; -141.000
385.076;  272.550;  982.000;  912.000
385.206;  104.100;  369.000;  480.000
385.335;  -45.275; -549.000; -417.000
385.465;  -83.850; -655.000; -663.000
385.594;  135.525;  -53.000;  -44.000
385.724;  424.275; -868.000; -838.000
385.853;  110.000; -296.000; -270.000
385.982; 1378.925; -743.000; -787.000
386.112; 2217.600;-1052.000; -871.000
386.241;  124.375; -307.000; -312.000
386.371;    7.725; -174.000;  -87.000
386.500;   -6.950; -825.000; -789.000
386.629;   35.950; -874.000; -817.000
386.759;   68.675;  -43.000;   68.000
386.888;  -22.800; -170.000; -250.000
387.017;  -93.825; -648.000; -620.000
387.147;  -93.275; -771.000; -798.000
387.276;  -15.300; -410.000; -397.000
387.405;    4.075; -398.000; -342.000
387.535;  -61.250; -452.000; -361.000
387.664;  -70.625; -692.000; -620.000
387.793;   48.250; -198.000; -113.000
387.922;  530.200;  255.000;  200.000
388.052;   32.025; -576.000; -423.000
388.181;   -2.350; -342.000; -472.000
388.310;  -13.075; -889.000; -710.000
388.439;  -60.450; -749.000; -742.000
388.568;  186.525;  365.000;  244.000
388.697; 1066.325; -756.000; -653.000
388.826;  223.775; -768.000; -666.000
388.956;   60.750; -285.000; -307.000
389.085;  -42.400; -347.000; -287.000
389.214; -114.975; -842.000; -872.000
389.343;  -77.675; -645.000; -413.000
389.472;  394.800;  126.000;  149.000
389.601;  515.475;   91.000;    0.000
389.730;   11.375; -568.000; -687.000
389.859;   53.650;  226.000;   46.000
389.988;  175.875; -423.000; -408.000
390.117;  141.775; -168.000; -146.000
390.246;  -22.025; -331.000; -320.000
390.375;   79.850; -673.000; -626.000
390.504;  -63.700; -703.000; -621.000
390.633;  -95.550; -672.000; -726.000
390.761;  -69.175; -732.000; -645.000
390.890;    1.675;   -4.000; -130.000
391.019;  -38.675; -421.000; -441.000
391.148; -128.600; -826.000; -855.000
391.277;  -80.700; -576.000; -493.000
391.406;  -82.400; -821.000; -805.000
391.534;   11.525;  574.000; -301.000
391.663;  -72.500; -583.000; -645.000
391.792;  -73.800; -673.000; -701.000
391.921;   83.600;   -3.000;   15.000
392.050;  184.075; -287.000; -228.000
392.178;  -32.600;-1206.000;-1061.000
392.307;  147.975; -758.000; -712.000
392.436;   71.975; -427.000; -641.000
392.564;   25.425;  166.000;   -6.000
392.693;  -96.425; -860.000; -682.000
392.822;  193.225; -529.000; -534.000
392.950;  106.575; -880.000; -714.000
393.079;  335.350; -188.000; -328.000
393.208;   23.150; -488.000; -511.000
393.336;  -13.700; -170.000; -145.000
393.465;  -69.850; -317.000; -199.000
393.593;    2.750;   62.000;   79.000
393.722; -148.150;-1121.000; -916.000
393.850;  -33.450; -188.000;  -61.000
393.979; -159.550; -926.000; -805.000
394.107;  -76.900; -517.000; -537.000
394.236;  -27.900; -570.000; -507.000
394.364;  218.000;  383.000;  206.000
394.493;  339.625; -911.000; -767.000
394.621;  -18.575; -955.000; -916.000
394.750;  696.850; -873.000; -923.000
394.878; 2890.850; -247.000; -149.000
395.007; 4064.825; -721.000; -807.000
395.135;  314.200; -790.000; -721.000
395.263;  -71.125;-1038.000;-1040.000
395.392;  -15.950;  -25.000; -107.000
395.520; -145.175; -818.000; -679.000
395.648;  -94.275; -865.000; -915.000
395.777;  -26.875; -366.000; -405.000
395.905;  -47.550; -449.000; -564.000
396.033;   -0.350;  217.000;  172.000
396.162;  563.550; -399.000; -453.000
396.290;  507.575;  -17.000;   -2.000
396.418;  105.825; -555.000; -514.000
396.546;  -71.575; -571.000; -466.000
396.674; -104.175; -850.000; -878.000
396.803;    6.225;  -72.000;  -23.000
396.931;   76.425; -179.000; -199.000
397.059;   35.625;-1026.000; -989.000
397.187; -118.875;-1026.000; -975.000
397.315; -151.200; -884.000; -649.000
397.443; -109.350; -592.000; -443.000
397.572;  -92.975; -578.000; -424.000
397.700;  -23.550; -607.000; -614.000
397.828;   21.525;  120.000;  -90.000
397.956;  -49.075; -508.000; -478.000
398.084;  -69.100; -767.000; -626.000
398.212;   28.200;  137.000;  124.000
398.340;   -0.550;  -56.000;  159.000
398.468;   32.775; -390.000; -169.000
398.596; -135.650; -993.000; -953.000
398.724; -124.650; -762.000; -767.000
398.852; -163.000;-1024.000; -976.000
398.980;  -68.800; -560.000; -560.000
399.108;  -57.500; -982.000; -735.000
399.236;   23.900;   13.000;    8.000
399.363;    7.400;  222.000;  196.000
399.491;  -66.125; -404.000; -398.000
399.619; -124.675; -829.000; -800.000
399.747; -111.275; -859.000; -771.000
399.875;   74.225;  220.000;  234.000
400.003;  -51.925; -359.000; -284.000
400.130;  -98.300; -421.000; -341.000
400.258;  -34.600;  -83.000;   38.000
400.386;  -74.375; -352.000; -168.000
400.514;  -43.875; -526.000; -587.000
400.641;  -91.550; -928.000; -802.000
400.769; -141.375; -979.000; -888.000
400.897; -124.625; -838.000; -793.000
401.025;  -30.800; -166.000; -152.000
401.152;  -24.750;  220.000;   38.000
401.280;  -98.250; -430.000; -429.000
401.408; -119.925; -712.000; -576.000
401.535; -117.925; -735.000; -758.000
401.663; -205.200;-1134.000;-1054.000
401.790;  -88.025; -514.000; -525.000
401.918;   37.525;  436.000;  405.000
402.046;  -24.275;  134.000;  122.000
402.173;  -45.525;  -18.000;    7.000
402.301;  -72.150; -519.000; -397.000
402.428;   14.750;  528.000;  383.000
402.556; -151.650;-1188.000; -913.000
402.683;  -28.775;  -20.000;   -1.000
402.811;  -29.025;  -37.000; -206.000
402.938;  -19.450;   20.000;   27.000
403.066;  191.500; -574.000; -558.000
403.193;  347.075;  299.000;  239.000
403.321;  255.300; -396.000; -574.000
403.448;  324.025;   83.000;   27.000
403.575;  150.125;  -90.000;  -46.000
403.703; -116.125; -732.000; -557.000
403.830;  -73.225; -531.000; -496.000
403.957; -145.800;-1117.000;-1023.000
404.085;    0.400;  -61.000; -172.000
404.212;   96.350;  -50.000;   63.000
404.339;  266.250; -566.000; -306.000
404.467; 5701.225; -612.000; -524.000
404.594; 3899.275; -287.000; -227.000
404.721;  926.875; -869.000; -764.000
404.848;   79.900; -113.000; -202.000
404.976; -110.825; -856.000; -783.000
405.103;  -11.700;  -14.000;  -82.000
405.230;   -5.350;  190.000;  226.000
405.357;   10.000;  117.000;   44.000
405.484;  245.100;  -49.000;    5.000
405.612;   44.400; -548.000; -563.000
405.739;  -62.425; -488.000; -243.000
405.866;   71.000;  669.000;  385.000
405.993;  -49.375; -398.000; -102.000
406.120; -135.825; -801.000; -887.000
406.247;  -51.150; -323.000; -342.000
406.374;  437.425;  540.000;  629.000
406.501;  133.400; -632.000; -702.000
406.628;  -84.725; -621.000; -589.000
406.755;  -94.750; -803.000; -620.000
406.882;  -39.050; -228.000; -277.000
407.009; -120.900; -719.000; -628.000
407.136;   32.925; -480.000; -401.000
407.263;  131.450; -939.000; -829.000
407.390;  -71.300; -692.000; -614.000
407.517; -180.450;-1139.000;-1187.000
407.644;  -70.250; -332.000; -256.000
407.771; -137.025; -249.000; -287.000
407.898;    2.850;  168.000;  328.000
408.025;  -73.775; -421.000; -313.000
408.151;  -23.750;   82.000;  153.000
408.278;  -58.475; -267.000; -216.000
408.405; -125.175; -931.000; -899.000
408.532;  -83.450; -549.000; -542.000
408.659; -117.225; -677.000; -648.000
408.785; -197.600;-1298.000;-1170.000
408.912;  -74.075; -412.000; -296.000
409.039; -112.375; -610.000; -686.000
409.166; -123.375; -591.000; -555.000
409.292; -113.900; -571.000; -534.000
409.419; -128.650; -665.000; -649.000
409.546;  -78.550; -431.000; -192.000
409.672; -116.225; -713.000; -545.000
409.799;  -25.700;  -36.000;   34.000
409.926;  -40.650; -180.000; -179.000
410.052; -181.075;-1127.000;-1091.000
410.179;  -64.425; -368.000; -392.000
410.305;  -95.850; -375.000; -493.000
410.432;  -69.275; -220.000; -333.000
410.558;  -98.900; -305.000; -380.000
410.685; -113.025; -688.000; -431.000
410.812; -106.000; -409.000; -588.000
410.938; -138.450; -964.000; -808.000
411.065;  -99.250; -671.000; -645.000
411.191;  -13.975; -189.000; -174.000
411.317; -117.825; -823.000; -742.000
411.444;  -62.775; -317.000; -246.000
411.570;  -90.800; -339.000; -294.000
411.697; -127.150; -758.000; -752.000
411.823; -186.075; -989.000; -999.000
411.949;  -40.050;  -56.000;   17.000
412.076; -124.150; -539.000; -519.000
412.202; -120.900; -758.000; -757.000
412.329; -133.000; -798.000; -752.000
412.455; -123.250; -821.000; -657.000
412.581;  -26.925;  -15.000;  172.000
412.707;  -77.675; -540.000; -457.000
412.834;   24.075;  156.000;  219.000
412.960;  -90.950; -785.000; -784.000
413.086; -113.675; -743.000; -701.000
413.212;  125.375;  604.000;  578.000
413.339;  -64.900; -685.000; -701.000
413.465;    8.000; -364.000; -310.000
413.591;  -91.100; -757.000; -474.000
413.717;  -57.375; -358.000; -366.000
413.843; -140.650; -839.000; -861.000
413.969;  -66.000;  -47.000; -292.000
414.096; -103.500; -679.000; -679.000
414.222;  -19.900;  -33.000;   85.000
414.348;  -45.150; -652.000; -385.000
414.474;   80.800;   38.000;  -52.000
414.600;  -19.325; -126.000; -144.000
414.726;  -22.775;  -96.000;  -55.000
414.852;  -50.175; -365.000; -342.000
414.978;   29.900;  104.000;  -18.000
415.104;   33.675;   38.000;   80.000
415.230;   12.825; -329.000; -330.000
415.356;   30.350; -409.000; -514.000
415.482;  183.400;   13.000;  -35.000
415.608;  273.050; -247.000; -323.000
415.734;  955.650;   67.000;   38.000
415.860;19615.875; -875.000; -767.000
415.986;14881.425; -685.000; -607.000
416.111; 1283.025; -798.000; -652.000
416.237;  251.800; -424.000; -571.000
416.363; 1123.200; -765.000; -733.000
416.489; 4218.050; -324.000; -251.000
416.615;  454.875; -707.000; -742.000
416.741;  -18.625; -677.000; -784.000
416.866;  -94.550; -673.000; -736.000
416.992; -134.725; -801.000; -818.000
417.118;  -36.475;  -41.000;  -80.000
417.244;  -67.625; -798.000; -531.000
417.369;  -80.900; -801.000; -612.000
417.495;  -12.350; -325.000; -254.000
417.621;  -83.550;-1015.000; -803.000
417.746;   10.000; -579.000; -572.000
417.872;   38.725; -254.000; -144.000
417.998;   52.675; -515.000; -530.000
418.123; 1005.375;-1073.000; -845.000
418.249; 5417.150; -512.000; -601.000
418.374;  786.300; -916.000; -824.000
418.500;  106.475; -383.000; -482.000
418.626;  112.000;   70.000;  -59.000
418.751;  112.450; -549.000; -448.000
418.877;  184.100; -637.000; -643.000
419.002; 1775.150; -688.000; -560.000
419.128;12590.550; -930.000; -721.000
419.253; 3203.650; -967.000; -837.000
419.379;  404.350; -391.000; -338.000
419.504;  384.750;  325.000;  415.000
419.629;  513.225; -393.000; -212.000
419.755; 3475.575; -317.000; -254.000
419.880;21280.325;  -98.000;   67.000
420.006;11439.050; -280.000; -221.000
420.131;29672.100; -662.000; -775.000
420.256; 4414.350; -315.000; -316.000
420.382;  565.000; -665.000; -687.000
420.507;   63.825; -649.000; -778.000
420.632;  134.550; -337.000; -339.000
420.758;  233.400; -251.000; -425.000
420.883;  -63.650; -876.000; -672.000
421.008; -108.350; -775.000; -619.000
421.133;  -85.750; -509.000; -467.000
421.259;  -55.325; -325.000; -259.000
421.384; -129.625; -834.000; -693.000
421.509;  -48.525;-1052.000; -862.000
421.634; 1150.550; -936.000; -820.000
421.759;  504.025; -359.000; -327.000
421.885;  -55.275; -717.000; -656.000
422.010;  -84.375; -673.000; -542.000
422.135; -145.625; -695.000; -727.000
422.260;   22.625;  340.000;  280.000
422.385;  -41.850;   12.000;  -98.000
422.510;   11.300;  151.000;  -26.000
422.635;   17.300;  -87.000;  -43.000
422.760;  100.000; -766.000; -791.000
422.885;   47.150;  -57.000;  -80.000
423.010;  -37.400; -112.000; -169.000
423.135; -106.075; -481.000; -561.000
423.260;  -27.900; -150.000; -245.000
423.385;   54.225;  476.000;  222.000
423.510;    1.425;   71.000;  -22.000
423.635;   65.600;  133.000;   45.000
423.760;   52.725;  383.000;  328.000
423.885;   43.375;  336.000;  391.000
424.010;    6.900;  -68.000;  -13.000
424.135;  -36.050;    5.000;  -33.000
424.259;  -97.250; -654.000; -457.000
424.384;  -68.400; -279.000; -272.000
424.509;  -39.625; -260.000; -186.000
424.634;  -96.725; -761.000; -623.000
424.759;  -35.350; -688.000; -544.000
424.883;  -24.375; -506.000; -527.000
425.008;  146.075; -502.000; -410.000
425.133; 1995.550; -679.000; -653.000
425.258;  979.700; -517.000; -381.000
425.382; 1019.150; -867.000; -774.000
425.507; 2726.375; -487.000; -543.000
425.632;  453.375; -802.000; -663.000
425.756;  465.525; -256.000; -146.000
425.881; 6399.850; -831.000; -857.000
426.006;18077.875; -604.000; -355.000
426.130; 2923.650; -696.000; -508.000
426.255;  352.575; -611.000; -491.000
426.379;  155.125; -189.000; -577.000
426.504;  365.225;  660.000;  544.000
426.629; 3958.025; -519.000; -466.000
426.753; 2814.575;   64.000;  -46.000
426.878;  312.550; -252.000; -288.000
427.002;  141.750; -651.000; -668.000
427.127; 1539.575;  -35.000; -158.000
427.251;11413.350;  372.000;  401.000
427.375; 3384.200; -191.000; -173.000
427.500; 2381.875; -616.000; -610.000
427.624;  825.475; -234.000; -400.000
427.749;   90.575; -216.000; -225.000
427.873;  -34.325; -499.000; -412.000
427.997;  -40.200; -222.000; -230.000
428.122;   58.700;  795.000;  703.000
428.246;   68.350;  433.000;  434.000
428.371; -125.850; -869.000; -773.000
428.495; -107.800; -624.000; -646.000
428.619;  -42.850; -186.000; -117.000
428.743;   -1.725;   65.000;  132.000
428.868;   12.650; -732.000; -643.000
428.992; 1440.250; -219.000; -326.000
429.116;  574.625; -329.000; -357.000
429.240;  271.500;  419.000;  426.000
429.365;  -22.225; -454.000; -574.000
429.489;  -62.825; -638.000; -647.000
429.613;    8.750; -236.000; -177.000
429.737;   21.750; -563.000; -432.000
429.861;  267.875; -247.000; -133.000
429.985; 5447.225; -425.000; -305.000
430.109; 6259.575; -770.000; -908.000
430.234;  724.675;   76.000;  -50.000
430.358;   57.700; -250.000; -160.000
430.482;  -76.400; -672.000; -564.000
430.606;  -56.375; -655.000; -375.000
430.730;   -2.100; -437.000; -388.000
430.854;  127.150; -909.000; -835.000
430.978;  -84.850; -795.000; -764.000
431.102;  -95.375; -499.000; -422.000
431.226; -127.925; -874.000; -815.000
431.350;   12.625;  345.000;  422.000
431.474;  -85.950; -661.000; -373.000
431.597; -149.225;-1060.000; -848.000
431.721;  -82.125; -276.000; -267.000
431.845; -131.575; -704.000; -472.000
431.969;  -78.225; -304.000; -349.000
432.093; -103.550; -395.000; -317.000
432.217;  -36.325;   32.000;   82.000
432.341;  -88.275; -523.000; -518.000
432.464;   -8.700;   96.000;   40.000
432.588;  180.425; -401.000; -329.000
432.712;   92.750;  -52.000;  -52.000
432.836;   31.600;  213.000;  263.000
432.959;  -31.525; -372.000; -311.000
433.083;   80.150;   11.000;    2.000
433.207;  360.100;  285.000;  930.000
433.330; 4966.725; -391.000; -200.000
433.454; 6354.925; -654.000; -638.000
433.578; 3632.725;  583.000;  278.000
433.701;  716.450; -623.000; -675.000
433.825;  152.050; -292.000; -299.000
433.949;  172.900;   28.000;  -72.000
434.072;   45.550; -410.000; -323.000
434.196;  -17.150; -309.000; -117.000
434.319; 3687.275;25482.000;25124.000
434.443;  696.375; -656.000; -603.000
434.566; 2710.150;  281.000;   62.000
434.690;  476.375; -637.000; -383.000
434.813;   49.200; -251.000; -173.000
434.937;  -84.425; -569.000; -696.000
435.060;  -56.925; -423.000; -332.000
435.184;  289.375; -492.000; -217.000
435.307;  166.825;  159.000;  102.000
435.431;  -12.500;  -40.000;   24.000
435.554;  -83.825; -399.000; -240.000
435.677;  -88.525; -350.000; -258.000
435.801;  -55.425;  -25.000;   49.000
435.924;  -18.925;    1.000;  -67.000
436.048; -116.475;-1019.000; -732.000
436.171;  -86.400; -240.000;  -66.000
436.294;  -43.500; -248.000; -229.000
436.417;  100.550; -963.000; -849.000
436.541;  -88.250; -814.000; -840.000
436.664;  -68.900; -242.000; -316.000
436.787;  -41.325;   13.000;  113.000
436.910; -114.425; -792.000; -422.000
437.034;   17.300;  142.000;  143.000
437.157;   39.500;  -11.000;    0.000
437.280;  -58.025; -392.000; -292.000
437.403;  -96.725; -982.000; -869.000
437.526;  594.900; -903.000; -865.000
437.649; 2242.950; -505.000; -332.000
437.772;  359.125; -692.000; -540.000
437.896;  111.100;  700.000;  544.000
438.019; -112.075; -758.000; -503.000
438.142;  -91.000; -596.000; -506.000
438.265;  -22.025; -639.000; -670.000
438.388;  553.325; -520.000; -410.000
438.511;  103.150; -597.000; -394.000
438.634;  -63.275; -247.000; -125.000
438.757; -137.225; -693.000; -619.000
438.880;  -46.050;  -34.000;  -57.000
439.003;  -86.550; -417.000; -437.000
439.126;  -68.150; -287.000; -167.000
439.248;  -70.125;  -98.000; -139.000
439.371;  -48.825;    9.000;  -53.000
439.494;   10.200;  510.000;  439.000
439.617;  -61.150;   65.000;  -88.000
439.740; -188.375; -968.000; -816.000
439.863; -134.550; -755.000; -595.000
439.986; -122.725; -476.000; -431.000
440.108;  -59.350; -161.000; -112.000
440.231; -166.175; -950.000; -836.000
440.354;  -52.500;  -64.000; -150.000
440.477;   20.025; -566.000; -542.000
440.599;    5.425; -200.000; -225.000
440.722; -130.750; -709.000; -586.000
440.845;   56.800;  751.000;  928.000
440.968; -128.250; -415.000; -311.000
441.090;  -68.925; -199.000;  -33.000
441.213; -171.575;-1021.000; -825.000
441.336;  -54.675; -159.000;   -5.000
441.458;  -89.625; -549.000; -396.000
441.581;  -84.875; -628.000; -629.000
441.703;  -73.600; -152.000;   13.000
441.826; -126.100; -557.000; -400.000
441.948;  -58.800;   56.000;   51.000
442.071;   10.750;  555.000;  424.000
442.193; -131.775; -531.000; -485.000
442.316;   27.450;  152.000;   97.000
442.438;   34.525; -233.000;  -10.000
442.561;   64.425;  272.000;  262.000
442.683;  520.400; -809.000; -522.000
442.806; 1177.700;   -8.000;   74.000
442.928;   26.550; -859.000; -604.000
443.051;  -80.100; -577.000; -373.000
443.173;  -93.250; -341.000; -339.000
443.295;  -85.275; -263.000; -371.000
443.418;  -78.325; -321.000;  -29.000
443.540;  -15.300; -106.000;   -4.000
443.662; -129.400; -563.000; -465.000
443.785;  -24.950;  335.000;  199.000
443.907; -108.800; -362.000; -208.000
444.029; -143.650; -767.000; -494.000
444.152; -160.175; -644.000; -554.000
444.274;  -37.025;  -18.000;  -24.000
444.396; -123.050; -461.000; -221.000
444.518; -126.800; -691.000; -454.000
444.640; -107.200; -268.000; -111.000
444.763;  -21.375;  388.000;  249.000
444.885; -121.250; -432.000; -392.000
445.007;  -32.125;   35.000;   86.000
445.129; -114.900; -610.000; -515.000
445.251; -100.675; -372.000; -439.000
445.373; -145.325; -537.000; -386.000
445.495;   -6.250;  242.000;  350.000
445.617;   41.550;  853.000;  753.000
445.739;  -73.075; -215.000;  -97.000
445.861;  -35.375; -245.000; -112.000
445.984;  -39.950; -267.000; -101.000
446.105;  176.550; -418.000; -251.000
446.227;  613.825; -176.000;  -19.000
446.349;    5.500; -358.000; -249.000
446.471;  -97.750; -615.000; -448.000
446.593;  -87.275; -316.000;   19.000
446.715;   -7.975;  -67.000;   41.000
446.837;   56.750;  697.000;  832.000
446.959; -118.850; -457.000; -478.000
447.081; -133.425; -628.000; -518.000
447.203;   45.400;  862.000;  834.000
447.325;  -96.450; -270.000;   42.000
447.446;  -14.000;  286.000;  530.000
447.568; -158.075; -921.000; -803.000
447.690;  -90.600; -236.000; -245.000
447.812; -161.400; -798.000; -519.000
447.933;  -29.450;  155.000;  127.000
448.055;  -84.025; -306.000; -261.000
448.177;  158.475;   31.000;   79.000
448.299;   88.250; -935.000; -727.000
448.420;   25.625;  -25.000;  159.000
448.542;  -49.650;   -3.000;   33.000
448.664;  -27.425;  109.000;  322.000
448.785;  -49.550;  265.000;   83.000
448.907;  -84.375; -614.000; -353.000
449.028;  -35.475; -771.000; -471.000
449.150;   57.325;  492.000;  589.000
449.272; -169.925;-1044.000; -913.000
449.393;   25.450;  612.000;  694.000
449.515; -146.025; -634.000; -581.000
449.636;  -55.600; -264.000; -155.000
449.758;   78.175;  763.000;  622.000
449.879; -105.625; -498.000; -396.000
450.001;  -92.525; -149.000;  -49.000
450.122;  -46.000;  -95.000;  162.000
450.244;  -16.250;   37.000;  364.000
450.365;  -98.475; -495.000; -301.000
450.486;  -30.325;   80.000;  268.000
450.608;    7.200;  393.000;  326.000
450.729;   60.550;  578.000;  645.000
450.850;   -5.450; -574.000; -466.000
450.972;  727.125; -552.000; -389.000
451.093; 4920.475;  190.000;  588.000
451.214; 2209.750; -516.000; -337.000
451.336;  425.650;  773.000;  579.000
451.457;   52.700;  264.000;  393.000
451.578;  -53.500; -118.000;  -74.000
451.699; -130.475; -546.000; -540.000
451.821;  -63.700; -284.000;  -50.000
451.942;  -22.325;  278.000;  285.000
452.063;   27.250;  228.000;  419.000
452.184;  530.725;  -54.000;  -49.000
452.305; 1102.250;  103.000;  170.000
452.427;  136.950; -549.000; -301.000
452.548;  -23.425;   23.000;   79.000
452.669;  -59.650; -257.000;  -89.000
452.790;  -48.850;    3.000;  -18.000
452.911;   -8.150;  195.000;  259.000
453.032;  -69.875; -289.000;  -60.000
453.153;  -39.700;  -29.000;   81.000
453.274;   54.075;  737.000;  868.000
453.395;  -57.900;  -51.000;  175.000
453.516;  116.650; 1317.000; 1388.000
453.637;  -82.650; -205.000; -150.000
453.758;  -62.300;   15.000;   69.000
453.879; -115.425; -462.000; -250.000
454.000;   63.350; 1086.000;  948.000
454.121; -125.850; -554.000; -326.000
454.242; -120.625; -599.000; -383.000
454.362;  -52.300;  -99.000;  114.000
454.483;  -45.375; -309.000; -229.000
454.604;   38.250;  512.000;  580.000
454.725; -124.750; -627.000; -555.000
454.846; -134.800; -474.000; -406.000
454.967;  -15.600;  230.000;  539.000
455.087;  -56.475;  179.000;  153.000
455.208;    8.725;  554.000;  856.000
455.329;  -65.175;  -22.000;   82.000
455.450;   28.875;  473.000;  633.000
455.570; -107.450; -234.000; -211.000
455.691;  -59.400;  201.000;  407.000
455.812; -119.375; -270.000;  -92.000
455.932;  -64.350;  107.000;  -97.000
456.053;  -88.950;   36.000;   24.000
456.173; -109.725; -433.000; -355.000
456.294; -121.850; -476.000; -303.000
456.415;  -77.125;  -73.000;   70.000
456.535;  -25.200;  297.000;  273.000
456.656;  -51.225;  132.000;  240.000
456.776;  -76.375;    3.000;  298.000
456.897;  -13.475;  308.000;  513.000
457.017;  -91.175; -153.000;   -3.000
457.138; -107.250; -402.000; -249.000
457.258;  -39.900;  263.000;  224.000
457.379;   -8.075;  509.000;  521.000
457.499;  -44.150;  443.000;  432.000
457.620; -121.975; -407.000; -231.000
457.740;  -88.450; -132.000;  -11.000
457.860;  -67.800;   87.000;   44.000
457.981;  -47.900;  132.000;  124.000
458.101;  -84.975;  -89.000;   40.000
458.221;  -21.750;  336.000;  402.000
458.342;  -63.300;   -4.000;  -37.000
458.462;   26.975;  617.000;  352.000
458.582;  -46.525; -302.000; -294.000
458.703;    3.525;  303.000;  154.000
458.823;  -22.025;   22.000;  163.000
458.943;    4.925;  341.000;  467.000
459.063;  -24.400; 1124.000;  192.000
459.183;  -34.700;  328.000;  313.000
459.304;    1.200;  315.000;  517.000
459.424;  -62.725; -246.000;  -89.000
459.544;  314.700;  388.000;  764.000
459.664;  827.375;  499.000;  506.000
459.784;  314.250; 1004.000; 1175.000
459.904;   69.700;  867.000;  744.000
460.024;   50.025;  867.000;  684.000
460.144;    1.725;  449.000;  554.000
460.264;  -12.300;  515.000;  327.000
460.385;  -94.950; -145.000; -119.000
460.505;   14.375;  905.000;  858.000
460.625;  -94.450;  -17.000;  -68.000
460.745;  -20.000;  396.000;  541.000
460.864;  -48.425;  153.000;  469.000
460.984;   -9.425;  499.000;  573.000
461.104;  113.325; 1656.000; 1775.000
461.224;   11.150;  657.000;  650.000
461.344;  -21.100;  431.000;  360.000
461.464;  -42.025;  258.000;  513.000
461.584;  -25.425;  283.000;  466.000
461.704;  -55.850;   58.000;  108.000
461.824;  -76.150;  238.000;  259.000
461.943;  -54.250;  191.000;  130.000
462.063;  -79.700;    2.000;  324.000
462.183;   14.375;  639.000;  717.000
462.303;   96.400; 1678.000; 1230.000
462.422;   19.500;  781.000;  840.000
462.542;  -38.725;  271.000;  391.000
462.662;   33.125;  353.000;  380.000
462.782;  224.050;  833.000;  572.000
462.901;  489.125;  545.000;  717.000
463.021;  283.100; 1702.000; 1638.000
463.141;  -22.725;  337.000;  770.000
463.260;  -12.625;  614.000;  474.000
463.380;   10.375;  902.000;  884.000
463.499;  -50.575;  342.000;  332.000
463.619;  -37.600;  581.000;  559.000
463.738;  115.200; 1644.000;  903.000
463.858;   15.400;  657.000;  811.000
463.978;  -36.950;  542.000;  396.000
464.097;   36.125;  921.000; 1114.000
464.217;   92.350; 1196.000; 1143.000
464.336;  104.875; 1068.000; 1130.000
464.455;  -48.100;  328.000;  659.000
464.575;   28.000;  597.000;  602.000
464.694;  166.425; 1204.000; 1179.000
464.814;  105.400; 1190.000; 1138.000
464.933;   77.175; 1095.000; 1027.000
465.052;   73.725; 1412.000; 1054.000
465.172;   82.725;  922.000;  799.000
465.291;  128.900; 1376.000; 1320.000
465.410;   23.675;  462.000;  735.000
465.530;   76.975; 1355.000; 1310.000
465.649;   78.000; 1209.000; 1273.000
465.768;  122.100; 1673.000; 1508.000
465.888;   48.875;  941.000; 1174.000
466.007;   92.850; 1335.000; 1440.000
466.126;  -18.025;  721.000;  641.000
466.245;   38.050; 1176.000; 1187.000
466.364;   30.450;  950.000; 1060.000
466.484;   60.300; 1024.000; 1213.000
466.603;   28.275; 1101.000; 1222.000
466.722;  112.500; 1490.000; 1769.000
466.841;   66.525; 1151.000; 1401.000
466.960;   47.600; 1069.000;  972.000
467.079;  131.500; 1971.000; 1786.000
467.198;   35.875; 1238.000; 1181.000
467.317;   68.525; 1768.000; 1162.000
467.436;   74.775; 1709.000; 1261.000
467.555;  136.850; 1796.000; 1746.000
467.674;   54.225; 1227.000; 1329.000
467.793;   54.550; 1376.000; 1374.000
467.912;   82.500; 1658.000; 1539.000
468.031;  140.475; 2038.000; 1930.000
468.150;  127.375; 1842.000; 1837.000
468.269;  177.575; 2313.000; 2090.000
468.388;  175.400; 2168.000; 2339.000
468.507;  237.525; 2884.000; 2903.000
468.626;  269.325; 2555.000; 2541.000
468.744;  142.350; 2018.000; 2174.000
468.863;  184.200; 2312.000; 2523.000
468.982;   94.375; 1503.000; 1555.000
469.101;  206.800; 2788.000; 2692.000
469.220;  140.900; 2333.000; 2176.000
469.338;  249.475; 2935.000; 3051.000
469.457;  177.300; 2719.000; 2545.000
469.576;  346.550; 3953.000; 3784.000
469.695;  236.825; 2877.000; 3066.000
469.813;  427.275; 4148.000; 4192.000
469.932;  397.150; 4255.000; 4485.000
470.051;  415.900; 4075.000; 4161.000
470.169;  840.500; 4470.000; 4338.000
470.288; 1474.175; 4700.000; 4809.000
470.406;  848.600; 5059.000; 5194.000
470.525;  637.175; 6101.000; 5787.000
470.644;  635.175; 6847.000; 6794.000
470.762;  801.550; 8397.000; 7873.000
470.881;  902.200; 8651.000; 8464.000
470.999; 1012.100; 9685.000; 9151.000
471.118; 1102.675;11174.000;10711.000

