
Integration time [ms]: 200.000
Averaging Nr. [scans]: 10
Smoothing Nr. [pixels]: 0
Data measured with spectrometer [name]: 2101012U2
Wave   ;Sample   ;Dark     ;Reference
[nm]   ;[counts] ;[counts] ;[counts] 

197.733;  124.700;  516.000;  404.000
197.879; -180.400; -610.000; -634.000
198.025; -104.800; -475.000; -420.000
198.171; -137.300; -602.000; -612.000
198.317;  -57.900; -401.000; -316.000
198.463; -105.400; -655.000; -404.000
198.609;   67.300;  181.000; -137.000
198.755; -188.900; -644.000; -410.000
198.901; -138.500; -505.000; -424.000
199.047; -152.800; -615.000; -488.000
199.193;  -92.300; -230.000; -468.000
199.339; -112.800; -222.000; -369.000
199.485;   95.800;  330.000;  271.000
199.631;   30.000;  227.000;  310.000
199.777;  -97.700; -466.000; -398.000
199.923; -142.300; -610.000; -424.000
200.069;   10.900; -141.000;  -58.000
200.215;  127.800;  128.000;  453.000
200.361;  109.900;  243.000;  477.000
200.507; -146.800; -600.000; -373.000
200.653;  -63.000; -371.000; -194.000
200.798;  -69.000; -215.000; -125.000
200.944;   -8.600; -146.000;  -41.000
201.090;  100.100;   61.000;  222.000
201.236;  -23.100; -116.000; -158.000
201.382;  236.600;  874.000;  903.000
201.528;   26.900;  -58.000;  -48.000
201.674; -123.600; -386.000; -293.000
201.819; -151.600; -540.000; -439.000
201.965; -182.400; -699.000; -447.000
202.111;  -43.700; -273.000; -226.000
202.257;  -59.300; -250.000; -238.000
202.402;    2.200;   13.000;  -36.000
202.548;  -65.700; -169.000; -116.000
202.694;  167.600;  410.000; -183.000
202.840; -140.300; -603.000; -531.000
202.985; -147.700; -681.000; -639.000
203.131; -227.900; -832.000; -666.000
203.277;  -29.500; -199.000; -262.000
203.423;  -85.500; -434.000; -520.000
203.568;  -90.200; -462.000; -237.000
203.714; -118.700; -535.000; -542.000
203.860; -136.400; -682.000; -641.000
204.005;   66.900;  112.000;  167.000
204.151;  176.200;  561.000;  556.000
204.296;  -91.700; -354.000; -221.000
204.442; -150.300; -600.000; -547.000
204.588; -148.400; -592.000; -579.000
204.733;   67.600;  178.000;  168.000
204.879; -268.900;-1018.000; -822.000
205.025;   53.600;  -99.000;  126.000
205.170;  -24.300;  -17.000;   94.000
205.316;  159.100;  438.000;  661.000
205.461; -200.100; -698.000; -554.000
205.607;  200.800;  609.000;  665.000
205.752; -179.800; -626.000; -551.000
205.898;  -79.700; -501.000; -391.000
206.043; -125.100; -578.000; -506.000
206.189;  -63.400; -243.000; -285.000
206.334;  166.100;  554.000;  606.000
206.480;  170.800;  409.000;  239.000
206.625; -183.400; -529.000; -552.000
206.771;  -81.500; -451.000; -373.000
206.916;  -73.600; -210.000; -537.000
207.062; -178.900; -545.000; -591.000
207.207;  -97.500; -546.000; -443.000
207.353;  133.500;  185.000;  460.000
207.498;   33.300;  196.000;   85.000
207.643;  -89.400; -501.000; -370.000
207.789; -243.200;-1069.000; -910.000
207.934; -201.500; -665.000; -713.000
208.080;  -63.000; -154.000;   66.000
208.225;   18.000;  -22.000;  -57.000
208.370; -183.700; -727.000; -619.000
208.516; -171.800; -741.000; -487.000
208.661;  -84.900; -127.000;  -69.000
208.806;  -29.700; -165.000; -171.000
208.952; -253.300;-1044.000; -731.000
209.097;  163.600;  378.000;  349.000
209.242; -119.100; -307.000; -382.000
209.387;  132.400;  392.000;  350.000
209.533;  -87.600; -321.000; -350.000
209.678;  167.700;  472.000;  543.000
209.823; -120.200; -408.000; -310.000
209.969; -215.800; -860.000; -757.000
210.114; -219.600; -907.000; -719.000
210.259; -249.500; -939.000; -889.000
210.404;   -3.000; -171.000;  103.000
210.549;   26.500;  108.000;    3.000
210.695;  -18.800;   -3.000;  -95.000
210.840;   86.300;   94.000;   67.000
210.985; -133.100; -484.000; -303.000
211.130;  151.400;  268.000;  406.000
211.275;   67.800;  207.000;  199.000
211.420; -102.000; -300.000; -289.000
211.566; -137.200; -536.000; -489.000
211.711;   69.800;  218.000;  157.000
211.856; -148.900; -545.000; -519.000
212.001;   52.800;  151.000;   44.000
212.146;   14.100;  153.000;   49.000
212.291;  -47.300; -210.000; -186.000
212.436;  -58.600; -280.000;   -6.000
212.581; -174.300; -685.000; -653.000
212.726; -147.800; -487.000; -538.000
212.871; -109.800; -552.000; -217.000
213.016; -285.000;-1172.000;-1029.000
213.161;  156.600;  406.000;  291.000
213.306; -149.300; -435.000; -577.000
213.451; -187.300; -778.000; -689.000
213.596;  -78.400; -455.000; -347.000
213.741; -108.700; -448.000; -538.000
213.886; -137.100; -498.000; -517.000
214.031;  -30.700; -294.000; -124.000
214.176;  -97.600; -408.000; -341.000
214.321;   -2.600; -296.000; -157.000
214.466;  -13.900; -163.000;  -43.000
214.611;  -21.300;  -61.000;  -10.000
214.756; -230.600; -948.000; -858.000
214.901;  -47.400; -388.000; -226.000
215.046; -260.300; -797.000; -825.000
215.191;   57.200;  128.000;   35.000
215.336;  -37.500; -157.000;  -19.000
215.480; -149.600; -684.000; -505.000
215.625;  -27.000; -175.000;  -19.000
215.770; -209.600; -757.000; -662.000
215.915;  -18.700;   -5.000;  -97.000
216.060;    7.000; -113.000;  -21.000
216.205; -204.700; -731.000; -779.000
216.349; -151.600; -470.000; -533.000
216.494; -252.300; -939.000; -867.000
216.639; -238.300; -823.000; -888.000
216.784; -195.400; -577.000; -525.000
216.929;  122.000;  392.000;  281.000
217.073;  -32.200; -244.000;  -31.000
217.218;   25.500;   78.000;  -47.000
217.363; -162.300; -656.000; -618.000
217.507; -175.300; -623.000; -588.000
217.652; -228.400; -845.000; -874.000
217.797; -186.900; -708.000; -659.000
217.942; -230.400; -856.000; -720.000
218.086;  178.900;  608.000;  539.000
218.231;  -27.200; -174.000;  -26.000
218.376;  -84.400; -337.000; -229.000
218.520;   16.700;  -41.000;   96.000
218.665;  -68.500; -338.000; -204.000
218.810;  -95.000; -275.000; -233.000
218.954;   17.700;  201.000;   35.000
219.099; -221.900; -713.000; -963.000
219.243; -144.200; -589.000; -554.000
219.388;  -66.300; -264.000; -136.000
219.532;   -3.900; -116.000; -116.000
219.677; -157.500; -564.000; -521.000
219.822;   15.200;   33.000;   89.000
219.966;   32.400;   17.000;  -99.000
220.111;  -62.300; -328.000;  -40.000
220.255; -195.700; -797.000; -750.000
220.400;  -59.900; -180.000; -146.000
220.544; -141.300; -516.000; -450.000
220.689;  -98.300; -422.000; -451.000
220.833;  -37.700; -123.000;  -58.000
220.978;  -98.600; -393.000; -563.000
221.122;   36.500;  319.000;  307.000
221.267; -247.900; -906.000; -837.000
221.411; -112.500; -478.000; -394.000
221.555;  -22.600; -104.000;  -23.000
221.700;  -87.200; -329.000; -222.000
221.844;   69.100;  255.000;  272.000
221.989; -108.400; -328.000; -311.000
222.133;  -63.000; -289.000; -307.000
222.277;  -11.200;    5.000;   78.000
222.422;   80.800;  227.000;  113.000
222.566;  -58.000; -381.000; -214.000
222.711; -127.000; -414.000; -479.000
222.855; -157.900; -643.000; -586.000
222.999; -169.900; -642.000; -717.000
223.144;  -59.300; -195.000; -194.000
223.288;  110.000;  423.000;  251.000
223.432;   43.100;  184.000;  230.000
223.576;   63.900;  152.000;  -21.000
223.721;  109.800;  364.000;  273.000
223.865; -106.200; -472.000; -475.000
224.009;  478.200; 1673.000; 1631.000
224.153; -169.300; -660.000; -671.000
224.298; -157.400; -531.000; -489.000
224.442;   24.400;  -74.000;  -33.000
224.586;   -7.500; -169.000; -106.000
224.730; -203.500; -858.000; -670.000
224.875; -204.500; -739.000; -688.000
225.019;   64.600;  102.000;  188.000
225.163;  128.600;  208.000;  341.000
225.307;   35.200;   97.000;  -91.000
225.451;   91.700;  360.000;  481.000
225.595;   91.200;  264.000;  176.000
225.739;  -38.000; -170.000;  -94.000
225.884;   41.200;   86.000;    5.000
226.028; -190.300; -760.000; -626.000
226.172;  -66.300; -260.000; -273.000
226.316; -255.100; -941.000; -902.000
226.460; -139.300; -645.000; -493.000
226.604; -114.600; -406.000; -400.000
226.748; -205.800; -836.000; -733.000
226.892; -103.600; -227.000; -181.000
227.036; -111.900; -537.000; -447.000
227.180;  -98.700; -551.000; -375.000
227.324; -117.300; -561.000; -580.000
227.468; -203.400; -819.000; -717.000
227.612;   34.800;  242.000;  -28.000
227.756; -215.000; -845.000; -698.000
227.900;  119.300;  342.000;  441.000
228.044; -123.300; -509.000; -290.000
228.188;  121.700;  448.000;  568.000
228.332; -160.700; -546.000; -472.000
228.476;  -51.900; -223.000; -149.000
228.620;  -28.900; -210.000; -150.000
228.764;  193.200;  431.000;  349.000
228.908;  -33.800; -155.000;   30.000
229.052; -133.700; -615.000; -528.000
229.195;  -47.700; -172.000;   13.000
229.339;  -36.700; -235.000; -305.000
229.483;  -30.900;    5.000; -162.000
229.627;    6.800; -156.000;  139.000
229.771;  -71.900; -218.000; -294.000
229.915;   16.700;  230.000;   79.000
230.059; -171.300; -648.000; -663.000
230.202;  -61.700; -370.000; -317.000
230.346;  -27.700; -107.000;  107.000
230.490; -132.300; -489.000; -521.000
230.634; -189.900; -736.000; -553.000
230.777;  154.700;  478.000;  509.000
230.921; -106.900; -450.000; -359.000
231.065;  -71.500; -246.000; -286.000
231.209;   88.100;  261.000;  265.000
231.352;   57.700;   54.000;   40.000
231.496;   73.600;  568.000;  188.000
231.640; -153.400; -693.000; -621.000
231.783;  133.400;  546.000;  525.000
231.927;  -55.900; -294.000; -365.000
232.071; -232.100; -962.000; -736.000
232.214; -213.400; -980.000; -764.000
232.358; -178.500; -683.000; -599.000
232.502;   19.100;  -19.000;    7.000
232.645; -289.000;-1090.000; -927.000
232.789;  -53.500; -257.000; -218.000
232.933;  -67.600; -407.000; -224.000
233.076; -269.600;-1038.000; -897.000
233.220; -213.300; -752.000; -777.000
233.363; -176.400; -669.000; -477.000
233.507;  141.200;  371.000;  129.000
233.650; -198.600; -764.000; -834.000
233.794;  110.600;  438.000;  461.000
233.938;  -88.800; -530.000; -362.000
234.081;  -23.000;  -93.000;   31.000
234.225; -109.600; -631.000; -539.000
234.368; -213.800; -773.000; -723.000
234.512;  -82.000; -385.000; -299.000
234.655; -161.900; -582.000; -555.000
234.798; -125.900; -493.000; -466.000
234.942; -267.900; -884.000;-1002.000
235.085; -129.900; -651.000; -443.000
235.229; -117.300; -405.000; -410.000
235.372;  -85.800; -247.000; -191.000
235.516; -133.600; -397.000; -321.000
235.659;   46.600;   92.000;  121.000
235.802;  -17.800;  -38.000;  -22.000
235.946;   63.000;  335.000;  215.000
236.089;   45.500;  126.000;  250.000
236.233;  110.200;  275.000;  298.000
236.376; -119.800; -235.000; -378.000
236.519;  -91.800; -297.000; -319.000
236.663;  -35.800; -215.000; -117.000
236.806; -288.300;-1029.000; -999.000
236.949;  147.800;  543.000;  431.000
237.092;  131.400;  412.000;  391.000
237.236; -162.400; -589.000; -502.000
237.379;  168.200;  352.000;  428.000
237.522; -234.000; -879.000; -768.000
237.666;   29.600; -271.000;   18.000
237.809; -267.300; -851.000; -823.000
237.952;   63.100;  469.000;  271.000
238.095; -132.100; -447.000; -442.000
238.238;  189.400;  688.000;  700.000
238.382;    3.000;  166.000;  103.000
238.525; -147.300; -598.000; -511.000
238.668; -273.300;-1060.000; -985.000
238.811; -166.100; -638.000; -643.000
238.954; -114.200; -483.000; -334.000
239.097;  224.000;  617.000;  664.000
239.241;   30.500;  394.000;  326.000
239.384;  -58.400; -254.000; -214.000
239.527;  -94.800; -424.000; -224.000
239.670; -290.700; -994.000;-1091.000
239.813; -225.800; -696.000; -658.000
239.956;  158.300;  579.000;  473.000
240.099; -229.600; -778.000; -725.000
240.242;  161.400;  428.000;  432.000
240.385;  124.300;  466.000;  450.000
240.528; -141.800; -706.000; -473.000
240.671;   39.200;  189.000;  134.000
240.814;  -65.200; -441.000; -158.000
240.957; -192.900; -767.000; -578.000
241.100; -183.700; -779.000; -755.000
241.243; -293.500;-1234.000; -893.000
241.386; -118.500; -508.000; -379.000
241.529; -156.100; -735.000; -547.000
241.672; -103.800; -566.000; -495.000
241.815; -256.500; -832.000; -808.000
241.958;  -46.900; -125.000; -182.000
242.101; -140.100; -545.000; -390.000
242.244;  -63.300; -270.000; -325.000
242.387;  -68.000; -304.000; -246.000
242.530;  132.400;  470.000;  134.000
242.673;  -99.000; -381.000; -309.000
242.815; -260.800; -925.000; -899.000
242.958; -123.000; -482.000; -381.000
243.101;   33.300;  132.000;  187.000
243.244; -181.500; -564.000; -521.000
243.387;  -97.000; -313.000; -316.000
243.530; -211.800; -657.000; -674.000
243.672;   32.200;   43.000;  -92.000
243.815;  -98.000; -355.000; -283.000
243.958;   22.500;   98.000;  -26.000
244.101;   12.100;   59.000;  -16.000
244.243;  -13.100;  -47.000;  101.000
244.386; -226.300; -761.000; -630.000
244.529;  -10.400; -132.000; -139.000
244.672; -304.800;-1154.000; -951.000
244.814; -201.500; -621.000; -794.000
244.957;  -72.800; -380.000; -304.000
245.100; -159.600; -489.000; -489.000
245.242; -102.700; -387.000; -374.000
245.385;  -24.600;  -59.000;  -39.000
245.528; -220.100; -871.000; -705.000
245.670;  251.500;  612.000;  634.000
245.813; -171.700; -599.000; -547.000
245.956;  -68.600; -324.000; -275.000
246.098; -163.400; -508.000; -650.000
246.241;    6.300;  194.000;   48.000
246.383;    8.300; -119.000;  -73.000
246.526; -150.600; -454.000; -525.000
246.669; -226.900; -889.000; -780.000
246.811;   56.300;  172.000;   -1.000
246.954; -115.200; -512.000; -426.000
247.096;   -9.500;  -84.000;   -6.000
247.239; -124.100; -482.000; -445.000
247.381; -151.900; -647.000; -488.000
247.524;  180.400;  645.000;  679.000
247.666;    8.100;   58.000;   11.000
247.809; -224.100; -887.000; -691.000
247.951;    4.000;  -75.000;  138.000
248.094;   84.000;  432.000;  308.000
248.236; -319.200;-1262.000;-1238.000
248.378;   19.200; -356.000;  -81.000
248.521;  -19.200; -334.000; -337.000
248.663;  -40.300; -236.000; -267.000
248.806;  -42.200; -300.000; -266.000
248.948; -163.900; -886.000; -763.000
249.090;  -78.700; -428.000; -398.000
249.233;  -83.700; -344.000; -381.000
249.375; -127.000; -474.000; -451.000
249.518;  -41.100;  -83.000; -133.000
249.660;    8.400; -103.000;    3.000
249.802; -356.400;-1303.000;-1189.000
249.945; -148.400; -612.000; -540.000
250.087; -221.600; -834.000; -768.000
250.229;  -77.200; -362.000; -480.000
250.371; -122.000; -494.000; -439.000
250.514;  -68.900; -310.000; -244.000
250.656; -121.300;   69.000;  102.000
250.798; -243.000; -849.000; -800.000
250.940; -117.000; -322.000; -322.000
251.083;  -23.800; -335.000; -111.000
251.225;  146.900;  338.000;  310.000
251.367;  -81.500; -274.000; -373.000
251.509;  -56.400; -265.000; -210.000
251.651; -186.800; -731.000; -671.000
251.794;  163.300;  538.000;  632.000
251.936; -205.000; -821.000; -747.000
252.078; -138.100; -540.000; -461.000
252.220; -152.400; -645.000; -477.000
252.362;  191.500;  344.000;  462.000
252.504; -146.500; -677.000; -584.000
252.646; -197.000; -875.000; -722.000
252.788;   21.300;   14.000; -128.000
252.931;  -33.000; -257.000; -253.000
253.073;  -81.300; -376.000; -317.000
253.215;    2.800;  141.000;  122.000
253.357;   28.600;   82.000; -153.000
253.499;  -70.000; -374.000; -234.000
253.641; -175.500; -749.000; -594.000
253.783; -166.300; -609.000; -527.000
253.925; -174.400; -586.000; -591.000
254.067; -184.300; -744.000; -667.000
254.209;  -41.500; -391.000; -259.000
254.351; -259.700; -865.000; -883.000
254.493;  -88.300; -441.000; -417.000
254.635; -225.600; -936.000; -818.000
254.777; -158.300; -752.000; -687.000
254.918; -142.200; -512.000; -430.000
255.060; -111.600; -551.000; -395.000
255.202; -131.900; -473.000; -261.000
255.344; -130.900; -658.000; -455.000
255.486; -127.300; -471.000; -406.000
255.628; -205.000; -780.000; -781.000
255.770; -186.000; -676.000; -536.000
255.912;  -92.200; -559.000; -468.000
256.053; -199.100; -730.000; -508.000
256.195;  328.500; 1008.000;  903.000
256.337; -183.900; -861.000; -595.000
256.479;  161.600;  532.000;  416.000
256.621;  -89.900; -394.000; -212.000
256.762; -183.300; -789.000; -742.000
256.904;   94.300;  485.000;  487.000
257.046; -109.800; -381.000; -271.000
257.188;  -68.600; -351.000; -264.000
257.329; -122.000; -525.000; -464.000
257.471; -206.100; -939.000; -807.000
257.613; -112.800; -584.000; -498.000
257.755; -316.300;-1073.000; -982.000
257.896;   86.000;  286.000;  392.000
258.038; -114.100; -403.000; -352.000
258.180;  -65.000; -354.000; -279.000
258.321; -161.600; -581.000; -457.000
258.463;    8.900;  -71.000;  133.000
258.605; -162.900; -562.000; -570.000
258.746; -203.900; -886.000; -772.000
258.888; -292.300;-1026.000;-1020.000
259.029;   50.900;  121.000;   -8.000
259.171; -161.100; -614.000; -550.000
259.313;   49.900;  -49.000;  -47.000
259.454; -136.700; -536.000; -414.000
259.596;  -94.700; -483.000; -390.000
259.737; -128.600; -590.000; -474.000
259.879;  116.000;  217.000;  311.000
260.020;  203.300;  901.000;  636.000
260.162;  -45.300; -146.000; -253.000
260.303; -230.700; -768.000; -687.000
260.445; -131.900; -609.000; -613.000
260.586;   83.700;  392.000;  157.000
260.728;  -41.200; -360.000; -248.000
260.869; -137.300; -350.000; -343.000
261.011;  172.700;  706.000;  537.000
261.152; -105.700; -479.000; -319.000
261.293; -156.700; -576.000; -595.000
261.435;  -58.200; -219.000; -184.000
261.576;  -88.200; -455.000; -325.000
261.718;  130.900;  420.000;  470.000
261.859; -256.500; -940.000; -949.000
262.000; -247.400; -951.000;-1016.000
262.142;   12.400;  -52.000;  -60.000
262.283; -248.200; -808.000; -691.000
262.424; -178.800; -666.000; -625.000
262.566; -324.200;-1161.000; -983.000
262.707; -200.000; -840.000; -830.000
262.848; -204.500; -769.000; -726.000
262.990;  -71.900; -362.000; -345.000
263.131;  202.000;  650.000;  681.000
263.272;   17.300;  -61.000;  -41.000
263.413; -191.300; -589.000; -561.000
263.555; -131.000; -669.000; -143.000
263.696; -147.000; -550.000; -641.000
263.837; -113.900; -449.000; -551.000
263.978;    2.200;   -5.000;  -77.000
264.119;  -65.400; -283.000; -264.000
264.261; -231.300; -847.000; -630.000
264.402;   20.400;   33.000;   40.000
264.543; -144.700; -509.000; -524.000
264.684;  -10.100;   61.000;  -50.000
264.825; -140.000; -816.000; -538.000
264.966;   23.700;  -84.000;  -67.000
265.107; -228.600; -646.000; -670.000
265.248; -241.500; -825.000; -812.000
265.390;   -2.100;  152.000;   -9.000
265.531;  -36.600; -238.000; -107.000
265.672; -167.800; -557.000; -630.000
265.813;  169.800;  563.000;  439.000
265.954; -289.500; -959.000; -940.000
266.095;    2.700; -372.000; -322.000
266.236; -176.400; -686.000; -548.000
266.377;  -88.800; -243.000; -297.000
266.518; -115.800; -619.000; -547.000
266.659;   56.200;  170.000;  268.000
266.800;   14.700;   83.000;   85.000
266.941; -155.000; -487.000; -478.000
267.082;   55.200;  354.000;   99.000
267.223;  -85.800; -344.000; -273.000
267.364; -217.000; -892.000; -686.000
267.504;   -9.600;    3.000;  135.000
267.645;   33.500;  160.000;   67.000
267.786;  -14.000; -147.000;  -86.000
267.927; -130.400; -473.000; -379.000
268.068;   -4.000; -186.000;  -61.000
268.209;  -88.300; -175.000; -413.000
268.350; -100.700; -388.000; -532.000
268.490; -162.000; -648.000; -521.000
268.631;   96.600;  127.000;  225.000
268.772; -202.900; -874.000; -647.000
268.913;  -85.500; -328.000; -476.000
269.054;   -6.900; -117.000;   12.000
269.194;  -75.300; -418.000; -402.000
269.335; -308.800;-1137.000;-1074.000
269.476;  -29.700;   33.000;  -35.000
269.617;  -80.700; -347.000; -392.000
269.757; -139.400; -713.000; -646.000
269.898; -193.300; -856.000; -613.000
270.039;  -99.400; -415.000; -405.000
270.180; -246.200; -952.000; -816.000
270.320;   -8.900; -190.000; -250.000
270.461;  -59.200; -277.000; -249.000
270.602;  -20.000; -186.000; -156.000
270.742; -239.500; -868.000; -943.000
270.883; -118.600; -442.000; -390.000
271.023; -103.600; -358.000; -357.000
271.164; -124.100; -607.000; -528.000
271.305; -165.100; -666.000; -654.000
271.445; -165.500; -722.000; -683.000
271.586; -108.400; -462.000; -283.000
271.726;  -58.300; -397.000; -322.000
271.867;  -89.800; -594.000; -534.000
272.008;  321.100; -473.000; -285.000
272.148;  276.100;  462.000;  468.000
272.289;   40.800; -113.000; -181.000
272.429;   32.700;   19.000;  185.000
272.570; -164.200; -633.000; -737.000
272.710; -215.000; -825.000; -775.000
272.851;   -9.800;  113.000; -130.000
272.991; -309.800;-1173.000;-1077.000
273.131; -139.900; -419.000; -459.000
273.272; -166.800; -683.000; -723.000
273.412;   41.800; -143.000;  -31.000
273.553; -106.400; -488.000; -507.000
273.693;  305.000;  913.000;  858.000
273.834; -192.400; -894.000; -692.000
273.974; -165.800; -664.000; -615.000
274.114; -209.200; -772.000; -560.000
274.255;  152.200;  414.000;  373.000
274.395;   51.900; -180.000; -125.000
274.535;  109.100;  199.000;  350.000
274.676;   78.900;  225.000;   94.000
274.816;   26.200;  110.000;   34.000
274.956; -171.100; -624.000; -690.000
275.097; -166.300;-1014.000; -922.000
275.237; -222.000; -913.000; -803.000
275.377; -201.200; -778.000; -689.000
275.517; -281.800; -878.000; -937.000
275.658; -106.700; -590.000; -555.000
275.798; -145.800; -606.000; -413.000
275.938;   54.700;  215.000;  323.000
276.078; -135.600; -626.000; -395.000
276.218;   64.700;   99.000;  104.000
276.359; -268.400;-1026.000;-1024.000
276.499; -147.200; -605.000; -446.000
276.639;  -36.500; -305.000; -151.000
276.779;  -63.000; -475.000; -357.000
276.919; -217.600; -783.000; -624.000
277.059;  -13.800; -261.000; -212.000
277.199;  -47.600; -357.000; -259.000
277.340;  123.600;  287.000;  175.000
277.480; -199.500; -840.000; -693.000
277.620;   68.100;  192.000;   16.000
277.760; -378.300;-1533.000;-1294.000
277.900;   75.900;  113.000;   33.000
278.040;   67.000;  137.000;  159.000
278.180;  101.600;  270.000;  170.000
278.320;   14.800;   21.000;   56.000
278.460; -120.100; -443.000; -469.000
278.600; -147.100; -708.000; -598.000
278.740;  132.700;  448.000;  224.000
278.880; -128.600; -768.000; -791.000
279.020;   18.900; -194.000; -144.000
279.160; -153.900; -672.000; -595.000
279.300; -253.700; -926.000; -873.000
279.440; -176.700; -709.000; -622.000
279.579;  -66.600;-1014.000; -929.000
279.719;  -99.000; -410.000; -394.000
279.859;  126.600;   -4.000;   41.000
279.999;   57.800; -208.000;  101.000
280.139;  -68.900; -435.000; -387.000
280.279; -150.400; -708.000; -745.000
280.419;    0.200; -229.000; -147.000
280.559;  -18.900; -259.000; -180.000
280.698; -143.300; -790.000; -639.000
280.838; -216.700; -778.000; -800.000
280.978; -170.200; -846.000; -790.000
281.118; -197.500; -811.000; -704.000
281.257;   35.300;   24.000;    6.000
281.397; -243.500;-1094.000; -960.000
281.537; -177.300; -599.000; -712.000
281.677;  -20.100; -150.000; -101.000
281.816; -139.300; -700.000; -630.000
281.956;  -39.900; -193.000; -257.000
282.096;  -94.400; -539.000; -396.000
282.235; -182.200; -672.000; -638.000
282.375;  -23.700; -243.000;  -98.000
282.515; -201.200; -715.000; -707.000
282.654;   92.300;   29.000;  106.000
282.794;   94.100;  388.000;  244.000
282.934;  -85.900; -530.000; -491.000
283.073; -233.000;-1030.000; -857.000
283.213;  -91.300; -460.000; -467.000
283.353;  -54.400; -408.000; -349.000
283.492;  -39.600; -264.000; -296.000
283.632;  -51.400; -254.000; -168.000
283.771; -151.300; -859.000; -730.000
283.911;  -64.500; -369.000; -260.000
284.050; -182.900; -794.000; -748.000
284.190; -291.800;-1229.000;-1096.000
284.329; -277.400;-1055.000; -964.000
284.469; -111.700; -516.000; -591.000
284.608;  -90.000; -559.000; -598.000
284.748; -149.800; -614.000; -570.000
284.887;    9.600;  -87.000;  -20.000
285.027; -209.200; -844.000; -892.000
285.166;  -10.900; -192.000; -249.000
285.306;   38.700; -116.000;  -33.000
285.445;  -33.800; -229.000; -343.000
285.584; -166.400; -630.000; -494.000
285.724;  -88.900; -282.000; -322.000
285.863; -243.200; -857.000; -507.000
286.002;  -70.700; -366.000; -276.000
286.142; -201.700; -715.000; -622.000
286.281; -112.600; -525.000; -493.000
286.420; -120.100; -554.000; -417.000
286.560;  231.000;  653.000;  623.000
286.699; -273.700; -958.000; -912.000
286.838; -134.500; -590.000; -591.000
286.978; -160.100; -533.000; -537.000
287.117; -271.100;-1085.000; -950.000
287.256;  -37.300; -228.000; -211.000
287.395;  -65.300; -197.000; -378.000
287.535;  -81.200; -370.000; -298.000
287.674; -110.000; -509.000; -484.000
287.813;  126.200;  661.000;  533.000
287.952; -227.700;-1010.000; -871.000
288.091; -244.000;-1049.000; -915.000
288.231;   47.300;   13.000;   15.000
288.370; -326.300;-1217.000;-1200.000
288.509; -174.600; -728.000; -645.000
288.648; -165.700; -770.000; -548.000
288.787;  -22.600; -243.000;  -87.000
288.926; -104.400; -454.000; -475.000
289.065;  272.700;  859.000;  672.000
289.204;  -82.600; -377.000; -217.000
289.344; -175.400; -791.000; -690.000
289.483;   83.400;  416.000;  304.000
289.622;  -40.700; -291.000; -149.000
289.761;   20.100; -309.000; -166.000
289.900; -193.400; -785.000; -626.000
290.039;    3.900;  -12.000;  -95.000
290.178;  -69.000; -274.000; -180.000
290.317; -145.400; -618.000; -479.000
290.456;  -90.600; -463.000; -451.000
290.595; -274.900; -961.000; -833.000
290.734; -246.700; -904.000; -891.000
290.873; -126.700; -456.000; -420.000
291.011; -226.700; -833.000; -843.000
291.150; -178.800; -770.000; -682.000
291.289;   14.100; -343.000; -110.000
291.428; -168.600; -599.000; -480.000
291.567;  -50.800; -370.000; -442.000
291.706;   40.600;  109.000;  154.000
291.845; -179.100; -597.000; -505.000
291.984; -318.600;-1234.000;-1061.000
292.122;  165.400;  602.000;  582.000
292.261;  101.000;  620.000;  463.000
292.400;   46.200; -144.000;  211.000
292.539; -203.500; -959.000; -813.000
292.678;  -31.700; -325.000; -300.000
292.816; -327.500;-1136.000; -965.000
292.955; -182.600; -844.000; -684.000
293.094;  -19.800; -173.000; -337.000
293.233;  -86.900; -556.000; -400.000
293.371;  -41.200; -225.000;  -84.000
293.510; -173.300; -866.000; -780.000
293.649; -246.900; -959.000; -924.000
293.787; -152.500;-1083.000;-1012.000
293.926;   20.700; -113.000;  -32.000
294.065;  -57.600; -379.000; -290.000
294.203;  125.100;  298.000;  406.000
294.342;   72.000;   74.000;  156.000
294.481;11597.900;51180.000; -836.000
294.619;  -23.600; -425.000; -582.000
294.758; -290.500;-1230.000;-1137.000
294.896;  159.700; -125.000;    5.000
295.035; -231.400;-1040.000;-1006.000
295.174; -210.200;-1082.000; -954.000
295.312;  -51.700; -323.000; -203.000
295.451;   -0.200; -307.000; -428.000
295.589;  -88.500; -389.000; -518.000
295.728;   57.900; -292.000; -165.000
295.866;   34.500;  -36.000;  -51.000
296.005; -114.100; -584.000; -341.000
296.143; -111.300; -558.000; -596.000
296.282; -180.200; -957.000; -881.000
296.420; -166.400; -657.000; -557.000
296.559; -133.500; -892.000; -633.000
296.697;   29.400; -847.000; -665.000
296.835;  125.500;-1141.000;-1002.000
296.974;  129.200;  -23.000;   39.000
297.112;   48.300; -443.000; -504.000
297.251; -127.000; -815.000; -755.000
297.389;  176.900; -576.000; -438.000
297.527;  131.100; -145.000;  -83.000
297.666;  -64.100; -486.000; -438.000
297.804;  -83.700; -404.000; -264.000
297.942;   31.000; -136.000; -161.000
298.081;   33.000; -183.000;   63.000
298.219;  131.500;  -17.000;  -19.000
298.357;   91.800; -144.000;  -71.000
298.495;   78.400; -810.000; -812.000
298.634;  163.900;  245.000;  219.000
298.772;  129.800; -220.000; -338.000
298.910;  -47.700; -309.000; -182.000
299.048;   12.000; -130.000; -153.000
299.187;  -33.800; -350.000; -250.000
299.325;   94.100;   52.000;  122.000
299.463;   68.300; -389.000; -299.000
299.601;  182.400; -327.000; -271.000
299.739; -238.600; -908.000; -883.000
299.877; -137.100; -791.000; -703.000
300.016; -114.500;-1095.000; -935.000
300.154;  290.100;  -19.000; -161.000
300.292;  117.900; -428.000; -348.000
300.430;   80.500; -408.000; -291.000
300.568; -195.800; -940.000; -874.000
300.706;  -60.900; -366.000; -469.000
300.844; -159.000;-1108.000; -979.000
300.982;  254.500;  246.000;  282.000
301.120; -198.700; -965.000; -866.000
301.258; -110.000; -812.000; -705.000
301.396;   93.400;  104.000;  -41.000
301.534;  148.200; -218.000; -293.000
301.672;   -3.200; -664.000; -521.000
301.810;   17.200; -613.000; -545.000
301.948;  222.300;   53.000;  149.000
302.086; 1044.500; -250.000;  -32.000
302.224; 1626.200; -610.000; -585.000
302.362;  100.400; -558.000; -622.000
302.500;  -35.700; -923.000; -893.000
302.638;  197.600;  128.000;  245.000
302.776;   40.700; -352.000; -408.000
302.913;  134.800;  447.000;  236.000
303.051;   16.700;  -86.000;  -23.000
303.189;  141.300;   90.000;  118.000
303.327;  -18.800; -341.000; -256.000
303.465; -136.800; -832.000; -588.000
303.603; -154.100; -805.000; -604.000
303.740;  224.000;  417.000;  241.000
303.878;   17.700; -800.000; -759.000
304.016; -156.500; -915.000; -790.000
304.154; -237.200;-1123.000;-1152.000
304.291;  -56.800; -505.000; -554.000
304.429;   29.900;  102.000;   74.000
304.567; -238.300; -908.000; -893.000
304.705;  -96.000; -408.000; -515.000
304.842;  131.000; -616.000; -540.000
304.980;  129.900;  215.000;   35.000
305.118;   97.300; -367.000; -365.000
305.255; -132.800; -945.000; -927.000
305.393;  148.300;  178.000;  239.000
305.531; -163.400;-1173.000; -956.000
305.668; -100.200; -663.000; -582.000
305.806;  169.900; -358.000; -439.000
305.943;  214.900; -629.000; -637.000
306.081;  119.500; -378.000; -267.000
306.219; -177.000; -863.000; -748.000
306.356;   55.000;  158.000;   27.000
306.494;  290.500;  981.000;  761.000
306.631;   74.000;  -11.000;  -55.000
306.769;   29.600; -613.000; -485.000
306.906;    4.700; -284.000; -258.000
307.044;  -74.800; -473.000; -488.000
307.181;  -60.200; -410.000; -332.000
307.319;  126.500;  112.000;   87.000
307.456; -327.800;-1191.000;-1153.000
307.594; -166.500; -980.000; -727.000
307.731;   18.600; -371.000; -164.000
307.868;   47.700;  -15.000;   20.000
308.006; -231.400; -961.000; -847.000
308.143;  -80.700; -618.000; -330.000
308.281;  356.200;  -37.000; -254.000
308.418;   51.000; -748.000; -640.000
308.555;  -81.300; -400.000; -250.000
308.693;  -99.000; -577.000; -573.000
308.830; -166.400; -712.000; -657.000
308.967;   33.300; -215.000;  -95.000
309.105;  -40.900; -507.000; -396.000
309.242;  145.500; -468.000; -367.000
309.379;  752.700; -577.000; -655.000
309.517;  -65.400; -936.000; -948.000
309.654; -162.600; -910.000; -734.000
309.791;  -77.600; -662.000; -580.000
309.928; -183.200; -977.000; -914.000
310.065;  392.800;  819.000;  697.000
310.203;  -23.400; -825.000; -850.000
310.340;   14.000; -465.000; -321.000
310.477; -143.000; -412.000; -516.000
310.614;  -93.900; -383.000; -473.000
310.751;  -81.300; -427.000; -518.000
310.889;    2.700;    1.000;   11.000
311.026; -279.700;-1161.000; -939.000
311.163;  -63.500; -386.000; -380.000
311.300;  -83.300; -512.000; -479.000
311.437;  -92.200; -658.000; -619.000
311.574; -302.400;-1226.000; -985.000
311.711;  -69.400; -595.000; -433.000
311.848;  -30.600; -380.000; -388.000
311.985;   48.200;  270.000;   93.000
312.122; -190.100; -932.000; -762.000
312.259; -204.300; -941.000; -994.000
312.396; -102.000; -508.000; -551.000
312.533; -129.500; -812.000; -790.000
312.670; -255.900;-1070.000; -898.000
312.807;  -43.100; -352.000; -367.000
312.944; -110.400; -513.000; -611.000
313.081;  -63.800; -150.000; -415.000
313.218; -158.800;-1111.000; -867.000
313.355;   69.600; -531.000; -449.000
313.492;   57.400; -455.000; -292.000
313.629;  326.300;  815.000;  735.000
313.766; -270.700;-1176.000;-1008.000
313.902;   36.100; -186.000;   21.000
314.039;  -60.800; -372.000; -289.000
314.176;  112.200;  286.000;  192.000
314.313; -121.400; -569.000; -473.000
314.450; -104.900; -788.000; -684.000
314.587;  -94.300; -468.000; -480.000
314.723;   77.500;  -78.000;  130.000
314.860;  104.600;  318.000;  332.000
314.997;  113.800;  223.000;  142.000
315.134;  -53.100; -385.000; -368.000
315.270;  -45.700; -480.000; -496.000
315.407; -211.800;-1094.000; -967.000
315.544;  -44.400; -657.000; -538.000
315.681;  -71.200; -681.000; -565.000
315.817;   67.900; -133.000; -176.000
315.954;   49.500; -613.000; -392.000
316.091; -226.900;-1045.000;-1023.000
316.227;   -9.900;  -71.000; -179.000
316.364;   46.000;   23.000;    6.000
316.500;  -63.800; -113.000; -300.000
316.637;  -70.100; -181.000; -302.000
316.774; -132.500; -625.000; -358.000
316.910; -155.900; -598.000; -629.000
317.047;  -97.100; -487.000; -351.000
317.183;  -52.700; -435.000; -566.000
317.320;  -51.700; -367.000; -321.000
317.456; -105.100; -733.000; -805.000
317.593; -154.100; -598.000; -641.000
317.729;   36.500;  168.000;  -67.000
317.866; -360.300;-1434.000;-1285.000
318.002; -138.700; -708.000; -948.000
318.139; -149.600; -883.000; -867.000
318.275; -188.100;-1003.000; -738.000
318.412;  -83.800; -517.000; -336.000
318.548;  -33.900; -751.000; -720.000
318.685; -175.100; -985.000; -888.000
318.821; -148.900; -762.000; -735.000
318.957;  -24.700;   34.000;  -23.000
319.094;  147.100;  297.000;  154.000
319.230; -108.000; -756.000; -742.000
319.367;  214.900; -471.000; -520.000
319.503;  115.500; -538.000; -436.000
319.639; -146.800; -877.000; -793.000
319.775; -111.900; -750.000; -685.000
319.912;  -96.300; -424.000; -519.000
320.048; -197.600;-1184.000;-1184.000
320.184;  184.400;   59.000;   70.000
320.321;  -98.200; -497.000; -467.000
320.457;  169.600;  475.000;  662.000
320.593; -121.800; -375.000; -382.000
320.729; -182.600; -732.000; -734.000
320.866; -137.600; -577.000; -635.000
321.002; -147.400; -759.000; -809.000
321.138;   -9.100; -135.000; -211.000
321.274;  142.200; -148.000; -115.000
321.410;  -61.900; -585.000; -353.000
321.546;  -40.300;-1011.000; -911.000
321.683;  139.600;  400.000;  185.000
321.819;   34.700;  -48.000; -117.000
321.955; -219.400; -743.000; -722.000
322.091;  -71.600; -585.000; -540.000
322.227;    3.100; -382.000; -202.000
322.363;    4.600; -320.000; -215.000
322.499;  -60.800; -343.000; -331.000
322.635;  345.800;  636.000;  443.000
322.771;   52.000; -139.000;   12.000
322.907;  215.800;  129.000;  327.000
323.043;   -0.400; -115.000; -206.000
323.179;  -46.100; -394.000; -363.000
323.315;   50.300; -401.000; -371.000
323.451;  197.400; -328.000; -236.000
323.587;  167.400;  -60.000;  -77.000
323.723;   39.200; -682.000; -601.000
323.859;   -7.200; -258.000;  -76.000
323.995;  -37.800; -467.000; -409.000
324.131; -241.700; -967.000; -892.000
324.267;  -51.200; -254.000; -276.000
324.402; -234.900; -960.000; -983.000
324.538;  -13.200; -279.000; -104.000
324.674;   95.600;  164.000;   77.000
324.810;  365.000;  226.000;  308.000
324.946;   60.700; -810.000; -658.000
325.082; -115.200; -568.000; -475.000
325.217;   24.600;  -62.000;   16.000
325.353; -176.800; -764.000; -659.000
325.489; -118.800; -540.000; -506.000
325.625;  -80.300; -579.000; -525.000
325.760;  146.800;  517.000;  376.000
325.896;  -23.600; -515.000; -702.000
326.032;  -75.600; -403.000; -352.000
326.168; -103.700; -462.000; -369.000
326.303;  -78.700; -352.000; -461.000
326.439;   -6.800; -336.000; -276.000
326.575;   24.500; -190.000;  -29.000
326.710;   38.300; -156.000;  -30.000
326.846;   25.000;  146.000;  103.000
326.982; -169.000; -530.000; -548.000
327.117;  -98.900; -481.000; -442.000
327.253; -144.800; -745.000; -742.000
327.388; -308.100;-1137.000;-1153.000
327.524;  -57.700; -811.000; -578.000
327.659;   12.600;  -58.000;  -22.000
327.795;   15.100;   69.000;   45.000
327.931; -160.300; -723.000; -499.000
328.066;    0.600; -417.000; -276.000
328.202;    6.800;   12.000; -129.000
328.337;  238.500;  957.000;  713.000
328.473;    8.400;  -12.000;  -74.000
328.608;  -20.100; -256.000; -267.000
328.743; -177.600; -799.000; -664.000
328.879;   75.600;  214.000;  114.000
329.014; -106.900; -102.000; -122.000
329.150;  -97.500; -358.000; -483.000
329.285;  -96.700; -465.000; -466.000
329.421;  -49.200; -548.000; -246.000
329.556;    2.400;  -36.000;   85.000
329.691; -135.200; -633.000; -615.000
329.827; -137.200; -626.000; -480.000
329.962;  -52.900;  131.000; -301.000
330.097; -177.800; -673.000; -585.000
330.233;  -62.200; -410.000; -223.000
330.368; -215.100; -839.000; -628.000
330.503;   16.400;    3.000;   98.000
330.638;   49.000;  -93.000; -125.000
330.774;  -89.000; -609.000; -530.000
330.909;  -42.200; -434.000; -244.000
331.044; -170.800; -714.000; -708.000
331.179; -343.500;-1217.000;-1109.000
331.315;   54.200;   77.000;   20.000
331.450;   53.800;  157.000;  285.000
331.585; -158.300; -805.000; -706.000
331.720; -106.500; -510.000; -460.000
331.855;   19.600;  -35.000; -102.000
331.990;  460.800;   62.000;  138.000
332.126;  262.700; -110.000;   71.000
332.261;  -28.100; -379.000; -265.000
332.396;    8.500; -135.000; -242.000
332.531; -169.100;-1074.000;-1031.000
332.666;   67.500; -519.000; -363.000
332.801; -219.000; -726.000; -807.000
332.936;  -21.500; -192.000; -122.000
333.071; -273.400; -870.000; -817.000
333.206;   83.800;  307.000;  379.000
333.341;  107.200;  344.000;  418.000
333.476; -144.200; -627.000; -623.000
333.611;  -20.200; -251.000; -173.000
333.746;  -63.900; -381.000; -464.000
333.881; -173.600; -973.000; -935.000
334.016; -210.600; -936.000; -917.000
334.151; -232.100; -746.000; -702.000
334.286;   84.400;  152.000;  186.000
334.421;   16.600; -125.000; -178.000
334.556; -162.400; -611.000; -567.000
334.690; -130.900; -631.000; -577.000
334.825;  146.600;  381.000;   83.000
334.960;  -98.700; -285.000; -413.000
335.095;   61.400;  135.000;  -91.000
335.230; -166.700; -722.000; -738.000
335.365; -238.300;-1084.000; -990.000
335.499; -238.000;-1108.000;-1037.000
335.634;   76.800;    9.000;  534.000
335.769; -161.100; -755.000; -720.000
335.904;  -88.600; -603.000; -561.000
336.038;  -83.300; -735.000; -657.000
336.173; -200.400;-1206.000;-1194.000
336.308;   31.300; -116.000; -189.000
336.443;   48.000; -544.000; -634.000
336.577; -164.800; -936.000; -787.000
336.712;  123.500;   -4.000;  -12.000
336.847;  -72.200; -724.000; -607.000
336.981;  101.800; -272.000; -208.000
337.116;  524.600;  615.000;  501.000
337.250;  284.400; -434.000; -421.000
337.385;  456.600; -297.000; -208.000
337.520;  157.100; -632.000; -603.000
337.654;  -19.700; -215.000; -126.000
337.789; -236.600; -989.000; -933.000
337.923;  -24.100; -104.000; -205.000
338.058; -158.700; -673.000; -738.000
338.192;  -33.700; -611.000; -488.000
338.327;   72.800;  -18.000; -155.000
338.461;  -96.400; -299.000; -469.000
338.596; -134.300; -780.000; -638.000
338.730; -178.200; -767.000; -803.000
338.865;  178.000;  -46.000; -140.000
338.999; -123.500; -846.000; -702.000
339.134;  -20.500; -634.000; -536.000
339.268;   23.500; -741.000; -603.000
339.403;  586.700; -740.000; -775.000
339.537;  246.800; -894.000; -820.000
339.671; -185.600; -829.000; -813.000
339.806;  -69.400; -556.000; -512.000
339.940;   50.400; -261.000; -235.000
340.074; -145.300; -685.000; -510.000
340.209;  -52.800; -351.000; -230.000
340.343; -120.600; -517.000; -573.000
340.477;  359.100;  998.000; 1036.000
340.612;  -90.300;-1033.000; -900.000
340.746;  222.600; -199.000; -243.000
340.880; -113.800; -924.000; -785.000
341.014;  -11.200;  -45.000; -154.000
341.149; -185.900; -756.000; -718.000
341.283; -188.500; -839.000; -754.000
341.417; -177.300;-1124.000; -938.000
341.551;  268.000; -768.000; -708.000
341.685;  -84.600; -633.000; -611.000
341.820;  -57.200; -562.000; -493.000
341.954;  -57.800; -218.000; -349.000
342.088; -276.300;-1102.000;-1019.000
342.222;  129.700;  565.000;  618.000
342.356;  -96.000; -395.000; -335.000
342.490; -137.100; -880.000; -841.000
342.624;  -34.300; -339.000; -242.000
342.758;   12.700; -364.000; -312.000
342.892;  -90.400; -710.000; -585.000
343.026;   -5.100;  -58.000; -116.000
343.160;  -98.600; -426.000; -376.000
343.294; -146.800; -474.000; -337.000
343.428;  -31.200; -488.000; -448.000
343.562;    4.100; -172.000;  -23.000
343.696;   -5.800; -385.000; -314.000
343.830;   -9.500; -362.000; -356.000
343.964;   83.500; -231.000; -168.000
344.098; 1575.700;  199.000;   70.000
344.232; 1292.500; -266.000; -127.000
344.366;  168.900; -567.000; -453.000
344.500;   99.700; -665.000; -744.000
344.634;   66.100; -324.000; -164.000
344.768;  -14.300; -531.000; -341.000
344.902;  104.800;  278.000;  256.000
345.035; -119.900; -556.000; -496.000
345.169; -231.700; -933.000; -656.000
345.303;  -27.400; -308.000; -482.000
345.437; -141.600; -826.000; -717.000
345.571; -144.400; -675.000; -594.000
345.704;  -98.500; -309.000; -532.000
345.838;   14.700; -331.000; -284.000
345.972;  -36.600; -543.000; -495.000
346.106;  309.500; -179.000; -190.000
346.239;  758.000; -312.000; -243.000
346.373;   17.700; -343.000; -302.000
346.507; -278.900; -950.000; -962.000
346.640;  298.000;  -30.000;   13.000
346.774;  -56.900; -650.000; -797.000
346.908;   26.400; -138.000;  -11.000
347.041; -146.100; -646.000; -593.000
347.175;   58.000;  259.000;   27.000
347.309; -101.600; -698.000; -628.000
347.442; -186.000; -883.000; -732.000
347.576;  576.800;  670.000;  668.000
347.709;  395.000; -123.000;  -52.000
347.843; -163.900; -933.000; -825.000
347.976;  123.200;  235.000;  294.000
348.110; -316.200;-1268.000;-1186.000
348.243; -163.200; -679.000; -772.000
348.377;   53.300;  -26.000;   60.000
348.510;  154.500;  403.000;  540.000
348.644;  -16.900;  -37.000; -159.000
348.777;   32.500;  180.000;  191.000
348.911;  -26.600; -142.000; -112.000
349.044;  358.400;  471.000;  448.000
349.178;  238.500;-1069.000;-1006.000
349.311;  299.900;  141.000;  255.000
349.444;  -29.600; -927.000; -813.000
349.578;   19.800; -347.000; -200.000
349.711; -191.600; -959.000; -862.000
349.845;   -9.500; -661.000; -591.000
349.978; -274.900;-1224.000;-1137.000
350.111; -113.500; -546.000; -612.000
350.244; -125.400; -596.000; -700.000
350.378;   39.300; -392.000; -393.000
350.511; -120.600; -393.000; -426.000
350.644; -185.000; -808.000; -806.000
350.778;   51.900;  168.000;  104.000
350.911;   37.800;  134.000;  140.000
351.044; -124.800; -685.000; -615.000
351.177;  -14.900; -321.000; -281.000
351.310;   36.100;    3.000; -131.000
351.444; -140.300; -888.000; -788.000
351.577;  263.700;  140.000;   90.000
351.710;  216.600;  593.000;  417.000
351.843;  -44.300; -165.000;  -77.000
351.976;   70.900;  149.000;  -79.000
352.109; -128.400; -621.000; -612.000
352.242;  -32.700; -464.000; -419.000
352.376;  -93.600; -580.000; -636.000
352.509;  338.900; -437.000; -356.000
352.642;  -10.900; -654.000; -604.000
352.775;  118.900; -141.000;  -98.000
352.908; -199.700; -933.000; -904.000
353.041; -184.700; -814.000; -824.000
353.174;  -86.300; -551.000; -424.000
353.307; -134.000; -753.000; -764.000
353.440;  187.700;  541.000;  453.000
353.573; -199.000; -957.000;-1008.000
353.706;  -87.800; -384.000; -558.000
353.839;  -30.400; -264.000; -220.000
353.971; -132.400; -657.000; -512.000
354.104; -162.800; -896.000; -835.000
354.237;  -76.300; -627.000; -662.000
354.370; -149.500; -846.000; -879.000
354.503; -346.200;-1231.000;-1308.000
354.636;  -30.300; -529.000; -348.000
354.769; -249.000; -937.000; -860.000
354.902;   31.800; -230.000; -139.000
355.034;   17.800; -164.000; -220.000
355.167;   25.600; -262.000; -162.000
355.300; -175.100;-1061.000; -880.000
355.433; 1730.300;  -71.000;  -14.000
355.565; 2674.400; -402.000; -384.000
355.698;  680.900; -356.000; -296.000
355.831;  -19.400; -882.000; -801.000
355.964;  160.200; -285.000; -170.000
356.096; -120.600; -856.000; -843.000
356.229;    9.500; -523.000; -530.000
356.362;  594.600; -373.000; -266.000
356.494; 1032.900; -229.000; -162.000
356.627;  916.400;  269.000;  377.000
356.760; 1235.900;  120.000;   53.000
356.892; 1656.400; -286.000; -601.000
357.025; 1190.800;  403.000;  389.000
357.157; 1116.100; -167.000; -179.000
357.290; 1117.900; -856.000; -713.000
357.423;  330.800; -667.000; -556.000
357.555;  225.600; -217.000; -228.000
357.688;  212.300; -483.000; -364.000
357.820;  735.400; -870.000; -877.000
357.953; 6193.300; -563.000; -589.000
358.085; 1312.400; -632.000; -612.000
358.218; 2052.100;-1131.000; -932.000
358.350;  411.500;  -58.000;  312.000
358.483; -217.600;-1300.000;-1187.000
358.615;  -33.000;-1182.000;-1078.000
358.747; -117.900;-1187.000;-1058.000
358.880;   39.400; -810.000; -744.000
359.012;    3.300; -376.000; -202.000
359.145;  -75.100; -480.000; -511.000
359.277;   91.800; -962.000; -913.000
359.409; 5118.700;  536.000;  231.000
359.542; 1315.300; -738.000; -688.000
359.674;  176.700;   46.000;   13.000
359.806;  -69.100; -565.000; -438.000
359.939;  -68.600; -617.000; -516.000
360.071;   24.800; -583.000; -579.000
360.203;    2.300; -411.000; -364.000
360.335;  150.800;  164.000;  -16.000
360.468;  345.700; -249.000; -307.000
360.600; 4043.400; -547.000; -454.000
360.732; 4781.600; -546.000; -423.000
360.864;  593.700;-1216.000;-1044.000
360.996;  553.500; -516.000; -554.000
361.129;   99.900; -389.000; -598.000
361.261;   62.200;  110.000; -113.000
361.393;  -13.400; -252.000; -214.000
361.525;   84.500;   94.000;  244.000
361.657;  -54.600; -821.000; -703.000
361.789;   73.800; -139.000; -155.000
361.921;  435.100; -642.000; -593.000
362.053;  565.400;  524.000;  541.000
362.185;  136.000;  288.000;   72.000
362.318; -132.200; -709.000; -705.000
362.450;  293.400;  294.000;  444.000
362.582;  223.100; -913.000; -870.000
362.714;  -76.200; -353.000; -332.000
362.846; -112.900; -606.000; -490.000
362.978; -223.500; -941.000; -811.000
363.109;  127.000; -161.000; -260.000
363.241;  780.200; -739.000; -749.000
363.373;  791.700; -649.000; -564.000
363.505; 1204.300; -186.000;  -91.000
363.637;  275.000; -787.000; -601.000
363.769; -232.400;-1067.000;-1080.000
363.901;  -92.900; -596.000; -654.000
364.033; -201.300;-1103.000;-1062.000
364.165;   59.900; -283.000; -283.000
364.296;  166.300; -316.000; -177.000
364.428;  106.000;-1344.000;-1220.000
364.560; -104.600; -679.000; -661.000
364.692;  -88.800; -738.000; -835.000
364.824;  485.200; -588.000; -456.000
364.955;  811.000; -402.000; -564.000
365.087; 1518.000;-1097.000; -852.000
365.219;   57.900; -686.000; -816.000
365.351;  -95.200; -526.000; -572.000
365.482;  177.300;  300.000;  240.000
365.614;  -39.000; -402.000; -314.000
365.746; -190.500; -729.000; -752.000
365.877; -151.600; -706.000; -672.000
366.009;  494.600;  -35.000;  -62.000
366.141; -161.100;-1249.000;-1134.000
366.272; -187.400; -803.000; -719.000
366.404; -177.100;-1005.000; -874.000
366.535;   11.000; -139.000;  -12.000
366.667; -149.300; -644.000; -649.000
366.799;  117.600;  353.000;  203.000
366.930; -229.700; -862.000; -996.000
367.062;  237.500; -639.000; -613.000
367.193;  222.800; -872.000; -842.000
367.325;  -91.500; -580.000; -684.000
367.456;  162.900; -246.000;   31.000
367.588;  322.700; -371.000; -318.000
367.719;   57.600;  -44.000;  -45.000
367.851;   -7.400; -222.000; -241.000
367.982;  -75.400; -875.000; -732.000
368.113;  192.700; -475.000; -358.000
368.245; -203.400; -960.000; -841.000
368.376;   10.900; -254.000; -302.000
368.508;  -18.100; -188.000; -263.000
368.639; -236.500;-1166.000;-1034.000
368.770;   17.900; -670.000; -589.000
368.902; -104.800; -836.000; -926.000
369.033; -158.600; -906.000; -855.000
369.164;  -48.400; -720.000; -653.000
369.296; -177.100; -452.000; -601.000
369.427;    9.100; -209.000; -144.000
369.558;  -16.500; -593.000; -377.000
369.689; -104.900; -721.000; -569.000
369.821; -216.700; -951.000; -845.000
369.952;   -9.600;   42.000; -108.000
370.083;  -47.400; -229.000; -108.000
370.214; -123.400; -735.000; -650.000
370.345;   42.600;   65.000;   81.000
370.477; -169.100; -810.000; -790.000
370.608;  417.900; -328.000; -264.000
370.739;  -99.500;-1233.000;-1292.000
370.870;  -61.500;-1102.000; -923.000
371.001;  188.100; -378.000; -467.000
371.132; -129.200; -754.000; -735.000
371.263;   19.300;  -42.000; -148.000
371.394; -226.800; -841.000; -748.000
371.525;  125.500;  345.000;  225.000
371.657; -156.400; -808.000; -670.000
371.788;  183.100;  103.000;  199.000
371.919;  293.300; -384.000; -304.000
372.050; 6188.900;  -91.000; -156.000
372.181; 1795.500; -188.000; -294.000
372.311;  683.500;   42.000; -127.000
372.442;   82.500; -457.000; -451.000
372.573;   -3.000; -444.000; -340.000
372.704; -198.400;-1008.000; -980.000
372.835;  167.700; -228.000; -289.000
372.966;  -81.700; -646.000; -554.000
373.097; -101.300; -575.000; -711.000
373.228;  -41.200; -717.000; -542.000
373.359;  266.300; -824.000; -536.000
373.490; 1643.900; -881.000; -727.000
373.620; 1964.500;-1001.000; -803.000
373.751; 3119.600; -332.000; -396.000
373.882; 1317.000; -663.000; -733.000
374.013;  125.500; -449.000; -262.000
374.143;  -61.200; -581.000; -659.000
374.274; -198.100; -987.000; -908.000
374.405;  362.500; -388.000; -276.000
374.536;  845.500; -526.000; -387.000
374.666; 1923.900; -759.000; -807.000
374.797;  377.800; -817.000; -868.000
374.928; 1477.500; -710.000; -560.000
375.058; 1518.000; -535.000; -500.000
375.189;  180.800;  -59.000;  -93.000
375.320; -194.800; -928.000;-1034.000
375.450;  -70.700; -625.000; -616.000
375.581;  -53.300; -526.000; -436.000
375.712;   -5.800; -574.000; -250.000
375.842;  559.300; -438.000; -415.000
375.973;  422.900; -554.000; -513.000
376.103;  -55.900; -665.000; -648.000
376.234; -103.800; -531.000; -552.000
376.364;   -7.200; -944.000; -867.000
376.495;  651.100;  925.000;  529.000
376.625;   12.900; -472.000; -485.000
376.756;  138.900; -709.000; -678.000
376.886; -162.200;-1178.000;-1026.000
377.017;   82.800;-1048.000;-1061.000
377.147;  567.500; -786.000; -782.000
377.278;  116.200;  174.000;  228.000
377.408; -209.100; -801.000; -815.000
377.538; -163.400; -707.000; -693.000
377.669; -110.100; -537.000; -613.000
377.799; -145.000; -645.000; -635.000
377.929;  -76.100; -610.000; -428.000
378.060; -190.200; -781.000; -847.000
378.190; -103.300; -726.000; -531.000
378.320;  -53.700; -401.000; -406.000
378.451;   45.300; -131.000;  -22.000
378.581;   49.600;  -67.000; -110.000
378.711;  328.600; 1035.000;  866.000
378.841;  -17.600; -533.000; -675.000
378.972; -128.100; -871.000; -751.000
379.102;   14.900; -652.000; -579.000
379.232;    3.300; -126.000;  -73.000
379.362; -186.600;-1001.000; -885.000
379.492;   47.900; -373.000; -424.000
379.623;  262.900;    0.000;  111.000
379.753; -128.700;-1107.000; -974.000
379.883;  391.500;   59.000;  156.000
380.013;    3.800;-1081.000;-1017.000
380.143; -178.000;-1097.000;-1056.000
380.273; -152.900; -985.000; -861.000
380.403;   31.100; -344.000; -257.000
380.533;  -16.500; -651.000; -664.000
380.663;  177.100;  173.000;  128.000
380.793; -128.300;-1027.000;-1074.000
380.923;   13.500; -103.000;  -34.000
381.053; -134.500; -613.000; -623.000
381.183;  -13.800; -106.000; -248.000
381.313;   88.700; -656.000; -470.000
381.443;   94.100; -692.000; -473.000
381.573;  426.500; -402.000; -409.000
381.703;  509.300;-1249.000;-1095.000
381.833; -237.300;-1454.000;-1336.000
381.963;  252.700; -134.000;  -87.000
382.093; 2332.700; -925.000; -909.000
382.223;  693.500; -713.000; -602.000
382.353;  -10.200; -801.000; -608.000
382.482;  670.000;-1091.000; -964.000
382.612; 1336.700; -872.000; -644.000
382.742;  729.000; -695.000; -622.000
382.872;  525.500; -565.000; -551.000
383.002;  178.500;  347.000; -132.000
383.131;   43.000; -226.000; -160.000
383.261;  -36.900; -706.000; -768.000
383.391;  518.700; -552.000; -377.000
383.521; 5558.000;  451.000;  263.000
383.650; 1165.000; -947.000; -904.000
383.780;   18.600; -783.000; -656.000
383.910;  298.800;  880.000;  802.000
384.039;   83.700; -794.000; -656.000
384.169;  395.800;-1205.000;-1017.000
384.299;   -1.000; -650.000; -662.000
384.428; -149.100; -764.000; -680.000
384.558;  -27.400; -308.000; -275.000
384.687;    2.000; -414.000; -334.000
384.817;   94.400;   75.000;   -2.000
384.947;   77.400; -234.000; -141.000
385.076;  630.600;  982.000;  912.000
385.206;  260.900;  369.000;  480.000
385.335;  -15.100; -549.000; -417.000
385.465; -107.600; -655.000; -663.000
385.594;  346.200;  -53.000;  -44.000
385.724;  791.100; -868.000; -838.000
385.853;  219.000; -296.000; -270.000
385.982; 2416.000; -743.000; -787.000
386.112; 3598.400;-1052.000; -871.000
386.241;  284.600; -307.000; -312.000
386.371;   88.200; -174.000;  -87.000
386.500;   27.300; -825.000; -789.000
386.629;   83.700; -874.000; -817.000
386.759;  195.200;  -43.000;   68.000
386.888;   87.300; -170.000; -250.000
387.017;  -82.200; -648.000; -620.000
387.147;  -81.000; -771.000; -798.000
387.276;   36.000; -410.000; -397.000
387.405;   95.400; -398.000; -342.000
387.535;  -45.400; -452.000; -361.000
387.664;  -57.900; -692.000; -620.000
387.793;  196.400; -198.000; -113.000
387.922;  998.400;  255.000;  200.000
388.052;   43.900; -576.000; -423.000
388.181;  123.700; -342.000; -472.000
388.310;   94.000; -889.000; -710.000
388.439;  -52.300; -749.000; -742.000
388.568;  386.800;  365.000;  244.000
388.697; 1844.800; -756.000; -653.000
388.826;  333.800; -768.000; -666.000
388.956;  138.700; -285.000; -307.000
389.085;  -13.400; -347.000; -287.000
389.214; -186.800; -842.000; -872.000
389.343;  -78.100; -645.000; -413.000
389.472;  780.300;  126.000;  149.000
389.601;  904.200;   91.000;    0.000
389.730;   60.000; -568.000; -687.000
389.859;  203.700;  226.000;   46.000
389.988;  332.400; -423.000; -408.000
390.117;  272.900; -168.000; -146.000
390.246;   65.200; -331.000; -320.000
390.375;  236.000; -673.000; -626.000
390.504; -101.300; -703.000; -621.000
390.633; -165.800; -672.000; -726.000
390.761;  -58.800; -732.000; -645.000
390.890;  119.600;   -4.000; -130.000
391.019;   -2.500; -421.000; -441.000
391.148; -235.000; -826.000; -855.000
391.277;  -85.200; -576.000; -493.000
391.406;  -96.100; -821.000; -805.000
391.534;   68.400;  574.000; -301.000
391.663;  -87.300; -583.000; -645.000
391.792; -135.300; -673.000; -701.000
391.921;  228.600;   -3.000;   15.000
392.050;  345.600; -287.000; -228.000
392.178;  -72.800;-1206.000;-1061.000
392.307;  264.700; -758.000; -712.000
392.436;  152.400; -427.000; -641.000
392.564;   78.300;  166.000;   -6.000
392.693; -152.000; -860.000; -682.000
392.822;  373.800; -529.000; -534.000
392.950;  160.100; -880.000; -714.000
393.079;  606.900; -188.000; -328.000
393.208;   39.400; -488.000; -511.000
393.336;   43.200; -170.000; -145.000
393.465;  -48.800; -317.000; -199.000
393.593;   71.800;   62.000;   79.000
393.722; -252.500;-1121.000; -916.000
393.850;    7.700; -188.000;  -61.000
393.979; -245.800; -926.000; -805.000
394.107;  -67.400; -517.000; -537.000
394.236;  -22.400; -570.000; -507.000
394.364;  526.200;  383.000;  206.000
394.493;  753.700; -911.000; -767.000
394.621;   -0.200; -955.000; -916.000
394.750; 1322.000; -873.000; -923.000
394.878; 5363.700; -247.000; -149.000
395.007; 6884.100; -721.000; -807.000
395.135;  456.300; -790.000; -721.000
395.263; -135.600;-1038.000;-1040.000
395.392;   31.900;  -25.000; -107.000
395.520; -164.700; -818.000; -679.000
395.648; -171.600; -865.000; -915.000
395.777;   -8.800; -366.000; -405.000
395.905;  -56.700; -449.000; -564.000
396.033;  125.800;  217.000;  172.000
396.162; 1337.100; -399.000; -453.000
396.290; 1128.900;  -17.000;   -2.000
396.418;  240.800; -555.000; -514.000
396.546; -111.900; -571.000; -466.000
396.674; -163.500; -850.000; -878.000
396.803;   50.800;  -72.000;  -23.000
396.931;  225.700; -179.000; -199.000
397.059;   71.300;-1026.000; -989.000
397.187; -198.200;-1026.000; -975.000
397.315; -226.500; -884.000; -649.000
397.443; -161.800; -592.000; -443.000
397.572; -115.000; -578.000; -424.000
397.700;    2.400; -607.000; -614.000
397.828;   37.300;  120.000;  -90.000
397.956;  -37.100; -508.000; -478.000
398.084; -122.300; -767.000; -626.000
398.212;  127.000;  137.000;  124.000
398.340;   84.400;  -56.000;  159.000
398.468;   86.800; -390.000; -169.000
398.596; -237.300; -993.000; -953.000
398.724; -168.400; -762.000; -767.000
398.852; -312.000;-1024.000; -976.000
398.980;  -68.300; -560.000; -560.000
399.108;  -71.600; -982.000; -735.000
399.236;   73.400;   13.000;    8.000
399.363;   85.800;  222.000;  196.000
399.491; -106.000; -404.000; -398.000
399.619; -209.800; -829.000; -800.000
399.747; -174.400; -859.000; -771.000
399.875;  185.000;  220.000;  234.000
400.003;  -57.000; -359.000; -284.000
400.130; -141.200; -421.000; -341.000
400.258;    3.500;  -83.000;   38.000
400.386; -105.200; -352.000; -168.000
400.514;  -56.700; -526.000; -587.000
400.641; -145.900; -928.000; -802.000
400.769; -237.300; -979.000; -888.000
400.897; -118.900; -838.000; -793.000
401.025;   24.700; -166.000; -152.000
401.152;   34.100;  220.000;   38.000
401.280; -124.100; -430.000; -429.000
401.408; -171.100; -712.000; -576.000
401.535; -167.600; -735.000; -758.000
401.663; -352.800;-1134.000;-1054.000
401.790; -125.400; -514.000; -525.000
401.918;  146.000;  436.000;  405.000
402.046;   45.600;  134.000;  122.000
402.173;  -40.300;  -18.000;    7.000
402.301;  -67.200; -519.000; -397.000
402.428;  153.200;  528.000;  383.000
402.556; -231.400;-1188.000; -913.000
402.683;   22.000;  -20.000;   -1.000
402.811;   12.200;  -37.000; -206.000
402.938;   41.400;   20.000;   27.000
403.066;  377.500; -574.000; -558.000
403.193;  595.800;  299.000;  239.000
403.321;  486.100; -396.000; -574.000
403.448;  584.600;   83.000;   27.000
403.575;  316.500;  -90.000;  -46.000
403.703; -112.200; -732.000; -557.000
403.830;  -80.000; -531.000; -496.000
403.957; -225.000;-1117.000;-1023.000
404.085;  103.000;  -61.000; -172.000
404.212;  224.800;  -50.000;   63.000
404.339;  527.900; -566.000; -306.000
404.467;10515.500; -612.000; -524.000
404.594; 6560.100; -287.000; -227.000
404.721; 1492.600; -869.000; -764.000
404.848;  186.600; -113.000; -202.000
404.976; -159.300; -856.000; -783.000
405.103;   44.000;  -14.000;  -82.000
405.230;   73.000;  190.000;  226.000
405.357;  129.500;  117.000;   44.000
405.484;  493.000;  -49.000;    5.000
405.612;  121.800; -548.000; -563.000
405.739;  -38.400; -488.000; -243.000
405.866;  254.300;  669.000;  385.000
405.993;  -12.000; -398.000; -102.000
406.120; -208.700; -801.000; -887.000
406.247;  -48.300; -323.000; -342.000
406.374;  857.900;  540.000;  629.000
406.501;  179.300; -632.000; -702.000
406.628; -108.400; -621.000; -589.000
406.755; -128.900; -803.000; -620.000
406.882;  -21.400; -228.000; -277.000
407.009; -146.200; -719.000; -628.000
407.136;  137.700; -480.000; -401.000
407.263;  263.300; -939.000; -829.000
407.390; -102.500; -692.000; -614.000
407.517; -271.700;-1139.000;-1187.000
407.644;  -85.100; -332.000; -256.000
407.771;  -42.400; -249.000; -287.000
407.898;  108.600;  168.000;  328.000
408.025;  -54.800; -421.000; -313.000
408.151;   15.400;   82.000;  153.000
408.278;  -88.000; -267.000; -216.000
408.405; -214.200; -931.000; -899.000
408.532;  -88.900; -549.000; -542.000
408.659; -175.900; -677.000; -648.000
408.785; -375.600;-1298.000;-1170.000
408.912;  -41.900; -412.000; -296.000
409.039; -173.600; -610.000; -686.000
409.166; -150.500; -591.000; -555.000
409.292; -169.600; -571.000; -534.000
409.419; -170.700; -665.000; -649.000
409.546; -106.000; -431.000; -192.000
409.672; -184.100; -713.000; -545.000
409.799;  -11.400;  -36.000;   34.000
409.926;    3.200; -180.000; -179.000
410.052; -282.500;-1127.000;-1091.000
410.179;  -67.500; -368.000; -392.000
410.305; -112.800; -375.000; -493.000
410.432;  -15.600; -220.000; -333.000
410.558; -131.100; -305.000; -380.000
410.685; -198.900; -688.000; -431.000
410.812; -133.300; -409.000; -588.000
410.938; -213.000; -964.000; -808.000
411.065; -152.000; -671.000; -645.000
411.191;   -3.200; -189.000; -174.000
411.317; -186.500; -823.000; -742.000
411.444;  -52.900; -317.000; -246.000
411.570;  -90.800; -339.000; -294.000
411.697; -187.000; -758.000; -752.000
411.823; -294.700; -989.000; -999.000
411.949;  -15.500;  -56.000;   17.000
412.076; -161.900; -539.000; -519.000
412.202; -217.100; -758.000; -757.000
412.329; -200.500; -798.000; -752.000
412.455; -165.500; -821.000; -657.000
412.581;   15.100;  -15.000;  172.000
412.707;  -49.200; -540.000; -457.000
412.834;   66.000;  156.000;  219.000
412.960; -126.900; -785.000; -784.000
413.086; -143.800; -743.000; -701.000
413.212;  351.100;  604.000;  578.000
413.339; -105.200; -685.000; -701.000
413.465;   66.700; -364.000; -310.000
413.591; -152.300; -757.000; -474.000
413.717;  -97.900; -358.000; -366.000
413.843; -209.300; -839.000; -861.000
413.969;  -44.900;  -47.000; -292.000
414.096; -152.300; -679.000; -679.000
414.222;   40.500;  -33.000;   85.000
414.348;   12.400; -652.000; -385.000
414.474;  226.300;   38.000;  -52.000
414.600;   23.600; -126.000; -144.000
414.726;   48.700;  -96.000;  -55.000
414.852; -104.900; -365.000; -342.000
414.978;  118.000;  104.000;  -18.000
415.104;  122.800;   38.000;   80.000
415.230;   83.800; -329.000; -330.000
415.356;  124.400; -409.000; -514.000
415.482;  392.300;   13.000;  -35.000
415.608;  571.500; -247.000; -323.000
415.734; 1790.400;   67.000;   38.000
415.860;37801.200; -875.000; -767.000
415.986;24533.500; -685.000; -607.000
416.111; 2026.300; -798.000; -652.000
416.237;  479.900; -424.000; -571.000
416.363; 2224.200; -765.000; -733.000
416.489; 7242.900; -324.000; -251.000
416.615;  680.800; -707.000; -742.000
416.741;  -27.600; -677.000; -784.000
416.866; -118.000; -673.000; -736.000
416.992; -235.800; -801.000; -818.000
417.118;   28.500;  -41.000;  -80.000
417.244;  -52.200; -798.000; -531.000
417.369;  -97.500; -801.000; -612.000
417.495;   13.500; -325.000; -254.000
417.621; -124.000;-1015.000; -803.000
417.746;   12.000; -579.000; -572.000
417.872;  125.100; -254.000; -144.000
417.998;  143.500; -515.000; -530.000
418.123; 2119.400;-1073.000; -845.000
418.249; 9555.900; -512.000; -601.000
418.374; 1174.700; -916.000; -824.000
418.500;  232.400; -383.000; -482.000
418.626;  266.500;   70.000;  -59.000
418.751;  259.400; -549.000; -448.000
418.877;  350.700; -637.000; -643.000
419.002; 3679.300; -688.000; -560.000
419.128;22526.300; -930.000; -721.000
419.253; 4915.000; -967.000; -837.000
419.379;  677.300; -391.000; -338.000
419.504;  776.000;  325.000;  415.000
419.629;  940.900; -393.000; -212.000
419.755; 6861.800; -317.000; -254.000
419.880;36360.500;  -98.000;   67.000
420.006;21103.000; -280.000; -221.000
420.131;51116.700; -662.000; -775.000
420.256; 6760.000; -315.000; -316.000
420.382;  926.600; -665.000; -687.000
420.507;  153.300; -649.000; -778.000
420.632;  270.400; -337.000; -339.000
420.758;  500.500; -251.000; -425.000
420.883; -144.800; -876.000; -672.000
421.008; -142.400; -775.000; -619.000
421.133;  -93.600; -509.000; -467.000
421.259;  -37.200; -325.000; -259.000
421.384; -186.400; -834.000; -693.000
421.509;  -62.500;-1052.000; -862.000
421.634; 2110.700; -936.000; -820.000
421.759;  814.600; -359.000; -327.000
421.885;  -77.700; -717.000; -656.000
422.010; -106.500; -673.000; -542.000
422.135; -224.000; -695.000; -727.000
422.260;  147.900;  340.000;  280.000
422.385;  -15.300;   12.000;  -98.000
422.510;   82.700;  151.000;  -26.000
422.635;  113.300;  -87.000;  -43.000
422.760;  216.300; -766.000; -791.000
422.885;  117.700;  -57.000;  -80.000
423.010;  -11.700; -112.000; -169.000
423.135; -126.800; -481.000; -561.000
423.260;   32.000; -150.000; -245.000
423.385;  186.200;  476.000;  222.000
423.510;  129.100;   71.000;  -22.000
423.635;  211.700;  133.000;   45.000
423.760;  146.600;  383.000;  328.000
423.885;  187.500;  336.000;  391.000
424.010;   72.400;  -68.000;  -13.000
424.135;   24.200;    5.000;  -33.000
424.259; -106.700; -654.000; -457.000
424.384;  -35.100; -279.000; -272.000
424.509;   -0.800; -260.000; -186.000
424.634; -129.600; -761.000; -623.000
424.759;   -4.400; -688.000; -544.000
424.883;   12.600; -506.000; -527.000
425.008;  342.600; -502.000; -410.000
425.133; 3687.400; -679.000; -653.000
425.258; 1495.300; -517.000; -381.000
425.382; 1897.400; -867.000; -774.000
425.507; 4279.800; -487.000; -543.000
425.632;  696.200; -802.000; -663.000
425.756;  850.800; -256.000; -146.000
425.881;12132.900; -831.000; -857.000
426.006;29646.900; -604.000; -355.000
426.130; 4259.700; -696.000; -508.000
426.255;  560.500; -611.000; -491.000
426.379;  330.300; -189.000; -577.000
426.504;  784.200;  660.000;  544.000
426.629; 7633.400; -519.000; -466.000
426.753; 4674.300;   64.000;  -46.000
426.878;  577.000; -252.000; -288.000
427.002;  273.400; -651.000; -668.000
427.127; 3162.300;  -35.000; -158.000
427.251;20387.200;  372.000;  401.000
427.375; 5112.100; -191.000; -173.000
427.500; 3958.100; -616.000; -610.000
427.624; 1226.800; -234.000; -400.000
427.749;  177.800; -216.000; -225.000
427.873;  -18.800; -499.000; -412.000
427.997;  -37.500; -222.000; -230.000
428.122;  242.400;  795.000;  703.000
428.246;  200.400;  433.000;  434.000
428.371; -205.100; -869.000; -773.000
428.495; -126.400; -624.000; -646.000
428.619;   17.300; -186.000; -117.000
428.743;  131.900;   65.000;  132.000
428.868;   89.900; -732.000; -643.000
428.992; 2488.000; -219.000; -326.000
429.116;  939.400; -329.000; -357.000
429.240;  518.500;  419.000;  426.000
429.365;  -16.900; -454.000; -574.000
429.489;  -40.800; -638.000; -647.000
429.613;   97.600; -236.000; -177.000
429.737;  113.000; -563.000; -432.000
429.861;  623.400; -247.000; -133.000
429.985;10688.400; -425.000; -305.000
430.109;10355.700; -770.000; -908.000
430.234; 1185.000;   76.000;  -50.000
430.358;  169.400; -250.000; -160.000
430.482;  -56.300; -672.000; -564.000
430.606;  -26.500; -655.000; -375.000
430.730;  120.300; -437.000; -388.000
430.854;  218.200; -909.000; -835.000
430.978;  -74.200; -795.000; -764.000
431.102; -113.400; -499.000; -422.000
431.226; -153.800; -874.000; -815.000
431.350;  130.300;  345.000;  422.000
431.474; -115.800; -661.000; -373.000
431.597; -252.100;-1060.000; -848.000
431.721;  -72.300; -276.000; -267.000
431.845; -206.100; -704.000; -472.000
431.969;  -82.600; -304.000; -349.000
432.093; -118.900; -395.000; -317.000
432.217;   26.600;   32.000;   82.000
432.341; -111.100; -523.000; -518.000
432.464;   50.500;   96.000;   40.000
432.588;  414.200; -401.000; -329.000
432.712;  236.400;  -52.000;  -52.000
432.836;  153.900;  213.000;  263.000
432.959;   29.800; -372.000; -311.000
433.083;  213.200;   11.000;    2.000
433.207;  721.600;  285.000;  930.000
433.330; 9513.300; -391.000; -200.000
433.454;10657.100; -654.000; -638.000
433.578; 6336.100;  583.000;  278.000
433.701; 1007.500; -623.000; -675.000
433.825;  278.300; -292.000; -299.000
433.949;  386.800;   28.000;  -72.000
434.072;  146.900; -410.000; -323.000
434.196;   73.200; -309.000; -117.000
434.319; 7889.900;25482.000;25124.000
434.443; 1509.800; -656.000; -603.000
434.566; 4757.700;  281.000;   62.000
434.690;  706.700; -637.000; -383.000
434.813;  121.800; -251.000; -173.000
434.937; -108.700; -569.000; -696.000
435.060;  -27.700; -423.000; -332.000
435.184;  580.200; -492.000; -217.000
435.307;  339.000;  159.000;  102.000
435.431;   37.500;  -40.000;   24.000
435.554;  -97.000; -399.000; -240.000
435.677;  -90.400; -350.000; -258.000
435.801;  -15.400;  -25.000;   49.000
435.924;   41.300;    1.000;  -67.000
436.048; -194.500;-1019.000; -732.000
436.171;  -53.300; -240.000;  -66.000
436.294;   -2.700; -248.000; -229.000
436.417;  160.800; -963.000; -849.000
436.541; -139.600; -814.000; -840.000
436.664;  -43.100; -242.000; -316.000
436.787;   26.000;   13.000;  113.000
436.910; -157.700; -792.000; -422.000
437.034;  107.300;  142.000;  143.000
437.157;  175.500;  -11.000;    0.000
437.280;  -62.100; -392.000; -292.000
437.403; -126.000; -982.000; -869.000
437.526; 1244.000; -903.000; -865.000
437.649; 3914.800; -505.000; -332.000
437.772;  483.800; -692.000; -540.000
437.896;  279.000;  700.000;  544.000
438.019; -128.900; -758.000; -503.000
438.142; -106.600; -596.000; -506.000
438.265;   28.800; -639.000; -670.000
438.388; 1014.000; -520.000; -410.000
438.511;  178.900; -597.000; -394.000
438.634;  -24.300; -247.000; -125.000
438.757; -198.900; -693.000; -619.000
438.880;   33.700;  -34.000;  -57.000
439.003;  -80.800; -417.000; -437.000
439.126;  -77.700; -287.000; -167.000
439.248;  -34.300;  -98.000; -139.000
439.371;  -43.000;    9.000;  -53.000
439.494;  143.600;  510.000;  439.000
439.617;  -24.700;   65.000;  -88.000
439.740; -323.000; -968.000; -816.000
439.863; -235.300; -755.000; -595.000
439.986; -205.800; -476.000; -431.000
440.108;  -24.700; -161.000; -112.000
440.231; -275.700; -950.000; -836.000
440.354;  -29.100;  -64.000; -150.000
440.477;  110.400; -566.000; -542.000
440.599;   33.800; -200.000; -225.000
440.722; -193.700; -709.000; -586.000
440.845;  213.000;  751.000;  928.000
440.968; -172.000; -415.000; -311.000
441.090;  -50.300; -199.000;  -33.000
441.213; -255.900;-1021.000; -825.000
441.336;  -31.700; -159.000;   -5.000
441.458; -105.100; -549.000; -396.000
441.581; -130.400; -628.000; -629.000
441.703;  -68.100; -152.000;   13.000
441.826; -175.400; -557.000; -400.000
441.948;  -30.400;   56.000;   51.000
442.071;  104.200;  555.000;  424.000
442.193; -181.700; -531.000; -485.000
442.316;  130.400;  152.000;   97.000
442.438;  112.000; -233.000;  -10.000
442.561;  212.700;  272.000;  262.000
442.683; 1026.300; -809.000; -522.000
442.806; 2024.500;   -8.000;   74.000
442.928;   21.200; -859.000; -604.000
443.051;  -82.700; -577.000; -373.000
443.173; -120.100; -341.000; -339.000
443.295; -117.900; -263.000; -371.000
443.418;  -68.800; -321.000;  -29.000
443.540;   34.400; -106.000;   -4.000
443.662; -173.400; -563.000; -465.000
443.785;   22.800;  335.000;  199.000
443.907; -147.500; -362.000; -208.000
444.029; -194.500; -767.000; -494.000
444.152; -244.600; -644.000; -554.000
444.274;   17.300;  -18.000;  -24.000
444.396; -172.200; -461.000; -221.000
444.518; -196.500; -691.000; -454.000
444.640; -163.200; -268.000; -111.000
444.763;   54.900;  388.000;  249.000
444.885; -190.300; -432.000; -392.000
445.007;   24.600;   35.000;   86.000
445.129; -191.200; -610.000; -515.000
445.251; -149.600; -372.000; -439.000
445.373; -197.300; -537.000; -386.000
445.495;   77.700;  242.000;  350.000
445.617;  137.700;  853.000;  753.000
445.739;  -36.000; -215.000;  -97.000
445.861;  -14.600; -245.000; -112.000
445.984;  -36.100; -267.000; -101.000
446.105;  394.300; -418.000; -251.000
446.227; 1053.900; -176.000;  -19.000
446.349;   14.700; -358.000; -249.000
446.471; -162.000; -615.000; -448.000
446.593;  -73.100; -316.000;   19.000
446.715;   56.900;  -67.000;   41.000
446.837;  170.400;  697.000;  832.000
446.959; -110.000; -457.000; -478.000
447.081; -238.900; -628.000; -518.000
447.203;  195.700;  862.000;  834.000
447.325; -100.700; -270.000;   42.000
447.446;   65.900;  286.000;  530.000
447.568; -252.800; -921.000; -803.000
447.690;  -92.400; -236.000; -245.000
447.812; -240.700; -798.000; -519.000
447.933;   12.900;  155.000;  127.000
448.055;  -67.100; -306.000; -261.000
448.177;  358.900;   31.000;   79.000
448.299;  144.300; -935.000; -727.000
448.420;  101.500;  -25.000;  159.000
448.542;  -16.100;   -3.000;   33.000
448.664;   11.800;  109.000;  322.000
448.785;    4.500;  265.000;   83.000
448.907; -108.500; -614.000; -353.000
449.028;   -8.400; -771.000; -471.000
449.150;  221.500;  492.000;  589.000
449.272; -304.200;-1044.000; -913.000
449.393;  108.600;  612.000;  694.000
449.515; -205.600; -634.000; -581.000
449.636;  -58.700; -264.000; -155.000
449.758;  186.000;  763.000;  622.000
449.879; -108.700; -498.000; -396.000
450.001;  -83.700; -149.000;  -49.000
450.122;    6.000;  -95.000;  162.000
450.244;   27.500;   37.000;  364.000
450.365;  -92.300; -495.000; -301.000
450.486;   19.200;   80.000;  268.000
450.608;  111.300;  393.000;  326.000
450.729;  227.500;  578.000;  645.000
450.850;   78.200; -574.000; -466.000
450.972; 1487.600; -552.000; -389.000
451.093; 8887.000;  190.000;  588.000
451.214; 3336.200; -516.000; -337.000
451.336;  698.300;  773.000;  579.000
451.457;  154.400;  264.000;  393.000
451.578;  -60.000; -118.000;  -74.000
451.699; -174.000; -546.000; -540.000
451.821;  -84.800; -284.000;  -50.000
451.942;   25.100;  278.000;  285.000
452.063;  164.600;  228.000;  419.000
452.184; 1112.700;  -54.000;  -49.000
452.305; 1975.900;  103.000;  170.000
452.427;  225.200; -549.000; -301.000
452.548;   57.700;   23.000;   79.000
452.669;  -24.600; -257.000;  -89.000
452.790;    3.000;    3.000;  -18.000
452.911;   20.400;  195.000;  259.000
453.032;  -76.200; -289.000;  -60.000
453.153;  -24.400;  -29.000;   81.000
453.274;  216.800;  737.000;  868.000
453.395;  -25.000;  -51.000;  175.000
453.516;  320.400; 1317.000; 1388.000
453.637;  -54.500; -205.000; -150.000
453.758;  -76.700;   15.000;   69.000
453.879; -190.800; -462.000; -250.000
454.000;  204.100; 1086.000;  948.000
454.121; -191.800; -554.000; -326.000
454.242; -174.400; -599.000; -383.000
454.362;  -27.700;  -99.000;  114.000
454.483;  -14.200; -309.000; -229.000
454.604;  171.300;  512.000;  580.000
454.725; -171.800; -627.000; -555.000
454.846; -187.900; -474.000; -406.000
454.967;   57.800;  230.000;  539.000
455.087;   11.600;  179.000;  153.000
455.208;  127.800;  554.000;  856.000
455.329;  -80.300;  -22.000;   82.000
455.450;  149.800;  473.000;  633.000
455.570; -121.100; -234.000; -211.000
455.691;    5.000;  201.000;  407.000
455.812; -112.000; -270.000;  -92.000
455.932;  -31.000;  107.000;  -97.000
456.053;  -61.800;   36.000;   24.000
456.173; -173.200; -433.000; -355.000
456.294; -200.300; -476.000; -303.000
456.415;  -70.700;  -73.000;   70.000
456.535;   33.600;  297.000;  273.000
456.656;  -16.000;  132.000;  240.000
456.776;  -52.500;    3.000;  298.000
456.897;   52.200;  308.000;  513.000
457.017;  -83.000; -153.000;   -3.000
457.138; -146.000; -402.000; -249.000
457.258;    5.900;  263.000;  224.000
457.379;   80.100;  509.000;  521.000
457.499;   43.100;  443.000;  432.000
457.620; -162.100; -407.000; -231.000
457.740; -118.000; -132.000;  -11.000
457.860;  -49.100;   87.000;   44.000
457.981;  -10.900;  132.000;  124.000
458.101; -110.200;  -89.000;   40.000
458.221;   40.300;  336.000;  402.000
458.342;  -58.100;   -4.000;  -37.000
458.462;   91.400;  617.000;  352.000
458.582;  -39.900; -302.000; -294.000
458.703;   81.200;  303.000;  154.000
458.823;   -1.000;   22.000;  163.000
458.943;  105.500;  341.000;  467.000
459.063;   28.700; 1124.000;  192.000
459.183;   -6.600;  328.000;  313.000
459.304;  129.300;  315.000;  517.000
459.424;  -74.800; -246.000;  -89.000
459.544;  747.800;  388.000;  764.000
459.664; 1572.200;  499.000;  506.000
459.784;  569.300; 1004.000; 1175.000
459.904;  158.900;  867.000;  744.000
460.024;  212.500;  867.000;  684.000
460.144;   82.700;  449.000;  554.000
460.264;   53.200;  515.000;  327.000
460.385;  -94.900; -145.000; -119.000
460.505;  178.800;  905.000;  858.000
460.625; -116.400;  -17.000;  -68.000
460.745;   20.600;  396.000;  541.000
460.864;  -17.000;  153.000;  469.000
460.984;   80.800;  499.000;  573.000
461.104;  371.800; 1656.000; 1775.000
461.224;  121.400;  657.000;  650.000
461.344;   13.900;  431.000;  360.000
461.464;   -4.400;  258.000;  513.000
461.584;   36.400;  283.000;  466.000
461.704;  -48.900;   58.000;  108.000
461.824;  -58.200;  238.000;  259.000
461.943;  -26.600;  191.000;  130.000
462.063; -129.900;    2.000;  324.000
462.183;  132.600;  639.000;  717.000
462.303;  303.700; 1678.000; 1230.000
462.422;  138.500;  781.000;  840.000
462.542;   -6.300;  271.000;  391.000
462.662;  144.700;  353.000;  380.000
462.782;  504.400;  833.000;  572.000
462.901;  923.100;  545.000;  717.000
463.021;  594.800; 1702.000; 1638.000
463.141;   76.100;  337.000;  770.000
463.260;   44.600;  614.000;  474.000
463.380;  116.500;  902.000;  884.000
463.499;   -3.200;  342.000;  332.000
463.619;   11.200;  581.000;  559.000
463.738;  325.800; 1644.000;  903.000
463.858;  121.000;  657.000;  811.000
463.978;    5.900;  542.000;  396.000
464.097;  179.800;  921.000; 1114.000
464.217;  308.800; 1196.000; 1143.000
464.336;  303.800; 1068.000; 1130.000
464.455;   -5.800;  328.000;  659.000
464.575;  156.200;  597.000;  602.000
464.694;  373.200; 1204.000; 1179.000
464.814;  276.800; 1190.000; 1138.000
464.933;  205.300; 1095.000; 1027.000
465.052;  263.800; 1412.000; 1054.000
465.172;  215.100;  922.000;  799.000
465.291;  323.600; 1376.000; 1320.000
465.410;  124.500;  462.000;  735.000
465.530;  244.000; 1355.000; 1310.000
465.649;  168.300; 1209.000; 1273.000
465.768;  368.900; 1673.000; 1508.000
465.888;  167.300;  941.000; 1174.000
466.007;  274.100; 1335.000; 1440.000
466.126;   61.700;  721.000;  641.000
466.245;  149.000; 1176.000; 1187.000
466.364;  140.300;  950.000; 1060.000
466.484;  194.000; 1024.000; 1213.000
466.603;  141.500; 1101.000; 1222.000
466.722;  340.600; 1490.000; 1769.000
466.841;  263.800; 1151.000; 1401.000
466.960;  148.500; 1069.000;  972.000
467.079;  370.400; 1971.000; 1786.000
467.198;  153.800; 1238.000; 1181.000
467.317;  265.400; 1768.000; 1162.000
467.436;  267.800; 1709.000; 1261.000
467.555;  299.900; 1796.000; 1746.000
467.674;  234.600; 1227.000; 1329.000
467.793;  171.500; 1376.000; 1374.000
467.912;  262.900; 1658.000; 1539.000
468.031;  358.500; 2038.000; 1930.000
468.150;  377.900; 1842.000; 1837.000
468.269;  454.100; 2313.000; 2090.000
468.388;  462.200; 2168.000; 2339.000
468.507;  633.100; 2884.000; 2903.000
468.626;  648.000; 2555.000; 2541.000
468.744;  374.800; 2018.000; 2174.000
468.863;  486.900; 2312.000; 2523.000
468.982;  252.200; 1503.000; 1555.000
469.101;  505.700; 2788.000; 2692.000
469.220;  359.300; 2333.000; 2176.000
469.338;  601.300; 2935.000; 3051.000
469.457;  492.200; 2719.000; 2545.000
469.576;  776.800; 3953.000; 3784.000
469.695;  534.600; 2877.000; 3066.000
469.813;  963.000; 4148.000; 4192.000
469.932;  887.900; 4255.000; 4485.000
470.051;  917.800; 4075.000; 4161.000
470.169; 1746.300; 4470.000; 4338.000
470.288; 2855.400; 4700.000; 4809.000
470.406; 1645.700; 5059.000; 5194.000
470.525; 1284.800; 6101.000; 5787.000
470.644; 1394.500; 6847.000; 6794.000
470.762; 1770.600; 8397.000; 7873.000
470.881; 1887.600; 8651.000; 8464.000
470.999; 2145.500; 9685.000; 9151.000
471.118; 2349.600;11174.000;10711.000

