
Integration time [ms]: 100.000
Averaging Nr. [scans]: 40
Smoothing Nr. [pixels]: 0
Data measured with spectrometer [name]: 2101012U2
Wave   ;Sample   ;Dark     ;Reference
[nm]   ;[counts] ;[counts] ;[counts] 

197.733;   54.550;  516.000;  404.000
197.879;  -78.900; -610.000; -634.000
198.025;  -53.425; -475.000; -420.000
198.171;  -60.475; -602.000; -612.000
198.317;  -32.800; -401.000; -316.000
198.463;  -56.025; -655.000; -404.000
198.609;   25.000;  181.000; -137.000
198.755;  -77.400; -644.000; -410.000
198.901;  -59.425; -505.000; -424.000
199.047;  -54.700; -615.000; -488.000
199.193;  -44.700; -230.000; -468.000
199.339;  -39.650; -222.000; -369.000
199.485;   32.775;  330.000;  271.000
199.631;   13.300;  227.000;  310.000
199.777;  -65.100; -466.000; -398.000
199.923;  -44.500; -610.000; -424.000
200.069;   -1.775; -141.000;  -58.000
200.215;   54.425;  128.000;  453.000
200.361;   32.775;  243.000;  477.000
200.507;  -66.350; -600.000; -373.000
200.653;  -34.300; -371.000; -194.000
200.798;  -26.625; -215.000; -125.000
200.944;   10.300; -146.000;  -41.000
201.090;   35.725;   61.000;  222.000
201.236;   -4.525; -116.000; -158.000
201.382;  136.200;  874.000;  903.000
201.528;   -3.975;  -58.000;  -48.000
201.674;  -66.275; -386.000; -293.000
201.819;  -70.250; -540.000; -439.000
201.965;  -61.125; -699.000; -447.000
202.111;  -15.025; -273.000; -226.000
202.257;  -36.225; -250.000; -238.000
202.402;   -2.975;   13.000;  -36.000
202.548;  -37.700; -169.000; -116.000
202.694;   73.000;  410.000; -183.000
202.840;  -69.025; -603.000; -531.000
202.985;  -77.725; -681.000; -639.000
203.131; -102.900; -832.000; -666.000
203.277;  -22.300; -199.000; -262.000
203.423;  -47.650; -434.000; -520.000
203.568;  -34.600; -462.000; -237.000
203.714;  -46.950; -535.000; -542.000
203.860;  -78.900; -682.000; -641.000
204.005;   19.825;  112.000;  167.000
204.151;   73.025;  561.000;  556.000
204.296;  -58.450; -354.000; -221.000
204.442;  -77.625; -600.000; -547.000
204.588;  -73.775; -592.000; -579.000
204.733;   20.875;  178.000;  168.000
204.879; -121.775;-1018.000; -822.000
205.025;   15.875;  -99.000;  126.000
205.170;   -0.225;  -17.000;   94.000
205.316;   82.275;  438.000;  661.000
205.461;  -74.300; -698.000; -554.000
205.607;   75.475;  609.000;  665.000
205.752;  -69.250; -626.000; -551.000
205.898;  -49.600; -501.000; -391.000
206.043;  -38.425; -578.000; -506.000
206.189;  -43.400; -243.000; -285.000
206.334;   84.075;  554.000;  606.000
206.480;   79.950;  409.000;  239.000
206.625;  -82.600; -529.000; -552.000
206.771;  -56.525; -451.000; -373.000
206.916;  -22.475; -210.000; -537.000
207.062;  -68.975; -545.000; -591.000
207.207;  -62.700; -546.000; -443.000
207.353;   42.250;  185.000;  460.000
207.498;   16.825;  196.000;   85.000
207.643;  -49.525; -501.000; -370.000
207.789; -123.075;-1069.000; -910.000
207.934;  -97.050; -665.000; -713.000
208.080;  -15.025; -154.000;   66.000
208.225;    1.925;  -22.000;  -57.000
208.370;  -76.025; -727.000; -619.000
208.516;  -81.225; -741.000; -487.000
208.661;  -27.500; -127.000;  -69.000
208.806;  -39.475; -165.000; -171.000
208.952; -110.000;-1044.000; -731.000
209.097;   72.775;  378.000;  349.000
209.242;  -48.275; -307.000; -382.000
209.387;   66.925;  392.000;  350.000
209.533;  -51.100; -321.000; -350.000
209.678;   91.300;  472.000;  543.000
209.823;  -50.125; -408.000; -310.000
209.969; -104.025; -860.000; -757.000
210.114; -105.500; -907.000; -719.000
210.259; -122.750; -939.000; -889.000
210.404;    3.150; -171.000;  103.000
210.549;   14.000;  108.000;    3.000
210.695;  -32.575;   -3.000;  -95.000
210.840;   29.650;   94.000;   67.000
210.985;  -65.000; -484.000; -303.000
211.130;   69.000;  268.000;  406.000
211.275;   20.475;  207.000;  199.000
211.420;  -39.975; -300.000; -289.000
211.566;  -68.250; -536.000; -489.000
211.711;   22.775;  218.000;  157.000
211.856;  -51.650; -545.000; -519.000
212.001;   21.125;  151.000;   44.000
212.146;   24.500;  153.000;   49.000
212.291;  -39.600; -210.000; -186.000
212.436;  -24.175; -280.000;   -6.000
212.581;  -74.250; -685.000; -653.000
212.726;  -82.200; -487.000; -538.000
212.871;  -58.900; -552.000; -217.000
213.016; -141.125;-1172.000;-1029.000
213.161;   68.750;  406.000;  291.000
213.306;  -69.575; -435.000; -577.000
213.451;  -90.650; -778.000; -689.000
213.596;  -36.050; -455.000; -347.000
213.741;  -57.575; -448.000; -538.000
213.886;  -69.200; -498.000; -517.000
214.031;  -29.775; -294.000; -124.000
214.176;  -42.175; -408.000; -341.000
214.321;  -11.700; -296.000; -157.000
214.466;  -29.750; -163.000;  -43.000
214.611;   -7.250;  -61.000;  -10.000
214.756; -125.925; -948.000; -858.000
214.901;  -25.275; -388.000; -226.000
215.046; -115.350; -797.000; -825.000
215.191;    5.150;  128.000;   35.000
215.336;  -12.050; -157.000;  -19.000
215.480;  -58.275; -684.000; -505.000
215.625;   -8.925; -175.000;  -19.000
215.770;  -76.675; -757.000; -662.000
215.915;   -7.875;   -5.000;  -97.000
216.060;    1.950; -113.000;  -21.000
216.205; -109.100; -731.000; -779.000
216.349;  -83.175; -470.000; -533.000
216.494; -129.600; -939.000; -867.000
216.639; -122.100; -823.000; -888.000
216.784;  -86.025; -577.000; -525.000
216.929;   31.675;  392.000;  281.000
217.073;   -1.425; -244.000;  -31.000
217.218;    2.400;   78.000;  -47.000
217.363;  -87.025; -656.000; -618.000
217.507;  -94.075; -623.000; -588.000
217.652; -125.200; -845.000; -874.000
217.797;  -94.950; -708.000; -659.000
217.942; -103.600; -856.000; -720.000
218.086;   61.250;  608.000;  539.000
218.231;  -14.225; -174.000;  -26.000
218.376;  -33.350; -337.000; -229.000
218.520;   15.200;  -41.000;   96.000
218.665;  -37.500; -338.000; -204.000
218.810;  -53.700; -275.000; -233.000
218.954;    9.300;  201.000;   35.000
219.099; -116.925; -713.000; -963.000
219.243;  -84.600; -589.000; -554.000
219.388;  -17.050; -264.000; -136.000
219.532;  -17.575; -116.000; -116.000
219.677;  -72.325; -564.000; -521.000
219.822;   -1.875;   33.000;   89.000
219.966;   18.275;   17.000;  -99.000
220.111;  -33.850; -328.000;  -40.000
220.255; -101.050; -797.000; -750.000
220.400;  -24.850; -180.000; -146.000
220.544;  -63.675; -516.000; -450.000
220.689;  -65.275; -422.000; -451.000
220.833;  -21.325; -123.000;  -58.000
220.978;  -48.950; -393.000; -563.000
221.122;   32.350;  319.000;  307.000
221.267; -122.825; -906.000; -837.000
221.411;  -55.800; -478.000; -394.000
221.555;   -8.775; -104.000;  -23.000
221.700;  -34.525; -329.000; -222.000
221.844;   37.900;  255.000;  272.000
221.989;  -54.875; -328.000; -311.000
222.133;  -34.975; -289.000; -307.000
222.277;  -11.300;    5.000;   78.000
222.422;    4.725;  227.000;  113.000
222.566;  -37.225; -381.000; -214.000
222.711;  -57.425; -414.000; -479.000
222.855;  -73.550; -643.000; -586.000
222.999;  -89.000; -642.000; -717.000
223.144;  -37.475; -195.000; -194.000
223.288;   41.350;  423.000;  251.000
223.432;   29.400;  184.000;  230.000
223.576;   17.250;  152.000;  -21.000
223.721;   26.150;  364.000;  273.000
223.865;  -67.800; -472.000; -475.000
224.009;  267.650; 1673.000; 1631.000
224.153;  -78.450; -660.000; -671.000
224.298;  -65.300; -531.000; -489.000
224.442;   -8.275;  -74.000;  -33.000
224.586;    1.575; -169.000; -106.000
224.730;  -88.550; -858.000; -670.000
224.875; -111.375; -739.000; -688.000
225.019;    3.875;  102.000;  188.000
225.163;   43.275;  208.000;  341.000
225.307;   23.225;   97.000;  -91.000
225.451;   36.625;  360.000;  481.000
225.595;   25.375;  264.000;  176.000
225.739;  -20.725; -170.000;  -94.000
225.884;   -1.950;   86.000;    5.000
226.028;  -84.500; -760.000; -626.000
226.172;  -38.800; -260.000; -273.000
226.316; -108.725; -941.000; -902.000
226.460;  -76.225; -645.000; -493.000
226.604;  -52.675; -406.000; -400.000
226.748; -103.500; -836.000; -733.000
226.892;  -35.325; -227.000; -181.000
227.036;  -43.225; -537.000; -447.000
227.180;  -57.775; -551.000; -375.000
227.324;  -73.625; -561.000; -580.000
227.468;  -98.725; -819.000; -717.000
227.612;   16.300;  242.000;  -28.000
227.756;  -90.400; -845.000; -698.000
227.900;   48.825;  342.000;  441.000
228.044;  -68.325; -509.000; -290.000
228.188;   50.325;  448.000;  568.000
228.332;  -77.550; -546.000; -472.000
228.476;  -25.125; -223.000; -149.000
228.620;  -22.425; -210.000; -150.000
228.764;   57.025;  431.000;  349.000
228.908;  -15.925; -155.000;   30.000
229.052;  -67.250; -615.000; -528.000
229.195;   -6.600; -172.000;   13.000
229.339;  -38.000; -235.000; -305.000
229.483;  -21.650;    5.000; -162.000
229.627;   -0.900; -156.000;  139.000
229.771;  -52.500; -218.000; -294.000
229.915;    9.000;  230.000;   79.000
230.059;  -90.825; -648.000; -663.000
230.202;  -52.275; -370.000; -317.000
230.346;  -16.750; -107.000;  107.000
230.490;  -57.925; -489.000; -521.000
230.634;  -90.025; -736.000; -553.000
230.777;   73.450;  478.000;  509.000
230.921;  -47.300; -450.000; -359.000
231.065;  -42.775; -246.000; -286.000
231.209;   25.350;  261.000;  265.000
231.352;   13.950;   54.000;   40.000
231.496;   20.750;  568.000;  188.000
231.640;  -87.425; -693.000; -621.000
231.783;   70.675;  546.000;  525.000
231.927;  -46.900; -294.000; -365.000
232.071; -120.175; -962.000; -736.000
232.214; -116.050; -980.000; -764.000
232.358; -102.050; -683.000; -599.000
232.502;  -15.800;  -19.000;    7.000
232.645; -138.625;-1090.000; -927.000
232.789;  -17.275; -257.000; -218.000
232.933;  -49.475; -407.000; -224.000
233.076; -131.475;-1038.000; -897.000
233.220; -100.850; -752.000; -777.000
233.363;  -81.050; -669.000; -477.000
233.507;   48.275;  371.000;  129.000
233.650; -109.125; -764.000; -834.000
233.794;   48.725;  438.000;  461.000
233.938;  -56.875; -530.000; -362.000
234.081;  -14.600;  -93.000;   31.000
234.225;  -74.625; -631.000; -539.000
234.368; -105.325; -773.000; -723.000
234.512;  -45.725; -385.000; -299.000
234.655;  -83.600; -582.000; -555.000
234.798;  -67.550; -493.000; -466.000
234.942; -118.050; -884.000;-1002.000
235.085;  -78.175; -651.000; -443.000
235.229;  -66.025; -405.000; -410.000
235.372;  -55.800; -247.000; -191.000
235.516;  -60.275; -397.000; -321.000
235.659;   22.450;   92.000;  121.000
235.802;  -17.900;  -38.000;  -22.000
235.946;   17.400;  335.000;  215.000
236.089;   28.300;  126.000;  250.000
236.233;   45.275;  275.000;  298.000
236.376;  -41.550; -235.000; -378.000
236.519;  -50.500; -297.000; -319.000
236.663;  -27.375; -215.000; -117.000
236.806; -144.600;-1029.000; -999.000
236.949;   66.400;  543.000;  431.000
237.092;   59.575;  412.000;  391.000
237.236;  -85.450; -589.000; -502.000
237.379;   52.125;  352.000;  428.000
237.522; -117.175; -879.000; -768.000
237.666;  -30.400; -271.000;   18.000
237.809; -104.850; -851.000; -823.000
237.952;   21.450;  469.000;  271.000
238.095;  -59.650; -447.000; -442.000
238.238;   84.650;  688.000;  700.000
238.382;    1.450;  166.000;  103.000
238.525;  -68.725; -598.000; -511.000
238.668; -127.075;-1060.000; -985.000
238.811;  -78.350; -638.000; -643.000
238.954;  -55.875; -483.000; -334.000
239.097;   91.250;  617.000;  664.000
239.241;   24.475;  394.000;  326.000
239.384;  -49.200; -254.000; -214.000
239.527;  -41.475; -424.000; -224.000
239.670; -153.325; -994.000;-1091.000
239.813; -110.175; -696.000; -658.000
239.956;   55.425;  579.000;  473.000
240.099; -109.675; -778.000; -725.000
240.242;   51.725;  428.000;  432.000
240.385;   48.125;  466.000;  450.000
240.528;  -81.350; -706.000; -473.000
240.671;   16.425;  189.000;  134.000
240.814;  -46.375; -441.000; -158.000
240.957;  -97.800; -767.000; -578.000
241.100; -101.250; -779.000; -755.000
241.243; -141.825;-1234.000; -893.000
241.386;  -75.575; -508.000; -379.000
241.529;  -79.475; -735.000; -547.000
241.672;  -61.300; -566.000; -495.000
241.815; -112.500; -832.000; -808.000
241.958;  -42.825; -125.000; -182.000
242.101;  -81.475; -545.000; -390.000
242.244;  -44.300; -270.000; -325.000
242.387;  -38.500; -304.000; -246.000
242.530;   61.000;  470.000;  134.000
242.673;  -49.450; -381.000; -309.000
242.815; -117.825; -925.000; -899.000
242.958;  -66.950; -482.000; -381.000
243.101;   10.525;  132.000;  187.000
243.244;  -73.825; -564.000; -521.000
243.387;  -49.075; -313.000; -316.000
243.530; -101.725; -657.000; -674.000
243.672;    0.600;   43.000;  -92.000
243.815;  -52.675; -355.000; -283.000
243.958;  -12.025;   98.000;  -26.000
244.101;    0.825;   59.000;  -16.000
244.243;  -13.700;  -47.000;  101.000
244.386; -111.275; -761.000; -630.000
244.529;  -26.900; -132.000; -139.000
244.672; -139.800;-1154.000; -951.000
244.814;  -94.250; -621.000; -794.000
244.957;  -48.800; -380.000; -304.000
245.100;  -95.475; -489.000; -489.000
245.242;  -47.500; -387.000; -374.000
245.385;  -12.725;  -59.000;  -39.000
245.528; -120.500; -871.000; -705.000
245.670;   87.850;  612.000;  634.000
245.813;  -87.675; -599.000; -547.000
245.956;  -40.600; -324.000; -275.000
246.098;  -69.575; -508.000; -650.000
246.241;    5.350;  194.000;   48.000
246.383;  -13.625; -119.000;  -73.000
246.526;  -80.250; -454.000; -525.000
246.669; -106.225; -889.000; -780.000
246.811;   28.650;  172.000;   -1.000
246.954;  -51.025; -512.000; -426.000
247.096;  -13.975;  -84.000;   -6.000
247.239;  -58.300; -482.000; -445.000
247.381;  -89.050; -647.000; -488.000
247.524;  102.875;  645.000;  679.000
247.666;  -14.400;   58.000;   11.000
247.809; -117.175; -887.000; -691.000
247.951;  -22.650;  -75.000;  138.000
248.094;   30.075;  432.000;  308.000
248.236; -162.100;-1262.000;-1238.000
248.378;   -6.625; -356.000;  -81.000
248.521;  -20.150; -334.000; -337.000
248.663;  -37.550; -236.000; -267.000
248.806;  -26.475; -300.000; -266.000
248.948;  -95.925; -886.000; -763.000
249.090;  -61.625; -428.000; -398.000
249.233;  -43.750; -344.000; -381.000
249.375;  -76.000; -474.000; -451.000
249.518;  -25.200;  -83.000; -133.000
249.660;   -3.650; -103.000;    3.000
249.802; -166.850;-1303.000;-1189.000
249.945;  -75.900; -612.000; -540.000
250.087; -106.350; -834.000; -768.000
250.229;  -48.475; -362.000; -480.000
250.371;  -80.675; -494.000; -439.000
250.514;  -54.750; -310.000; -244.000
250.656;  -20.525;   69.000;  102.000
250.798; -102.575; -849.000; -800.000
250.940;  -54.400; -322.000; -322.000
251.083;  -29.050; -335.000; -111.000
251.225;   52.500;  338.000;  310.000
251.367;  -51.950; -274.000; -373.000
251.509;  -40.200; -265.000; -210.000
251.651;  -98.350; -731.000; -671.000
251.794;   43.275;  538.000;  632.000
251.936; -109.025; -821.000; -747.000
252.078;  -80.900; -540.000; -461.000
252.220;  -75.800; -645.000; -477.000
252.362;   76.200;  344.000;  462.000
252.504;  -68.800; -677.000; -584.000
252.646; -114.300; -875.000; -722.000
252.788;  -13.125;   14.000; -128.000
252.931;  -34.925; -257.000; -253.000
253.073;  -54.825; -376.000; -317.000
253.215;  -15.825;  141.000;  122.000
253.357;  -12.150;   82.000; -153.000
253.499;  -53.800; -374.000; -234.000
253.641;  -98.925; -749.000; -594.000
253.783;  -90.425; -609.000; -527.000
253.925;  -95.275; -586.000; -591.000
254.067;  -96.925; -744.000; -667.000
254.209;  -29.800; -391.000; -259.000
254.351; -133.350; -865.000; -883.000
254.493;  -68.325; -441.000; -417.000
254.635; -133.325; -936.000; -818.000
254.777;  -97.275; -752.000; -687.000
254.918;  -72.050; -512.000; -430.000
255.060;  -51.800; -551.000; -395.000
255.202;  -67.375; -473.000; -261.000
255.344;  -77.050; -658.000; -455.000
255.486;  -64.800; -471.000; -406.000
255.628; -115.725; -780.000; -781.000
255.770;  -84.525; -676.000; -536.000
255.912;  -76.250; -559.000; -468.000
256.053;  -97.050; -730.000; -508.000
256.195;  138.350; 1008.000;  903.000
256.337; -102.225; -861.000; -595.000
256.479;   61.700;  532.000;  416.000
256.621;  -49.100; -394.000; -212.000
256.762;  -99.275; -789.000; -742.000
256.904;   38.800;  485.000;  487.000
257.046;  -54.500; -381.000; -271.000
257.188;  -37.725; -351.000; -264.000
257.329;  -84.400; -525.000; -464.000
257.471; -108.800; -939.000; -807.000
257.613;  -66.925; -584.000; -498.000
257.755; -145.800;-1073.000; -982.000
257.896;   21.600;  286.000;  392.000
258.038;  -62.650; -403.000; -352.000
258.180;  -52.500; -354.000; -279.000
258.321;  -78.575; -581.000; -457.000
258.463;  -14.125;  -71.000;  133.000
258.605;  -86.525; -562.000; -570.000
258.746; -104.275; -886.000; -772.000
258.888; -146.300;-1026.000;-1020.000
259.029;    9.475;  121.000;   -8.000
259.171;  -97.350; -614.000; -550.000
259.313;   -3.200;  -49.000;  -47.000
259.454;  -67.700; -536.000; -414.000
259.596;  -46.925; -483.000; -390.000
259.737;  -70.075; -590.000; -474.000
259.879;   24.025;  217.000;  311.000
260.020;   81.725;  901.000;  636.000
260.162;  -32.425; -146.000; -253.000
260.303; -118.475; -768.000; -687.000
260.445; -108.075; -609.000; -613.000
260.586;   32.125;  392.000;  157.000
260.728;  -46.825; -360.000; -248.000
260.869; -115.175; -350.000; -343.000
261.011;   70.675;  706.000;  537.000
261.152;  -63.350; -479.000; -319.000
261.293;  -76.725; -576.000; -595.000
261.435;  -40.050; -219.000; -184.000
261.576;  -50.450; -455.000; -325.000
261.718;   57.000;  420.000;  470.000
261.859; -139.375; -940.000; -949.000
262.000; -131.300; -951.000;-1016.000
262.142;  -39.225;  -52.000;  -60.000
262.283; -111.000; -808.000; -691.000
262.424;  -97.375; -666.000; -625.000
262.566; -154.350;-1161.000; -983.000
262.707; -124.350; -840.000; -830.000
262.848; -127.950; -769.000; -726.000
262.990;  -61.300; -362.000; -345.000
263.131;   62.725;  650.000;  681.000
263.272;  -17.975;  -61.000;  -41.000
263.413;  -90.825; -589.000; -561.000
263.555;  -76.125; -669.000; -143.000
263.696;  -75.625; -550.000; -641.000
263.837;  -66.125; -449.000; -551.000
263.978;    9.925;   -5.000;  -77.000
264.119;  -65.775; -283.000; -264.000
264.261; -119.500; -847.000; -630.000
264.402;   -7.575;   33.000;   40.000
264.543;  -83.300; -509.000; -524.000
264.684;  -11.725;   61.000;  -50.000
264.825;  -67.000; -816.000; -538.000
264.966;  -16.550;  -84.000;  -67.000
265.107; -121.225; -646.000; -670.000
265.248; -124.900; -825.000; -812.000
265.390;   -3.150;  152.000;   -9.000
265.531;  -20.800; -238.000; -107.000
265.672; -102.850; -557.000; -630.000
265.813;   53.875;  563.000;  439.000
265.954; -152.400; -959.000; -940.000
266.095;  -32.325; -372.000; -322.000
266.236;  -88.700; -686.000; -548.000
266.377;  -33.850; -243.000; -297.000
266.518;  -78.000; -619.000; -547.000
266.659;   18.175;  170.000;  268.000
266.800;   24.925;   83.000;   85.000
266.941;  -82.125; -487.000; -478.000
267.082;    6.275;  354.000;   99.000
267.223;  -64.175; -344.000; -273.000
267.364; -110.000; -892.000; -686.000
267.504;  -31.925;    3.000;  135.000
267.645;   -3.050;  160.000;   67.000
267.786;  -45.850; -147.000;  -86.000
267.927;  -83.750; -473.000; -379.000
268.068;  -28.525; -186.000;  -61.000
268.209;  -45.175; -175.000; -413.000
268.350;  -64.725; -388.000; -532.000
268.490;  -88.825; -648.000; -521.000
268.631;   16.000;  127.000;  225.000
268.772; -102.775; -874.000; -647.000
268.913;  -40.500; -328.000; -476.000
269.054;  -18.875; -117.000;   12.000
269.194;  -54.000; -418.000; -402.000
269.335; -161.300;-1137.000;-1074.000
269.476;  -26.925;   33.000;  -35.000
269.617;  -43.100; -347.000; -392.000
269.757;  -82.000; -713.000; -646.000
269.898; -108.750; -856.000; -613.000
270.039;  -62.800; -415.000; -405.000
270.180; -130.975; -952.000; -816.000
270.320;  -32.525; -190.000; -250.000
270.461;  -49.350; -277.000; -249.000
270.602;  -25.875; -186.000; -156.000
270.742; -121.100; -868.000; -943.000
270.883;  -50.625; -442.000; -390.000
271.023;  -59.200; -358.000; -357.000
271.164;  -89.900; -607.000; -528.000
271.305;  -90.050; -666.000; -654.000
271.445; -100.750; -722.000; -683.000
271.586;  -66.925; -462.000; -283.000
271.726;  -47.000; -397.000; -322.000
271.867;  -64.775; -594.000; -534.000
272.008;  152.550; -473.000; -285.000
272.148;  105.950;  462.000;  468.000
272.289;    6.650; -113.000; -181.000
272.429;   14.975;   19.000;  185.000
272.570; -108.775; -633.000; -737.000
272.710;  -77.975; -825.000; -775.000
272.851;  -35.125;  113.000; -130.000
272.991; -160.700;-1173.000;-1077.000
273.131;  -64.575; -419.000; -459.000
273.272;  -87.150; -683.000; -723.000
273.412;   -5.850; -143.000;  -31.000
273.553;  -59.925; -488.000; -507.000
273.693;  128.075;  913.000;  858.000
273.834;  -98.850; -894.000; -692.000
273.974;  -87.050; -664.000; -615.000
274.114; -108.750; -772.000; -560.000
274.255;   56.025;  414.000;  373.000
274.395;    2.900; -180.000; -125.000
274.535;   26.875;  199.000;  350.000
274.676;   28.450;  225.000;   94.000
274.816;    2.825;  110.000;   34.000
274.956;  -82.050; -624.000; -690.000
275.097;  -82.250;-1014.000; -922.000
275.237; -108.775; -913.000; -803.000
275.377; -107.900; -778.000; -689.000
275.517; -144.550; -878.000; -937.000
275.658;  -74.450; -590.000; -555.000
275.798;  -76.550; -606.000; -413.000
275.938;   13.925;  215.000;  323.000
276.078;  -94.650; -626.000; -395.000
276.218;    2.675;   99.000;  104.000
276.359; -142.800;-1026.000;-1024.000
276.499;  -76.975; -605.000; -446.000
276.639;  -37.175; -305.000; -151.000
276.779;  -51.500; -475.000; -357.000
276.919;  -99.775; -783.000; -624.000
277.059;  -25.800; -261.000; -212.000
277.199;  -43.800; -357.000; -259.000
277.340;   32.800;  287.000;  175.000
277.480; -106.125; -840.000; -693.000
277.620;   22.400;  192.000;   16.000
277.760; -202.650;-1533.000;-1294.000
277.900;    6.250;  113.000;   33.000
278.040;   16.750;  137.000;  159.000
278.180;   31.675;  270.000;  170.000
278.320;   -9.275;   21.000;   56.000
278.460;  -67.825; -443.000; -469.000
278.600;  -98.975; -708.000; -598.000
278.740;   43.400;  448.000;  224.000
278.880;  -69.375; -768.000; -791.000
279.020;  -17.150; -194.000; -144.000
279.160; -100.425; -672.000; -595.000
279.300; -116.200; -926.000; -873.000
279.440;  -96.000; -709.000; -622.000
279.579;  -42.100;-1014.000; -929.000
279.719;  -41.725; -410.000; -394.000
279.859;   72.275;   -4.000;   41.000
279.999;   14.325; -208.000;  101.000
280.139;  -26.250; -435.000; -387.000
280.279;  -88.975; -708.000; -745.000
280.419;  -25.950; -229.000; -147.000
280.559;  -32.200; -259.000; -180.000
280.698;  -89.175; -790.000; -639.000
280.838;  -95.075; -778.000; -800.000
280.978; -115.900; -846.000; -790.000
281.118; -107.975; -811.000; -704.000
281.257;    6.400;   24.000;    6.000
281.397; -128.850;-1094.000; -960.000
281.537; -101.950; -599.000; -712.000
281.677;  -22.925; -150.000; -101.000
281.816;  -99.800; -700.000; -630.000
281.956;  -44.225; -193.000; -257.000
282.096;  -61.550; -539.000; -396.000
282.235; -106.350; -672.000; -638.000
282.375;  -31.850; -243.000;  -98.000
282.515; -104.725; -715.000; -707.000
282.654;   17.200;   29.000;  106.000
282.794;   11.000;  388.000;  244.000
282.934;  -50.650; -530.000; -491.000
283.073; -141.750;-1030.000; -857.000
283.213;  -56.650; -460.000; -467.000
283.353;  -47.225; -408.000; -349.000
283.492;  -35.200; -264.000; -296.000
283.632;  -36.675; -254.000; -168.000
283.771;  -91.875; -859.000; -730.000
283.911;  -59.200; -369.000; -260.000
284.050;  -98.375; -794.000; -748.000
284.190; -161.025;-1229.000;-1096.000
284.329; -144.450;-1055.000; -964.000
284.469;  -73.325; -516.000; -591.000
284.608;  -56.650; -559.000; -598.000
284.748;  -86.450; -614.000; -570.000
284.887;  -22.175;  -87.000;  -20.000
285.027; -118.950; -844.000; -892.000
285.166;  -41.500; -192.000; -249.000
285.306;    5.475; -116.000;  -33.000
285.445;  -49.550; -229.000; -343.000
285.584;  -83.650; -630.000; -494.000
285.724;  -57.175; -282.000; -322.000
285.863; -110.075; -857.000; -507.000
286.002;  -60.200; -366.000; -276.000
286.142; -115.275; -715.000; -622.000
286.281;  -81.025; -525.000; -493.000
286.420;  -72.650; -554.000; -417.000
286.560;   92.525;  653.000;  623.000
286.699; -147.650; -958.000; -912.000
286.838;  -97.175; -590.000; -591.000
286.978;  -98.625; -533.000; -537.000
287.117; -140.625;-1085.000; -950.000
287.256;  -35.325; -228.000; -211.000
287.395;  -65.375; -197.000; -378.000
287.535;  -53.625; -370.000; -298.000
287.674;  -87.650; -509.000; -484.000
287.813;   58.325;  661.000;  533.000
287.952; -124.425;-1010.000; -871.000
288.091; -156.725;-1049.000; -915.000
288.231;    9.125;   13.000;   15.000
288.370; -188.825;-1217.000;-1200.000
288.509;  -82.625; -728.000; -645.000
288.648;  -99.925; -770.000; -548.000
288.787;  -47.225; -243.000;  -87.000
288.926;  -73.850; -454.000; -475.000
289.065;   96.125;  859.000;  672.000
289.204;  -61.675; -377.000; -217.000
289.344; -101.625; -791.000; -690.000
289.483;   18.975;  416.000;  304.000
289.622;  -42.475; -291.000; -149.000
289.761;  -23.600; -309.000; -166.000
289.900; -122.050; -785.000; -626.000
290.039;   -5.175;  -12.000;  -95.000
290.178;  -29.900; -274.000; -180.000
290.317;  -89.225; -618.000; -479.000
290.456;  -73.025; -463.000; -451.000
290.595; -141.825; -961.000; -833.000
290.734; -136.250; -904.000; -891.000
290.873;  -70.475; -456.000; -420.000
291.011; -116.725; -833.000; -843.000
291.150; -102.100; -770.000; -682.000
291.289;  -19.825; -343.000; -110.000
291.428;  -91.675; -599.000; -480.000
291.567;  -57.225; -370.000; -442.000
291.706;   -0.975;  109.000;  154.000
291.845; -101.525; -597.000; -505.000
291.984; -166.100;-1234.000;-1061.000
292.122;   66.675;  602.000;  582.000
292.261;   35.975;  620.000;  463.000
292.400;    2.600; -144.000;  211.000
292.539; -125.925; -959.000; -813.000
292.678;  -40.175; -325.000; -300.000
292.816; -153.700;-1136.000; -965.000
292.955; -100.850; -844.000; -684.000
293.094;  -21.325; -173.000; -337.000
293.233;  -64.075; -556.000; -400.000
293.371;  -29.650; -225.000;  -84.000
293.510; -111.125; -866.000; -780.000
293.649; -140.900; -959.000; -924.000
293.787;  -91.350;-1083.000;-1012.000
293.926;   -8.575; -113.000;  -32.000
294.065;  -56.625; -379.000; -290.000
294.203;   45.975;  298.000;  406.000
294.342;    4.225;   74.000;  156.000
294.481; 5485.425;51180.000; -836.000
294.619;  -35.900; -425.000; -582.000
294.758; -153.375;-1230.000;-1137.000
294.896;   48.075; -125.000;    5.000
295.035; -126.100;-1040.000;-1006.000
295.174; -132.525;-1082.000; -954.000
295.312;  -45.075; -323.000; -203.000
295.451;  -22.225; -307.000; -428.000
295.589;  -57.525; -389.000; -518.000
295.728;   19.075; -292.000; -165.000
295.866;   -6.275;  -36.000;  -51.000
296.005;  -61.900; -584.000; -341.000
296.143;  -65.125; -558.000; -596.000
296.282; -110.950; -957.000; -881.000
296.420;  -96.775; -657.000; -557.000
296.559;  -98.975; -892.000; -633.000
296.697;    1.700; -847.000; -665.000
296.835;    9.875;-1141.000;-1002.000
296.974;   38.775;  -23.000;   39.000
297.112;  -20.050; -443.000; -504.000
297.251;  -84.750; -815.000; -755.000
297.389;   61.175; -576.000; -438.000
297.527;   23.775; -145.000;  -83.000
297.666;  -59.550; -486.000; -438.000
297.804;  -55.725; -404.000; -264.000
297.942;  -13.225; -136.000; -161.000
298.081;   -5.675; -183.000;   63.000
298.219;   50.825;  -17.000;  -19.000
298.357;   50.525; -144.000;  -71.000
298.495;    5.950; -810.000; -812.000
298.634;   57.825;  245.000;  219.000
298.772;   29.825; -220.000; -338.000
298.910;  -56.775; -309.000; -182.000
299.048;  -12.250; -130.000; -153.000
299.187;  -39.325; -350.000; -250.000
299.325;   14.650;   52.000;  122.000
299.463;   28.450; -389.000; -299.000
299.601;   72.425; -327.000; -271.000
299.739; -119.825; -908.000; -883.000
299.877;  -91.125; -791.000; -703.000
300.016;  -63.675;-1095.000; -935.000
300.154;  136.775;  -19.000; -161.000
300.292;   30.400; -428.000; -348.000
300.430;    8.775; -408.000; -291.000
300.568; -104.850; -940.000; -874.000
300.706;  -63.975; -366.000; -469.000
300.844;  -78.425;-1108.000; -979.000
300.982;   93.375;  246.000;  282.000
301.120; -111.100; -965.000; -866.000
301.258;  -79.075; -812.000; -705.000
301.396;   32.225;  104.000;  -41.000
301.534;   46.150; -218.000; -293.000
301.672;  -16.775; -664.000; -521.000
301.810;    5.525; -613.000; -545.000
301.948;   84.000;   53.000;  149.000
302.086;  551.550; -250.000;  -32.000
302.224;  812.725; -610.000; -585.000
302.362;   19.250; -558.000; -622.000
302.500;  -40.975; -923.000; -893.000
302.638;   71.275;  128.000;  245.000
302.776;  -16.000; -352.000; -408.000
302.913;   34.450;  447.000;  236.000
303.051;   -5.375;  -86.000;  -23.000
303.189;   33.425;   90.000;  118.000
303.327;  -47.150; -341.000; -256.000
303.465;  -88.325; -832.000; -588.000
303.603; -103.350; -805.000; -604.000
303.740;   84.800;  417.000;  241.000
303.878;  -11.825; -800.000; -759.000
304.016; -104.650; -915.000; -790.000
304.154; -125.800;-1123.000;-1152.000
304.291;  -52.275; -505.000; -554.000
304.429;   -1.275;  102.000;   74.000
304.567; -133.025; -908.000; -893.000
304.705;  -50.575; -408.000; -515.000
304.842;   52.325; -616.000; -540.000
304.980;   44.125;  215.000;   35.000
305.118;   14.600; -367.000; -365.000
305.255;  -94.875; -945.000; -927.000
305.393;   43.725;  178.000;  239.000
305.531; -116.500;-1173.000; -956.000
305.668;  -77.175; -663.000; -582.000
305.806;   99.925; -358.000; -439.000
305.943;   73.850; -629.000; -637.000
306.081;   38.825; -378.000; -267.000
306.219; -116.350; -863.000; -748.000
306.356;   -7.025;  158.000;   27.000
306.494;   90.825;  981.000;  761.000
306.631;   -4.500;  -11.000;  -55.000
306.769;  -17.075; -613.000; -485.000
306.906;  -45.475; -284.000; -258.000
307.044;  -71.825; -473.000; -488.000
307.181;  -69.975; -410.000; -332.000
307.319;   -7.125;  112.000;   87.000
307.456; -178.650;-1191.000;-1153.000
307.594; -106.500; -980.000; -727.000
307.731;  -18.575; -371.000; -164.000
307.868;  -24.375;  -15.000;   20.000
308.006; -128.125; -961.000; -847.000
308.143;  -63.750; -618.000; -330.000
308.281;  129.725;  -37.000; -254.000
308.418;  -32.625; -748.000; -640.000
308.555;  -69.175; -400.000; -250.000
308.693;  -87.575; -577.000; -573.000
308.830; -116.175; -712.000; -657.000
308.967;  -30.775; -215.000;  -95.000
309.105;  -63.775; -507.000; -396.000
309.242;    7.900; -468.000; -367.000
309.379;  229.750; -577.000; -655.000
309.517;  -99.225; -936.000; -948.000
309.654; -110.025; -910.000; -734.000
309.791;  -92.325; -662.000; -580.000
309.928; -123.375; -977.000; -914.000
310.065;  160.850;  819.000;  697.000
310.203;  -33.025; -825.000; -850.000
310.340;  -33.575; -465.000; -321.000
310.477;  -78.150; -412.000; -516.000
310.614;  -94.300; -383.000; -473.000
310.751;  -80.125; -427.000; -518.000
310.889;  -41.000;    1.000;   11.000
311.026; -164.500;-1161.000; -939.000
311.163;  -50.250; -386.000; -380.000
311.300;  -82.025; -512.000; -479.000
311.437;  -89.575; -658.000; -619.000
311.574; -155.950;-1226.000; -985.000
311.711;  -75.525; -595.000; -433.000
311.848;  -44.625; -380.000; -388.000
311.985;   -5.175;  270.000;   93.000
312.122; -120.075; -932.000; -762.000
312.259; -124.600; -941.000; -994.000
312.396;  -83.300; -508.000; -551.000
312.533; -107.125; -812.000; -790.000
312.670; -141.650;-1070.000; -898.000
312.807;  -46.850; -352.000; -367.000
312.944;  -92.575; -513.000; -611.000
313.081;  -48.800; -150.000; -415.000
313.218; -104.325;-1111.000; -867.000
313.355;   -6.225; -531.000; -449.000
313.492;   -5.925; -455.000; -292.000
313.629;  125.450;  815.000;  735.000
313.766; -164.425;-1176.000;-1008.000
313.902;  -24.275; -186.000;   21.000
314.039;  -63.325; -372.000; -289.000
314.176;   23.650;  286.000;  192.000
314.313;  -84.500; -569.000; -473.000
314.450;  -82.000; -788.000; -684.000
314.587;  -74.225; -468.000; -480.000
314.723;   -7.525;  -78.000;  130.000
314.860;   24.225;  318.000;  332.000
314.997;   16.650;  223.000;  142.000
315.134;  -53.025; -385.000; -368.000
315.270;  -36.400; -480.000; -496.000
315.407; -135.500;-1094.000; -967.000
315.544;  -75.275; -657.000; -538.000
315.681;  -76.475; -681.000; -565.000
315.817;   12.575; -133.000; -176.000
315.954;  -12.275; -613.000; -392.000
316.091; -131.875;-1045.000;-1023.000
316.227;  -31.800;  -71.000; -179.000
316.364;  -25.075;   23.000;    6.000
316.500;  -43.300; -113.000; -300.000
316.637;  -48.500; -181.000; -302.000
316.774;  -84.875; -625.000; -358.000
316.910; -107.075; -598.000; -629.000
317.047;  -77.750; -487.000; -351.000
317.183;  -63.250; -435.000; -566.000
317.320;   -8.250; -367.000; -321.000
317.456;  -76.150; -733.000; -805.000
317.593; -104.550; -598.000; -641.000
317.729;   -9.100;  168.000;  -67.000
317.866; -196.050;-1434.000;-1285.000
318.002;  -93.100; -708.000; -948.000
318.139; -102.875; -883.000; -867.000
318.275; -118.600;-1003.000; -738.000
318.412;  -53.175; -517.000; -336.000
318.548;  -48.525; -751.000; -720.000
318.685;  -98.450; -985.000; -888.000
318.821; -105.700; -762.000; -735.000
318.957;  -20.525;   34.000;  -23.000
319.094;   33.975;  297.000;  154.000
319.230;  -67.400; -756.000; -742.000
319.367;   87.775; -471.000; -520.000
319.503;   38.000; -538.000; -436.000
319.639; -110.175; -877.000; -793.000
319.775;  -64.775; -750.000; -685.000
319.912;  -63.750; -424.000; -519.000
320.048;  -97.525;-1184.000;-1184.000
320.184;   64.250;   59.000;   70.000
320.321;  -62.100; -497.000; -467.000
320.457;   56.725;  475.000;  662.000
320.593;  -63.625; -375.000; -382.000
320.729; -117.075; -732.000; -734.000
320.866;  -80.275; -577.000; -635.000
321.002; -102.025; -759.000; -809.000
321.138;  -28.600; -135.000; -211.000
321.274;   69.325; -148.000; -115.000
321.410;  -31.600; -585.000; -353.000
321.546;  -60.525;-1011.000; -911.000
321.683;   49.475;  400.000;  185.000
321.819;  -10.450;  -48.000; -117.000
321.955; -116.525; -743.000; -722.000
322.091;  -47.250; -585.000; -540.000
322.227;  -29.325; -382.000; -202.000
322.363;  -32.975; -320.000; -215.000
322.499;  -52.850; -343.000; -331.000
322.635;  137.700;  636.000;  443.000
322.771;   24.125; -139.000;   12.000
322.907;   72.675;  129.000;  327.000
323.043;  -35.925; -115.000; -206.000
323.179;  -50.950; -394.000; -363.000
323.315;   -8.425; -401.000; -371.000
323.451;   68.425; -328.000; -236.000
323.587;   47.900;  -60.000;  -77.000
323.723;    0.600; -682.000; -601.000
323.859;  -31.775; -258.000;  -76.000
323.995;  -39.525; -467.000; -409.000
324.131; -124.500; -967.000; -892.000
324.267;  -37.575; -254.000; -276.000
324.402; -133.550; -960.000; -983.000
324.538;  -26.500; -279.000; -104.000
324.674;   10.725;  164.000;   77.000
324.810;  102.125;  226.000;  308.000
324.946;  -30.225; -810.000; -658.000
325.082;  -79.700; -568.000; -475.000
325.217;   -8.700;  -62.000;   16.000
325.353; -118.825; -764.000; -659.000
325.489;  -98.625; -540.000; -506.000
325.625;  -84.950; -579.000; -525.000
325.760;   63.025;  517.000;  376.000
325.896;  -42.300; -515.000; -702.000
326.032;  -52.600; -403.000; -352.000
326.168;  -64.900; -462.000; -369.000
326.303;  -61.775; -352.000; -461.000
326.439;  -30.725; -336.000; -276.000
326.575;   -9.275; -190.000;  -29.000
326.710;  -19.600; -156.000;  -30.000
326.846;  -17.725;  146.000;  103.000
326.982;  -88.700; -530.000; -548.000
327.117;  -75.675; -481.000; -442.000
327.253; -105.075; -745.000; -742.000
327.388; -128.750;-1137.000;-1153.000
327.524;  -82.025; -811.000; -578.000
327.659;  -36.475;  -58.000;  -22.000
327.795;  -16.700;   69.000;   45.000
327.931;  -80.350; -723.000; -499.000
328.066;  -39.200; -417.000; -276.000
328.202;  -36.550;   12.000; -129.000
328.337;   87.325;  957.000;  713.000
328.473;   24.450;  -12.000;  -74.000
328.608;  -30.825; -256.000; -267.000
328.743;  -89.825; -799.000; -664.000
328.879;   18.750;  214.000;  114.000
329.014;  -39.875; -102.000; -122.000
329.150;  -97.250; -358.000; -483.000
329.285;  -82.450; -465.000; -466.000
329.421;  -59.800; -548.000; -246.000
329.556;  -33.850;  -36.000;   85.000
329.691; -121.700; -633.000; -615.000
329.827;  -83.625; -626.000; -480.000
329.962;  -52.050;  131.000; -301.000
330.097;  -95.550; -673.000; -585.000
330.233;  -55.625; -410.000; -223.000
330.368; -128.425; -839.000; -628.000
330.503;  -18.025;    3.000;   98.000
330.638;   -2.425;  -93.000; -125.000
330.774;  -79.675; -609.000; -530.000
330.909;  -53.300; -434.000; -244.000
331.044; -108.150; -714.000; -708.000
331.179; -178.275;-1217.000;-1109.000
331.315;    0.850;   77.000;   20.000
331.450;   14.775;  157.000;  285.000
331.585;  -98.200; -805.000; -706.000
331.720;  -78.775; -510.000; -460.000
331.855;  -11.975;  -35.000; -102.000
331.990;  254.075;   62.000;  138.000
332.126;  126.200; -110.000;   71.000
332.261;   -9.925; -379.000; -265.000
332.396;   -7.950; -135.000; -242.000
332.531;  -94.025;-1074.000;-1031.000
332.666;   39.475; -519.000; -363.000
332.801; -106.350; -726.000; -807.000
332.936;  -38.225; -192.000; -122.000
333.071; -161.625; -870.000; -817.000
333.206;    0.575;  307.000;  379.000
333.341;   22.150;  344.000;  418.000
333.476; -101.100; -627.000; -623.000
333.611;  -38.025; -251.000; -173.000
333.746;  -54.125; -381.000; -464.000
333.881; -125.250; -973.000; -935.000
334.016; -144.500; -936.000; -917.000
334.151; -123.325; -746.000; -702.000
334.286;   14.575;  152.000;  186.000
334.421;  -15.150; -125.000; -178.000
334.556; -106.600; -611.000; -567.000
334.690;  -85.100; -631.000; -577.000
334.825;   40.725;  381.000;   83.000
334.960;  -74.900; -285.000; -413.000
335.095;   -2.150;  135.000;  -91.000
335.230; -105.375; -722.000; -738.000
335.365; -146.150;-1084.000; -990.000
335.499; -127.500;-1108.000;-1037.000
335.634;    2.625;    9.000;  534.000
335.769; -108.775; -755.000; -720.000
335.904;  -73.875; -603.000; -561.000
336.038;  -71.925; -735.000; -657.000
336.173; -121.400;-1206.000;-1194.000
336.308;   -3.350; -116.000; -189.000
336.443;   13.750; -544.000; -634.000
336.577;  -81.125; -936.000; -787.000
336.712;   51.750;   -4.000;  -12.000
336.847;  -47.725; -724.000; -607.000
336.981;   40.500; -272.000; -208.000
337.116;  246.475;  615.000;  501.000
337.250;  111.400; -434.000; -421.000
337.385;  282.975; -297.000; -208.000
337.520;  102.050; -632.000; -603.000
337.654;  -47.900; -215.000; -126.000
337.789; -145.650; -989.000; -933.000
337.923;  -42.925; -104.000; -205.000
338.058;  -97.425; -673.000; -738.000
338.192;  -43.475; -611.000; -488.000
338.327;  -25.225;  -18.000; -155.000
338.461;  -60.325; -299.000; -469.000
338.596;  -92.325; -780.000; -638.000
338.730; -100.150; -767.000; -803.000
338.865;   75.800;  -46.000; -140.000
338.999;  -45.875; -846.000; -702.000
339.134;  -36.850; -634.000; -536.000
339.268;   14.150; -741.000; -603.000
339.403;  374.450; -740.000; -775.000
339.537;  129.200; -894.000; -820.000
339.671; -120.275; -829.000; -813.000
339.806;  -61.850; -556.000; -512.000
339.940;   -4.100; -261.000; -235.000
340.074; -107.500; -685.000; -510.000
340.209;  -42.600; -351.000; -230.000
340.343;  -96.750; -517.000; -573.000
340.477;  135.300;  998.000; 1036.000
340.612;  -41.475;-1033.000; -900.000
340.746;  145.300; -199.000; -243.000
340.880;  -83.250; -924.000; -785.000
341.014;  -31.550;  -45.000; -154.000
341.149; -103.350; -756.000; -718.000
341.283; -105.125; -839.000; -754.000
341.417; -110.025;-1124.000; -938.000
341.551;   76.225; -768.000; -708.000
341.685;  -30.000; -633.000; -611.000
341.820;  -73.100; -562.000; -493.000
341.954;  -59.925; -218.000; -349.000
342.088; -165.825;-1102.000;-1019.000
342.222;   49.925;  565.000;  618.000
342.356;  -71.600; -395.000; -335.000
342.490; -106.425; -880.000; -841.000
342.624;  -60.850; -339.000; -242.000
342.758;   -5.775; -364.000; -312.000
342.892;  -81.025; -710.000; -585.000
343.026;  -40.450;  -58.000; -116.000
343.160;  -71.125; -426.000; -376.000
343.294;  -93.825; -474.000; -337.000
343.428;  -53.975; -488.000; -448.000
343.562;  -26.100; -172.000;  -23.000
343.696;  -33.175; -385.000; -314.000
343.830;  -37.525; -362.000; -356.000
343.964;    0.050; -231.000; -168.000
344.098;  774.925;  199.000;   70.000
344.232;  649.100; -266.000; -127.000
344.366;   77.250; -567.000; -453.000
344.500;   18.550; -665.000; -744.000
344.634;    5.950; -324.000; -164.000
344.768;  -42.000; -531.000; -341.000
344.902;   22.625;  278.000;  256.000
345.035;  -73.050; -556.000; -496.000
345.169; -130.150; -933.000; -656.000
345.303;  -30.450; -308.000; -482.000
345.437;  -85.625; -826.000; -717.000
345.571;  -81.100; -675.000; -594.000
345.704;  -65.800; -309.000; -532.000
345.838;  -33.075; -331.000; -284.000
345.972;  -54.425; -543.000; -495.000
346.106;  173.925; -179.000; -190.000
346.239;  392.975; -312.000; -243.000
346.373;  -26.150; -343.000; -302.000
346.507; -148.850; -950.000; -962.000
346.640;  111.625;  -30.000;   13.000
346.774;  -61.125; -650.000; -797.000
346.908;  -22.175; -138.000;  -11.000
347.041;  -94.125; -646.000; -593.000
347.175;  -14.300;  259.000;   27.000
347.309;  -82.825; -698.000; -628.000
347.442; -116.200; -883.000; -732.000
347.576;  234.225;  670.000;  668.000
347.709;  140.425; -123.000;  -52.000
347.843; -108.050; -933.000; -825.000
347.976;   18.975;  235.000;  294.000
348.110; -183.725;-1268.000;-1186.000
348.243; -112.400; -679.000; -772.000
348.377;   -3.000;  -26.000;   60.000
348.510;   36.225;  403.000;  540.000
348.644;  -42.075;  -37.000; -159.000
348.777;  -12.175;  180.000;  191.000
348.911;  -61.600; -142.000; -112.000
349.044;  142.600;  471.000;  448.000
349.178;  133.725;-1069.000;-1006.000
349.311;  104.700;  141.000;  255.000
349.444;    7.100; -927.000; -813.000
349.578;  -24.525; -347.000; -200.000
349.711; -114.700; -959.000; -862.000
349.845;  -30.350; -661.000; -591.000
349.978; -155.425;-1224.000;-1137.000
350.111; -104.700; -546.000; -612.000
350.244;  -91.375; -596.000; -700.000
350.378;  -17.250; -392.000; -393.000
350.511;  -78.200; -393.000; -426.000
350.644; -121.025; -808.000; -806.000
350.778;   -3.675;  168.000;  104.000
350.911;  -15.525;  134.000;  140.000
351.044;  -96.875; -685.000; -615.000
351.177;  -35.675; -321.000; -281.000
351.310;  -34.950;    3.000; -131.000
351.444; -102.075; -888.000; -788.000
351.577;   88.050;  140.000;   90.000
351.710;   80.200;  593.000;  417.000
351.843;  -37.150; -165.000;  -77.000
351.976;  -13.050;  149.000;  -79.000
352.109;  -99.975; -621.000; -612.000
352.242;  -43.175; -464.000; -419.000
352.376;  -72.825; -580.000; -636.000
352.509;  124.575; -437.000; -356.000
352.642;   -0.775; -654.000; -604.000
352.775;   49.475; -141.000;  -98.000
352.908; -115.375; -933.000; -904.000
353.041; -117.425; -814.000; -824.000
353.174;  -69.300; -551.000; -424.000
353.307;  -91.650; -753.000; -764.000
353.440;   72.125;  541.000;  453.000
353.573; -116.625; -957.000;-1008.000
353.706;  -64.650; -384.000; -558.000
353.839;  -25.750; -264.000; -220.000
353.971; -101.975; -657.000; -512.000
354.104;  -97.025; -896.000; -835.000
354.237;  -55.050; -627.000; -662.000
354.370;  -99.725; -846.000; -879.000
354.503; -180.650;-1231.000;-1308.000
354.636;  -61.825; -529.000; -348.000
354.769; -124.150; -937.000; -860.000
354.902;  -27.875; -230.000; -139.000
355.034;  -22.650; -164.000; -220.000
355.167;  -39.700; -262.000; -162.000
355.300;  -96.500;-1061.000; -880.000
355.433;  978.525;  -71.000;  -14.000
355.565; 1565.075; -402.000; -384.000
355.698;  385.525; -356.000; -296.000
355.831;  -22.075; -882.000; -801.000
355.964;   55.475; -285.000; -170.000
356.096;  -90.850; -856.000; -843.000
356.229;  -21.250; -523.000; -530.000
356.362;  320.225; -373.000; -266.000
356.494;  630.350; -229.000; -162.000
356.627;  426.275;  269.000;  377.000
356.760;  664.100;  120.000;   53.000
356.892; 1000.725; -286.000; -601.000
357.025;  559.500;  403.000;  389.000
357.157;  513.975; -167.000; -179.000
357.290;  742.075; -856.000; -713.000
357.423;  212.900; -667.000; -556.000
357.555;   96.000; -217.000; -228.000
357.688;  106.850; -483.000; -364.000
357.820;  410.200; -870.000; -877.000
357.953; 3393.050; -563.000; -589.000
358.085;  691.475; -632.000; -612.000
358.218;  861.850;-1131.000; -932.000
358.350;  151.150;  -58.000;  312.000
358.483; -132.400;-1300.000;-1187.000
358.615;  -64.100;-1182.000;-1078.000
358.747;  -77.725;-1187.000;-1058.000
358.880;  -16.775; -810.000; -744.000
359.012;  -12.200; -376.000; -202.000
359.145;  -59.650; -480.000; -511.000
359.277;   38.525; -962.000; -913.000
359.409; 2786.875;  536.000;  231.000
359.542;  713.450; -738.000; -688.000
359.674;   52.400;   46.000;   13.000
359.806;  -60.250; -565.000; -438.000
359.939;  -38.150; -617.000; -516.000
360.071;  -18.500; -583.000; -579.000
360.203;  -24.925; -411.000; -364.000
360.335;   47.175;  164.000;  -16.000
360.468;  159.150; -249.000; -307.000
360.600; 2268.750; -547.000; -454.000
360.732; 2991.575; -546.000; -423.000
360.864;  420.925;-1216.000;-1044.000
360.996;  198.050; -516.000; -554.000
361.129;   19.325; -389.000; -598.000
361.261;    7.575;  110.000; -113.000
361.393;  -30.200; -252.000; -214.000
361.525;   14.275;   94.000;  244.000
361.657;  -54.300; -821.000; -703.000
361.789;   -3.800; -139.000; -155.000
361.921;  139.675; -642.000; -593.000
362.053;  194.550;  524.000;  541.000
362.185;   28.175;  288.000;   72.000
362.318;  -90.050; -709.000; -705.000
362.450;   88.425;  294.000;  444.000
362.582;   13.150; -913.000; -870.000
362.714;  -51.100; -353.000; -332.000
362.846; -100.875; -606.000; -490.000
362.978; -147.425; -941.000; -811.000
363.109;   14.250; -161.000; -260.000
363.241;  345.250; -739.000; -749.000
363.373;  435.025; -649.000; -564.000
363.505;  695.000; -186.000;  -91.000
363.637;  162.725; -787.000; -601.000
363.769; -117.350;-1067.000;-1080.000
363.901;  -77.375; -596.000; -654.000
364.033; -128.275;-1103.000;-1062.000
364.165;  -14.975; -283.000; -283.000
364.296;   52.425; -316.000; -177.000
364.428;   55.725;-1344.000;-1220.000
364.560;  -71.050; -679.000; -661.000
364.692;  -80.675; -738.000; -835.000
364.824;  189.425; -588.000; -456.000
364.955;  406.875; -402.000; -564.000
365.087; 1010.500;-1097.000; -852.000
365.219;   32.400; -686.000; -816.000
365.351;  -78.450; -526.000; -572.000
365.482;   30.700;  300.000;  240.000
365.614;  -49.075; -402.000; -314.000
365.746; -113.475; -729.000; -752.000
365.877; -105.450; -706.000; -672.000
366.009;  271.525;  -35.000;  -62.000
366.141;  -85.800;-1249.000;-1134.000
366.272; -110.375; -803.000; -719.000
366.404; -127.975;-1005.000; -874.000
366.535;  -22.500; -139.000;  -12.000
366.667;  -98.750; -644.000; -649.000
366.799;   31.950;  353.000;  203.000
366.930; -125.225; -862.000; -996.000
367.062;  112.950; -639.000; -613.000
367.193;  163.675; -872.000; -842.000
367.325;  -60.425; -580.000; -684.000
367.456;   26.850; -246.000;   31.000
367.588;  163.025; -371.000; -318.000
367.719;   14.425;  -44.000;  -45.000
367.851;  -24.100; -222.000; -241.000
367.982;  -63.650; -875.000; -732.000
368.113;   50.100; -475.000; -358.000
368.245; -127.050; -960.000; -841.000
368.376;  -35.075; -254.000; -302.000
368.508;  -39.350; -188.000; -263.000
368.639; -145.750;-1166.000;-1034.000
368.770;  -40.375; -670.000; -589.000
368.902;  -93.225; -836.000; -926.000
369.033; -116.850; -906.000; -855.000
369.164;  -59.300; -720.000; -653.000
369.296;  -91.875; -452.000; -601.000
369.427;  -18.075; -209.000; -144.000
369.558;  -53.750; -593.000; -377.000
369.689;  -96.950; -721.000; -569.000
369.821; -136.300; -951.000; -845.000
369.952;  -27.025;   42.000; -108.000
370.083;  -48.050; -229.000; -108.000
370.214;  -92.775; -735.000; -650.000
370.345;   -7.025;   65.000;   81.000
370.477; -110.325; -810.000; -790.000
370.608;  178.725; -328.000; -264.000
370.739;  -70.825;-1233.000;-1292.000
370.870;  -60.350;-1102.000; -923.000
371.001;   57.400; -378.000; -467.000
371.132;  -91.875; -754.000; -735.000
371.263;  -40.000;  -42.000; -148.000
371.394; -127.225; -841.000; -748.000
371.525;   15.975;  345.000;  225.000
371.657;  -90.875; -808.000; -670.000
371.788;   62.950;  103.000;  199.000
371.919;  114.325; -384.000; -304.000
372.050; 3176.850;  -91.000; -156.000
372.181;  930.225; -188.000; -294.000
372.311;  303.250;   42.000; -127.000
372.442;   23.575; -457.000; -451.000
372.573;  -30.900; -444.000; -340.000
372.704; -128.150;-1008.000; -980.000
372.835;   36.650; -228.000; -289.000
372.966;  -68.475; -646.000; -554.000
373.097;  -91.400; -575.000; -711.000
373.228;  -48.775; -717.000; -542.000
373.359;   80.200; -824.000; -536.000
373.490;  756.275; -881.000; -727.000
373.620;  962.725;-1001.000; -803.000
373.751; 1488.550; -332.000; -396.000
373.882;  641.900; -663.000; -733.000
374.013;   52.325; -449.000; -262.000
374.143;  -52.125; -581.000; -659.000
374.274; -120.300; -987.000; -908.000
374.405;  128.575; -388.000; -276.000
374.536;  369.700; -526.000; -387.000
374.666;  897.300; -759.000; -807.000
374.797;  168.225; -817.000; -868.000
374.928;  673.200; -710.000; -560.000
375.058;  746.800; -535.000; -500.000
375.189;   54.150;  -59.000;  -93.000
375.320; -103.250; -928.000;-1034.000
375.450;  -61.200; -625.000; -616.000
375.581;  -62.575; -526.000; -436.000
375.712;  -46.350; -574.000; -250.000
375.842;  225.800; -438.000; -415.000
375.973;  168.875; -554.000; -513.000
376.103;  -69.550; -665.000; -648.000
376.234;  -93.000; -531.000; -552.000
376.364;  -63.600; -944.000; -867.000
376.495;  274.925;  925.000;  529.000
376.625;  -37.175; -472.000; -485.000
376.756;   23.550; -709.000; -678.000
376.886;  -95.225;-1178.000;-1026.000
377.017;   55.750;-1048.000;-1061.000
377.147;  384.925; -786.000; -782.000
377.278;   50.525;  174.000;  228.000
377.408; -125.100; -801.000; -815.000
377.538; -110.125; -707.000; -693.000
377.669;  -92.875; -537.000; -613.000
377.799; -113.575; -645.000; -635.000
377.929;  -82.175; -610.000; -428.000
378.060; -135.900; -781.000; -847.000
378.190;  -59.025; -726.000; -531.000
378.320;  -54.175; -401.000; -406.000
378.451;  -17.200; -131.000;  -22.000
378.581;  -29.375;  -67.000; -110.000
378.711;  126.925; 1035.000;  866.000
378.841;  -56.975; -533.000; -675.000
378.972;  -83.375; -871.000; -751.000
379.102;  -20.725; -652.000; -579.000
379.232;  -25.250; -126.000;  -73.000
379.362; -130.100;-1001.000; -885.000
379.492;   -1.350; -373.000; -424.000
379.623;   86.225;    0.000;  111.000
379.753; -118.625;-1107.000; -974.000
379.883;  158.950;   59.000;  156.000
380.013;  -22.100;-1081.000;-1017.000
380.143; -117.075;-1097.000;-1056.000
380.273; -112.475; -985.000; -861.000
380.403;  -23.775; -344.000; -257.000
380.533;  -50.075; -651.000; -664.000
380.663;   38.800;  173.000;  128.000
380.793; -122.525;-1027.000;-1074.000
380.923;  -41.150; -103.000;  -34.000
381.053; -102.025; -613.000; -623.000
381.183;  -40.525; -106.000; -248.000
381.313;    5.725; -656.000; -470.000
381.443;    5.075; -692.000; -473.000
381.573;  139.475; -402.000; -409.000
381.703;  184.700;-1249.000;-1095.000
381.833; -146.525;-1454.000;-1336.000
381.963;   66.075; -134.000;  -87.000
382.093; 1226.900; -925.000; -909.000
382.223;  359.000; -713.000; -602.000
382.353;  -36.750; -801.000; -608.000
382.482;  291.500;-1091.000; -964.000
382.612;  628.500; -872.000; -644.000
382.742;  344.025; -695.000; -622.000
382.872;  176.550; -565.000; -551.000
383.002;   51.675;  347.000; -132.000
383.131;  -24.550; -226.000; -160.000
383.261;  -64.900; -706.000; -768.000
383.391;  270.475; -552.000; -377.000
383.521; 3422.300;  451.000;  263.000
383.650;  846.475; -947.000; -904.000
383.780;   -9.050; -783.000; -656.000
383.910;   93.200;  880.000;  802.000
384.039;  -17.425; -794.000; -656.000
384.169;  139.150;-1205.000;-1017.000
384.299;  -43.225; -650.000; -662.000
384.428; -108.475; -764.000; -680.000
384.558;  -66.850; -308.000; -275.000
384.687;  -50.275; -414.000; -334.000
384.817;  -13.425;   75.000;   -2.000
384.947;   11.025; -234.000; -141.000
385.076;  236.950;  982.000;  912.000
385.206;  102.500;  369.000;  480.000
385.335;  -54.375; -549.000; -417.000
385.465;  -89.125; -655.000; -663.000
385.594;   93.000;  -53.000;  -44.000
385.724;  314.875; -868.000; -838.000
385.853;   77.350; -296.000; -270.000
385.982; 1157.950; -743.000; -787.000
386.112; 1835.325;-1052.000; -871.000
386.241;  128.325; -307.000; -312.000
386.371;    8.125; -174.000;  -87.000
386.500;  -23.700; -825.000; -789.000
386.629;    9.050; -874.000; -817.000
386.759;   55.925;  -43.000;   68.000
386.888;  -15.125; -170.000; -250.000
387.017;  -87.325; -648.000; -620.000
387.147; -106.500; -771.000; -798.000
387.276;  -26.425; -410.000; -397.000
387.405;  -22.025; -398.000; -342.000
387.535;  -67.625; -452.000; -361.000
387.664;  -76.175; -692.000; -620.000
387.793;   49.100; -198.000; -113.000
387.922;  405.300;  255.000;  200.000
388.052;    2.850; -576.000; -423.000
388.181;  -18.975; -342.000; -472.000
388.310;  -45.900; -889.000; -710.000
388.439;  -75.175; -749.000; -742.000
388.568;  148.725;  365.000;  244.000
388.697;  877.350; -756.000; -653.000
388.826;  162.075; -768.000; -666.000
388.956;   12.475; -285.000; -307.000
389.085;  -44.000; -347.000; -287.000
389.214; -120.150; -842.000; -872.000
389.343;  -78.100; -645.000; -413.000
389.472;  404.900;  126.000;  149.000
389.601;  499.675;   91.000;    0.000
389.730;  -10.450; -568.000; -687.000
389.859;   42.400;  226.000;   46.000
389.988;  131.350; -423.000; -408.000
390.117;  118.775; -168.000; -146.000
390.246;  -40.825; -331.000; -320.000
390.375;   57.150; -673.000; -626.000
390.504;  -88.875; -703.000; -621.000
390.633; -109.350; -672.000; -726.000
390.761;  -84.900; -732.000; -645.000
390.890;   -0.750;   -4.000; -130.000
391.019;  -53.350; -421.000; -441.000
391.148; -135.925; -826.000; -855.000
391.277;  -92.750; -576.000; -493.000
391.406; -105.025; -821.000; -805.000
391.534;    7.175;  574.000; -301.000
391.663;  -90.125; -583.000; -645.000
391.792; -110.175; -673.000; -701.000
391.921;   75.625;   -3.000;   15.000
392.050;  120.900; -287.000; -228.000
392.178;  -72.600;-1206.000;-1061.000
392.307;  103.475; -758.000; -712.000
392.436;   31.350; -427.000; -641.000
392.564;    8.925;  166.000;   -6.000
392.693; -109.325; -860.000; -682.000
392.822;  135.500; -529.000; -534.000
392.950;   57.700; -880.000; -714.000
393.079;  243.950; -188.000; -328.000
393.208;   -0.375; -488.000; -511.000
393.336;  -35.775; -170.000; -145.000
393.465;  -52.550; -317.000; -199.000
393.593;   -8.625;   62.000;   79.000
393.722; -158.750;-1121.000; -916.000
393.850;  -37.925; -188.000;  -61.000
393.979; -158.500; -926.000; -805.000
394.107;  -79.375; -517.000; -537.000
394.236;  -40.400; -570.000; -507.000
394.364;  169.425;  383.000;  206.000
394.493;  286.200; -911.000; -767.000
394.621;  -25.025; -955.000; -916.000
394.750;  747.625; -873.000; -923.000
394.878; 3018.400; -247.000; -149.000
395.007; 4139.400; -721.000; -807.000
395.135;  314.125; -790.000; -721.000
395.263;  -80.225;-1038.000;-1040.000
395.392;  -18.900;  -25.000; -107.000
395.520; -140.725; -818.000; -679.000
395.648; -110.925; -865.000; -915.000
395.777;  -43.000; -366.000; -405.000
395.905;  -63.350; -449.000; -564.000
396.033;    4.850;  217.000;  172.000
396.162;  449.700; -399.000; -453.000
396.290;  411.125;  -17.000;   -2.000
396.418;   55.375; -555.000; -514.000
396.546;  -75.250; -571.000; -466.000
396.674; -114.000; -850.000; -878.000
396.803;   -9.050;  -72.000;  -23.000
396.931;   51.550; -179.000; -199.000
397.059;  -21.200;-1026.000; -989.000
397.187; -134.050;-1026.000; -975.000
397.315; -140.000; -884.000; -649.000
397.443; -119.200; -592.000; -443.000
397.572;  -88.775; -578.000; -424.000
397.700;  -37.875; -607.000; -614.000
397.828;   -7.050;  120.000;  -90.000
397.956;  -67.275; -508.000; -478.000
398.084;  -60.550; -767.000; -626.000
398.212;   16.375;  137.000;  124.000
398.340;   -9.475;  -56.000;  159.000
398.468;    0.975; -390.000; -169.000
398.596; -142.925; -993.000; -953.000
398.724; -131.400; -762.000; -767.000
398.852; -162.400;-1024.000; -976.000
398.980;  -77.725; -560.000; -560.000
399.108;  -68.700; -982.000; -735.000
399.236;   19.150;   13.000;    8.000
399.363;    5.925;  222.000;  196.000
399.491;  -76.750; -404.000; -398.000
399.619; -125.600; -829.000; -800.000
399.747; -116.025; -859.000; -771.000
399.875;   61.625;  220.000;  234.000
400.003;  -67.875; -359.000; -284.000
400.130;  -94.425; -421.000; -341.000
400.258;  -34.975;  -83.000;   38.000
400.386;  -59.550; -352.000; -168.000
400.514;  -70.400; -526.000; -587.000
400.641; -105.675; -928.000; -802.000
400.769; -155.025; -979.000; -888.000
400.897; -124.500; -838.000; -793.000
401.025;  -39.200; -166.000; -152.000
401.152;  -17.075;  220.000;   38.000
401.280;  -77.950; -430.000; -429.000
401.408; -116.125; -712.000; -576.000
401.535; -116.400; -735.000; -758.000
401.663; -189.250;-1134.000;-1054.000
401.790; -101.225; -514.000; -525.000
401.918;   41.975;  436.000;  405.000
402.046;  -30.675;  134.000;  122.000
402.173;  -37.075;  -18.000;    7.000
402.301;  -86.325; -519.000; -397.000
402.428;   36.925;  528.000;  383.000
402.556; -156.225;-1188.000; -913.000
402.683;  -35.100;  -20.000;   -1.000
402.811;  -35.850;  -37.000; -206.000
402.938;  -22.025;   20.000;   27.000
403.066;  145.125; -574.000; -558.000
403.193;  281.550;  299.000;  239.000
403.321;  195.850; -396.000; -574.000
403.448;  281.825;   83.000;   27.000
403.575;  101.800;  -90.000;  -46.000
403.703; -100.075; -732.000; -557.000
403.830;  -77.150; -531.000; -496.000
403.957; -142.325;-1117.000;-1023.000
404.085;   -4.725;  -61.000; -172.000
404.212;   98.100;  -50.000;   63.000
404.339;  282.050; -566.000; -306.000
404.467; 6020.925; -612.000; -524.000
404.594; 3848.825; -287.000; -227.000
404.721;  839.850; -869.000; -764.000
404.848;   74.600; -113.000; -202.000
404.976; -108.175; -856.000; -783.000
405.103;  -22.975;  -14.000;  -82.000
405.230;  -13.275;  190.000;  226.000
405.357;   17.375;  117.000;   44.000
405.484;  267.100;  -49.000;    5.000
405.612;   44.450; -548.000; -563.000
405.739;  -67.275; -488.000; -243.000
405.866;   64.950;  669.000;  385.000
405.993;  -53.875; -398.000; -102.000
406.120; -152.400; -801.000; -887.000
406.247;  -72.175; -323.000; -342.000
406.374;  337.025;  540.000;  629.000
406.501;   56.650; -632.000; -702.000
406.628;  -92.400; -621.000; -589.000
406.755; -119.100; -803.000; -620.000
406.882;  -51.825; -228.000; -277.000
407.009; -106.425; -719.000; -628.000
407.136;   20.800; -480.000; -401.000
407.263;   82.475; -939.000; -829.000
407.390; -104.050; -692.000; -614.000
407.517; -167.675;-1139.000;-1187.000
407.644;  -71.850; -332.000; -256.000
407.771;  -64.625; -249.000; -287.000
407.898;  -17.350;  168.000;  328.000
408.025;  -67.850; -421.000; -313.000
408.151;  -20.875;   82.000;  153.000
408.278;  -71.300; -267.000; -216.000
408.405; -137.250; -931.000; -899.000
408.532;  -80.825; -549.000; -542.000
408.659; -115.975; -677.000; -648.000
408.785; -197.550;-1298.000;-1170.000
408.912;  -73.600; -412.000; -296.000
409.039; -112.500; -610.000; -686.000
409.166; -115.675; -591.000; -555.000
409.292; -101.875; -571.000; -534.000
409.419; -125.450; -665.000; -649.000
409.546;  -99.150; -431.000; -192.000
409.672; -119.400; -713.000; -545.000
409.799;  -16.300;  -36.000;   34.000
409.926;  -45.825; -180.000; -179.000
410.052; -187.375;-1127.000;-1091.000
410.179;  -80.250; -368.000; -392.000
410.305;  -76.000; -375.000; -493.000
410.432;  -72.900; -220.000; -333.000
410.558;  -86.300; -305.000; -380.000
410.685; -113.650; -688.000; -431.000
410.812; -101.975; -409.000; -588.000
410.938; -141.175; -964.000; -808.000
411.065;  -92.325; -671.000; -645.000
411.191;  -27.925; -189.000; -174.000
411.317; -132.225; -823.000; -742.000
411.444;  -84.150; -317.000; -246.000
411.570;  -80.025; -339.000; -294.000
411.697; -126.550; -758.000; -752.000
411.823; -176.600; -989.000; -999.000
411.949;  -36.150;  -56.000;   17.000
412.076; -120.550; -539.000; -519.000
412.202; -127.675; -758.000; -757.000
412.329; -130.500; -798.000; -752.000
412.455; -123.350; -821.000; -657.000
412.581;  -32.425;  -15.000;  172.000
412.707;  -75.250; -540.000; -457.000
412.834;    7.250;  156.000;  219.000
412.960;  -94.425; -785.000; -784.000
413.086; -105.750; -743.000; -701.000
413.212;  126.800;  604.000;  578.000
413.339;  -83.925; -685.000; -701.000
413.465;  -19.875; -364.000; -310.000
413.591;  -86.300; -757.000; -474.000
413.717;  -58.600; -358.000; -366.000
413.843; -140.750; -839.000; -861.000
413.969;  -76.325;  -47.000; -292.000
414.096; -104.075; -679.000; -679.000
414.222;  -11.050;  -33.000;   85.000
414.348;  -43.425; -652.000; -385.000
414.474;   63.000;   38.000;  -52.000
414.600;  -26.825; -126.000; -144.000
414.726;  -26.900;  -96.000;  -55.000
414.852;  -53.725; -365.000; -342.000
414.978;   28.150;  104.000;  -18.000
415.104;   43.875;   38.000;   80.000
415.230;    9.775; -329.000; -330.000
415.356;   31.575; -409.000; -514.000
415.482;  181.925;   13.000;  -35.000
415.608;  283.775; -247.000; -323.000
415.734;  965.275;   67.000;   38.000
415.860;20232.375; -875.000; -767.000
415.986;14964.025; -685.000; -607.000
416.111; 1296.575; -798.000; -652.000
416.237;  242.300; -424.000; -571.000
416.363; 1163.175; -765.000; -733.000
416.489; 4399.800; -324.000; -251.000
416.615;  492.250; -707.000; -742.000
416.741;  -20.050; -677.000; -784.000
416.866;  -97.500; -673.000; -736.000
416.992; -117.475; -801.000; -818.000
417.118;  -39.375;  -41.000;  -80.000
417.244;  -90.050; -798.000; -531.000
417.369;  -70.550; -801.000; -612.000
417.495;  -16.600; -325.000; -254.000
417.621; -102.900;-1015.000; -803.000
417.746;  -15.350; -579.000; -572.000
417.872;   41.200; -254.000; -144.000
417.998;   49.775; -515.000; -530.000
418.123; 1068.500;-1073.000; -845.000
418.249; 5629.675; -512.000; -601.000
418.374;  822.525; -916.000; -824.000
418.500;  100.975; -383.000; -482.000
418.626;  113.725;   70.000;  -59.000
418.751;   98.225; -549.000; -448.000
418.877;  200.475; -637.000; -643.000
419.002; 1822.100; -688.000; -560.000
419.128;13118.275; -930.000; -721.000
419.253; 3259.500; -967.000; -837.000
419.379;  434.875; -391.000; -338.000
419.504;  397.150;  325.000;  415.000
419.629;  537.575; -393.000; -212.000
419.755; 3717.200; -317.000; -254.000
419.880;22580.400;  -98.000;   67.000
420.006;11942.375; -280.000; -221.000
420.131;30683.100; -662.000; -775.000
420.256; 4487.250; -315.000; -316.000
420.382;  573.325; -665.000; -687.000
420.507;   64.625; -649.000; -778.000
420.632;   92.875; -337.000; -339.000
420.758;  180.150; -251.000; -425.000
420.883;  -89.725; -876.000; -672.000
421.008; -117.400; -775.000; -619.000
421.133;  -69.225; -509.000; -467.000
421.259;  -59.700; -325.000; -259.000
421.384; -116.725; -834.000; -693.000
421.509;  -78.775;-1052.000; -862.000
421.634;  880.475; -936.000; -820.000
421.759;  381.000; -359.000; -327.000
421.885;  -74.425; -717.000; -656.000
422.010;  -90.500; -673.000; -542.000
422.135; -137.300; -695.000; -727.000
422.260;   31.650;  340.000;  280.000
422.385;  -56.750;   12.000;  -98.000
422.510;   -7.950;  151.000;  -26.000
422.635;    9.825;  -87.000;  -43.000
422.760;   62.075; -766.000; -791.000
422.885;   49.675;  -57.000;  -80.000
423.010;  -34.425; -112.000; -169.000
423.135;  -98.275; -481.000; -561.000
423.260;  -42.450; -150.000; -245.000
423.385;   56.100;  476.000;  222.000
423.510;    8.300;   71.000;  -22.000
423.635;   55.625;  133.000;   45.000
423.760;   31.100;  383.000;  328.000
423.885;   36.000;  336.000;  391.000
424.010;    2.500;  -68.000;  -13.000
424.135;  -29.050;    5.000;  -33.000
424.259;  -90.925; -654.000; -457.000
424.384;  -69.950; -279.000; -272.000
424.509;  -34.650; -260.000; -186.000
424.634;  -96.975; -761.000; -623.000
424.759;  -37.050; -688.000; -544.000
424.883;  -14.825; -506.000; -527.000
425.008;  151.750; -502.000; -410.000
425.133; 2071.225; -679.000; -653.000
425.258;  963.525; -517.000; -381.000
425.382;  890.900; -867.000; -774.000
425.507; 2337.100; -487.000; -543.000
425.632;  414.450; -802.000; -663.000
425.756;  478.975; -256.000; -146.000
425.881; 7025.925; -831.000; -857.000
426.006;19333.900; -604.000; -355.000
426.130; 3042.400; -696.000; -508.000
426.255;  384.650; -611.000; -491.000
426.379;  169.750; -189.000; -577.000
426.504;  365.675;  660.000;  544.000
426.629; 4076.075; -519.000; -466.000
426.753; 2831.150;   64.000;  -46.000
426.878;  320.775; -252.000; -288.000
427.002;  153.600; -651.000; -668.000
427.127; 1642.625;  -35.000; -158.000
427.251;11917.825;  372.000;  401.000
427.375; 3472.875; -191.000; -173.000
427.500; 2075.925; -616.000; -610.000
427.624;  708.850; -234.000; -400.000
427.749;   62.350; -216.000; -225.000
427.873;  -33.150; -499.000; -412.000
427.997;  -43.475; -222.000; -230.000
428.122;   69.325;  795.000;  703.000
428.246;   51.100;  433.000;  434.000
428.371; -140.800; -869.000; -773.000
428.495; -108.200; -624.000; -646.000
428.619;  -29.650; -186.000; -117.000
428.743;   -7.625;   65.000;  132.000
428.868;    2.850; -732.000; -643.000
428.992; 1241.700; -219.000; -326.000
429.116;  490.675; -329.000; -357.000
429.240;  220.750;  419.000;  426.000
429.365;  -29.700; -454.000; -574.000
429.489;  -73.475; -638.000; -647.000
429.613;   14.775; -236.000; -177.000
429.737;   10.600; -563.000; -432.000
429.861;  276.950; -247.000; -133.000
429.985; 5646.475; -425.000; -305.000
430.109; 6412.400; -770.000; -908.000
430.234;  720.175;   76.000;  -50.000
430.358;   60.800; -250.000; -160.000
430.482;  -74.400; -672.000; -564.000
430.606;  -76.350; -655.000; -375.000
430.730;  -29.950; -437.000; -388.000
430.854;   67.050; -909.000; -835.000
430.978;  -97.925; -795.000; -764.000
431.102; -106.650; -499.000; -422.000
431.226; -123.800; -874.000; -815.000
431.350;    5.575;  345.000;  422.000
431.474;  -94.550; -661.000; -373.000
431.597; -157.675;-1060.000; -848.000
431.721;  -93.175; -276.000; -267.000
431.845; -124.375; -704.000; -472.000
431.969;  -91.875; -304.000; -349.000
432.093;  -94.025; -395.000; -317.000
432.217;  -23.225;   32.000;   82.000
432.341;  -96.500; -523.000; -518.000
432.464;  -19.475;   96.000;   40.000
432.588;  129.450; -401.000; -329.000
432.712;   58.675;  -52.000;  -52.000
432.836;   39.675;  213.000;  263.000
432.959;  -29.450; -372.000; -311.000
433.083;   71.350;   11.000;    2.000
433.207;  382.275;  285.000;  930.000
433.330; 5285.900; -391.000; -200.000
433.454; 6645.975; -654.000; -638.000
433.578; 3749.375;  583.000;  278.000
433.701;  699.400; -623.000; -675.000
433.825;  116.825; -292.000; -299.000
433.949;  118.125;   28.000;  -72.000
434.072;   15.325; -410.000; -323.000
434.196;  -25.025; -309.000; -117.000
434.319; 3700.700;25482.000;25124.000
434.443;  661.825; -656.000; -603.000
434.566; 2758.700;  281.000;   62.000
434.690;  479.625; -637.000; -383.000
434.813;   55.425; -251.000; -173.000
434.937;  -72.475; -569.000; -696.000
435.060;  -64.950; -423.000; -332.000
435.184;  189.375; -492.000; -217.000
435.307;  104.250;  159.000;  102.000
435.431;  -28.900;  -40.000;   24.000
435.554;  -83.325; -399.000; -240.000
435.677;  -99.475; -350.000; -258.000
435.801;  -42.700;  -25.000;   49.000
435.924;  -33.425;    1.000;  -67.000
436.048; -125.325;-1019.000; -732.000
436.171;  -78.450; -240.000;  -66.000
436.294;  -25.825; -248.000; -229.000
436.417;   93.025; -963.000; -849.000
436.541;  -94.875; -814.000; -840.000
436.664;  -61.225; -242.000; -316.000
436.787;  -34.550;   13.000;  113.000
436.910; -133.575; -792.000; -422.000
437.034;   -3.950;  142.000;  143.000
437.157;   22.875;  -11.000;    0.000
437.280;  -66.400; -392.000; -292.000
437.403; -106.850; -982.000; -869.000
437.526;  410.925; -903.000; -865.000
437.649; 1661.950; -505.000; -332.000
437.772;  216.350; -692.000; -540.000
437.896;   82.925;  700.000;  544.000
438.019; -106.300; -758.000; -503.000
438.142; -104.225; -596.000; -506.000
438.265;  -55.225; -639.000; -670.000
438.388;  401.650; -520.000; -410.000
438.511;   44.225; -597.000; -394.000
438.634;  -73.675; -247.000; -125.000
438.757; -129.525; -693.000; -619.000
438.880;  -43.125;  -34.000;  -57.000
439.003;  -86.075; -417.000; -437.000
439.126;  -81.125; -287.000; -167.000
439.248;  -61.400;  -98.000; -139.000
439.371;  -55.525;    9.000;  -53.000
439.494;   21.700;  510.000;  439.000
439.617;  -61.175;   65.000;  -88.000
439.740; -174.750; -968.000; -816.000
439.863; -142.500; -755.000; -595.000
439.986; -130.450; -476.000; -431.000
440.108;  -41.975; -161.000; -112.000
440.231; -161.325; -950.000; -836.000
440.354;  -59.175;  -64.000; -150.000
440.477;  -18.275; -566.000; -542.000
440.599;  -22.825; -200.000; -225.000
440.722; -137.925; -709.000; -586.000
440.845;   51.200;  751.000;  928.000
440.968; -123.025; -415.000; -311.000
441.090;  -63.675; -199.000;  -33.000
441.213; -173.925;-1021.000; -825.000
441.336;  -78.475; -159.000;   -5.000
441.458;  -95.800; -549.000; -396.000
441.581; -110.875; -628.000; -629.000
441.703;  -68.525; -152.000;   13.000
441.826; -116.625; -557.000; -400.000
441.948;  -48.550;   56.000;   51.000
442.071;   20.675;  555.000;  424.000
442.193; -122.700; -531.000; -485.000
442.316;   -3.250;  152.000;   97.000
442.438;   57.100; -233.000;  -10.000
442.561;   58.025;  272.000;  262.000
442.683;  363.700; -809.000; -522.000
442.806;  880.250;   -8.000;   74.000
442.928;  -19.700; -859.000; -604.000
443.051;  -76.900; -577.000; -373.000
443.173; -101.225; -341.000; -339.000
443.295;  -97.825; -263.000; -371.000
443.418;  -85.325; -321.000;  -29.000
443.540;  -19.500; -106.000;   -4.000
443.662; -118.875; -563.000; -465.000
443.785;  -12.075;  335.000;  199.000
443.907; -108.000; -362.000; -208.000
444.029; -141.275; -767.000; -494.000
444.152; -155.050; -644.000; -554.000
444.274;  -37.825;  -18.000;  -24.000
444.396; -114.075; -461.000; -221.000
444.518; -150.200; -691.000; -454.000
444.640; -105.250; -268.000; -111.000
444.763;  -27.875;  388.000;  249.000
444.885; -126.300; -432.000; -392.000
445.007;  -35.225;   35.000;   86.000
445.129; -113.900; -610.000; -515.000
445.251; -111.950; -372.000; -439.000
445.373; -132.225; -537.000; -386.000
445.495;    2.625;  242.000;  350.000
445.617;   44.100;  853.000;  753.000
445.739;  -67.025; -215.000;  -97.000
445.861;  -43.500; -245.000; -112.000
445.984;  -52.450; -267.000; -101.000
446.105;  127.700; -418.000; -251.000
446.227;  456.050; -176.000;  -19.000
446.349;  -19.575; -358.000; -249.000
446.471; -112.325; -615.000; -448.000
446.593;  -77.775; -316.000;   19.000
446.715;  -26.225;  -67.000;   41.000
446.837;   57.900;  697.000;  832.000
446.959; -100.550; -457.000; -478.000
447.081; -131.625; -628.000; -518.000
447.203;   46.725;  862.000;  834.000
447.325;  -93.650; -270.000;   42.000
447.446;  -21.925;  286.000;  530.000
447.568; -154.475; -921.000; -803.000
447.690;  -84.950; -236.000; -245.000
447.812; -141.250; -798.000; -519.000
447.933;  -37.825;  155.000;  127.000
448.055;  -74.825; -306.000; -261.000
448.177;  106.000;   31.000;   79.000
448.299;   38.625; -935.000; -727.000
448.420;   -5.575;  -25.000;  159.000
448.542;  -60.050;   -3.000;   33.000
448.664;  -39.775;  109.000;  322.000
448.785;  -37.800;  265.000;   83.000
448.907;  -89.925; -614.000; -353.000
449.028;  -68.700; -771.000; -471.000
449.150;   52.050;  492.000;  589.000
449.272; -179.100;-1044.000; -913.000
449.393;   18.525;  612.000;  694.000
449.515; -155.200; -634.000; -581.000
449.636;  -69.600; -264.000; -155.000
449.758;   75.275;  763.000;  622.000
449.879; -110.800; -498.000; -396.000
450.001;  -81.175; -149.000;  -49.000
450.122;  -43.175;  -95.000;  162.000
450.244;  -34.675;   37.000;  364.000
450.365; -109.325; -495.000; -301.000
450.486;  -40.550;   80.000;  268.000
450.608;   18.625;  393.000;  326.000
450.729;   60.850;  578.000;  645.000
450.850;    5.175; -574.000; -466.000
450.972;  810.675; -552.000; -389.000
451.093; 5229.825;  190.000;  588.000
451.214; 2330.525; -516.000; -337.000
451.336;  411.375;  773.000;  579.000
451.457;   67.900;  264.000;  393.000
451.578;  -49.550; -118.000;  -74.000
451.699; -108.500; -546.000; -540.000
451.821;  -70.675; -284.000;  -50.000
451.942;  -14.550;  278.000;  285.000
452.063;   26.000;  228.000;  419.000
452.184;  569.875;  -54.000;  -49.000
452.305; 1161.675;  103.000;  170.000
452.427;  155.525; -549.000; -301.000
452.548;  -19.475;   23.000;   79.000
452.669;  -62.600; -257.000;  -89.000
452.790;  -55.425;    3.000;  -18.000
452.911;   -6.550;  195.000;  259.000
453.032;  -89.975; -289.000;  -60.000
453.153;  -60.650;  -29.000;   81.000
453.274;   49.025;  737.000;  868.000
453.395;  -48.800;  -51.000;  175.000
453.516;  114.400; 1317.000; 1388.000
453.637;  -85.775; -205.000; -150.000
453.758;  -63.800;   15.000;   69.000
453.879; -130.825; -462.000; -250.000
454.000;   68.225; 1086.000;  948.000
454.121; -121.700; -554.000; -326.000
454.242; -117.600; -599.000; -383.000
454.362;  -56.200;  -99.000;  114.000
454.483;  -40.850; -309.000; -229.000
454.604;   39.875;  512.000;  580.000
454.725; -140.275; -627.000; -555.000
454.846; -143.425; -474.000; -406.000
454.967;  -43.250;  230.000;  539.000
455.087;  -48.000;  179.000;  153.000
455.208;    3.825;  554.000;  856.000
455.329;  -53.050;  -22.000;   82.000
455.450;   27.825;  473.000;  633.000
455.570;  -78.950; -234.000; -211.000
455.691;  -42.100;  201.000;  407.000
455.812; -111.300; -270.000;  -92.000
455.932;  -71.800;  107.000;  -97.000
456.053;  -95.400;   36.000;   24.000
456.173; -127.625; -433.000; -355.000
456.294; -131.125; -476.000; -303.000
456.415;  -67.425;  -73.000;   70.000
456.535;  -57.350;  297.000;  273.000
456.656;  -47.275;  132.000;  240.000
456.776;  -68.275;    3.000;  298.000
456.897;  -15.750;  308.000;  513.000
457.017;  -81.200; -153.000;   -3.000
457.138; -114.725; -402.000; -249.000
457.258;  -25.500;  263.000;  224.000
457.379;  -22.300;  509.000;  521.000
457.499;  -30.650;  443.000;  432.000
457.620; -135.050; -407.000; -231.000
457.740; -107.600; -132.000;  -11.000
457.860;  -54.125;   87.000;   44.000
457.981;  -44.825;  132.000;  124.000
458.101;  -78.100;  -89.000;   40.000
458.221;   -7.950;  336.000;  402.000
458.342;  -58.775;   -4.000;  -37.000
458.462;   26.650;  617.000;  352.000
458.582;  -37.175; -302.000; -294.000
458.703;    7.675;  303.000;  154.000
458.823;  -32.900;   22.000;  163.000
458.943;   18.700;  341.000;  467.000
459.063;  -23.650; 1124.000;  192.000
459.183;  -36.100;  328.000;  313.000
459.304;    4.375;  315.000;  517.000
459.424;  -59.525; -246.000;  -89.000
459.544;  351.975;  388.000;  764.000
459.664;  893.800;  499.000;  506.000
459.784;  327.175; 1004.000; 1175.000
459.904;   57.125;  867.000;  744.000
460.024;   61.475;  867.000;  684.000
460.144;    0.250;  449.000;  554.000
460.264;   -6.025;  515.000;  327.000
460.385;  -84.975; -145.000; -119.000
460.505;   38.650;  905.000;  858.000
460.625;  -86.600;  -17.000;  -68.000
460.745;   -5.675;  396.000;  541.000
460.864;  -57.250;  153.000;  469.000
460.984;   10.525;  499.000;  573.000
461.104;  134.475; 1656.000; 1775.000
461.224;    0.350;  657.000;  650.000
461.344;  -28.475;  431.000;  360.000
461.464;  -42.425;  258.000;  513.000
461.584;  -31.950;  283.000;  466.000
461.704;  -53.600;   58.000;  108.000
461.824;  -53.125;  238.000;  259.000
461.943;  -52.550;  191.000;  130.000
462.063;  -77.650;    2.000;  324.000
462.183;   15.950;  639.000;  717.000
462.303;  106.650; 1678.000; 1230.000
462.422;   15.775;  781.000;  840.000
462.542;  -43.525;  271.000;  391.000
462.662;   31.100;  353.000;  380.000
462.782;  252.700;  833.000;  572.000
462.901;  478.175;  545.000;  717.000
463.021;  295.175; 1702.000; 1638.000
463.141;   -5.325;  337.000;  770.000
463.260;  -10.950;  614.000;  474.000
463.380;    8.425;  902.000;  884.000
463.499;  -40.075;  342.000;  332.000
463.619;  -36.300;  581.000;  559.000
463.738;  107.325; 1644.000;  903.000
463.858;   21.325;  657.000;  811.000
463.978;  -21.775;  542.000;  396.000
464.097;   52.575;  921.000; 1114.000
464.217;  119.375; 1196.000; 1143.000
464.336;  116.600; 1068.000; 1130.000
464.455;  -36.925;  328.000;  659.000
464.575;    9.525;  597.000;  602.000
464.694;  156.975; 1204.000; 1179.000
464.814;  129.150; 1190.000; 1138.000
464.933;   80.475; 1095.000; 1027.000
465.052;   92.200; 1412.000; 1054.000
465.172;   57.450;  922.000;  799.000
465.291;  130.025; 1376.000; 1320.000
465.410;    3.600;  462.000;  735.000
465.530;   70.725; 1355.000; 1310.000
465.649;   57.850; 1209.000; 1273.000
465.768;  119.200; 1673.000; 1508.000
465.888;   33.450;  941.000; 1174.000
466.007;   80.925; 1335.000; 1440.000
466.126;   -3.125;  721.000;  641.000
466.245;   43.025; 1176.000; 1187.000
466.364;   16.975;  950.000; 1060.000
466.484;   49.375; 1024.000; 1213.000
466.603;   46.350; 1101.000; 1222.000
466.722;   95.675; 1490.000; 1769.000
466.841;   66.375; 1151.000; 1401.000
466.960;   29.150; 1069.000;  972.000
467.079;  141.475; 1971.000; 1786.000
467.198;   38.125; 1238.000; 1181.000
467.317;   92.950; 1768.000; 1162.000
467.436;   78.800; 1709.000; 1261.000
467.555;  108.025; 1796.000; 1746.000
467.674;   67.400; 1227.000; 1329.000
467.793;   54.725; 1376.000; 1374.000
467.912;   84.375; 1658.000; 1539.000
468.031;  128.425; 2038.000; 1930.000
468.150;  146.000; 1842.000; 1837.000
468.269;  181.200; 2313.000; 2090.000
468.388;  175.425; 2168.000; 2339.000
468.507;  246.300; 2884.000; 2903.000
468.626;  222.150; 2555.000; 2541.000
468.744;  152.500; 2018.000; 2174.000
468.863;  187.450; 2312.000; 2523.000
468.982;   96.025; 1503.000; 1555.000
469.101;  215.325; 2788.000; 2692.000
469.220;  138.650; 2333.000; 2176.000
469.338;  227.275; 2935.000; 3051.000
469.457;  190.975; 2719.000; 2545.000
469.576;  340.775; 3953.000; 3784.000
469.695;  251.875; 2877.000; 3066.000
469.813;  405.775; 4148.000; 4192.000
469.932;  400.425; 4255.000; 4485.000
470.051;  414.750; 4075.000; 4161.000
470.169;  870.025; 4470.000; 4338.000
470.288; 1523.425; 4700.000; 4809.000
470.406;  900.850; 5059.000; 5194.000
470.525;  627.075; 6101.000; 5787.000
470.644;  648.050; 6847.000; 6794.000
470.762;  804.600; 8397.000; 7873.000
470.881;  884.250; 8651.000; 8464.000
470.999; 1027.525; 9685.000; 9151.000
471.118; 1133.225;11174.000;10711.000

