
Integration time [ms]: 100.000
Averaging Nr. [scans]: 40
Smoothing Nr. [pixels]: 0
Data measured with spectrometer [name]: 2101012U2
Wave   ;Sample   ;Dark     ;Reference
[nm]   ;[counts] ;[counts] ;[counts] 

197.733;   63.850;  516.000;  404.000
197.879;  -78.600; -610.000; -634.000
198.025;  -52.450; -475.000; -420.000
198.171;  -75.475; -602.000; -612.000
198.317;  -33.950; -401.000; -316.000
198.463;  -58.925; -655.000; -404.000
198.609;   28.025;  181.000; -137.000
198.755;  -67.925; -644.000; -410.000
198.901;  -77.075; -505.000; -424.000
199.047;  -69.050; -615.000; -488.000
199.193;  -41.950; -230.000; -468.000
199.339;  -37.300; -222.000; -369.000
199.485;   46.100;  330.000;  271.000
199.631;   18.175;  227.000;  310.000
199.777;  -49.100; -466.000; -398.000
199.923;  -56.725; -610.000; -424.000
200.069;  -19.625; -141.000;  -58.000
200.215;   60.025;  128.000;  453.000
200.361;   44.025;  243.000;  477.000
200.507;  -59.725; -600.000; -373.000
200.653;  -21.625; -371.000; -194.000
200.798;  -34.050; -215.000; -125.000
200.944;    0.700; -146.000;  -41.000
201.090;   30.175;   61.000;  222.000
201.236;  -12.900; -116.000; -158.000
201.382;  149.100;  874.000;  903.000
201.528;   -3.750;  -58.000;  -48.000
201.674;  -49.000; -386.000; -293.000
201.819;  -66.650; -540.000; -439.000
201.965;  -87.300; -699.000; -447.000
202.111;  -33.450; -273.000; -226.000
202.257;  -40.450; -250.000; -238.000
202.402;    3.025;   13.000;  -36.000
202.548;  -23.600; -169.000; -116.000
202.694;   82.800;  410.000; -183.000
202.840;  -74.250; -603.000; -531.000
202.985;  -62.550; -681.000; -639.000
203.131; -112.100; -832.000; -666.000
203.277;  -25.300; -199.000; -262.000
203.423;  -60.000; -434.000; -520.000
203.568;  -43.200; -462.000; -237.000
203.714;  -55.825; -535.000; -542.000
203.860;  -85.500; -682.000; -641.000
204.005;   12.800;  112.000;  167.000
204.151;   64.075;  561.000;  556.000
204.296;  -33.825; -354.000; -221.000
204.442;  -64.050; -600.000; -547.000
204.588;  -74.375; -592.000; -579.000
204.733;   22.975;  178.000;  168.000
204.879; -129.025;-1018.000; -822.000
205.025;   11.800;  -99.000;  126.000
205.170;   -0.875;  -17.000;   94.000
205.316;   81.950;  438.000;  661.000
205.461;  -87.375; -698.000; -554.000
205.607;   83.875;  609.000;  665.000
205.752;  -66.825; -626.000; -551.000
205.898;  -56.000; -501.000; -391.000
206.043;  -51.200; -578.000; -506.000
206.189;  -51.150; -243.000; -285.000
206.334;   92.125;  554.000;  606.000
206.480;   87.800;  409.000;  239.000
206.625;  -79.875; -529.000; -552.000
206.771;  -38.450; -451.000; -373.000
206.916;  -25.250; -210.000; -537.000
207.062;  -75.300; -545.000; -591.000
207.207;  -53.725; -546.000; -443.000
207.353;   61.800;  185.000;  460.000
207.498;   22.400;  196.000;   85.000
207.643;  -50.050; -501.000; -370.000
207.789; -122.275;-1069.000; -910.000
207.934;  -93.750; -665.000; -713.000
208.080;  -24.100; -154.000;   66.000
208.225;   -3.825;  -22.000;  -57.000
208.370;  -89.975; -727.000; -619.000
208.516;  -77.025; -741.000; -487.000
208.661;  -26.700; -127.000;  -69.000
208.806;  -21.200; -165.000; -171.000
208.952; -122.850;-1044.000; -731.000
209.097;   72.225;  378.000;  349.000
209.242;  -44.400; -307.000; -382.000
209.387;   68.275;  392.000;  350.000
209.533;  -53.750; -321.000; -350.000
209.678;   79.250;  472.000;  543.000
209.823;  -45.250; -408.000; -310.000
209.969; -114.775; -860.000; -757.000
210.114; -101.375; -907.000; -719.000
210.259; -123.475; -939.000; -889.000
210.404;    1.000; -171.000;  103.000
210.549;    8.850;  108.000;    3.000
210.695;  -16.725;   -3.000;  -95.000
210.840;   36.425;   94.000;   67.000
210.985;  -47.450; -484.000; -303.000
211.130;   69.950;  268.000;  406.000
211.275;   15.325;  207.000;  199.000
211.420;  -46.850; -300.000; -289.000
211.566;  -59.550; -536.000; -489.000
211.711;   14.625;  218.000;  157.000
211.856;  -67.350; -545.000; -519.000
212.001;    9.625;  151.000;   44.000
212.146;   23.800;  153.000;   49.000
212.291;  -29.175; -210.000; -186.000
212.436;  -31.675; -280.000;   -6.000
212.581;  -92.825; -685.000; -653.000
212.726;  -84.700; -487.000; -538.000
212.871;  -55.850; -552.000; -217.000
213.016; -148.850;-1172.000;-1029.000
213.161;   71.825;  406.000;  291.000
213.306;  -72.950; -435.000; -577.000
213.451;  -94.425; -778.000; -689.000
213.596;  -46.250; -455.000; -347.000
213.741;  -45.675; -448.000; -538.000
213.886;  -89.325; -498.000; -517.000
214.031;  -26.425; -294.000; -124.000
214.176;  -32.925; -408.000; -341.000
214.321;   -8.875; -296.000; -157.000
214.466;  -21.425; -163.000;  -43.000
214.611;  -12.500;  -61.000;  -10.000
214.756; -114.675; -948.000; -858.000
214.901;  -18.550; -388.000; -226.000
215.046; -116.375; -797.000; -825.000
215.191;   22.625;  128.000;   35.000
215.336;   -8.300; -157.000;  -19.000
215.480;  -65.025; -684.000; -505.000
215.625;   -7.875; -175.000;  -19.000
215.770;  -80.875; -757.000; -662.000
215.915;   -7.000;   -5.000;  -97.000
216.060;    8.725; -113.000;  -21.000
216.205;  -94.950; -731.000; -779.000
216.349;  -62.975; -470.000; -533.000
216.494; -127.375; -939.000; -867.000
216.639; -126.575; -823.000; -888.000
216.784;  -82.800; -577.000; -525.000
216.929;   52.325;  392.000;  281.000
217.073;  -13.525; -244.000;  -31.000
217.218;   11.925;   78.000;  -47.000
217.363;  -86.775; -656.000; -618.000
217.507;  -81.500; -623.000; -588.000
217.652; -116.825; -845.000; -874.000
217.797;  -84.375; -708.000; -659.000
217.942;  -98.325; -856.000; -720.000
218.086;   78.675;  608.000;  539.000
218.231;  -15.100; -174.000;  -26.000
218.376;  -36.400; -337.000; -229.000
218.520;    4.875;  -41.000;   96.000
218.665;  -30.350; -338.000; -204.000
218.810;  -49.625; -275.000; -233.000
218.954;   18.425;  201.000;   35.000
219.099; -110.150; -713.000; -963.000
219.243;  -64.350; -589.000; -554.000
219.388;  -20.200; -264.000; -136.000
219.532;  -17.525; -116.000; -116.000
219.677;  -81.725; -564.000; -521.000
219.822;    7.375;   33.000;   89.000
219.966;    2.000;   17.000;  -99.000
220.111;  -26.350; -328.000;  -40.000
220.255;  -91.275; -797.000; -750.000
220.400;  -16.875; -180.000; -146.000
220.544;  -68.875; -516.000; -450.000
220.689;  -56.175; -422.000; -451.000
220.833;  -18.475; -123.000;  -58.000
220.978;  -45.500; -393.000; -563.000
221.122;   17.550;  319.000;  307.000
221.267; -117.750; -906.000; -837.000
221.411;  -68.650; -478.000; -394.000
221.555;   -4.625; -104.000;  -23.000
221.700;  -45.225; -329.000; -222.000
221.844;   27.900;  255.000;  272.000
221.989;  -39.450; -328.000; -311.000
222.133;  -50.250; -289.000; -307.000
222.277;   -4.875;    5.000;   78.000
222.422;   19.075;  227.000;  113.000
222.566;  -40.250; -381.000; -214.000
222.711;  -59.075; -414.000; -479.000
222.855;  -79.150; -643.000; -586.000
222.999;  -82.275; -642.000; -717.000
223.144;  -24.050; -195.000; -194.000
223.288;   71.975;  423.000;  251.000
223.432;   41.575;  184.000;  230.000
223.576;   13.375;  152.000;  -21.000
223.721;   51.600;  364.000;  273.000
223.865;  -60.800; -472.000; -475.000
224.009;  216.125; 1673.000; 1631.000
224.153;  -76.525; -660.000; -671.000
224.298;  -75.950; -531.000; -489.000
224.442;  -15.775;  -74.000;  -33.000
224.586;  -18.975; -169.000; -106.000
224.730; -103.975; -858.000; -670.000
224.875;  -99.450; -739.000; -688.000
225.019;   13.600;  102.000;  188.000
225.163;   49.850;  208.000;  341.000
225.307;   12.825;   97.000;  -91.000
225.451;   58.250;  360.000;  481.000
225.595;   14.975;  264.000;  176.000
225.739;  -11.625; -170.000;  -94.000
225.884;  -10.150;   86.000;    5.000
226.028;  -97.750; -760.000; -626.000
226.172;  -32.825; -260.000; -273.000
226.316; -116.050; -941.000; -902.000
226.460;  -66.025; -645.000; -493.000
226.604;  -62.625; -406.000; -400.000
226.748; -104.125; -836.000; -733.000
226.892;  -24.950; -227.000; -181.000
227.036;  -53.475; -537.000; -447.000
227.180;  -44.475; -551.000; -375.000
227.324;  -74.525; -561.000; -580.000
227.468; -126.175; -819.000; -717.000
227.612;   16.950;  242.000;  -28.000
227.756; -102.425; -845.000; -698.000
227.900;   51.625;  342.000;  441.000
228.044;  -53.150; -509.000; -290.000
228.188;   68.025;  448.000;  568.000
228.332;  -80.450; -546.000; -472.000
228.476;  -20.675; -223.000; -149.000
228.620;  -24.275; -210.000; -150.000
228.764;   70.875;  431.000;  349.000
228.908;  -19.625; -155.000;   30.000
229.052;  -66.800; -615.000; -528.000
229.195;  -12.300; -172.000;   13.000
229.339;  -24.500; -235.000; -305.000
229.483;  -30.975;    5.000; -162.000
229.627;    7.525; -156.000;  139.000
229.771;  -37.825; -218.000; -294.000
229.915;    8.575;  230.000;   79.000
230.059;  -89.800; -648.000; -663.000
230.202;  -45.100; -370.000; -317.000
230.346;   -3.125; -107.000;  107.000
230.490;  -79.775; -489.000; -521.000
230.634; -102.525; -736.000; -553.000
230.777;   74.975;  478.000;  509.000
230.921;  -55.875; -450.000; -359.000
231.065;  -45.600; -246.000; -286.000
231.209;   17.675;  261.000;  265.000
231.352;   10.850;   54.000;   40.000
231.496;    9.250;  568.000;  188.000
231.640;  -88.425; -693.000; -621.000
231.783;   59.975;  546.000;  525.000
231.927;  -45.925; -294.000; -365.000
232.071; -119.375; -962.000; -736.000
232.214; -112.475; -980.000; -764.000
232.358;  -90.150; -683.000; -599.000
232.502;    6.825;  -19.000;    7.000
232.645; -138.650;-1090.000; -927.000
232.789;  -25.525; -257.000; -218.000
232.933;  -38.400; -407.000; -224.000
233.076; -118.100;-1038.000; -897.000
233.220; -111.550; -752.000; -777.000
233.363;  -76.025; -669.000; -477.000
233.507;   56.025;  371.000;  129.000
233.650;  -93.875; -764.000; -834.000
233.794;   55.450;  438.000;  461.000
233.938;  -57.950; -530.000; -362.000
234.081;  -12.175;  -93.000;   31.000
234.225;  -79.325; -631.000; -539.000
234.368; -114.625; -773.000; -723.000
234.512;  -41.975; -385.000; -299.000
234.655;  -92.675; -582.000; -555.000
234.798;  -86.250; -493.000; -466.000
234.942; -132.450; -884.000;-1002.000
235.085;  -82.425; -651.000; -443.000
235.229;  -67.075; -405.000; -410.000
235.372;  -53.050; -247.000; -191.000
235.516;  -56.250; -397.000; -321.000
235.659;   14.100;   92.000;  121.000
235.802;  -29.000;  -38.000;  -22.000
235.946;   33.775;  335.000;  215.000
236.089;   30.900;  126.000;  250.000
236.233;   47.800;  275.000;  298.000
236.376;  -42.650; -235.000; -378.000
236.519;  -50.825; -297.000; -319.000
236.663;  -27.050; -215.000; -117.000
236.806; -137.025;-1029.000; -999.000
236.949;   66.850;  543.000;  431.000
237.092;   62.825;  412.000;  391.000
237.236;  -87.275; -589.000; -502.000
237.379;   72.025;  352.000;  428.000
237.522; -108.300; -879.000; -768.000
237.666;  -20.100; -271.000;   18.000
237.809; -124.575; -851.000; -823.000
237.952;   32.625;  469.000;  271.000
238.095;  -77.500; -447.000; -442.000
238.238;   85.550;  688.000;  700.000
238.382;   -3.350;  166.000;  103.000
238.525;  -65.950; -598.000; -511.000
238.668; -139.050;-1060.000; -985.000
238.811;  -93.475; -638.000; -643.000
238.954;  -50.975; -483.000; -334.000
239.097;  102.725;  617.000;  664.000
239.241;   21.075;  394.000;  326.000
239.384;  -34.300; -254.000; -214.000
239.527;  -64.050; -424.000; -224.000
239.670; -142.375; -994.000;-1091.000
239.813; -105.525; -696.000; -658.000
239.956;  101.525;  579.000;  473.000
240.099; -121.250; -778.000; -725.000
240.242;   71.175;  428.000;  432.000
240.385;   48.275;  466.000;  450.000
240.528;  -72.275; -706.000; -473.000
240.671;    5.300;  189.000;  134.000
240.814;  -45.175; -441.000; -158.000
240.957; -105.575; -767.000; -578.000
241.100;  -96.525; -779.000; -755.000
241.243; -151.275;-1234.000; -893.000
241.386;  -64.975; -508.000; -379.000
241.529;  -86.100; -735.000; -547.000
241.672;  -62.450; -566.000; -495.000
241.815; -111.175; -832.000; -808.000
241.958;  -24.675; -125.000; -182.000
242.101;  -81.650; -545.000; -390.000
242.244;  -30.375; -270.000; -325.000
242.387;  -46.875; -304.000; -246.000
242.530;   43.575;  470.000;  134.000
242.673;  -39.850; -381.000; -309.000
242.815; -123.050; -925.000; -899.000
242.958;  -72.050; -482.000; -381.000
243.101;   -3.675;  132.000;  187.000
243.244;  -79.950; -564.000; -521.000
243.387;  -38.200; -313.000; -316.000
243.530;  -93.525; -657.000; -674.000
243.672;  -10.725;   43.000;  -92.000
243.815;  -47.250; -355.000; -283.000
243.958;    9.400;   98.000;  -26.000
244.101;    6.375;   59.000;  -16.000
244.243;  -10.125;  -47.000;  101.000
244.386; -109.325; -761.000; -630.000
244.529;  -25.000; -132.000; -139.000
244.672; -154.750;-1154.000; -951.000
244.814;  -94.425; -621.000; -794.000
244.957;  -64.325; -380.000; -304.000
245.100;  -75.725; -489.000; -489.000
245.242;  -61.275; -387.000; -374.000
245.385;   -6.800;  -59.000;  -39.000
245.528; -116.375; -871.000; -705.000
245.670;   98.575;  612.000;  634.000
245.813;  -78.050; -599.000; -547.000
245.956;  -27.925; -324.000; -275.000
246.098;  -74.800; -508.000; -650.000
246.241;   19.675;  194.000;   48.000
246.383;  -23.675; -119.000;  -73.000
246.526;  -71.950; -454.000; -525.000
246.669; -108.625; -889.000; -780.000
246.811;    0.825;  172.000;   -1.000
246.954;  -62.925; -512.000; -426.000
247.096;  -32.775;  -84.000;   -6.000
247.239;  -73.675; -482.000; -445.000
247.381;  -74.125; -647.000; -488.000
247.524;   81.050;  645.000;  679.000
247.666;    3.775;   58.000;   11.000
247.809; -108.800; -887.000; -691.000
247.951;    2.100;  -75.000;  138.000
248.094;   23.750;  432.000;  308.000
248.236; -166.125;-1262.000;-1238.000
248.378;    1.225; -356.000;  -81.000
248.521;  -26.325; -334.000; -337.000
248.663;  -32.025; -236.000; -267.000
248.806;  -16.800; -300.000; -266.000
248.948;  -95.475; -886.000; -763.000
249.090;  -52.200; -428.000; -398.000
249.233;  -50.100; -344.000; -381.000
249.375;  -67.775; -474.000; -451.000
249.518;  -25.925;  -83.000; -133.000
249.660;  -10.000; -103.000;    3.000
249.802; -179.025;-1303.000;-1189.000
249.945;  -93.400; -612.000; -540.000
250.087; -110.350; -834.000; -768.000
250.229;  -52.300; -362.000; -480.000
250.371;  -67.325; -494.000; -439.000
250.514;  -39.000; -310.000; -244.000
250.656;   -8.900;   69.000;  102.000
250.798; -110.400; -849.000; -800.000
250.940;  -66.800; -322.000; -322.000
251.083;  -30.400; -335.000; -111.000
251.225;   67.400;  338.000;  310.000
251.367;  -46.625; -274.000; -373.000
251.509;  -39.550; -265.000; -210.000
251.651; -104.975; -731.000; -671.000
251.794;   62.875;  538.000;  632.000
251.936; -125.925; -821.000; -747.000
252.078;  -70.325; -540.000; -461.000
252.220;  -75.525; -645.000; -477.000
252.362;   75.125;  344.000;  462.000
252.504;  -77.000; -677.000; -584.000
252.646; -109.900; -875.000; -722.000
252.788;   -3.700;   14.000; -128.000
252.931;  -47.125; -257.000; -253.000
253.073;  -40.275; -376.000; -317.000
253.215;   -3.725;  141.000;  122.000
253.357;  -17.025;   82.000; -153.000
253.499;  -53.600; -374.000; -234.000
253.641;  -91.300; -749.000; -594.000
253.783;  -95.825; -609.000; -527.000
253.925;  -71.875; -586.000; -591.000
254.067; -109.625; -744.000; -667.000
254.209;  -36.350; -391.000; -259.000
254.351; -134.325; -865.000; -883.000
254.493;  -61.425; -441.000; -417.000
254.635; -144.475; -936.000; -818.000
254.777;  -95.775; -752.000; -687.000
254.918;  -70.475; -512.000; -430.000
255.060;  -63.575; -551.000; -395.000
255.202;  -59.475; -473.000; -261.000
255.344;  -83.650; -658.000; -455.000
255.486;  -62.825; -471.000; -406.000
255.628; -116.925; -780.000; -781.000
255.770; -106.900; -676.000; -536.000
255.912;  -66.825; -559.000; -468.000
256.053;  -90.100; -730.000; -508.000
256.195;  156.375; 1008.000;  903.000
256.337; -102.700; -861.000; -595.000
256.479;   54.700;  532.000;  416.000
256.621;  -45.450; -394.000; -212.000
256.762; -114.275; -789.000; -742.000
256.904;   65.175;  485.000;  487.000
257.046;  -40.925; -381.000; -271.000
257.188;  -55.700; -351.000; -264.000
257.329;  -78.625; -525.000; -464.000
257.471; -125.275; -939.000; -807.000
257.613;  -79.700; -584.000; -498.000
257.755; -149.650;-1073.000; -982.000
257.896;   23.950;  286.000;  392.000
258.038;  -74.225; -403.000; -352.000
258.180;  -42.500; -354.000; -279.000
258.321;  -94.075; -581.000; -457.000
258.463;  -13.875;  -71.000;  133.000
258.605;  -80.475; -562.000; -570.000
258.746; -111.300; -886.000; -772.000
258.888; -152.925;-1026.000;-1020.000
259.029;   14.000;  121.000;   -8.000
259.171;  -94.650; -614.000; -550.000
259.313;    3.025;  -49.000;  -47.000
259.454;  -71.200; -536.000; -414.000
259.596;  -57.950; -483.000; -390.000
259.737;  -84.800; -590.000; -474.000
259.879;   36.775;  217.000;  311.000
260.020;  102.150;  901.000;  636.000
260.162;  -21.775; -146.000; -253.000
260.303; -113.050; -768.000; -687.000
260.445;  -83.500; -609.000; -613.000
260.586;   28.825;  392.000;  157.000
260.728;  -44.000; -360.000; -248.000
260.869; -109.000; -350.000; -343.000
261.011;   85.825;  706.000;  537.000
261.152;  -61.700; -479.000; -319.000
261.293;  -89.600; -576.000; -595.000
261.435;  -24.850; -219.000; -184.000
261.576;  -52.850; -455.000; -325.000
261.718;   51.350;  420.000;  470.000
261.859; -125.675; -940.000; -949.000
262.000; -139.725; -951.000;-1016.000
262.142;  -25.075;  -52.000;  -60.000
262.283; -109.875; -808.000; -691.000
262.424;  -97.600; -666.000; -625.000
262.566; -157.375;-1161.000; -983.000
262.707; -117.500; -840.000; -830.000
262.848; -114.600; -769.000; -726.000
262.990;  -53.125; -362.000; -345.000
263.131;   88.675;  650.000;  681.000
263.272;   -7.125;  -61.000;  -41.000
263.413; -104.400; -589.000; -561.000
263.555;  -70.600; -669.000; -143.000
263.696;  -89.575; -550.000; -641.000
263.837;  -69.650; -449.000; -551.000
263.978;   -1.775;   -5.000;  -77.000
264.119;  -49.900; -283.000; -264.000
264.261; -111.775; -847.000; -630.000
264.402;  -15.250;   33.000;   40.000
264.543;  -66.800; -509.000; -524.000
264.684;  -11.500;   61.000;  -50.000
264.825;  -74.475; -816.000; -538.000
264.966;  -15.075;  -84.000;  -67.000
265.107; -126.250; -646.000; -670.000
265.248; -121.175; -825.000; -812.000
265.390;   -0.075;  152.000;   -9.000
265.531;  -22.075; -238.000; -107.000
265.672;  -86.175; -557.000; -630.000
265.813;   63.825;  563.000;  439.000
265.954; -147.775; -959.000; -940.000
266.095;  -19.900; -372.000; -322.000
266.236;  -94.800; -686.000; -548.000
266.377;  -55.175; -243.000; -297.000
266.518;  -79.400; -619.000; -547.000
266.659;   24.225;  170.000;  268.000
266.800;    3.125;   83.000;   85.000
266.941;  -69.200; -487.000; -478.000
267.082;   17.400;  354.000;   99.000
267.223;  -61.475; -344.000; -273.000
267.364; -127.200; -892.000; -686.000
267.504;    4.175;    3.000;  135.000
267.645;   -2.525;  160.000;   67.000
267.786;  -38.275; -147.000;  -86.000
267.927;  -78.900; -473.000; -379.000
268.068;  -29.625; -186.000;  -61.000
268.209;  -47.325; -175.000; -413.000
268.350;  -53.500; -388.000; -532.000
268.490;  -91.675; -648.000; -521.000
268.631;   29.025;  127.000;  225.000
268.772; -109.425; -874.000; -647.000
268.913;  -41.900; -328.000; -476.000
269.054;  -26.625; -117.000;   12.000
269.194;  -54.175; -418.000; -402.000
269.335; -150.150;-1137.000;-1074.000
269.476;  -29.700;   33.000;  -35.000
269.617;  -61.875; -347.000; -392.000
269.757;  -99.825; -713.000; -646.000
269.898; -102.925; -856.000; -613.000
270.039;  -63.750; -415.000; -405.000
270.180; -142.950; -952.000; -816.000
270.320;  -24.250; -190.000; -250.000
270.461;  -35.325; -277.000; -249.000
270.602;  -32.325; -186.000; -156.000
270.742; -127.825; -868.000; -943.000
270.883;  -66.425; -442.000; -390.000
271.023;  -69.000; -358.000; -357.000
271.164;  -74.150; -607.000; -528.000
271.305; -102.625; -666.000; -654.000
271.445;  -94.600; -722.000; -683.000
271.586;  -69.325; -462.000; -283.000
271.726;  -55.350; -397.000; -322.000
271.867;  -70.650; -594.000; -534.000
272.008;  150.075; -473.000; -285.000
272.148;  132.925;  462.000;  468.000
272.289;   -1.400; -113.000; -181.000
272.429;   14.125;   19.000;  185.000
272.570; -100.625; -633.000; -737.000
272.710; -104.325; -825.000; -775.000
272.851;  -40.925;  113.000; -130.000
272.991; -166.550;-1173.000;-1077.000
273.131;  -71.475; -419.000; -459.000
273.272; -103.500; -683.000; -723.000
273.412;   -7.825; -143.000;  -31.000
273.553;  -62.650; -488.000; -507.000
273.693;  130.025;  913.000;  858.000
273.834; -105.350; -894.000; -692.000
273.974;  -76.400; -664.000; -615.000
274.114; -105.750; -772.000; -560.000
274.255;   75.825;  414.000;  373.000
274.395;    1.075; -180.000; -125.000
274.535;   34.350;  199.000;  350.000
274.676;   25.450;  225.000;   94.000
274.816;  -10.975;  110.000;   34.000
274.956;  -96.325; -624.000; -690.000
275.097;  -86.600;-1014.000; -922.000
275.237; -111.250; -913.000; -803.000
275.377; -113.550; -778.000; -689.000
275.517; -150.775; -878.000; -937.000
275.658;  -63.400; -590.000; -555.000
275.798;  -77.100; -606.000; -413.000
275.938;   14.250;  215.000;  323.000
276.078; -107.700; -626.000; -395.000
276.218;    4.500;   99.000;  104.000
276.359; -127.000;-1026.000;-1024.000
276.499;  -79.225; -605.000; -446.000
276.639;  -42.000; -305.000; -151.000
276.779;  -49.625; -475.000; -357.000
276.919; -111.550; -783.000; -624.000
277.059;  -29.750; -261.000; -212.000
277.199;  -56.300; -357.000; -259.000
277.340;   29.075;  287.000;  175.000
277.480; -131.150; -840.000; -693.000
277.620;   22.450;  192.000;   16.000
277.760; -210.100;-1533.000;-1294.000
277.900;   -1.250;  113.000;   33.000
278.040;    4.850;  137.000;  159.000
278.180;   31.450;  270.000;  170.000
278.320;    1.650;   21.000;   56.000
278.460;  -78.175; -443.000; -469.000
278.600;  -76.200; -708.000; -598.000
278.740;   49.750;  448.000;  224.000
278.880;  -69.325; -768.000; -791.000
279.020;  -11.725; -194.000; -144.000
279.160;  -93.625; -672.000; -595.000
279.300; -122.100; -926.000; -873.000
279.440; -100.125; -709.000; -622.000
279.579;  -32.625;-1014.000; -929.000
279.719;  -56.925; -410.000; -394.000
279.859;   57.325;   -4.000;   41.000
279.999;   24.300; -208.000;  101.000
280.139;  -28.850; -435.000; -387.000
280.279;  -76.300; -708.000; -745.000
280.419;  -11.725; -229.000; -147.000
280.559;  -34.575; -259.000; -180.000
280.698;  -91.000; -790.000; -639.000
280.838; -105.250; -778.000; -800.000
280.978; -103.100; -846.000; -790.000
281.118; -112.725; -811.000; -704.000
281.257;    4.050;   24.000;    6.000
281.397; -120.675;-1094.000; -960.000
281.537; -101.275; -599.000; -712.000
281.677;  -28.275; -150.000; -101.000
281.816;  -92.300; -700.000; -630.000
281.956;  -35.625; -193.000; -257.000
282.096;  -67.325; -539.000; -396.000
282.235; -106.250; -672.000; -638.000
282.375;  -25.725; -243.000;  -98.000
282.515; -111.625; -715.000; -707.000
282.654;   28.900;   29.000;  106.000
282.794;   24.450;  388.000;  244.000
282.934;  -59.200; -530.000; -491.000
283.073; -135.650;-1030.000; -857.000
283.213;  -54.175; -460.000; -467.000
283.353;  -37.150; -408.000; -349.000
283.492;  -55.175; -264.000; -296.000
283.632;  -47.950; -254.000; -168.000
283.771; -100.850; -859.000; -730.000
283.911;  -63.250; -369.000; -260.000
284.050; -120.675; -794.000; -748.000
284.190; -158.750;-1229.000;-1096.000
284.329; -153.100;-1055.000; -964.000
284.469;  -77.350; -516.000; -591.000
284.608;  -64.650; -559.000; -598.000
284.748;  -91.600; -614.000; -570.000
284.887;    2.925;  -87.000;  -20.000
285.027; -128.275; -844.000; -892.000
285.166;  -38.600; -192.000; -249.000
285.306;    4.025; -116.000;  -33.000
285.445;  -56.400; -229.000; -343.000
285.584; -105.675; -630.000; -494.000
285.724;  -51.350; -282.000; -322.000
285.863; -120.350; -857.000; -507.000
286.002;  -58.325; -366.000; -276.000
286.142; -114.975; -715.000; -622.000
286.281;  -72.425; -525.000; -493.000
286.420;  -78.125; -554.000; -417.000
286.560;   98.275;  653.000;  623.000
286.699; -140.000; -958.000; -912.000
286.838;  -95.050; -590.000; -591.000
286.978;  -87.150; -533.000; -537.000
287.117; -138.375;-1085.000; -950.000
287.256;  -39.825; -228.000; -211.000
287.395;  -50.850; -197.000; -378.000
287.535;  -50.450; -370.000; -298.000
287.674;  -90.250; -509.000; -484.000
287.813;   45.875;  661.000;  533.000
287.952; -145.475;-1010.000; -871.000
288.091; -160.750;-1049.000; -915.000
288.231;  -10.800;   13.000;   15.000
288.370; -191.725;-1217.000;-1200.000
288.509; -100.225; -728.000; -645.000
288.648;  -94.500; -770.000; -548.000
288.787;  -39.825; -243.000;  -87.000
288.926;  -79.125; -454.000; -475.000
289.065;  111.100;  859.000;  672.000
289.204;  -51.300; -377.000; -217.000
289.344; -103.275; -791.000; -690.000
289.483;   25.675;  416.000;  304.000
289.622;  -38.700; -291.000; -149.000
289.761;  -13.000; -309.000; -166.000
289.900; -125.225; -785.000; -626.000
290.039;  -21.750;  -12.000;  -95.000
290.178;  -47.525; -274.000; -180.000
290.317;  -82.850; -618.000; -479.000
290.456;  -60.200; -463.000; -451.000
290.595; -150.550; -961.000; -833.000
290.734; -140.025; -904.000; -891.000
290.873;  -73.150; -456.000; -420.000
291.011; -121.575; -833.000; -843.000
291.150; -106.225; -770.000; -682.000
291.289;  -26.925; -343.000; -110.000
291.428;  -95.875; -599.000; -480.000
291.567;  -61.225; -370.000; -442.000
291.706;   -3.175;  109.000;  154.000
291.845;  -98.100; -597.000; -505.000
291.984; -164.425;-1234.000;-1061.000
292.122;   70.100;  602.000;  582.000
292.261;   45.100;  620.000;  463.000
292.400;   -5.000; -144.000;  211.000
292.539; -127.500; -959.000; -813.000
292.678;  -48.050; -325.000; -300.000
292.816; -171.050;-1136.000; -965.000
292.955;  -93.300; -844.000; -684.000
293.094;  -16.425; -173.000; -337.000
293.233;  -67.025; -556.000; -400.000
293.371;  -37.950; -225.000;  -84.000
293.510; -111.000; -866.000; -780.000
293.649; -134.050; -959.000; -924.000
293.787;  -83.975;-1083.000;-1012.000
293.926;  -16.075; -113.000;  -32.000
294.065;  -53.575; -379.000; -290.000
294.203;   54.625;  298.000;  406.000
294.342;   18.475;   74.000;  156.000
294.481; 5755.625;51180.000; -836.000
294.619;  -39.200; -425.000; -582.000
294.758; -158.475;-1230.000;-1137.000
294.896;   41.825; -125.000;    5.000
295.035; -143.175;-1040.000;-1006.000
295.174; -119.125;-1082.000; -954.000
295.312;  -44.075; -323.000; -203.000
295.451;  -26.775; -307.000; -428.000
295.589;  -57.375; -389.000; -518.000
295.728;    5.850; -292.000; -165.000
295.866;   -8.625;  -36.000;  -51.000
296.005;  -79.550; -584.000; -341.000
296.143;  -75.650; -558.000; -596.000
296.282; -110.825; -957.000; -881.000
296.420;  -92.325; -657.000; -557.000
296.559;  -99.375; -892.000; -633.000
296.697;   -6.550; -847.000; -665.000
296.835;    6.125;-1141.000;-1002.000
296.974;   37.050;  -23.000;   39.000
297.112;   -7.575; -443.000; -504.000
297.251;  -78.575; -815.000; -755.000
297.389;   42.100; -576.000; -438.000
297.527;   22.225; -145.000;  -83.000
297.666;  -71.475; -486.000; -438.000
297.804;  -64.475; -404.000; -264.000
297.942;   -7.350; -136.000; -161.000
298.081;  -10.200; -183.000;   63.000
298.219;   52.050;  -17.000;  -19.000
298.357;   43.225; -144.000;  -71.000
298.495;    5.900; -810.000; -812.000
298.634;   73.375;  245.000;  219.000
298.772;   29.675; -220.000; -338.000
298.910;  -45.575; -309.000; -182.000
299.048;  -22.975; -130.000; -153.000
299.187;  -25.775; -350.000; -250.000
299.325;    5.800;   52.000;  122.000
299.463;   28.400; -389.000; -299.000
299.601;   86.825; -327.000; -271.000
299.739; -118.150; -908.000; -883.000
299.877;  -83.800; -791.000; -703.000
300.016;  -73.600;-1095.000; -935.000
300.154;  136.125;  -19.000; -161.000
300.292;   31.225; -428.000; -348.000
300.430;    3.250; -408.000; -291.000
300.568; -117.625; -940.000; -874.000
300.706;  -53.050; -366.000; -469.000
300.844;  -90.450;-1108.000; -979.000
300.982;   93.075;  246.000;  282.000
301.120; -120.200; -965.000; -866.000
301.258;  -74.325; -812.000; -705.000
301.396;   22.900;  104.000;  -41.000
301.534;   31.800; -218.000; -293.000
301.672;  -11.500; -664.000; -521.000
301.810;    2.950; -613.000; -545.000
301.948;   82.100;   53.000;  149.000
302.086;  521.900; -250.000;  -32.000
302.224;  791.575; -610.000; -585.000
302.362;    6.975; -558.000; -622.000
302.500;  -65.200; -923.000; -893.000
302.638;   87.350;  128.000;  245.000
302.776;  -13.525; -352.000; -408.000
302.913;   42.100;  447.000;  236.000
303.051;  -13.700;  -86.000;  -23.000
303.189;   33.025;   90.000;  118.000
303.327;  -46.300; -341.000; -256.000
303.465;  -78.600; -832.000; -588.000
303.603;  -92.475; -805.000; -604.000
303.740;   72.325;  417.000;  241.000
303.878;  -12.925; -800.000; -759.000
304.016;  -95.750; -915.000; -790.000
304.154; -134.425;-1123.000;-1152.000
304.291;  -58.425; -505.000; -554.000
304.429;    8.800;  102.000;   74.000
304.567; -140.550; -908.000; -893.000
304.705;  -62.400; -408.000; -515.000
304.842;   71.100; -616.000; -540.000
304.980;   40.575;  215.000;   35.000
305.118;   18.950; -367.000; -365.000
305.255;  -92.900; -945.000; -927.000
305.393;   36.975;  178.000;  239.000
305.531; -114.375;-1173.000; -956.000
305.668;  -76.575; -663.000; -582.000
305.806;   75.475; -358.000; -439.000
305.943;   74.850; -629.000; -637.000
306.081;   23.375; -378.000; -267.000
306.219; -114.400; -863.000; -748.000
306.356;    9.925;  158.000;   27.000
306.494;  116.950;  981.000;  761.000
306.631;   -5.025;  -11.000;  -55.000
306.769;   -8.725; -613.000; -485.000
306.906;  -17.500; -284.000; -258.000
307.044;  -71.625; -473.000; -488.000
307.181;  -73.525; -410.000; -332.000
307.319;    5.750;  112.000;   87.000
307.456; -170.275;-1191.000;-1153.000
307.594; -119.875; -980.000; -727.000
307.731;  -22.800; -371.000; -164.000
307.868;  -12.800;  -15.000;   20.000
308.006; -135.550; -961.000; -847.000
308.143;  -73.550; -618.000; -330.000
308.281;   88.325;  -37.000; -254.000
308.418;  -44.650; -748.000; -640.000
308.555;  -84.100; -400.000; -250.000
308.693;  -89.475; -577.000; -573.000
308.830; -106.875; -712.000; -657.000
308.967;  -11.775; -215.000;  -95.000
309.105;  -55.225; -507.000; -396.000
309.242;   -1.975; -468.000; -367.000
309.379;  174.600; -577.000; -655.000
309.517;  -90.325; -936.000; -948.000
309.654; -118.100; -910.000; -734.000
309.791;  -83.250; -662.000; -580.000
309.928; -127.075; -977.000; -914.000
310.065;  163.900;  819.000;  697.000
310.203;  -31.175; -825.000; -850.000
310.340;  -23.700; -465.000; -321.000
310.477;  -86.075; -412.000; -516.000
310.614;  -81.350; -383.000; -473.000
310.751;  -78.675; -427.000; -518.000
310.889;  -49.575;    1.000;   11.000
311.026; -157.250;-1161.000; -939.000
311.163;  -46.000; -386.000; -380.000
311.300;  -83.550; -512.000; -479.000
311.437;  -88.950; -658.000; -619.000
311.574; -173.575;-1226.000; -985.000
311.711;  -69.550; -595.000; -433.000
311.848;  -45.750; -380.000; -388.000
311.985;    1.675;  270.000;   93.000
312.122; -134.525; -932.000; -762.000
312.259; -133.400; -941.000; -994.000
312.396; -100.350; -508.000; -551.000
312.533;  -89.250; -812.000; -790.000
312.670; -136.700;-1070.000; -898.000
312.807;  -44.250; -352.000; -367.000
312.944;  -90.075; -513.000; -611.000
313.081;  -37.750; -150.000; -415.000
313.218; -117.500;-1111.000; -867.000
313.355;  -12.625; -531.000; -449.000
313.492;  -12.250; -455.000; -292.000
313.629;  121.325;  815.000;  735.000
313.766; -166.900;-1176.000;-1008.000
313.902;  -24.200; -186.000;   21.000
314.039;  -51.125; -372.000; -289.000
314.176;   22.575;  286.000;  192.000
314.313;  -77.900; -569.000; -473.000
314.450;  -76.250; -788.000; -684.000
314.587;  -66.200; -468.000; -480.000
314.723;  -13.400;  -78.000;  130.000
314.860;   23.325;  318.000;  332.000
314.997;   25.400;  223.000;  142.000
315.134;  -50.750; -385.000; -368.000
315.270;  -42.850; -480.000; -496.000
315.407; -136.050;-1094.000; -967.000
315.544;  -60.375; -657.000; -538.000
315.681;  -83.325; -681.000; -565.000
315.817;    1.350; -133.000; -176.000
315.954;   -8.150; -613.000; -392.000
316.091; -136.800;-1045.000;-1023.000
316.227;  -33.775;  -71.000; -179.000
316.364;   -2.400;   23.000;    6.000
316.500;  -55.325; -113.000; -300.000
316.637;  -57.525; -181.000; -302.000
316.774;  -88.300; -625.000; -358.000
316.910;  -94.850; -598.000; -629.000
317.047;  -72.425; -487.000; -351.000
317.183;  -63.225; -435.000; -566.000
317.320;  -10.975; -367.000; -321.000
317.456;  -68.275; -733.000; -805.000
317.593;  -88.400; -598.000; -641.000
317.729;    3.200;  168.000;  -67.000
317.866; -208.550;-1434.000;-1285.000
318.002; -103.750; -708.000; -948.000
318.139; -125.225; -883.000; -867.000
318.275; -127.775;-1003.000; -738.000
318.412;  -76.975; -517.000; -336.000
318.548;  -39.425; -751.000; -720.000
318.685; -107.450; -985.000; -888.000
318.821; -113.050; -762.000; -735.000
318.957;  -21.500;   34.000;  -23.000
319.094;   17.925;  297.000;  154.000
319.230;  -81.250; -756.000; -742.000
319.367;   84.450; -471.000; -520.000
319.503;   38.100; -538.000; -436.000
319.639; -110.750; -877.000; -793.000
319.775;  -77.125; -750.000; -685.000
319.912;  -58.825; -424.000; -519.000
320.048; -125.325;-1184.000;-1184.000
320.184;   74.125;   59.000;   70.000
320.321;  -68.650; -497.000; -467.000
320.457;   53.100;  475.000;  662.000
320.593;  -67.750; -375.000; -382.000
320.729; -104.325; -732.000; -734.000
320.866;  -93.500; -577.000; -635.000
321.002;  -83.650; -759.000; -809.000
321.138;  -21.100; -135.000; -211.000
321.274;   70.275; -148.000; -115.000
321.410;  -40.850; -585.000; -353.000
321.546;  -67.300;-1011.000; -911.000
321.683;   67.500;  400.000;  185.000
321.819;   -1.525;  -48.000; -117.000
321.955; -111.700; -743.000; -722.000
322.091;  -50.875; -585.000; -540.000
322.227;  -22.075; -382.000; -202.000
322.363;  -31.550; -320.000; -215.000
322.499;  -46.900; -343.000; -331.000
322.635;  139.000;  636.000;  443.000
322.771;   11.850; -139.000;   12.000
322.907;   65.725;  129.000;  327.000
323.043;  -28.200; -115.000; -206.000
323.179;  -50.150; -394.000; -363.000
323.315;   -6.350; -401.000; -371.000
323.451;   53.925; -328.000; -236.000
323.587;   51.600;  -60.000;  -77.000
323.723;   -2.975; -682.000; -601.000
323.859;  -21.525; -258.000;  -76.000
323.995;  -48.200; -467.000; -409.000
324.131; -120.950; -967.000; -892.000
324.267;  -43.625; -254.000; -276.000
324.402; -153.975; -960.000; -983.000
324.538;  -28.200; -279.000; -104.000
324.674;   11.100;  164.000;   77.000
324.810;   83.175;  226.000;  308.000
324.946;  -17.475; -810.000; -658.000
325.082;  -90.525; -568.000; -475.000
325.217;  -13.775;  -62.000;   16.000
325.353; -111.600; -764.000; -659.000
325.489; -104.250; -540.000; -506.000
325.625;  -91.425; -579.000; -525.000
325.760;   57.475;  517.000;  376.000
325.896;  -34.225; -515.000; -702.000
326.032;  -56.125; -403.000; -352.000
326.168;  -55.950; -462.000; -369.000
326.303;  -61.350; -352.000; -461.000
326.439;  -19.875; -336.000; -276.000
326.575;   -4.475; -190.000;  -29.000
326.710;  -10.075; -156.000;  -30.000
326.846;  -11.225;  146.000;  103.000
326.982;  -84.200; -530.000; -548.000
327.117;  -77.350; -481.000; -442.000
327.253;  -88.600; -745.000; -742.000
327.388; -181.650;-1137.000;-1153.000
327.524;  -76.650; -811.000; -578.000
327.659;  -31.500;  -58.000;  -22.000
327.795;  -23.200;   69.000;   45.000
327.931;  -95.650; -723.000; -499.000
328.066;  -50.325; -417.000; -276.000
328.202;  -18.475;   12.000; -129.000
328.337;   89.625;  957.000;  713.000
328.473;   37.900;  -12.000;  -74.000
328.608;  -34.700; -256.000; -267.000
328.743;  -84.900; -799.000; -664.000
328.879;   18.925;  214.000;  114.000
329.014;  -36.775; -102.000; -122.000
329.150; -105.925; -358.000; -483.000
329.285;  -75.850; -465.000; -466.000
329.421;  -58.800; -548.000; -246.000
329.556;  -32.850;  -36.000;   85.000
329.691; -110.025; -633.000; -615.000
329.827;  -84.825; -626.000; -480.000
329.962;  -54.675;  131.000; -301.000
330.097;  -95.600; -673.000; -585.000
330.233;  -52.025; -410.000; -223.000
330.368; -127.475; -839.000; -628.000
330.503;  -15.000;    3.000;   98.000
330.638;   -1.175;  -93.000; -125.000
330.774;  -74.700; -609.000; -530.000
330.909;  -60.225; -434.000; -244.000
331.044; -102.225; -714.000; -708.000
331.179; -180.950;-1217.000;-1109.000
331.315;    4.075;   77.000;   20.000
331.450;    7.350;  157.000;  285.000
331.585; -104.425; -805.000; -706.000
331.720; -107.400; -510.000; -460.000
331.855;   -2.225;  -35.000; -102.000
331.990;  246.650;   62.000;  138.000
332.126;  135.175; -110.000;   71.000
332.261;  -23.450; -379.000; -265.000
332.396;  -13.175; -135.000; -242.000
332.531;  -99.750;-1074.000;-1031.000
332.666;   35.475; -519.000; -363.000
332.801; -114.500; -726.000; -807.000
332.936;  -39.275; -192.000; -122.000
333.071; -151.600; -870.000; -817.000
333.206;   20.000;  307.000;  379.000
333.341;   18.275;  344.000;  418.000
333.476; -104.900; -627.000; -623.000
333.611;  -43.325; -251.000; -173.000
333.746;  -54.025; -381.000; -464.000
333.881; -136.300; -973.000; -935.000
334.016; -148.200; -936.000; -917.000
334.151; -128.825; -746.000; -702.000
334.286;   -6.250;  152.000;  186.000
334.421;  -37.550; -125.000; -178.000
334.556; -108.425; -611.000; -567.000
334.690;  -97.100; -631.000; -577.000
334.825;   44.075;  381.000;   83.000
334.960;  -74.600; -285.000; -413.000
335.095;   -5.725;  135.000;  -91.000
335.230; -118.300; -722.000; -738.000
335.365; -148.675;-1084.000; -990.000
335.499; -155.650;-1108.000;-1037.000
335.634;   17.075;    9.000;  534.000
335.769; -111.300; -755.000; -720.000
335.904;  -84.125; -603.000; -561.000
336.038;  -65.800; -735.000; -657.000
336.173; -137.300;-1206.000;-1194.000
336.308;  -11.525; -116.000; -189.000
336.443;   21.250; -544.000; -634.000
336.577;  -81.300; -936.000; -787.000
336.712;   30.200;   -4.000;  -12.000
336.847;  -54.975; -724.000; -607.000
336.981;   24.275; -272.000; -208.000
337.116;  259.875;  615.000;  501.000
337.250;  102.100; -434.000; -421.000
337.385;  290.125; -297.000; -208.000
337.520;   98.750; -632.000; -603.000
337.654;  -50.175; -215.000; -126.000
337.789; -141.425; -989.000; -933.000
337.923;  -31.250; -104.000; -205.000
338.058; -108.525; -673.000; -738.000
338.192;  -50.850; -611.000; -488.000
338.327;  -14.375;  -18.000; -155.000
338.461;  -88.700; -299.000; -469.000
338.596; -107.325; -780.000; -638.000
338.730; -113.800; -767.000; -803.000
338.865;   96.375;  -46.000; -140.000
338.999;  -56.500; -846.000; -702.000
339.134;  -36.550; -634.000; -536.000
339.268;   -4.425; -741.000; -603.000
339.403;  359.100; -740.000; -775.000
339.537;  134.275; -894.000; -820.000
339.671; -113.425; -829.000; -813.000
339.806;  -69.750; -556.000; -512.000
339.940;    6.775; -261.000; -235.000
340.074; -116.150; -685.000; -510.000
340.209;  -55.775; -351.000; -230.000
340.343; -100.475; -517.000; -573.000
340.477;  145.625;  998.000; 1036.000
340.612;  -45.450;-1033.000; -900.000
340.746;  141.600; -199.000; -243.000
340.880;  -70.925; -924.000; -785.000
341.014;  -31.700;  -45.000; -154.000
341.149; -120.700; -756.000; -718.000
341.283; -125.375; -839.000; -754.000
341.417; -112.100;-1124.000; -938.000
341.551;   79.025; -768.000; -708.000
341.685;  -51.950; -633.000; -611.000
341.820;  -62.725; -562.000; -493.000
341.954;  -64.450; -218.000; -349.000
342.088; -156.450;-1102.000;-1019.000
342.222;   43.675;  565.000;  618.000
342.356;  -65.000; -395.000; -335.000
342.490; -104.600; -880.000; -841.000
342.624;  -40.800; -339.000; -242.000
342.758;  -22.675; -364.000; -312.000
342.892;  -82.550; -710.000; -585.000
343.026;  -54.700;  -58.000; -116.000
343.160;  -65.775; -426.000; -376.000
343.294;  -91.625; -474.000; -337.000
343.428;  -43.575; -488.000; -448.000
343.562;  -34.600; -172.000;  -23.000
343.696;  -42.575; -385.000; -314.000
343.830;  -35.025; -362.000; -356.000
343.964;   -5.850; -231.000; -168.000
344.098;  751.725;  199.000;   70.000
344.232;  594.450; -266.000; -127.000
344.366;   71.125; -567.000; -453.000
344.500;   23.525; -665.000; -744.000
344.634;    5.500; -324.000; -164.000
344.768;  -48.025; -531.000; -341.000
344.902;    8.750;  278.000;  256.000
345.035;  -94.500; -556.000; -496.000
345.169; -137.175; -933.000; -656.000
345.303;  -45.050; -308.000; -482.000
345.437;  -95.525; -826.000; -717.000
345.571;  -82.825; -675.000; -594.000
345.704;  -57.950; -309.000; -532.000
345.838;  -29.400; -331.000; -284.000
345.972;  -51.875; -543.000; -495.000
346.106;  161.550; -179.000; -190.000
346.239;  387.650; -312.000; -243.000
346.373;  -10.925; -343.000; -302.000
346.507; -141.500; -950.000; -962.000
346.640;  103.550;  -30.000;   13.000
346.774;  -65.325; -650.000; -797.000
346.908;  -32.800; -138.000;  -11.000
347.041; -107.775; -646.000; -593.000
347.175;  -18.075;  259.000;   27.000
347.309;  -82.200; -698.000; -628.000
347.442; -113.100; -883.000; -732.000
347.576;  234.825;  670.000;  668.000
347.709;  136.100; -123.000;  -52.000
347.843; -107.500; -933.000; -825.000
347.976;   14.700;  235.000;  294.000
348.110; -198.525;-1268.000;-1186.000
348.243; -104.150; -679.000; -772.000
348.377;   -8.050;  -26.000;   60.000
348.510;   59.050;  403.000;  540.000
348.644;  -55.325;  -37.000; -159.000
348.777;  -14.625;  180.000;  191.000
348.911;  -50.725; -142.000; -112.000
349.044;  152.250;  471.000;  448.000
349.178;   99.275;-1069.000;-1006.000
349.311;   93.700;  141.000;  255.000
349.444;   -9.125; -927.000; -813.000
349.578;  -39.700; -347.000; -200.000
349.711; -110.925; -959.000; -862.000
349.845;  -34.100; -661.000; -591.000
349.978; -175.450;-1224.000;-1137.000
350.111;  -98.700; -546.000; -612.000
350.244;  -85.375; -596.000; -700.000
350.378;  -17.975; -392.000; -393.000
350.511;  -81.425; -393.000; -426.000
350.644; -107.600; -808.000; -806.000
350.778;    7.675;  168.000;  104.000
350.911;   -0.975;  134.000;  140.000
351.044;  -98.950; -685.000; -615.000
351.177;  -46.500; -321.000; -281.000
351.310;  -25.625;    3.000; -131.000
351.444; -101.475; -888.000; -788.000
351.577;   89.700;  140.000;   90.000
351.710;   84.425;  593.000;  417.000
351.843;  -46.550; -165.000;  -77.000
351.976;   -1.925;  149.000;  -79.000
352.109; -103.025; -621.000; -612.000
352.242;  -48.325; -464.000; -419.000
352.376;  -79.050; -580.000; -636.000
352.509;  121.925; -437.000; -356.000
352.642;  -30.150; -654.000; -604.000
352.775;   38.425; -141.000;  -98.000
352.908; -124.475; -933.000; -904.000
353.041; -119.275; -814.000; -824.000
353.174;  -71.050; -551.000; -424.000
353.307;  -95.425; -753.000; -764.000
353.440;   57.950;  541.000;  453.000
353.573; -130.725; -957.000;-1008.000
353.706;  -68.575; -384.000; -558.000
353.839;  -25.900; -264.000; -220.000
353.971; -102.075; -657.000; -512.000
354.104; -118.825; -896.000; -835.000
354.237;  -51.875; -627.000; -662.000
354.370;  -91.375; -846.000; -879.000
354.503; -189.325;-1231.000;-1308.000
354.636;  -53.600; -529.000; -348.000
354.769; -147.400; -937.000; -860.000
354.902;  -41.175; -230.000; -139.000
355.034;  -30.175; -164.000; -220.000
355.167;  -45.375; -262.000; -162.000
355.300; -105.400;-1061.000; -880.000
355.433;  979.850;  -71.000;  -14.000
355.565; 1526.250; -402.000; -384.000
355.698;  375.675; -356.000; -296.000
355.831;  -21.275; -882.000; -801.000
355.964;   56.725; -285.000; -170.000
356.096; -112.850; -856.000; -843.000
356.229;  -21.650; -523.000; -530.000
356.362;  314.300; -373.000; -266.000
356.494;  601.225; -229.000; -162.000
356.627;  412.725;  269.000;  377.000
356.760;  668.800;  120.000;   53.000
356.892;  992.875; -286.000; -601.000
357.025;  539.200;  403.000;  389.000
357.157;  475.300; -167.000; -179.000
357.290;  732.350; -856.000; -713.000
357.423;  204.125; -667.000; -556.000
357.555;   89.125; -217.000; -228.000
357.688;   87.450; -483.000; -364.000
357.820;  367.400; -870.000; -877.000
357.953; 3289.100; -563.000; -589.000
358.085;  660.225; -632.000; -612.000
358.218;  824.400;-1131.000; -932.000
358.350;  149.125;  -58.000;  312.000
358.483; -150.150;-1300.000;-1187.000
358.615;  -74.025;-1182.000;-1078.000
358.747;  -93.300;-1187.000;-1058.000
358.880;   -4.175; -810.000; -744.000
359.012;  -25.800; -376.000; -202.000
359.145;  -52.175; -480.000; -511.000
359.277;   21.100; -962.000; -913.000
359.409; 2717.825;  536.000;  231.000
359.542;  690.800; -738.000; -688.000
359.674;   59.950;   46.000;   13.000
359.806;  -77.125; -565.000; -438.000
359.939;  -59.825; -617.000; -516.000
360.071;  -15.225; -583.000; -579.000
360.203;  -36.825; -411.000; -364.000
360.335;   51.300;  164.000;  -16.000
360.468;  169.075; -249.000; -307.000
360.600; 2235.125; -547.000; -454.000
360.732; 2951.675; -546.000; -423.000
360.864;  389.750;-1216.000;-1044.000
360.996;  186.525; -516.000; -554.000
361.129;    6.875; -389.000; -598.000
361.261;   17.225;  110.000; -113.000
361.393;  -35.900; -252.000; -214.000
361.525;   15.175;   94.000;  244.000
361.657;  -65.200; -821.000; -703.000
361.789;    1.425; -139.000; -155.000
361.921;  140.850; -642.000; -593.000
362.053;  224.925;  524.000;  541.000
362.185;   33.050;  288.000;   72.000
362.318;  -94.325; -709.000; -705.000
362.450;   79.950;  294.000;  444.000
362.582;   22.300; -913.000; -870.000
362.714;  -48.975; -353.000; -332.000
362.846;  -91.525; -606.000; -490.000
362.978; -155.600; -941.000; -811.000
363.109;   16.200; -161.000; -260.000
363.241;  337.050; -739.000; -749.000
363.373;  430.900; -649.000; -564.000
363.505;  706.625; -186.000;  -91.000
363.637;  148.325; -787.000; -601.000
363.769; -147.850;-1067.000;-1080.000
363.901;  -69.650; -596.000; -654.000
364.033; -123.825;-1103.000;-1062.000
364.165;  -20.175; -283.000; -283.000
364.296;   52.850; -316.000; -177.000
364.428;   67.500;-1344.000;-1220.000
364.560;  -67.450; -679.000; -661.000
364.692;  -75.075; -738.000; -835.000
364.824;  174.250; -588.000; -456.000
364.955;  424.025; -402.000; -564.000
365.087; 1008.000;-1097.000; -852.000
365.219;   24.925; -686.000; -816.000
365.351;  -71.550; -526.000; -572.000
365.482;   43.450;  300.000;  240.000
365.614;  -51.325; -402.000; -314.000
365.746; -114.625; -729.000; -752.000
365.877; -107.825; -706.000; -672.000
366.009;  276.475;  -35.000;  -62.000
366.141;  -95.850;-1249.000;-1134.000
366.272; -115.900; -803.000; -719.000
366.404; -124.500;-1005.000; -874.000
366.535;  -21.925; -139.000;  -12.000
366.667; -108.375; -644.000; -649.000
366.799;   14.275;  353.000;  203.000
366.930; -134.375; -862.000; -996.000
367.062;  129.525; -639.000; -613.000
367.193;  172.175; -872.000; -842.000
367.325;  -71.075; -580.000; -684.000
367.456;   16.500; -246.000;   31.000
367.588;  143.025; -371.000; -318.000
367.719;   12.725;  -44.000;  -45.000
367.851;  -35.525; -222.000; -241.000
367.982;  -74.150; -875.000; -732.000
368.113;   77.275; -475.000; -358.000
368.245; -125.000; -960.000; -841.000
368.376;  -48.450; -254.000; -302.000
368.508;  -53.175; -188.000; -263.000
368.639; -148.275;-1166.000;-1034.000
368.770;  -46.250; -670.000; -589.000
368.902;  -84.300; -836.000; -926.000
369.033; -117.000; -906.000; -855.000
369.164;  -61.975; -720.000; -653.000
369.296; -126.050; -452.000; -601.000
369.427;   -5.425; -209.000; -144.000
369.558;  -52.350; -593.000; -377.000
369.689;  -82.625; -721.000; -569.000
369.821; -145.925; -951.000; -845.000
369.952;  -14.250;   42.000; -108.000
370.083;  -60.625; -229.000; -108.000
370.214;  -94.800; -735.000; -650.000
370.345;  -18.050;   65.000;   81.000
370.477; -106.300; -810.000; -790.000
370.608;  166.475; -328.000; -264.000
370.739;  -92.425;-1233.000;-1292.000
370.870;  -69.300;-1102.000; -923.000
371.001;   58.250; -378.000; -467.000
371.132; -105.450; -754.000; -735.000
371.263;  -36.050;  -42.000; -148.000
371.394; -137.825; -841.000; -748.000
371.525;   22.575;  345.000;  225.000
371.657;  -98.375; -808.000; -670.000
371.788;   63.225;  103.000;  199.000
371.919;  117.000; -384.000; -304.000
372.050; 3107.475;  -91.000; -156.000
372.181;  904.575; -188.000; -294.000
372.311;  290.075;   42.000; -127.000
372.442;    7.250; -457.000; -451.000
372.573;  -28.425; -444.000; -340.000
372.704; -137.475;-1008.000; -980.000
372.835;   34.450; -228.000; -289.000
372.966;  -71.875; -646.000; -554.000
373.097;  -89.725; -575.000; -711.000
373.228;  -62.625; -717.000; -542.000
373.359;   64.125; -824.000; -536.000
373.490;  733.650; -881.000; -727.000
373.620;  917.725;-1001.000; -803.000
373.751; 1444.725; -332.000; -396.000
373.882;  612.875; -663.000; -733.000
374.013;   42.400; -449.000; -262.000
374.143;  -61.600; -581.000; -659.000
374.274; -124.750; -987.000; -908.000
374.405;  131.025; -388.000; -276.000
374.536;  333.050; -526.000; -387.000
374.666;  854.450; -759.000; -807.000
374.797;  140.350; -817.000; -868.000
374.928;  670.550; -710.000; -560.000
375.058;  685.325; -535.000; -500.000
375.189;   57.875;  -59.000;  -93.000
375.320; -115.100; -928.000;-1034.000
375.450;  -48.000; -625.000; -616.000
375.581;  -58.525; -526.000; -436.000
375.712;  -47.950; -574.000; -250.000
375.842;  214.775; -438.000; -415.000
375.973;  137.000; -554.000; -513.000
376.103;  -71.150; -665.000; -648.000
376.234;  -96.150; -531.000; -552.000
376.364;  -72.950; -944.000; -867.000
376.495;  270.350;  925.000;  529.000
376.625;  -38.775; -472.000; -485.000
376.756;   18.825; -709.000; -678.000
376.886; -110.100;-1178.000;-1026.000
377.017;   24.025;-1048.000;-1061.000
377.147;  363.300; -786.000; -782.000
377.278;   41.975;  174.000;  228.000
377.408; -131.075; -801.000; -815.000
377.538; -124.000; -707.000; -693.000
377.669;  -99.750; -537.000; -613.000
377.799; -110.950; -645.000; -635.000
377.929;  -78.000; -610.000; -428.000
378.060; -148.825; -781.000; -847.000
378.190;  -75.175; -726.000; -531.000
378.320;  -74.225; -401.000; -406.000
378.451;   -2.725; -131.000;  -22.000
378.581;  -24.600;  -67.000; -110.000
378.711;  141.600; 1035.000;  866.000
378.841;  -39.475; -533.000; -675.000
378.972; -106.575; -871.000; -751.000
379.102;  -24.275; -652.000; -579.000
379.232;  -29.225; -126.000;  -73.000
379.362; -132.050;-1001.000; -885.000
379.492;  -13.800; -373.000; -424.000
379.623;   69.925;    0.000;  111.000
379.753; -131.975;-1107.000; -974.000
379.883;  151.950;   59.000;  156.000
380.013;  -48.850;-1081.000;-1017.000
380.143; -130.925;-1097.000;-1056.000
380.273; -119.775; -985.000; -861.000
380.403;  -36.300; -344.000; -257.000
380.533;  -57.550; -651.000; -664.000
380.663;   57.725;  173.000;  128.000
380.793; -134.975;-1027.000;-1074.000
380.923;  -44.275; -103.000;  -34.000
381.053; -107.800; -613.000; -623.000
381.183;  -31.775; -106.000; -248.000
381.313;   -3.875; -656.000; -470.000
381.443;    3.575; -692.000; -473.000
381.573;  114.450; -402.000; -409.000
381.703;  163.700;-1249.000;-1095.000
381.833; -153.200;-1454.000;-1336.000
381.963;   83.575; -134.000;  -87.000
382.093; 1198.125; -925.000; -909.000
382.223;  346.975; -713.000; -602.000
382.353;  -45.150; -801.000; -608.000
382.482;  258.050;-1091.000; -964.000
382.612;  627.850; -872.000; -644.000
382.742;  320.900; -695.000; -622.000
382.872;  165.200; -565.000; -551.000
383.002;   26.450;  347.000; -132.000
383.131;  -44.700; -226.000; -160.000
383.261;  -65.050; -706.000; -768.000
383.391;  267.800; -552.000; -377.000
383.521; 3413.900;  451.000;  263.000
383.650;  797.500; -947.000; -904.000
383.780;  -14.025; -783.000; -656.000
383.910;   98.350;  880.000;  802.000
384.039;  -31.950; -794.000; -656.000
384.169;  105.375;-1205.000;-1017.000
384.299;  -52.625; -650.000; -662.000
384.428; -111.600; -764.000; -680.000
384.558;  -53.875; -308.000; -275.000
384.687;  -58.450; -414.000; -334.000
384.817;  -17.175;   75.000;   -2.000
384.947;    0.150; -234.000; -141.000
385.076;  243.375;  982.000;  912.000
385.206;   81.650;  369.000;  480.000
385.335;  -55.375; -549.000; -417.000
385.465; -101.100; -655.000; -663.000
385.594;   84.650;  -53.000;  -44.000
385.724;  307.275; -868.000; -838.000
385.853;   72.550; -296.000; -270.000
385.982; 1121.175; -743.000; -787.000
386.112; 1743.450;-1052.000; -871.000
386.241;   96.575; -307.000; -312.000
386.371;    0.150; -174.000;  -87.000
386.500;  -41.175; -825.000; -789.000
386.629;   -1.175; -874.000; -817.000
386.759;   36.375;  -43.000;   68.000
386.888;  -27.550; -170.000; -250.000
387.017; -113.125; -648.000; -620.000
387.147; -105.375; -771.000; -798.000
387.276;  -39.875; -410.000; -397.000
387.405;  -21.250; -398.000; -342.000
387.535;  -56.700; -452.000; -361.000
387.664;  -67.725; -692.000; -620.000
387.793;   37.450; -198.000; -113.000
387.922;  415.875;  255.000;  200.000
388.052;  -27.200; -576.000; -423.000
388.181;  -24.325; -342.000; -472.000
388.310;  -57.850; -889.000; -710.000
388.439;  -79.350; -749.000; -742.000
388.568;  140.775;  365.000;  244.000
388.697;  825.400; -756.000; -653.000
388.826;  151.900; -768.000; -666.000
388.956;   31.725; -285.000; -307.000
389.085;  -47.400; -347.000; -287.000
389.214; -118.125; -842.000; -872.000
389.343;  -75.500; -645.000; -413.000
389.472;  411.150;  126.000;  149.000
389.601;  488.900;   91.000;    0.000
389.730;  -12.375; -568.000; -687.000
389.859;   27.225;  226.000;   46.000
389.988;  137.850; -423.000; -408.000
390.117;  104.450; -168.000; -146.000
390.246;  -31.725; -331.000; -320.000
390.375;   33.050; -673.000; -626.000
390.504;  -77.700; -703.000; -621.000
390.633; -103.875; -672.000; -726.000
390.761;  -86.525; -732.000; -645.000
390.890;    1.200;   -4.000; -130.000
391.019;  -58.425; -421.000; -441.000
391.148; -138.850; -826.000; -855.000
391.277;  -96.150; -576.000; -493.000
391.406;  -96.025; -821.000; -805.000
391.534;   -2.850;  574.000; -301.000
391.663;  -69.275; -583.000; -645.000
391.792;  -83.100; -673.000; -701.000
391.921;   63.025;   -3.000;   15.000
392.050;  107.175; -287.000; -228.000
392.178;  -89.100;-1206.000;-1061.000
392.307;   92.300; -758.000; -712.000
392.436;    9.150; -427.000; -641.000
392.564;   10.775;  166.000;   -6.000
392.693;  -98.800; -860.000; -682.000
392.822;  140.700; -529.000; -534.000
392.950;   29.350; -880.000; -714.000
393.079;  248.500; -188.000; -328.000
393.208;  -10.475; -488.000; -511.000
393.336;  -22.200; -170.000; -145.000
393.465;  -54.175; -317.000; -199.000
393.593;   -5.325;   62.000;   79.000
393.722; -156.175;-1121.000; -916.000
393.850;  -48.250; -188.000;  -61.000
393.979; -172.550; -926.000; -805.000
394.107;  -70.450; -517.000; -537.000
394.236;  -55.275; -570.000; -507.000
394.364;  161.700;  383.000;  206.000
394.493;  182.500; -911.000; -767.000
394.621;  -32.175; -955.000; -916.000
394.750;  742.400; -873.000; -923.000
394.878; 3039.350; -247.000; -149.000
395.007; 4096.925; -721.000; -807.000
395.135;  275.275; -790.000; -721.000
395.263; -102.450;-1038.000;-1040.000
395.392;  -32.425;  -25.000; -107.000
395.520; -151.075; -818.000; -679.000
395.648; -115.300; -865.000; -915.000
395.777;  -33.850; -366.000; -405.000
395.905;  -67.550; -449.000; -564.000
396.033;   -1.900;  217.000;  172.000
396.162;  350.350; -399.000; -453.000
396.290;  310.600;  -17.000;   -2.000
396.418;   42.850; -555.000; -514.000
396.546; -103.100; -571.000; -466.000
396.674; -110.075; -850.000; -878.000
396.803;  -12.950;  -72.000;  -23.000
396.931;   43.825; -179.000; -199.000
397.059;  -13.900;-1026.000; -989.000
397.187; -127.050;-1026.000; -975.000
397.315; -144.125; -884.000; -649.000
397.443; -115.550; -592.000; -443.000
397.572; -101.975; -578.000; -424.000
397.700;  -49.950; -607.000; -614.000
397.828;  -16.375;  120.000;  -90.000
397.956;  -68.925; -508.000; -478.000
398.084;  -63.225; -767.000; -626.000
398.212;    9.500;  137.000;  124.000
398.340;  -10.425;  -56.000;  159.000
398.468;   -8.650; -390.000; -169.000
398.596; -145.050; -993.000; -953.000
398.724; -139.725; -762.000; -767.000
398.852; -172.375;-1024.000; -976.000
398.980;  -84.150; -560.000; -560.000
399.108;  -70.775; -982.000; -735.000
399.236;   21.450;   13.000;    8.000
399.363;   -0.625;  222.000;  196.000
399.491;  -69.525; -404.000; -398.000
399.619; -130.625; -829.000; -800.000
399.747; -125.075; -859.000; -771.000
399.875;   50.700;  220.000;  234.000
400.003;  -57.000; -359.000; -284.000
400.130; -108.075; -421.000; -341.000
400.258;  -39.850;  -83.000;   38.000
400.386;  -68.950; -352.000; -168.000
400.514;  -69.125; -526.000; -587.000
400.641; -114.050; -928.000; -802.000
400.769; -152.650; -979.000; -888.000
400.897; -137.550; -838.000; -793.000
401.025;  -36.475; -166.000; -152.000
401.152;  -31.275;  220.000;   38.000
401.280;  -82.725; -430.000; -429.000
401.408; -131.475; -712.000; -576.000
401.535; -115.850; -735.000; -758.000
401.663; -214.100;-1134.000;-1054.000
401.790; -103.350; -514.000; -525.000
401.918;   40.575;  436.000;  405.000
402.046;   -9.225;  134.000;  122.000
402.173;  -48.250;  -18.000;    7.000
402.301;  -81.600; -519.000; -397.000
402.428;   20.750;  528.000;  383.000
402.556; -160.550;-1188.000; -913.000
402.683;  -37.500;  -20.000;   -1.000
402.811;  -43.925;  -37.000; -206.000
402.938;  -13.525;   20.000;   27.000
403.066;  146.000; -574.000; -558.000
403.193;  273.975;  299.000;  239.000
403.321;  190.750; -396.000; -574.000
403.448;  259.225;   83.000;   27.000
403.575;   98.500;  -90.000;  -46.000
403.703; -105.600; -732.000; -557.000
403.830;  -76.075; -531.000; -496.000
403.957; -146.350;-1117.000;-1023.000
404.085;   14.375;  -61.000; -172.000
404.212;   87.175;  -50.000;   63.000
404.339;  280.425; -566.000; -306.000
404.467; 6065.600; -612.000; -524.000
404.594; 3688.475; -287.000; -227.000
404.721;  795.050; -869.000; -764.000
404.848;   60.075; -113.000; -202.000
404.976; -127.675; -856.000; -783.000
405.103;  -11.375;  -14.000;  -82.000
405.230;   -6.800;  190.000;  226.000
405.357;    9.250;  117.000;   44.000
405.484;  269.875;  -49.000;    5.000
405.612;   22.925; -548.000; -563.000
405.739;  -76.050; -488.000; -243.000
405.866;   84.500;  669.000;  385.000
405.993;  -47.675; -398.000; -102.000
406.120; -145.475; -801.000; -887.000
406.247;  -89.000; -323.000; -342.000
406.374;  328.025;  540.000;  629.000
406.501;   37.525; -632.000; -702.000
406.628;  -87.150; -621.000; -589.000
406.755; -121.375; -803.000; -620.000
406.882;  -69.175; -228.000; -277.000
407.009; -106.725; -719.000; -628.000
407.136;   15.125; -480.000; -401.000
407.263;   66.200; -939.000; -829.000
407.390; -100.950; -692.000; -614.000
407.517; -184.750;-1139.000;-1187.000
407.644;  -78.875; -332.000; -256.000
407.771; -142.775; -249.000; -287.000
407.898;   -4.775;  168.000;  328.000
408.025;  -75.600; -421.000; -313.000
408.151;  -24.525;   82.000;  153.000
408.278;  -64.175; -267.000; -216.000
408.405; -139.325; -931.000; -899.000
408.532;  -76.075; -549.000; -542.000
408.659; -130.925; -677.000; -648.000
408.785; -207.925;-1298.000;-1170.000
408.912;  -80.275; -412.000; -296.000
409.039; -127.275; -610.000; -686.000
409.166; -113.800; -591.000; -555.000
409.292; -127.925; -571.000; -534.000
409.419; -122.700; -665.000; -649.000
409.546;  -86.875; -431.000; -192.000
409.672; -121.350; -713.000; -545.000
409.799;  -29.900;  -36.000;   34.000
409.926;  -43.100; -180.000; -179.000
410.052; -180.850;-1127.000;-1091.000
410.179;  -77.875; -368.000; -392.000
410.305;  -94.300; -375.000; -493.000
410.432;  -60.075; -220.000; -333.000
410.558;  -94.300; -305.000; -380.000
410.685; -118.375; -688.000; -431.000
410.812; -103.500; -409.000; -588.000
410.938; -158.750; -964.000; -808.000
411.065; -107.725; -671.000; -645.000
411.191;  -29.125; -189.000; -174.000
411.317; -132.675; -823.000; -742.000
411.444;  -76.850; -317.000; -246.000
411.570;  -84.875; -339.000; -294.000
411.697; -139.500; -758.000; -752.000
411.823; -187.175; -989.000; -999.000
411.949;  -54.775;  -56.000;   17.000
412.076; -114.325; -539.000; -519.000
412.202; -131.475; -758.000; -757.000
412.329; -154.050; -798.000; -752.000
412.455; -124.525; -821.000; -657.000
412.581;  -31.275;  -15.000;  172.000
412.707;  -79.725; -540.000; -457.000
412.834;   10.825;  156.000;  219.000
412.960;  -98.025; -785.000; -784.000
413.086; -107.375; -743.000; -701.000
413.212;  128.775;  604.000;  578.000
413.339;  -88.000; -685.000; -701.000
413.465;  -26.925; -364.000; -310.000
413.591;  -95.800; -757.000; -474.000
413.717;  -81.450; -358.000; -366.000
413.843; -148.725; -839.000; -861.000
413.969;  -66.775;  -47.000; -292.000
414.096; -105.100; -679.000; -679.000
414.222;  -25.025;  -33.000;   85.000
414.348;  -58.875; -652.000; -385.000
414.474;   49.675;   38.000;  -52.000
414.600;  -31.550; -126.000; -144.000
414.726;  -40.200;  -96.000;  -55.000
414.852;  -76.150; -365.000; -342.000
414.978;   20.250;  104.000;  -18.000
415.104;   27.850;   38.000;   80.000
415.230;    9.400; -329.000; -330.000
415.356;   38.825; -409.000; -514.000
415.482;  189.925;   13.000;  -35.000
415.608;  265.025; -247.000; -323.000
415.734;  963.900;   67.000;   38.000
415.860;20723.175; -875.000; -767.000
415.986;14477.900; -685.000; -607.000
416.111; 1230.900; -798.000; -652.000
416.237;  252.000; -424.000; -571.000
416.363; 1221.250; -765.000; -733.000
416.489; 4348.100; -324.000; -251.000
416.615;  454.175; -707.000; -742.000
416.741;  -32.775; -677.000; -784.000
416.866; -105.175; -673.000; -736.000
416.992; -121.650; -801.000; -818.000
417.118;  -30.325;  -41.000;  -80.000
417.244;  -85.825; -798.000; -531.000
417.369;  -96.100; -801.000; -612.000
417.495;  -18.525; -325.000; -254.000
417.621;  -95.050;-1015.000; -803.000
417.746;  -10.200; -579.000; -572.000
417.872;   46.475; -254.000; -144.000
417.998;   44.600; -515.000; -530.000
418.123; 1129.200;-1073.000; -845.000
418.249; 5606.875; -512.000; -601.000
418.374;  744.250; -916.000; -824.000
418.500;  120.375; -383.000; -482.000
418.626;  115.325;   70.000;  -59.000
418.751;  103.925; -549.000; -448.000
418.877;  201.125; -637.000; -643.000
419.002; 1917.425; -688.000; -560.000
419.128;13183.825; -930.000; -721.000
419.253; 3086.050; -967.000; -837.000
419.379;  410.200; -391.000; -338.000
419.504;  405.825;  325.000;  415.000
419.629;  534.200; -393.000; -212.000
419.755; 3906.425; -317.000; -254.000
419.880;22610.325;  -98.000;   67.000
420.006;11991.700; -280.000; -221.000
420.131;30320.525; -662.000; -775.000
420.256; 4175.350; -315.000; -316.000
420.382;  542.750; -665.000; -687.000
420.507;   59.100; -649.000; -778.000
420.632;  100.575; -337.000; -339.000
420.758;  161.950; -251.000; -425.000
420.883;  -93.475; -876.000; -672.000
421.008; -105.050; -775.000; -619.000
421.133;  -79.425; -509.000; -467.000
421.259;  -56.975; -325.000; -259.000
421.384; -126.925; -834.000; -693.000
421.509;  -76.275;-1052.000; -862.000
421.634;  829.425; -936.000; -820.000
421.759;  348.000; -359.000; -327.000
421.885;  -88.025; -717.000; -656.000
422.010;  -99.375; -673.000; -542.000
422.135; -155.100; -695.000; -727.000
422.260;   14.250;  340.000;  280.000
422.385;  -54.075;   12.000;  -98.000
422.510;    0.775;  151.000;  -26.000
422.635;   -0.225;  -87.000;  -43.000
422.760;   71.050; -766.000; -791.000
422.885;   42.125;  -57.000;  -80.000
423.010;  -41.175; -112.000; -169.000
423.135; -102.525; -481.000; -561.000
423.260;  -34.475; -150.000; -245.000
423.385;   57.950;  476.000;  222.000
423.510;   12.050;   71.000;  -22.000
423.635;   40.400;  133.000;   45.000
423.760;   40.725;  383.000;  328.000
423.885;   36.950;  336.000;  391.000
424.010;   -1.350;  -68.000;  -13.000
424.135;  -29.900;    5.000;  -33.000
424.259; -102.950; -654.000; -457.000
424.384;  -62.825; -279.000; -272.000
424.509;  -37.125; -260.000; -186.000
424.634; -113.325; -761.000; -623.000
424.759;  -44.050; -688.000; -544.000
424.883;  -27.025; -506.000; -527.000
425.008;  140.675; -502.000; -410.000
425.133; 2093.225; -679.000; -653.000
425.258;  918.375; -517.000; -381.000
425.382;  904.800; -867.000; -774.000
425.507; 2247.025; -487.000; -543.000
425.632;  383.375; -802.000; -663.000
425.756;  476.850; -256.000; -146.000
425.881; 7339.500; -831.000; -857.000
426.006;19180.250; -604.000; -355.000
426.130; 2816.700; -696.000; -508.000
426.255;  354.275; -611.000; -491.000
426.379;  152.250; -189.000; -577.000
426.504;  382.825;  660.000;  544.000
426.629; 4160.275; -519.000; -466.000
426.753; 2774.550;   64.000;  -46.000
426.878;  327.750; -252.000; -288.000
427.002;  171.450; -651.000; -668.000
427.127; 1697.800;  -35.000; -158.000
427.251;11984.875;  372.000;  401.000
427.375; 3247.900; -191.000; -173.000
427.500; 2034.075; -616.000; -610.000
427.624;  636.275; -234.000; -400.000
427.749;   71.400; -216.000; -225.000
427.873;  -73.350; -499.000; -412.000
427.997;  -59.300; -222.000; -230.000
428.122;   56.050;  795.000;  703.000
428.246;   58.300;  433.000;  434.000
428.371; -147.225; -869.000; -773.000
428.495; -120.100; -624.000; -646.000
428.619;  -46.850; -186.000; -117.000
428.743;    6.575;   65.000;  132.000
428.868;  -20.075; -732.000; -643.000
428.992; 1186.725; -219.000; -326.000
429.116;  444.275; -329.000; -357.000
429.240;  211.775;  419.000;  426.000
429.365;  -37.575; -454.000; -574.000
429.489;  -66.650; -638.000; -647.000
429.613;   15.400; -236.000; -177.000
429.737;   16.025; -563.000; -432.000
429.861;  264.925; -247.000; -133.000
429.985; 5857.575; -425.000; -305.000
430.109; 6182.725; -770.000; -908.000
430.234;  681.325;   76.000;  -50.000
430.358;   54.075; -250.000; -160.000
430.482;  -94.750; -672.000; -564.000
430.606;  -84.750; -655.000; -375.000
430.730;  -15.175; -437.000; -388.000
430.854;   37.675; -909.000; -835.000
430.978; -110.050; -795.000; -764.000
431.102; -100.900; -499.000; -422.000
431.226; -135.900; -874.000; -815.000
431.350;    9.275;  345.000;  422.000
431.474;  -86.650; -661.000; -373.000
431.597; -170.100;-1060.000; -848.000
431.721;  -77.525; -276.000; -267.000
431.845; -128.275; -704.000; -472.000
431.969;  -89.450; -304.000; -349.000
432.093; -102.975; -395.000; -317.000
432.217;  -14.825;   32.000;   82.000
432.341;  -90.800; -523.000; -518.000
432.464;  -19.400;   96.000;   40.000
432.588;  110.600; -401.000; -329.000
432.712;   59.575;  -52.000;  -52.000
432.836;   21.025;  213.000;  263.000
432.959;  -14.500; -372.000; -311.000
433.083;   76.125;   11.000;    2.000
433.207;  385.975;  285.000;  930.000
433.330; 5422.000; -391.000; -200.000
433.454; 6435.050; -654.000; -638.000
433.578; 3693.650;  583.000;  278.000
433.701;  640.500; -623.000; -675.000
433.825;   96.450; -292.000; -299.000
433.949;   92.325;   28.000;  -72.000
434.072;   20.950; -410.000; -323.000
434.196;  -35.500; -309.000; -117.000
434.319; 3798.075;25482.000;25124.000
434.443;  713.450; -656.000; -603.000
434.566; 2772.900;  281.000;   62.000
434.690;  431.400; -637.000; -383.000
434.813;   40.125; -251.000; -173.000
434.937;  -75.000; -569.000; -696.000
435.060;  -67.275; -423.000; -332.000
435.184;  161.775; -492.000; -217.000
435.307;  104.750;  159.000;  102.000
435.431;  -25.225;  -40.000;   24.000
435.554;  -84.150; -399.000; -240.000
435.677;  -93.600; -350.000; -258.000
435.801;  -53.325;  -25.000;   49.000
435.924;  -31.650;    1.000;  -67.000
436.048; -137.625;-1019.000; -732.000
436.171;  -83.975; -240.000;  -66.000
436.294;  -19.250; -248.000; -229.000
436.417;   91.800; -963.000; -849.000
436.541;  -89.825; -814.000; -840.000
436.664;  -73.175; -242.000; -316.000
436.787;  -35.725;   13.000;  113.000
436.910; -118.650; -792.000; -422.000
437.034;  -11.025;  142.000;  143.000
437.157;   18.800;  -11.000;    0.000
437.280;  -71.075; -392.000; -292.000
437.403; -115.125; -982.000; -869.000
437.526;  392.450; -903.000; -865.000
437.649; 1588.200; -505.000; -332.000
437.772;  181.100; -692.000; -540.000
437.896;   88.600;  700.000;  544.000
438.019; -111.925; -758.000; -503.000
438.142; -102.900; -596.000; -506.000
438.265;  -54.900; -639.000; -670.000
438.388;  381.000; -520.000; -410.000
438.511;   21.425; -597.000; -394.000
438.634;  -55.400; -247.000; -125.000
438.757; -145.750; -693.000; -619.000
438.880;  -47.900;  -34.000;  -57.000
439.003;  -90.675; -417.000; -437.000
439.126;  -72.725; -287.000; -167.000
439.248;  -68.275;  -98.000; -139.000
439.371;  -55.025;    9.000;  -53.000
439.494;    7.000;  510.000;  439.000
439.617;  -69.525;   65.000;  -88.000
439.740; -184.675; -968.000; -816.000
439.863; -154.175; -755.000; -595.000
439.986; -131.200; -476.000; -431.000
440.108;  -51.950; -161.000; -112.000
440.231; -188.975; -950.000; -836.000
440.354;  -45.525;  -64.000; -150.000
440.477;  -34.050; -566.000; -542.000
440.599;  -48.900; -200.000; -225.000
440.722; -136.350; -709.000; -586.000
440.845;   74.200;  751.000;  928.000
440.968; -115.875; -415.000; -311.000
441.090;  -79.975; -199.000;  -33.000
441.213; -174.250;-1021.000; -825.000
441.336;  -81.250; -159.000;   -5.000
441.458; -100.475; -549.000; -396.000
441.581; -113.275; -628.000; -629.000
441.703;  -68.400; -152.000;   13.000
441.826; -123.075; -557.000; -400.000
441.948;  -60.700;   56.000;   51.000
442.071;    9.100;  555.000;  424.000
442.193; -127.150; -531.000; -485.000
442.316;   -7.550;  152.000;   97.000
442.438;   32.925; -233.000;  -10.000
442.561;   71.125;  272.000;  262.000
442.683;  357.550; -809.000; -522.000
442.806;  832.025;   -8.000;   74.000
442.928;  -28.175; -859.000; -604.000
443.051;  -76.175; -577.000; -373.000
443.173; -101.175; -341.000; -339.000
443.295; -106.025; -263.000; -371.000
443.418;  -84.250; -321.000;  -29.000
443.540;  -24.350; -106.000;   -4.000
443.662; -124.650; -563.000; -465.000
443.785;  -31.475;  335.000;  199.000
443.907; -124.275; -362.000; -208.000
444.029; -143.825; -767.000; -494.000
444.152; -161.025; -644.000; -554.000
444.274;  -32.825;  -18.000;  -24.000
444.396; -124.275; -461.000; -221.000
444.518; -138.400; -691.000; -454.000
444.640; -122.250; -268.000; -111.000
444.763;  -29.650;  388.000;  249.000
444.885; -131.300; -432.000; -392.000
445.007;  -42.300;   35.000;   86.000
445.129; -128.500; -610.000; -515.000
445.251; -115.075; -372.000; -439.000
445.373; -144.225; -537.000; -386.000
445.495;    3.850;  242.000;  350.000
445.617;   53.975;  853.000;  753.000
445.739;  -76.925; -215.000;  -97.000
445.861;  -46.125; -245.000; -112.000
445.984;  -65.850; -267.000; -101.000
446.105;  125.450; -418.000; -251.000
446.227;  445.975; -176.000;  -19.000
446.349;  -36.100; -358.000; -249.000
446.471; -116.475; -615.000; -448.000
446.593;  -91.600; -316.000;   19.000
446.715;  -26.075;  -67.000;   41.000
446.837;   50.025;  697.000;  832.000
446.959; -102.250; -457.000; -478.000
447.081; -134.325; -628.000; -518.000
447.203;   57.275;  862.000;  834.000
447.325;  -88.400; -270.000;   42.000
447.446;  -26.125;  286.000;  530.000
447.568; -159.875; -921.000; -803.000
447.690; -102.500; -236.000; -245.000
447.812; -152.275; -798.000; -519.000
447.933;  -37.425;  155.000;  127.000
448.055;  -76.550; -306.000; -261.000
448.177;   98.000;   31.000;   79.000
448.299;   15.825; -935.000; -727.000
448.420;    5.550;  -25.000;  159.000
448.542;  -59.500;   -3.000;   33.000
448.664;  -34.225;  109.000;  322.000
448.785;  -34.900;  265.000;   83.000
448.907;  -87.300; -614.000; -353.000
449.028;  -75.175; -771.000; -471.000
449.150;   45.725;  492.000;  589.000
449.272; -189.000;-1044.000; -913.000
449.393;   15.475;  612.000;  694.000
449.515; -158.275; -634.000; -581.000
449.636;  -62.350; -264.000; -155.000
449.758;   52.175;  763.000;  622.000
449.879; -115.900; -498.000; -396.000
450.001;  -82.275; -149.000;  -49.000
450.122;  -45.300;  -95.000;  162.000
450.244;  -25.025;   37.000;  364.000
450.365;  -95.400; -495.000; -301.000
450.486;  -38.275;   80.000;  268.000
450.608;    4.350;  393.000;  326.000
450.729;   66.625;  578.000;  645.000
450.850;    0.025; -574.000; -466.000
450.972;  839.875; -552.000; -389.000
451.093; 5265.100;  190.000;  588.000
451.214; 2227.675; -516.000; -337.000
451.336;  398.950;  773.000;  579.000
451.457;   62.875;  264.000;  393.000
451.578;  -42.550; -118.000;  -74.000
451.699; -139.275; -546.000; -540.000
451.821;  -81.775; -284.000;  -50.000
451.942;  -12.125;  278.000;  285.000
452.063;   27.350;  228.000;  419.000
452.184;  595.975;  -54.000;  -49.000
452.305; 1131.550;  103.000;  170.000
452.427;  116.925; -549.000; -301.000
452.548;  -39.925;   23.000;   79.000
452.669;  -74.950; -257.000;  -89.000
452.790;  -65.575;    3.000;  -18.000
452.911;    3.100;  195.000;  259.000
453.032;  -84.525; -289.000;  -60.000
453.153;  -58.750;  -29.000;   81.000
453.274;   56.525;  737.000;  868.000
453.395;  -62.000;  -51.000;  175.000
453.516;  124.650; 1317.000; 1388.000
453.637;  -74.750; -205.000; -150.000
453.758;  -62.075;   15.000;   69.000
453.879; -136.175; -462.000; -250.000
454.000;   62.575; 1086.000;  948.000
454.121; -117.150; -554.000; -326.000
454.242; -114.225; -599.000; -383.000
454.362;  -63.300;  -99.000;  114.000
454.483;  -55.550; -309.000; -229.000
454.604;   38.100;  512.000;  580.000
454.725; -141.675; -627.000; -555.000
454.846; -152.275; -474.000; -406.000
454.967;  -29.925;  230.000;  539.000
455.087;  -56.550;  179.000;  153.000
455.208;   14.850;  554.000;  856.000
455.329;  -68.525;  -22.000;   82.000
455.450;   32.500;  473.000;  633.000
455.570;  -95.300; -234.000; -211.000
455.691;  -41.925;  201.000;  407.000
455.812; -118.150; -270.000;  -92.000
455.932;  -76.275;  107.000;  -97.000
456.053;  -77.050;   36.000;   24.000
456.173; -115.700; -433.000; -355.000
456.294; -147.300; -476.000; -303.000
456.415;  -88.975;  -73.000;   70.000
456.535;  -43.350;  297.000;  273.000
456.656;  -55.425;  132.000;  240.000
456.776;  -62.050;    3.000;  298.000
456.897;   -2.000;  308.000;  513.000
457.017;  -98.150; -153.000;   -3.000
457.138; -119.600; -402.000; -249.000
457.258;  -40.500;  263.000;  224.000
457.379;  -16.425;  509.000;  521.000
457.499;  -29.750;  443.000;  432.000
457.620; -132.925; -407.000; -231.000
457.740; -115.400; -132.000;  -11.000
457.860;  -63.725;   87.000;   44.000
457.981;  -68.875;  132.000;  124.000
458.101;  -84.300;  -89.000;   40.000
458.221;  -20.425;  336.000;  402.000
458.342;  -66.950;   -4.000;  -37.000
458.462;   22.975;  617.000;  352.000
458.582;  -32.125; -302.000; -294.000
458.703;   10.350;  303.000;  154.000
458.823;  -25.950;   22.000;  163.000
458.943;   16.500;  341.000;  467.000
459.063;  -11.825; 1124.000;  192.000
459.183;  -17.675;  328.000;  313.000
459.304;    7.175;  315.000;  517.000
459.424;  -71.100; -246.000;  -89.000
459.544;  352.200;  388.000;  764.000
459.664;  850.150;  499.000;  506.000
459.784;  304.800; 1004.000; 1175.000
459.904;   43.325;  867.000;  744.000
460.024;   51.175;  867.000;  684.000
460.144;  -13.375;  449.000;  554.000
460.264;  -15.425;  515.000;  327.000
460.385;  -95.050; -145.000; -119.000
460.505;   34.025;  905.000;  858.000
460.625; -119.175;  -17.000;  -68.000
460.745;  -27.400;  396.000;  541.000
460.864;  -63.925;  153.000;  469.000
460.984;   -7.875;  499.000;  573.000
461.104;  134.100; 1656.000; 1775.000
461.224;   17.800;  657.000;  650.000
461.344;  -47.825;  431.000;  360.000
461.464;  -30.325;  258.000;  513.000
461.584;  -20.000;  283.000;  466.000
461.704;  -50.175;   58.000;  108.000
461.824;  -74.300;  238.000;  259.000
461.943;  -50.225;  191.000;  130.000
462.063;  -77.550;    2.000;  324.000
462.183;   15.775;  639.000;  717.000
462.303;  101.350; 1678.000; 1230.000
462.422;   36.400;  781.000;  840.000
462.542;  -39.950;  271.000;  391.000
462.662;   36.875;  353.000;  380.000
462.782;  245.250;  833.000;  572.000
462.901;  500.450;  545.000;  717.000
463.021;  283.450; 1702.000; 1638.000
463.141;  -15.050;  337.000;  770.000
463.260;  -23.575;  614.000;  474.000
463.380;    9.250;  902.000;  884.000
463.499;  -36.875;  342.000;  332.000
463.619;  -46.700;  581.000;  559.000
463.738;   99.425; 1644.000;  903.000
463.858;   -0.825;  657.000;  811.000
463.978;  -41.725;  542.000;  396.000
464.097;   49.275;  921.000; 1114.000
464.217;  104.725; 1196.000; 1143.000
464.336;  111.400; 1068.000; 1130.000
464.455;  -55.500;  328.000;  659.000
464.575;   40.275;  597.000;  602.000
464.694;  160.900; 1204.000; 1179.000
464.814;  132.675; 1190.000; 1138.000
464.933;   48.050; 1095.000; 1027.000
465.052;   86.900; 1412.000; 1054.000
465.172;   66.450;  922.000;  799.000
465.291;  134.125; 1376.000; 1320.000
465.410;   -1.825;  462.000;  735.000
465.530;   78.550; 1355.000; 1310.000
465.649;   57.200; 1209.000; 1273.000
465.768;  117.550; 1673.000; 1508.000
465.888;   35.900;  941.000; 1174.000
466.007;   80.450; 1335.000; 1440.000
466.126;  -12.200;  721.000;  641.000
466.245;   45.175; 1176.000; 1187.000
466.364;   16.100;  950.000; 1060.000
466.484;   43.500; 1024.000; 1213.000
466.603;   19.800; 1101.000; 1222.000
466.722;   99.900; 1490.000; 1769.000
466.841;   72.925; 1151.000; 1401.000
466.960;   29.375; 1069.000;  972.000
467.079;  120.650; 1971.000; 1786.000
467.198;   32.650; 1238.000; 1181.000
467.317;   86.175; 1768.000; 1162.000
467.436;   80.075; 1709.000; 1261.000
467.555;  113.650; 1796.000; 1746.000
467.674;   53.000; 1227.000; 1329.000
467.793;   36.800; 1376.000; 1374.000
467.912;   75.975; 1658.000; 1539.000
468.031;  128.900; 2038.000; 1930.000
468.150;  135.750; 1842.000; 1837.000
468.269;  184.250; 2313.000; 2090.000
468.388;  179.025; 2168.000; 2339.000
468.507;  239.675; 2884.000; 2903.000
468.626;  242.650; 2555.000; 2541.000
468.744;  123.025; 2018.000; 2174.000
468.863;  186.425; 2312.000; 2523.000
468.982;   78.575; 1503.000; 1555.000
469.101;  219.100; 2788.000; 2692.000
469.220;  148.600; 2333.000; 2176.000
469.338;  247.300; 2935.000; 3051.000
469.457;  189.350; 2719.000; 2545.000
469.576;  336.175; 3953.000; 3784.000
469.695;  239.325; 2877.000; 3066.000
469.813;  411.825; 4148.000; 4192.000
469.932;  404.075; 4255.000; 4485.000
470.051;  421.375; 4075.000; 4161.000
470.169;  868.325; 4470.000; 4338.000
470.288; 1530.625; 4700.000; 4809.000
470.406;  876.200; 5059.000; 5194.000
470.525;  640.675; 6101.000; 5787.000
470.644;  642.775; 6847.000; 6794.000
470.762;  812.950; 8397.000; 7873.000
470.881;  912.950; 8651.000; 8464.000
470.999; 1051.075; 9685.000; 9151.000
471.118; 1109.900;11174.000;10711.000

