
Integration time [ms]: 100.000
Averaging Nr. [scans]: 40
Smoothing Nr. [pixels]: 0
Data measured with spectrometer [name]: 2101012U2
Wave   ;Sample   ;Dark     ;Reference
[nm]   ;[counts] ;[counts] ;[counts] 

197.733;   67.100;  516.000;  404.000
197.879;  -73.850; -610.000; -634.000
198.025;  -43.275; -475.000; -420.000
198.171;  -65.500; -602.000; -612.000
198.317;  -42.875; -401.000; -316.000
198.463;  -61.725; -655.000; -404.000
198.609;   28.675;  181.000; -137.000
198.755;  -79.400; -644.000; -410.000
198.901;  -66.750; -505.000; -424.000
199.047;  -57.625; -615.000; -488.000
199.193;  -36.650; -230.000; -468.000
199.339;  -44.525; -222.000; -369.000
199.485;   45.750;  330.000;  271.000
199.631;   17.675;  227.000;  310.000
199.777;  -47.175; -466.000; -398.000
199.923;  -61.875; -610.000; -424.000
200.069;    5.500; -141.000;  -58.000
200.215;   74.700;  128.000;  453.000
200.361;   51.300;  243.000;  477.000
200.507;  -66.350; -600.000; -373.000
200.653;  -48.675; -371.000; -194.000
200.798;  -18.875; -215.000; -125.000
200.944;  -14.775; -146.000;  -41.000
201.090;   40.150;   61.000;  222.000
201.236;    7.525; -116.000; -158.000
201.382;  143.600;  874.000;  903.000
201.528;   -5.425;  -58.000;  -48.000
201.674;  -51.200; -386.000; -293.000
201.819;  -62.725; -540.000; -439.000
201.965;  -81.525; -699.000; -447.000
202.111;  -22.425; -273.000; -226.000
202.257;  -28.750; -250.000; -238.000
202.402;   22.200;   13.000;  -36.000
202.548;  -33.975; -169.000; -116.000
202.694;   92.225;  410.000; -183.000
202.840;  -70.675; -603.000; -531.000
202.985;  -76.200; -681.000; -639.000
203.131;  -98.675; -832.000; -666.000
203.277;  -20.975; -199.000; -262.000
203.423;  -42.025; -434.000; -520.000
203.568;  -38.475; -462.000; -237.000
203.714;  -54.750; -535.000; -542.000
203.860;  -91.475; -682.000; -641.000
204.005;   27.225;  112.000;  167.000
204.151;   86.975;  561.000;  556.000
204.296;  -48.625; -354.000; -221.000
204.442;  -81.800; -600.000; -547.000
204.588;  -77.475; -592.000; -579.000
204.733;   25.425;  178.000;  168.000
204.879; -129.375;-1018.000; -822.000
205.025;    1.325;  -99.000;  126.000
205.170;    8.400;  -17.000;   94.000
205.316;   79.525;  438.000;  661.000
205.461;  -92.825; -698.000; -554.000
205.607;   83.725;  609.000;  665.000
205.752;  -95.550; -626.000; -551.000
205.898;  -59.575; -501.000; -391.000
206.043;  -53.275; -578.000; -506.000
206.189;  -25.625; -243.000; -285.000
206.334;   83.250;  554.000;  606.000
206.480;   82.250;  409.000;  239.000
206.625;  -82.925; -529.000; -552.000
206.771;  -55.550; -451.000; -373.000
206.916;  -22.375; -210.000; -537.000
207.062;  -74.200; -545.000; -591.000
207.207;  -71.700; -546.000; -443.000
207.353;   50.475;  185.000;  460.000
207.498;   25.100;  196.000;   85.000
207.643;  -42.375; -501.000; -370.000
207.789; -122.350;-1069.000; -910.000
207.934;  -95.900; -665.000; -713.000
208.080;  -20.625; -154.000;   66.000
208.225;   -7.050;  -22.000;  -57.000
208.370;  -94.975; -727.000; -619.000
208.516;  -76.600; -741.000; -487.000
208.661;  -36.700; -127.000;  -69.000
208.806;  -29.375; -165.000; -171.000
208.952; -116.675;-1044.000; -731.000
209.097;   63.700;  378.000;  349.000
209.242;  -34.600; -307.000; -382.000
209.387;   78.475;  392.000;  350.000
209.533;  -47.575; -321.000; -350.000
209.678;   75.875;  472.000;  543.000
209.823;  -52.550; -408.000; -310.000
209.969;  -95.500; -860.000; -757.000
210.114; -102.775; -907.000; -719.000
210.259; -110.275; -939.000; -889.000
210.404;    2.150; -171.000;  103.000
210.549;    6.450;  108.000;    3.000
210.695;  -14.700;   -3.000;  -95.000
210.840;   20.675;   94.000;   67.000
210.985;  -45.825; -484.000; -303.000
211.130;   72.700;  268.000;  406.000
211.275;   26.100;  207.000;  199.000
211.420;  -55.200; -300.000; -289.000
211.566;  -70.575; -536.000; -489.000
211.711;   41.225;  218.000;  157.000
211.856;  -57.000; -545.000; -519.000
212.001;   16.900;  151.000;   44.000
212.146;   33.475;  153.000;   49.000
212.291;  -22.500; -210.000; -186.000
212.436;  -34.025; -280.000;   -6.000
212.581;  -86.950; -685.000; -653.000
212.726;  -70.975; -487.000; -538.000
212.871;  -48.275; -552.000; -217.000
213.016; -146.175;-1172.000;-1029.000
213.161;   61.025;  406.000;  291.000
213.306;  -70.800; -435.000; -577.000
213.451;  -93.025; -778.000; -689.000
213.596;  -38.600; -455.000; -347.000
213.741;  -47.575; -448.000; -538.000
213.886;  -75.175; -498.000; -517.000
214.031;  -14.175; -294.000; -124.000
214.176;  -48.125; -408.000; -341.000
214.321;  -12.250; -296.000; -157.000
214.466;  -24.725; -163.000;  -43.000
214.611;    4.075;  -61.000;  -10.000
214.756; -113.725; -948.000; -858.000
214.901;  -27.675; -388.000; -226.000
215.046; -119.900; -797.000; -825.000
215.191;   10.775;  128.000;   35.000
215.336;  -16.850; -157.000;  -19.000
215.480;  -68.500; -684.000; -505.000
215.625;   -4.375; -175.000;  -19.000
215.770;  -92.125; -757.000; -662.000
215.915;   -1.175;   -5.000;  -97.000
216.060;    4.700; -113.000;  -21.000
216.205; -115.025; -731.000; -779.000
216.349;  -77.800; -470.000; -533.000
216.494; -133.625; -939.000; -867.000
216.639; -112.650; -823.000; -888.000
216.784;  -82.975; -577.000; -525.000
216.929;   65.475;  392.000;  281.000
217.073;   10.000; -244.000;  -31.000
217.218;   22.475;   78.000;  -47.000
217.363;  -90.650; -656.000; -618.000
217.507;  -75.625; -623.000; -588.000
217.652; -129.300; -845.000; -874.000
217.797;  -87.050; -708.000; -659.000
217.942; -110.625; -856.000; -720.000
218.086;   78.800;  608.000;  539.000
218.231;  -21.375; -174.000;  -26.000
218.376;  -37.300; -337.000; -229.000
218.520;    1.725;  -41.000;   96.000
218.665;  -29.800; -338.000; -204.000
218.810;  -46.850; -275.000; -233.000
218.954;   22.375;  201.000;   35.000
219.099; -112.375; -713.000; -963.000
219.243;  -70.225; -589.000; -554.000
219.388;  -28.150; -264.000; -136.000
219.532;  -13.825; -116.000; -116.000
219.677;  -82.575; -564.000; -521.000
219.822;    6.475;   33.000;   89.000
219.966;    6.925;   17.000;  -99.000
220.111;  -34.850; -328.000;  -40.000
220.255; -102.350; -797.000; -750.000
220.400;  -18.750; -180.000; -146.000
220.544;  -62.825; -516.000; -450.000
220.689;  -53.475; -422.000; -451.000
220.833;  -14.575; -123.000;  -58.000
220.978;  -43.500; -393.000; -563.000
221.122;   24.200;  319.000;  307.000
221.267; -131.550; -906.000; -837.000
221.411;  -70.075; -478.000; -394.000
221.555;   -9.025; -104.000;  -23.000
221.700;  -48.975; -329.000; -222.000
221.844;   42.425;  255.000;  272.000
221.989;  -40.100; -328.000; -311.000
222.133;  -39.800; -289.000; -307.000
222.277;   -0.975;    5.000;   78.000
222.422;    2.125;  227.000;  113.000
222.566;  -38.625; -381.000; -214.000
222.711;  -49.200; -414.000; -479.000
222.855;  -63.050; -643.000; -586.000
222.999;  -84.525; -642.000; -717.000
223.144;  -28.600; -195.000; -194.000
223.288;   53.675;  423.000;  251.000
223.432;   33.475;  184.000;  230.000
223.576;   21.825;  152.000;  -21.000
223.721;   57.525;  364.000;  273.000
223.865;  -54.875; -472.000; -475.000
224.009;  284.925; 1673.000; 1631.000
224.153;  -77.225; -660.000; -671.000
224.298;  -67.775; -531.000; -489.000
224.442;    0.525;  -74.000;  -33.000
224.586;   -9.025; -169.000; -106.000
224.730;  -85.325; -858.000; -670.000
224.875; -101.675; -739.000; -688.000
225.019;   21.600;  102.000;  188.000
225.163;   59.175;  208.000;  341.000
225.307;   18.025;   97.000;  -91.000
225.451;   60.650;  360.000;  481.000
225.595;   44.375;  264.000;  176.000
225.739;  -17.375; -170.000;  -94.000
225.884;    6.175;   86.000;    5.000
226.028;  -95.825; -760.000; -626.000
226.172;  -46.450; -260.000; -273.000
226.316; -118.550; -941.000; -902.000
226.460;  -77.325; -645.000; -493.000
226.604;  -38.050; -406.000; -400.000
226.748; -100.075; -836.000; -733.000
226.892;  -29.550; -227.000; -181.000
227.036;  -51.950; -537.000; -447.000
227.180;  -39.800; -551.000; -375.000
227.324;  -62.450; -561.000; -580.000
227.468; -119.700; -819.000; -717.000
227.612;   16.650;  242.000;  -28.000
227.756;  -86.400; -845.000; -698.000
227.900;   59.800;  342.000;  441.000
228.044;  -46.450; -509.000; -290.000
228.188;   70.475;  448.000;  568.000
228.332;  -80.000; -546.000; -472.000
228.476;  -14.450; -223.000; -149.000
228.620;  -24.150; -210.000; -150.000
228.764;   67.400;  431.000;  349.000
228.908;  -11.650; -155.000;   30.000
229.052;  -64.275; -615.000; -528.000
229.195;  -21.900; -172.000;   13.000
229.339;  -26.075; -235.000; -305.000
229.483;  -22.725;    5.000; -162.000
229.627;    0.550; -156.000;  139.000
229.771;  -38.450; -218.000; -294.000
229.915;    9.575;  230.000;   79.000
230.059;  -80.575; -648.000; -663.000
230.202;  -36.700; -370.000; -317.000
230.346;  -13.775; -107.000;  107.000
230.490;  -68.300; -489.000; -521.000
230.634; -120.000; -736.000; -553.000
230.777;   92.850;  478.000;  509.000
230.921;  -53.650; -450.000; -359.000
231.065;  -45.600; -246.000; -286.000
231.209;   30.200;  261.000;  265.000
231.352;   11.175;   54.000;   40.000
231.496;   20.250;  568.000;  188.000
231.640;  -74.350; -693.000; -621.000
231.783;   63.975;  546.000;  525.000
231.927;  -45.150; -294.000; -365.000
232.071; -122.550; -962.000; -736.000
232.214; -121.775; -980.000; -764.000
232.358; -107.900; -683.000; -599.000
232.502;   12.525;  -19.000;    7.000
232.645; -119.550;-1090.000; -927.000
232.789;  -23.700; -257.000; -218.000
232.933;  -40.875; -407.000; -224.000
233.076; -132.500;-1038.000; -897.000
233.220; -107.025; -752.000; -777.000
233.363;  -85.200; -669.000; -477.000
233.507;   57.350;  371.000;  129.000
233.650;  -92.875; -764.000; -834.000
233.794;   59.500;  438.000;  461.000
233.938;  -64.625; -530.000; -362.000
234.081;  -19.550;  -93.000;   31.000
234.225;  -75.550; -631.000; -539.000
234.368; -113.050; -773.000; -723.000
234.512;  -42.475; -385.000; -299.000
234.655;  -88.650; -582.000; -555.000
234.798;  -66.700; -493.000; -466.000
234.942; -129.800; -884.000;-1002.000
235.085;  -81.300; -651.000; -443.000
235.229;  -68.000; -405.000; -410.000
235.372;  -49.950; -247.000; -191.000
235.516;  -54.200; -397.000; -321.000
235.659;   13.925;   92.000;  121.000
235.802;  -14.075;  -38.000;  -22.000
235.946;   24.200;  335.000;  215.000
236.089;   18.700;  126.000;  250.000
236.233;   54.550;  275.000;  298.000
236.376;  -35.775; -235.000; -378.000
236.519;  -48.425; -297.000; -319.000
236.663;  -32.400; -215.000; -117.000
236.806; -128.100;-1029.000; -999.000
236.949;   70.750;  543.000;  431.000
237.092;   55.775;  412.000;  391.000
237.236;  -85.125; -589.000; -502.000
237.379;   62.350;  352.000;  428.000
237.522; -128.075; -879.000; -768.000
237.666;  -23.575; -271.000;   18.000
237.809; -120.250; -851.000; -823.000
237.952;   55.800;  469.000;  271.000
238.095;  -56.275; -447.000; -442.000
238.238;  104.350;  688.000;  700.000
238.382;    7.600;  166.000;  103.000
238.525;  -76.000; -598.000; -511.000
238.668; -154.800;-1060.000; -985.000
238.811;  -77.975; -638.000; -643.000
238.954;  -67.675; -483.000; -334.000
239.097;   96.150;  617.000;  664.000
239.241;   24.325;  394.000;  326.000
239.384;  -33.475; -254.000; -214.000
239.527;  -55.025; -424.000; -224.000
239.670; -142.525; -994.000;-1091.000
239.813; -117.550; -696.000; -658.000
239.956;   84.275;  579.000;  473.000
240.099; -100.675; -778.000; -725.000
240.242;   62.775;  428.000;  432.000
240.385;   47.425;  466.000;  450.000
240.528;  -74.100; -706.000; -473.000
240.671;   19.400;  189.000;  134.000
240.814;  -47.150; -441.000; -158.000
240.957;  -94.700; -767.000; -578.000
241.100; -102.375; -779.000; -755.000
241.243; -149.400;-1234.000; -893.000
241.386;  -61.600; -508.000; -379.000
241.529;  -83.050; -735.000; -547.000
241.672;  -67.925; -566.000; -495.000
241.815; -120.400; -832.000; -808.000
241.958;  -25.425; -125.000; -182.000
242.101;  -74.025; -545.000; -390.000
242.244;  -39.200; -270.000; -325.000
242.387;  -37.850; -304.000; -246.000
242.530;   66.600;  470.000;  134.000
242.673;  -44.575; -381.000; -309.000
242.815; -124.400; -925.000; -899.000
242.958;  -75.375; -482.000; -381.000
243.101;   16.350;  132.000;  187.000
243.244;  -89.200; -564.000; -521.000
243.387;  -50.425; -313.000; -316.000
243.530; -100.800; -657.000; -674.000
243.672;    8.925;   43.000;  -92.000
243.815;  -58.225; -355.000; -283.000
243.958;   -6.475;   98.000;  -26.000
244.101;    2.400;   59.000;  -16.000
244.243;  -13.875;  -47.000;  101.000
244.386; -114.150; -761.000; -630.000
244.529;  -28.050; -132.000; -139.000
244.672; -150.675;-1154.000; -951.000
244.814;  -94.925; -621.000; -794.000
244.957;  -39.450; -380.000; -304.000
245.100;  -65.825; -489.000; -489.000
245.242;  -65.600; -387.000; -374.000
245.385;  -15.300;  -59.000;  -39.000
245.528; -111.375; -871.000; -705.000
245.670;   97.425;  612.000;  634.000
245.813;  -85.275; -599.000; -547.000
245.956;  -48.850; -324.000; -275.000
246.098;  -70.525; -508.000; -650.000
246.241;   -8.275;  194.000;   48.000
246.383;  -13.550; -119.000;  -73.000
246.526;  -89.400; -454.000; -525.000
246.669; -108.050; -889.000; -780.000
246.811;   19.475;  172.000;   -1.000
246.954;  -65.200; -512.000; -426.000
247.096;  -28.025;  -84.000;   -6.000
247.239;  -57.325; -482.000; -445.000
247.381;  -88.500; -647.000; -488.000
247.524;   79.275;  645.000;  679.000
247.666;    2.300;   58.000;   11.000
247.809; -104.100; -887.000; -691.000
247.951;  -13.775;  -75.000;  138.000
248.094;   30.650;  432.000;  308.000
248.236; -177.000;-1262.000;-1238.000
248.378;  -44.075; -356.000;  -81.000
248.521;  -58.900; -334.000; -337.000
248.663;  -40.650; -236.000; -267.000
248.806;  -37.375; -300.000; -266.000
248.948; -110.925; -886.000; -763.000
249.090;  -76.125; -428.000; -398.000
249.233;  -60.900; -344.000; -381.000
249.375;  -54.250; -474.000; -451.000
249.518;  -35.700;  -83.000; -133.000
249.660;    0.075; -103.000;    3.000
249.802; -177.325;-1303.000;-1189.000
249.945;  -71.775; -612.000; -540.000
250.087; -113.450; -834.000; -768.000
250.229;  -52.275; -362.000; -480.000
250.371;  -56.000; -494.000; -439.000
250.514;  -56.450; -310.000; -244.000
250.656;    5.900;   69.000;  102.000
250.798; -130.875; -849.000; -800.000
250.940;  -52.700; -322.000; -322.000
251.083;  -30.000; -335.000; -111.000
251.225;   64.850;  338.000;  310.000
251.367;  -45.850; -274.000; -373.000
251.509;  -50.150; -265.000; -210.000
251.651; -101.300; -731.000; -671.000
251.794;   78.250;  538.000;  632.000
251.936; -106.500; -821.000; -747.000
252.078;  -74.825; -540.000; -461.000
252.220;  -90.925; -645.000; -477.000
252.362;   36.275;  344.000;  462.000
252.504;  -90.675; -677.000; -584.000
252.646; -114.775; -875.000; -722.000
252.788;  -24.475;   14.000; -128.000
252.931;  -50.425; -257.000; -253.000
253.073;  -42.825; -376.000; -317.000
253.215;  -18.575;  141.000;  122.000
253.357;  -19.650;   82.000; -153.000
253.499;  -42.675; -374.000; -234.000
253.641;  -97.800; -749.000; -594.000
253.783;  -99.475; -609.000; -527.000
253.925;  -82.075; -586.000; -591.000
254.067; -126.950; -744.000; -667.000
254.209;  -35.150; -391.000; -259.000
254.351; -138.925; -865.000; -883.000
254.493;  -70.700; -441.000; -417.000
254.635; -140.400; -936.000; -818.000
254.777; -104.400; -752.000; -687.000
254.918;  -70.800; -512.000; -430.000
255.060;  -67.700; -551.000; -395.000
255.202;  -65.675; -473.000; -261.000
255.344;  -74.725; -658.000; -455.000
255.486;  -69.475; -471.000; -406.000
255.628; -106.600; -780.000; -781.000
255.770; -102.650; -676.000; -536.000
255.912;  -61.550; -559.000; -468.000
256.053;  -93.850; -730.000; -508.000
256.195;  162.950; 1008.000;  903.000
256.337; -101.800; -861.000; -595.000
256.479;   58.225;  532.000;  416.000
256.621;  -38.100; -394.000; -212.000
256.762; -101.775; -789.000; -742.000
256.904;   66.375;  485.000;  487.000
257.046;  -55.000; -381.000; -271.000
257.188;  -50.100; -351.000; -264.000
257.329;  -70.825; -525.000; -464.000
257.471; -116.850; -939.000; -807.000
257.613;  -76.250; -584.000; -498.000
257.755; -143.600;-1073.000; -982.000
257.896;   29.275;  286.000;  392.000
258.038;  -66.900; -403.000; -352.000
258.180;  -34.650; -354.000; -279.000
258.321;  -80.725; -581.000; -457.000
258.463;   -0.225;  -71.000;  133.000
258.605;  -87.725; -562.000; -570.000
258.746; -108.725; -886.000; -772.000
258.888; -151.975;-1026.000;-1020.000
259.029;   27.275;  121.000;   -8.000
259.171;  -91.350; -614.000; -550.000
259.313;  -13.450;  -49.000;  -47.000
259.454;  -67.400; -536.000; -414.000
259.596;  -71.125; -483.000; -390.000
259.737;  -72.650; -590.000; -474.000
259.879;   41.175;  217.000;  311.000
260.020;   84.600;  901.000;  636.000
260.162;  -27.200; -146.000; -253.000
260.303; -120.225; -768.000; -687.000
260.445;  -76.750; -609.000; -613.000
260.586;   12.350;  392.000;  157.000
260.728;  -49.400; -360.000; -248.000
260.869; -109.125; -350.000; -343.000
261.011;   78.775;  706.000;  537.000
261.152;  -68.250; -479.000; -319.000
261.293;  -81.300; -576.000; -595.000
261.435;  -38.200; -219.000; -184.000
261.576;  -49.575; -455.000; -325.000
261.718;   59.375;  420.000;  470.000
261.859; -128.250; -940.000; -949.000
262.000; -137.550; -951.000;-1016.000
262.142;  -16.400;  -52.000;  -60.000
262.283; -112.925; -808.000; -691.000
262.424;  -92.275; -666.000; -625.000
262.566; -170.825;-1161.000; -983.000
262.707; -121.875; -840.000; -830.000
262.848; -134.500; -769.000; -726.000
262.990;  -57.025; -362.000; -345.000
263.131;   95.975;  650.000;  681.000
263.272;   -4.950;  -61.000;  -41.000
263.413; -102.300; -589.000; -561.000
263.555;  -74.700; -669.000; -143.000
263.696;  -89.200; -550.000; -641.000
263.837;  -52.625; -449.000; -551.000
263.978;    0.975;   -5.000;  -77.000
264.119;  -50.425; -283.000; -264.000
264.261; -121.750; -847.000; -630.000
264.402;   -3.275;   33.000;   40.000
264.543;  -93.625; -509.000; -524.000
264.684;   -6.725;   61.000;  -50.000
264.825;  -75.175; -816.000; -538.000
264.966;   -7.800;  -84.000;  -67.000
265.107; -110.225; -646.000; -670.000
265.248; -122.675; -825.000; -812.000
265.390;   -3.875;  152.000;   -9.000
265.531;  -29.875; -238.000; -107.000
265.672;  -86.275; -557.000; -630.000
265.813;   74.850;  563.000;  439.000
265.954; -155.775; -959.000; -940.000
266.095;  -24.950; -372.000; -322.000
266.236; -103.800; -686.000; -548.000
266.377;  -55.350; -243.000; -297.000
266.518;  -75.225; -619.000; -547.000
266.659;   21.075;  170.000;  268.000
266.800;   -4.100;   83.000;   85.000
266.941;  -76.825; -487.000; -478.000
267.082;    1.925;  354.000;   99.000
267.223;  -63.825; -344.000; -273.000
267.364; -119.275; -892.000; -686.000
267.504;   -8.650;    3.000;  135.000
267.645;    6.350;  160.000;   67.000
267.786;  -35.325; -147.000;  -86.000
267.927;  -77.550; -473.000; -379.000
268.068;  -21.725; -186.000;  -61.000
268.209;  -47.300; -175.000; -413.000
268.350;  -65.650; -388.000; -532.000
268.490;  -96.775; -648.000; -521.000
268.631;   16.550;  127.000;  225.000
268.772; -133.200; -874.000; -647.000
268.913;  -63.675; -328.000; -476.000
269.054;  -25.550; -117.000;   12.000
269.194;  -50.725; -418.000; -402.000
269.335; -153.200;-1137.000;-1074.000
269.476;  -15.075;   33.000;  -35.000
269.617;  -55.675; -347.000; -392.000
269.757;  -90.475; -713.000; -646.000
269.898; -108.000; -856.000; -613.000
270.039;  -63.900; -415.000; -405.000
270.180; -149.300; -952.000; -816.000
270.320;  -29.925; -190.000; -250.000
270.461;  -66.500; -277.000; -249.000
270.602;  -23.025; -186.000; -156.000
270.742; -127.525; -868.000; -943.000
270.883;  -64.800; -442.000; -390.000
271.023;  -63.100; -358.000; -357.000
271.164;  -75.375; -607.000; -528.000
271.305; -102.775; -666.000; -654.000
271.445;  -99.700; -722.000; -683.000
271.586;  -67.400; -462.000; -283.000
271.726;  -55.250; -397.000; -322.000
271.867;  -98.450; -594.000; -534.000
272.008;  -31.450; -473.000; -285.000
272.148;   45.600;  462.000;  468.000
272.289;  -15.375; -113.000; -181.000
272.429;   -8.575;   19.000;  185.000
272.570; -104.925; -633.000; -737.000
272.710; -110.950; -825.000; -775.000
272.851;  -31.175;  113.000; -130.000
272.991; -161.125;-1173.000;-1077.000
273.131;  -70.275; -419.000; -459.000
273.272; -104.925; -683.000; -723.000
273.412;  -25.075; -143.000;  -31.000
273.553;  -89.600; -488.000; -507.000
273.693;  109.875;  913.000;  858.000
273.834; -140.650; -894.000; -692.000
273.974; -101.350; -664.000; -615.000
274.114; -117.525; -772.000; -560.000
274.255;   32.600;  414.000;  373.000
274.395;  -44.275; -180.000; -125.000
274.535;   20.350;  199.000;  350.000
274.676;   28.425;  225.000;   94.000
274.816;   -3.225;  110.000;   34.000
274.956; -104.300; -624.000; -690.000
275.097; -139.450;-1014.000; -922.000
275.237; -124.650; -913.000; -803.000
275.377; -121.775; -778.000; -689.000
275.517; -157.375; -878.000; -937.000
275.658;  -77.675; -590.000; -555.000
275.798; -101.975; -606.000; -413.000
275.938;   18.200;  215.000;  323.000
276.078;  -90.750; -626.000; -395.000
276.218;   -7.525;   99.000;  104.000
276.359; -144.550;-1026.000;-1024.000
276.499;  -85.900; -605.000; -446.000
276.639;  -42.875; -305.000; -151.000
276.779;  -63.750; -475.000; -357.000
276.919; -114.225; -783.000; -624.000
277.059;  -31.150; -261.000; -212.000
277.199;  -63.900; -357.000; -259.000
277.340;   23.650;  287.000;  175.000
277.480; -124.725; -840.000; -693.000
277.620;   12.775;  192.000;   16.000
277.760; -206.325;-1533.000;-1294.000
277.900;    1.200;  113.000;   33.000
278.040;   -6.600;  137.000;  159.000
278.180;    8.425;  270.000;  170.000
278.320;   -3.025;   21.000;   56.000
278.460;  -62.275; -443.000; -469.000
278.600; -101.025; -708.000; -598.000
278.740;   35.225;  448.000;  224.000
278.880; -132.550; -768.000; -791.000
279.020;  -36.425; -194.000; -144.000
279.160; -101.875; -672.000; -595.000
279.300; -121.900; -926.000; -873.000
279.440; -102.050; -709.000; -622.000
279.579; -148.550;-1014.000; -929.000
279.719;  -68.600; -410.000; -394.000
279.859;    1.000;   -4.000;   41.000
279.999;  -40.875; -208.000;  101.000
280.139;  -51.925; -435.000; -387.000
280.279; -110.700; -708.000; -745.000
280.419;  -21.425; -229.000; -147.000
280.559;  -46.225; -259.000; -180.000
280.698; -104.875; -790.000; -639.000
280.838; -113.225; -778.000; -800.000
280.978; -108.775; -846.000; -790.000
281.118; -121.775; -811.000; -704.000
281.257;  -12.900;   24.000;    6.000
281.397; -166.975;-1094.000; -960.000
281.537; -103.425; -599.000; -712.000
281.677;  -43.150; -150.000; -101.000
281.816;  -88.650; -700.000; -630.000
281.956;  -30.025; -193.000; -257.000
282.096;  -68.300; -539.000; -396.000
282.235; -120.400; -672.000; -638.000
282.375;  -38.950; -243.000;  -98.000
282.515; -125.825; -715.000; -707.000
282.654;   -8.775;   29.000;  106.000
282.794;   18.500;  388.000;  244.000
282.934;  -79.600; -530.000; -491.000
283.073; -147.475;-1030.000; -857.000
283.213;  -72.325; -460.000; -467.000
283.353;  -61.600; -408.000; -349.000
283.492;  -35.450; -264.000; -296.000
283.632;  -45.000; -254.000; -168.000
283.771; -116.825; -859.000; -730.000
283.911;  -62.950; -369.000; -260.000
284.050; -120.350; -794.000; -748.000
284.190; -172.350;-1229.000;-1096.000
284.329; -159.925;-1055.000; -964.000
284.469; -103.350; -516.000; -591.000
284.608;  -77.450; -559.000; -598.000
284.748;  -99.000; -614.000; -570.000
284.887;  -15.225;  -87.000;  -20.000
285.027; -146.100; -844.000; -892.000
285.166;  -43.800; -192.000; -249.000
285.306;  -27.650; -116.000;  -33.000
285.445;  -59.925; -229.000; -343.000
285.584; -100.525; -630.000; -494.000
285.724;  -60.525; -282.000; -322.000
285.863; -105.700; -857.000; -507.000
286.002;  -54.825; -366.000; -276.000
286.142; -111.150; -715.000; -622.000
286.281;  -76.775; -525.000; -493.000
286.420;  -90.150; -554.000; -417.000
286.560;   82.675;  653.000;  623.000
286.699; -146.425; -958.000; -912.000
286.838;  -93.525; -590.000; -591.000
286.978;  -94.100; -533.000; -537.000
287.117; -153.850;-1085.000; -950.000
287.256;  -50.425; -228.000; -211.000
287.395;  -59.825; -197.000; -378.000
287.535;  -55.250; -370.000; -298.000
287.674;  -87.950; -509.000; -484.000
287.813;   51.075;  661.000;  533.000
287.952; -147.875;-1010.000; -871.000
288.091; -161.400;-1049.000; -915.000
288.231;  -30.150;   13.000;   15.000
288.370; -198.675;-1217.000;-1200.000
288.509; -102.675; -728.000; -645.000
288.648;  -97.075; -770.000; -548.000
288.787;  -47.475; -243.000;  -87.000
288.926;  -76.075; -454.000; -475.000
289.065;  106.950;  859.000;  672.000
289.204;  -69.375; -377.000; -217.000
289.344; -112.875; -791.000; -690.000
289.483;   -1.475;  416.000;  304.000
289.622;  -38.475; -291.000; -149.000
289.761;  -32.900; -309.000; -166.000
289.900; -116.725; -785.000; -626.000
290.039;  -28.225;  -12.000;  -95.000
290.178;  -58.725; -274.000; -180.000
290.317; -102.500; -618.000; -479.000
290.456;  -77.875; -463.000; -451.000
290.595; -160.950; -961.000; -833.000
290.734; -143.375; -904.000; -891.000
290.873;  -76.950; -456.000; -420.000
291.011; -129.425; -833.000; -843.000
291.150; -119.200; -770.000; -682.000
291.289;  -42.325; -343.000; -110.000
291.428; -108.250; -599.000; -480.000
291.567;  -76.775; -370.000; -442.000
291.706;  -23.275;  109.000;  154.000
291.845; -101.700; -597.000; -505.000
291.984; -181.300;-1234.000;-1061.000
292.122;   56.125;  602.000;  582.000
292.261;   35.900;  620.000;  463.000
292.400;  -11.900; -144.000;  211.000
292.539; -139.475; -959.000; -813.000
292.678;  -52.850; -325.000; -300.000
292.816; -165.025;-1136.000; -965.000
292.955; -115.000; -844.000; -684.000
293.094;  -39.500; -173.000; -337.000
293.233;  -65.925; -556.000; -400.000
293.371;  -45.625; -225.000;  -84.000
293.510; -103.100; -866.000; -780.000
293.649; -145.625; -959.000; -924.000
293.787; -167.925;-1083.000;-1012.000
293.926;  -33.475; -113.000;  -32.000
294.065;  -62.925; -379.000; -290.000
294.203;   40.375;  298.000;  406.000
294.342;    9.275;   74.000;  156.000
294.481; 6318.125;51180.000; -836.000
294.619;  -44.875; -425.000; -582.000
294.758; -174.850;-1230.000;-1137.000
294.896;  -15.700; -125.000;    5.000
295.035; -164.375;-1040.000;-1006.000
295.174; -149.700;-1082.000; -954.000
295.312;  -46.150; -323.000; -203.000
295.451;  -63.300; -307.000; -428.000
295.589; -100.750; -389.000; -518.000
295.728;  -14.000; -292.000; -165.000
295.866;  -28.025;  -36.000;  -51.000
296.005;  -88.375; -584.000; -341.000
296.143; -100.150; -558.000; -596.000
296.282; -134.200; -957.000; -881.000
296.420;  -89.275; -657.000; -557.000
296.559; -115.000; -892.000; -633.000
296.697; -107.500; -847.000; -665.000
296.835; -182.600;-1141.000;-1002.000
296.974;    2.625;  -23.000;   39.000
297.112;  -72.100; -443.000; -504.000
297.251; -135.150; -815.000; -755.000
297.389;  -80.800; -576.000; -438.000
297.527;  -18.750; -145.000;  -83.000
297.666; -100.650; -486.000; -438.000
297.804;  -66.925; -404.000; -264.000
297.942;  -16.875; -136.000; -161.000
298.081;  -23.250; -183.000;   63.000
298.219;  -13.100;  -17.000;  -19.000
298.357;  -48.750; -144.000;  -71.000
298.495; -132.925; -810.000; -812.000
298.634;  -11.150;  245.000;  219.000
298.772;  -61.450; -220.000; -338.000
298.910;  -72.025; -309.000; -182.000
299.048;  -34.125; -130.000; -153.000
299.187;  -68.400; -350.000; -250.000
299.325;   -9.175;   52.000;  122.000
299.463;  -86.750; -389.000; -299.000
299.601;  -50.100; -327.000; -271.000
299.739; -141.800; -908.000; -883.000
299.877; -104.175; -791.000; -703.000
300.016; -162.775;-1095.000; -935.000
300.154;  -14.050;  -19.000; -161.000
300.292;  -82.750; -428.000; -348.000
300.430;  -52.475; -408.000; -291.000
300.568; -143.100; -940.000; -874.000
300.706;  -78.200; -366.000; -469.000
300.844; -171.075;-1108.000; -979.000
300.982;   39.725;  246.000;  282.000
301.120; -150.050; -965.000; -866.000
301.258; -111.675; -812.000; -705.000
301.396;  -16.525;  104.000;  -41.000
301.534;  -55.775; -218.000; -293.000
301.672; -100.650; -664.000; -521.000
301.810; -104.600; -613.000; -545.000
301.948;  -28.500;   53.000;  149.000
302.086;  -25.825; -250.000;  -32.000
302.224; -113.150; -610.000; -585.000
302.362; -112.050; -558.000; -622.000
302.500; -147.625; -923.000; -893.000
302.638;   -2.600;  128.000;  245.000
302.776;  -49.925; -352.000; -408.000
302.913;   22.975;  447.000;  236.000
303.051;  -45.525;  -86.000;  -23.000
303.189;   -5.250;   90.000;  118.000
303.327;  -77.175; -341.000; -256.000
303.465; -115.100; -832.000; -588.000
303.603; -106.900; -805.000; -604.000
303.740;   24.700;  417.000;  241.000
303.878; -128.900; -800.000; -759.000
304.016; -124.975; -915.000; -790.000
304.154; -167.300;-1123.000;-1152.000
304.291;  -77.800; -505.000; -554.000
304.429;  -21.550;  102.000;   74.000
304.567; -153.175; -908.000; -893.000
304.705;  -69.525; -408.000; -515.000
304.842; -107.275; -616.000; -540.000
304.980;   -1.975;  215.000;   35.000
305.118;  -53.875; -367.000; -365.000
305.255; -149.300; -945.000; -927.000
305.393;   29.350;  178.000;  239.000
305.531; -172.250;-1173.000; -956.000
305.668;  -95.750; -663.000; -582.000
305.806;  -78.375; -358.000; -439.000
305.943;  -95.000; -629.000; -637.000
306.081;  -61.225; -378.000; -267.000
306.219; -118.475; -863.000; -748.000
306.356;  -10.200;  158.000;   27.000
306.494;   85.775;  981.000;  761.000
306.631;  -30.650;  -11.000;  -55.000
306.769;  -85.875; -613.000; -485.000
306.906;  -63.200; -284.000; -258.000
307.044;  -80.675; -473.000; -488.000
307.181;  -83.300; -410.000; -332.000
307.319;    5.700;  112.000;   87.000
307.456; -184.075;-1191.000;-1153.000
307.594; -142.575; -980.000; -727.000
307.731;  -57.575; -371.000; -164.000
307.868;  -33.975;  -15.000;   20.000
308.006; -159.600; -961.000; -847.000
308.143;  -91.700; -618.000; -330.000
308.281;  -53.175;  -37.000; -254.000
308.418; -101.125; -748.000; -640.000
308.555;  -94.925; -400.000; -250.000
308.693; -101.200; -577.000; -573.000
308.830; -129.725; -712.000; -657.000
308.967;  -45.600; -215.000;  -95.000
309.105;  -89.575; -507.000; -396.000
309.242;  -75.400; -468.000; -367.000
309.379; -103.700; -577.000; -655.000
309.517; -149.700; -936.000; -948.000
309.654; -136.275; -910.000; -734.000
309.791; -102.525; -662.000; -580.000
309.928; -156.775; -977.000; -914.000
310.065;   74.625;  819.000;  697.000
310.203; -145.675; -825.000; -850.000
310.340;  -86.700; -465.000; -321.000
310.477; -118.700; -412.000; -516.000
310.614;  -83.425; -383.000; -473.000
310.751;  -99.025; -427.000; -518.000
310.889;  -44.700;    1.000;   11.000
311.026; -168.225;-1161.000; -939.000
311.163;  -60.825; -386.000; -380.000
311.300;  -96.650; -512.000; -479.000
311.437; -105.075; -658.000; -619.000
311.574; -192.725;-1226.000; -985.000
311.711;  -88.625; -595.000; -433.000
311.848;  -58.700; -380.000; -388.000
311.985;    0.925;  270.000;   93.000
312.122; -145.625; -932.000; -762.000
312.259; -151.225; -941.000; -994.000
312.396; -110.800; -508.000; -551.000
312.533; -115.475; -812.000; -790.000
312.670; -159.675;-1070.000; -898.000
312.807;  -68.775; -352.000; -367.000
312.944;  -99.275; -513.000; -611.000
313.081;  -72.200; -150.000; -415.000
313.218; -153.250;-1111.000; -867.000
313.355;  -73.425; -531.000; -449.000
313.492;  -60.875; -455.000; -292.000
313.629;   74.550;  815.000;  735.000
313.766; -192.575;-1176.000;-1008.000
313.902;  -38.350; -186.000;   21.000
314.039;  -66.950; -372.000; -289.000
314.176;    3.450;  286.000;  192.000
314.313;  -94.900; -569.000; -473.000
314.450; -131.250; -788.000; -684.000
314.587;  -80.250; -468.000; -480.000
314.723;  -16.925;  -78.000;  130.000
314.860;    4.275;  318.000;  332.000
314.997;   -0.100;  223.000;  142.000
315.134;  -84.750; -385.000; -368.000
315.270;  -96.575; -480.000; -496.000
315.407; -183.725;-1094.000; -967.000
315.544; -103.750; -657.000; -538.000
315.681; -110.350; -681.000; -565.000
315.817;  -32.775; -133.000; -176.000
315.954;  -94.250; -613.000; -392.000
316.091; -170.525;-1045.000;-1023.000
316.227;  -48.375;  -71.000; -179.000
316.364;  -20.350;   23.000;    6.000
316.500;  -62.475; -113.000; -300.000
316.637;  -69.450; -181.000; -302.000
316.774; -103.200; -625.000; -358.000
316.910;  -95.675; -598.000; -629.000
317.047; -103.900; -487.000; -351.000
317.183;  -98.825; -435.000; -566.000
317.320;  -80.250; -367.000; -321.000
317.456; -128.550; -733.000; -805.000
317.593; -121.050; -598.000; -641.000
317.729;  -12.625;  168.000;  -67.000
317.866; -215.425;-1434.000;-1285.000
318.002; -104.400; -708.000; -948.000
318.139; -155.075; -883.000; -867.000
318.275; -135.900;-1003.000; -738.000
318.412; -102.775; -517.000; -336.000
318.548; -115.800; -751.000; -720.000
318.685; -153.775; -985.000; -888.000
318.821; -119.900; -762.000; -735.000
318.957;  -29.000;   34.000;  -23.000
319.094;   20.025;  297.000;  154.000
319.230; -134.150; -756.000; -742.000
319.367;  -89.400; -471.000; -520.000
319.503;  -89.300; -538.000; -436.000
319.639; -134.875; -877.000; -793.000
319.775; -129.600; -750.000; -685.000
319.912;  -78.600; -424.000; -519.000
320.048; -188.450;-1184.000;-1184.000
320.184;   -2.475;   59.000;   70.000
320.321;  -82.775; -497.000; -467.000
320.457;   23.000;  475.000;  662.000
320.593;  -81.025; -375.000; -382.000
320.729; -125.675; -732.000; -734.000
320.866; -113.225; -577.000; -635.000
321.002; -136.350; -759.000; -809.000
321.138;  -49.950; -135.000; -211.000
321.274;  -32.875; -148.000; -115.000
321.410; -103.325; -585.000; -353.000
321.546; -157.225;-1011.000; -911.000
321.683;   12.375;  400.000;  185.000
321.819;  -45.325;  -48.000; -117.000
321.955; -134.700; -743.000; -722.000
322.091;  -99.550; -585.000; -540.000
322.227;  -71.150; -382.000; -202.000
322.363;  -68.850; -320.000; -215.000
322.499;  -69.175; -343.000; -331.000
322.635;   40.475;  636.000;  443.000
322.771;  -45.950; -139.000;   12.000
322.907;   22.650;  129.000;  327.000
323.043;  -64.275; -115.000; -206.000
323.179;  -81.375; -394.000; -363.000
323.315;  -99.825; -401.000; -371.000
323.451;  -73.150; -328.000; -236.000
323.587;  -43.550;  -60.000;  -77.000
323.723;  -97.150; -682.000; -601.000
323.859;  -45.375; -258.000;  -76.000
323.995;  -68.675; -467.000; -409.000
324.131; -152.925; -967.000; -892.000
324.267;  -50.050; -254.000; -276.000
324.402; -161.825; -960.000; -983.000
324.538;  -58.675; -279.000; -104.000
324.674;  -16.800;  164.000;   77.000
324.810;   -9.600;  226.000;  308.000
324.946;  -85.825; -810.000; -658.000
325.082; -101.325; -568.000; -475.000
325.217;  -28.675;  -62.000;   16.000
325.353; -120.450; -764.000; -659.000
325.489; -102.575; -540.000; -506.000
325.625;  -90.275; -579.000; -525.000
325.760;   16.650;  517.000;  376.000
325.896; -105.875; -515.000; -702.000
326.032;  -71.100; -403.000; -352.000
326.168;  -83.825; -462.000; -369.000
326.303;  -73.875; -352.000; -461.000
326.439;  -57.825; -336.000; -276.000
326.575;  -49.025; -190.000;  -29.000
326.710;  -40.125; -156.000;  -30.000
326.846;  -34.725;  146.000;  103.000
326.982; -112.825; -530.000; -548.000
327.117; -100.275; -481.000; -442.000
327.253; -124.625; -745.000; -742.000
327.388; -191.450;-1137.000;-1153.000
327.524; -126.350; -811.000; -578.000
327.659;  -40.300;  -58.000;  -22.000
327.795;  -21.775;   69.000;   45.000
327.931; -107.600; -723.000; -499.000
328.066;  -59.375; -417.000; -276.000
328.202;  -46.675;   12.000; -129.000
328.337;   89.675;  957.000;  713.000
328.473;   22.000;  -12.000;  -74.000
328.608;  -53.300; -256.000; -267.000
328.743; -137.400; -799.000; -664.000
328.879;  -11.750;  214.000;  114.000
329.014;  -53.925; -102.000; -122.000
329.150; -101.475; -358.000; -483.000
329.285; -116.900; -465.000; -466.000
329.421;  -66.475; -548.000; -246.000
329.556;  -30.900;  -36.000;   85.000
329.691; -106.200; -633.000; -615.000
329.827; -102.500; -626.000; -480.000
329.962;  -76.950;  131.000; -301.000
330.097; -122.100; -673.000; -585.000
330.233;  -61.550; -410.000; -223.000
330.368; -137.225; -839.000; -628.000
330.503;  -21.975;    3.000;   98.000
330.638;  -30.075;  -93.000; -125.000
330.774; -100.975; -609.000; -530.000
330.909;  -65.800; -434.000; -244.000
331.044; -105.875; -714.000; -708.000
331.179; -198.300;-1217.000;-1109.000
331.315;   -5.725;   77.000;   20.000
331.450;  -19.675;  157.000;  285.000
331.585; -126.525; -805.000; -706.000
331.720; -114.625; -510.000; -460.000
331.855;  -43.400;  -35.000; -102.000
331.990;  -37.975;   62.000;  138.000
332.126;  -21.525; -110.000;   71.000
332.261;  -74.750; -379.000; -265.000
332.396;  -58.450; -135.000; -242.000
332.531; -178.525;-1074.000;-1031.000
332.666;  -84.150; -519.000; -363.000
332.801; -127.625; -726.000; -807.000
332.936;  -47.850; -192.000; -122.000
333.071; -165.600; -870.000; -817.000
333.206;    0.550;  307.000;  379.000
333.341;    7.225;  344.000;  418.000
333.476; -111.825; -627.000; -623.000
333.611;  -52.675; -251.000; -173.000
333.746;  -67.050; -381.000; -464.000
333.881; -149.675; -973.000; -935.000
334.016; -144.550; -936.000; -917.000
334.151; -150.075; -746.000; -702.000
334.286;  -10.575;  152.000;  186.000
334.421;  -31.750; -125.000; -178.000
334.556; -112.925; -611.000; -567.000
334.690; -114.350; -631.000; -577.000
334.825;   27.125;  381.000;   83.000
334.960;  -94.800; -285.000; -413.000
335.095;  -33.950;  135.000;  -91.000
335.230; -128.300; -722.000; -738.000
335.365; -171.975;-1084.000; -990.000
335.499; -180.100;-1108.000;-1037.000
335.634;  -22.650;    9.000;  534.000
335.769; -145.925; -755.000; -720.000
335.904; -109.975; -603.000; -561.000
336.038; -139.450; -735.000; -657.000
336.173; -189.875;-1206.000;-1194.000
336.308;  -48.275; -116.000; -189.000
336.443;  -80.825; -544.000; -634.000
336.577; -148.875; -936.000; -787.000
336.712;  -33.125;   -4.000;  -12.000
336.847; -127.700; -724.000; -607.000
336.981;  -67.775; -272.000; -208.000
337.116;   24.275;  615.000;  501.000
337.250;  -96.050; -434.000; -421.000
337.385;  -70.500; -297.000; -208.000
337.520; -125.300; -632.000; -603.000
337.654;  -71.675; -215.000; -126.000
337.789; -146.975; -989.000; -933.000
337.923;  -60.075; -104.000; -205.000
338.058; -130.650; -673.000; -738.000
338.192; -101.625; -611.000; -488.000
338.327;  -37.175;  -18.000; -155.000
338.461; -102.000; -299.000; -469.000
338.596; -120.650; -780.000; -638.000
338.730; -131.800; -767.000; -803.000
338.865;  -28.875;  -46.000; -140.000
338.999; -144.100; -846.000; -702.000
339.134; -119.200; -634.000; -536.000
339.268; -123.550; -741.000; -603.000
339.403; -130.425; -740.000; -775.000
339.537; -135.650; -894.000; -820.000
339.671; -145.850; -829.000; -813.000
339.806; -107.875; -556.000; -512.000
339.940;  -52.700; -261.000; -235.000
340.074; -133.200; -685.000; -510.000
340.209;  -54.850; -351.000; -230.000
340.343; -113.875; -517.000; -573.000
340.477;  121.625;  998.000; 1036.000
340.612; -155.825;-1033.000; -900.000
340.746;  -73.475; -199.000; -243.000
340.880; -154.075; -924.000; -785.000
341.014;  -37.875;  -45.000; -154.000
341.149; -129.350; -756.000; -718.000
341.283; -136.700; -839.000; -754.000
341.417; -176.550;-1124.000; -938.000
341.551; -128.275; -768.000; -708.000
341.685; -111.475; -633.000; -611.000
341.820; -102.175; -562.000; -493.000
341.954;  -96.300; -218.000; -349.000
342.088; -171.500;-1102.000;-1019.000
342.222;   46.425;  565.000;  618.000
342.356;  -98.525; -395.000; -335.000
342.490; -144.750; -880.000; -841.000
342.624;  -80.950; -339.000; -242.000
342.758;  -80.950; -364.000; -312.000
342.892; -126.650; -710.000; -585.000
343.026;  -63.250;  -58.000; -116.000
343.160;  -86.525; -426.000; -376.000
343.294; -105.025; -474.000; -337.000
343.428; -112.375; -488.000; -448.000
343.562;  -48.525; -172.000;  -23.000
343.696;  -70.350; -385.000; -314.000
343.830;  -67.850; -362.000; -356.000
343.964;  -58.200; -231.000; -168.000
344.098;  -18.975;  199.000;   70.000
344.232;  -55.725; -266.000; -127.000
344.366; -113.575; -567.000; -453.000
344.500; -112.025; -665.000; -744.000
344.634;  -69.075; -324.000; -164.000
344.768;  -97.625; -531.000; -341.000
344.902;   -1.975;  278.000;  256.000
345.035; -103.175; -556.000; -496.000
345.169; -145.600; -933.000; -656.000
345.303;  -92.425; -308.000; -482.000
345.437; -132.550; -826.000; -717.000
345.571; -124.075; -675.000; -594.000
345.704;  -92.775; -309.000; -532.000
345.838;  -59.050; -331.000; -284.000
345.972; -107.650; -543.000; -495.000
346.106;  -32.275; -179.000; -190.000
346.239;  -52.675; -312.000; -243.000
346.373;  -81.075; -343.000; -302.000
346.507; -170.850; -950.000; -962.000
346.640;  -45.425;  -30.000;   13.000
346.774; -124.175; -650.000; -797.000
346.908;  -49.925; -138.000;  -11.000
347.041; -112.275; -646.000; -593.000
347.175;  -17.525;  259.000;   27.000
347.309; -124.725; -698.000; -628.000
347.442; -146.400; -883.000; -732.000
347.576;   57.500;  670.000;  668.000
347.709;  -43.050; -123.000;  -52.000
347.843; -152.700; -933.000; -825.000
347.976;    2.800;  235.000;  294.000
348.110; -203.675;-1268.000;-1186.000
348.243; -126.800; -679.000; -772.000
348.377;  -31.975;  -26.000;   60.000
348.510;   24.025;  403.000;  540.000
348.644;  -51.700;  -37.000; -159.000
348.777;  -14.550;  180.000;  191.000
348.911;  -51.275; -142.000; -112.000
349.044;   19.150;  471.000;  448.000
349.178; -185.475;-1069.000;-1006.000
349.311;   -2.925;  141.000;  255.000
349.444; -155.475; -927.000; -813.000
349.578;  -71.650; -347.000; -200.000
349.711; -146.700; -959.000; -862.000
349.845; -125.325; -661.000; -591.000
349.978; -191.750;-1224.000;-1137.000
350.111; -107.350; -546.000; -612.000
350.244; -119.600; -596.000; -700.000
350.378;  -92.675; -392.000; -393.000
350.511; -100.725; -393.000; -426.000
350.644; -137.775; -808.000; -806.000
350.778;  -32.600;  168.000;  104.000
350.911;   -8.900;  134.000;  140.000
351.044; -121.375; -685.000; -615.000
351.177;  -69.350; -321.000; -281.000
351.310;  -38.525;    3.000; -131.000
351.444; -147.600; -888.000; -788.000
351.577;   -8.650;  140.000;   90.000
351.710;   58.875;  593.000;  417.000
351.843;  -59.200; -165.000;  -77.000
351.976;  -23.800;  149.000;  -79.000
352.109; -132.425; -621.000; -612.000
352.242;  -92.150; -464.000; -419.000
352.376; -120.775; -580.000; -636.000
352.509;  -88.425; -437.000; -356.000
352.642; -180.025; -654.000; -604.000
352.775;  -52.200; -141.000;  -98.000
352.908; -158.550; -933.000; -904.000
353.041; -140.700; -814.000; -824.000
353.174;  -95.725; -551.000; -424.000
353.307; -132.275; -753.000; -764.000
353.440;   25.375;  541.000;  453.000
353.573; -158.525; -957.000;-1008.000
353.706; -118.275; -384.000; -558.000
353.839;  -64.325; -264.000; -220.000
353.971; -129.550; -657.000; -512.000
354.104; -149.850; -896.000; -835.000
354.237; -123.775; -627.000; -662.000
354.370; -129.325; -846.000; -879.000
354.503; -216.750;-1231.000;-1308.000
354.636;  -84.150; -529.000; -348.000
354.769; -162.550; -937.000; -860.000
354.902;  -55.700; -230.000; -139.000
355.034;  -62.150; -164.000; -220.000
355.167;  -59.150; -262.000; -162.000
355.300; -178.325;-1061.000; -880.000
355.433;  -31.550;  -71.000;  -14.000
355.565; -102.425; -402.000; -384.000
355.698;  -81.525; -356.000; -296.000
355.831; -146.025; -882.000; -801.000
355.964;  -50.575; -285.000; -170.000
356.096; -170.175; -856.000; -843.000
356.229; -103.675; -523.000; -530.000
356.362;  -65.825; -373.000; -266.000
356.494;  -68.350; -229.000; -162.000
356.627;    2.300;  269.000;  377.000
356.760;   -9.000;  120.000;   53.000
356.892; -128.175; -286.000; -601.000
357.025;   33.925;  403.000;  389.000
357.157;  -58.400; -167.000; -179.000
357.290; -141.075; -856.000; -713.000
357.423; -125.650; -667.000; -556.000
357.555;  -53.875; -217.000; -228.000
357.688;  -88.275; -483.000; -364.000
357.820; -147.450; -870.000; -877.000
357.953; -130.500; -563.000; -589.000
358.085; -129.750; -632.000; -612.000
358.218; -178.425;-1131.000; -932.000
358.350;  -38.950;  -58.000;  312.000
358.483; -205.775;-1300.000;-1187.000
358.615; -179.500;-1182.000;-1078.000
358.747; -199.875;-1187.000;-1058.000
358.880; -134.200; -810.000; -744.000
359.012;  -84.800; -376.000; -202.000
359.145;  -93.200; -480.000; -511.000
359.277; -164.900; -962.000; -913.000
359.409;    7.225;  536.000;  231.000
359.542; -141.625; -738.000; -688.000
359.674;  -36.775;   46.000;   13.000
359.806; -117.625; -565.000; -438.000
359.939;  -91.725; -617.000; -516.000
360.071; -117.450; -583.000; -579.000
360.203;  -85.100; -411.000; -364.000
360.335;  -38.575;  164.000;  -16.000
360.468;  -54.725; -249.000; -307.000
360.600; -117.450; -547.000; -454.000
360.732; -113.500; -546.000; -423.000
360.864; -191.875;-1216.000;-1044.000
360.996; -100.675; -516.000; -554.000
361.129; -106.675; -389.000; -598.000
361.261;  -39.250;  110.000; -113.000
361.393;  -57.925; -252.000; -214.000
361.525;  -18.125;   94.000;  244.000
361.657; -151.425; -821.000; -703.000
361.789;  -43.925; -139.000; -155.000
361.921; -110.700; -642.000; -593.000
362.053;   34.425;  524.000;  541.000
362.185;  -23.400;  288.000;   72.000
362.318; -129.625; -709.000; -705.000
362.450;    2.875;  294.000;  444.000
362.582; -165.925; -913.000; -870.000
362.714;  -69.650; -353.000; -332.000
362.846; -111.500; -606.000; -490.000
362.978; -178.975; -941.000; -811.000
363.109;  -69.425; -161.000; -260.000
363.241; -134.800; -739.000; -749.000
363.373; -122.875; -649.000; -564.000
363.505;  -64.050; -186.000;  -91.000
363.637; -140.025; -787.000; -601.000
363.769; -203.850;-1067.000;-1080.000
363.901; -108.775; -596.000; -654.000
364.033; -182.025;-1103.000;-1062.000
364.165;  -60.125; -283.000; -283.000
364.296;  -94.150; -316.000; -177.000
364.428; -209.400;-1344.000;-1220.000
364.560; -125.225; -679.000; -661.000
364.692; -126.450; -738.000; -835.000
364.824; -115.325; -588.000; -456.000
364.955;  -82.000; -402.000; -564.000
365.087; -176.275;-1097.000; -852.000
365.219; -131.425; -686.000; -816.000
365.351; -120.400; -526.000; -572.000
365.482;    2.375;  300.000;  240.000
365.614;  -71.075; -402.000; -314.000
365.746; -130.775; -729.000; -752.000
365.877; -122.750; -706.000; -672.000
366.009;  -46.725;  -35.000;  -62.000
366.141; -203.500;-1249.000;-1134.000
366.272; -141.550; -803.000; -719.000
366.404; -149.025;-1005.000; -874.000
366.535;  -43.225; -139.000;  -12.000
366.667; -141.125; -644.000; -649.000
366.799;   14.825;  353.000;  203.000
366.930; -179.800; -862.000; -996.000
367.062; -118.625; -639.000; -613.000
367.193; -152.525; -872.000; -842.000
367.325; -106.225; -580.000; -684.000
367.456;  -62.650; -246.000;   31.000
367.588;  -93.300; -371.000; -318.000
367.719;  -66.225;  -44.000;  -45.000
367.851;  -63.775; -222.000; -241.000
367.982; -152.025; -875.000; -732.000
368.113;  -96.850; -475.000; -358.000
368.245; -178.250; -960.000; -841.000
368.376;  -55.200; -254.000; -302.000
368.508;  -80.200; -188.000; -263.000
368.639; -191.475;-1166.000;-1034.000
368.770; -140.625; -670.000; -589.000
368.902; -150.200; -836.000; -926.000
369.033; -166.875; -906.000; -855.000
369.164; -131.150; -720.000; -653.000
369.296; -127.800; -452.000; -601.000
369.427;  -66.225; -209.000; -144.000
369.558; -109.675; -593.000; -377.000
369.689; -124.600; -721.000; -569.000
369.821; -176.825; -951.000; -845.000
369.952;  -37.000;   42.000; -108.000
370.083;  -87.950; -229.000; -108.000
370.214; -126.125; -735.000; -650.000
370.345;  -42.175;   65.000;   81.000
370.477; -151.775; -810.000; -790.000
370.608;  -79.450; -328.000; -264.000
370.739; -192.925;-1233.000;-1292.000
370.870; -175.375;-1102.000; -923.000
371.001; -100.375; -378.000; -467.000
371.132; -139.075; -754.000; -735.000
371.263;  -51.725;  -42.000; -148.000
371.394; -169.600; -841.000; -748.000
371.525;    9.975;  345.000;  225.000
371.657; -151.025; -808.000; -670.000
371.788;   -1.950;  103.000;  199.000
371.919; -101.100; -384.000; -304.000
372.050;  -52.575;  -91.000; -156.000
372.181;  -45.250; -188.000; -294.000
372.311;  -30.850;   42.000; -127.000
372.442; -102.525; -457.000; -451.000
372.573;  -76.650; -444.000; -340.000
372.704; -172.600;-1008.000; -980.000
372.835;  -85.475; -228.000; -289.000
372.966; -136.700; -646.000; -554.000
373.097; -141.550; -575.000; -711.000
373.228; -134.475; -717.000; -542.000
373.359; -134.625; -824.000; -536.000
373.490; -140.025; -881.000; -727.000
373.620; -167.200;-1001.000; -803.000
373.751; -102.700; -332.000; -396.000
373.882; -118.925; -663.000; -733.000
374.013;  -80.400; -449.000; -262.000
374.143; -122.650; -581.000; -659.000
374.274; -170.275; -987.000; -908.000
374.405;  -79.350; -388.000; -276.000
374.536; -113.550; -526.000; -387.000
374.666; -147.650; -759.000; -807.000
374.797; -154.075; -817.000; -868.000
374.928; -122.600; -710.000; -560.000
375.058;  -98.600; -535.000; -500.000
375.189;  -62.200;  -59.000;  -93.000
375.320; -176.700; -928.000;-1034.000
375.450; -117.150; -625.000; -616.000
375.581; -107.200; -526.000; -436.000
375.712;  -74.600; -574.000; -250.000
375.842; -106.400; -438.000; -415.000
375.973; -117.000; -554.000; -513.000
376.103; -129.700; -665.000; -648.000
376.234; -109.075; -531.000; -552.000
376.364; -163.975; -944.000; -867.000
376.495;   71.925;  925.000;  529.000
376.625; -101.825; -472.000; -485.000
376.756; -125.000; -709.000; -678.000
376.886; -202.850;-1178.000;-1026.000
377.017; -185.700;-1048.000;-1061.000
377.147; -161.500; -786.000; -782.000
377.278;   -4.100;  174.000;  228.000
377.408; -156.950; -801.000; -815.000
377.538; -139.625; -707.000; -693.000
377.669; -119.975; -537.000; -613.000
377.799; -135.250; -645.000; -635.000
377.929; -111.050; -610.000; -428.000
378.060; -160.325; -781.000; -847.000
378.190; -137.400; -726.000; -531.000
378.320; -104.400; -401.000; -406.000
378.451;  -54.650; -131.000;  -22.000
378.581;  -56.750;  -67.000; -110.000
378.711;   70.950; 1035.000;  866.000
378.841; -124.100; -533.000; -675.000
378.972; -168.650; -871.000; -751.000
379.102; -115.725; -652.000; -579.000
379.232;  -85.775; -126.000;  -73.000
379.362; -167.525;-1001.000; -885.000
379.492; -116.000; -373.000; -424.000
379.623;   -3.425;    0.000;  111.000
379.753; -176.925;-1107.000; -974.000
379.883;  -20.175;   59.000;  156.000
380.013; -197.350;-1081.000;-1017.000
380.143; -184.500;-1097.000;-1056.000
380.273; -170.800; -985.000; -861.000
380.403;  -87.325; -344.000; -257.000
380.533; -153.625; -651.000; -664.000
380.663;  -21.900;  173.000;  128.000
380.793; -186.475;-1027.000;-1074.000
380.923;  -76.000; -103.000;  -34.000
381.053; -148.600; -613.000; -623.000
381.183;  -75.900; -106.000; -248.000
381.313; -119.325; -656.000; -470.000
381.443; -112.000; -692.000; -473.000
381.573; -120.250; -402.000; -409.000
381.703; -201.400;-1249.000;-1095.000
381.833; -230.800;-1454.000;-1336.000
381.963;  -32.175; -134.000;  -87.000
382.093; -181.675; -925.000; -909.000
382.223; -137.725; -713.000; -602.000
382.353; -144.575; -801.000; -608.000
382.482; -196.150;-1091.000; -964.000
382.612; -135.550; -872.000; -644.000
382.742; -125.675; -695.000; -622.000
382.872; -116.075; -565.000; -551.000
383.002;  -10.075;  347.000; -132.000
383.131;  -81.325; -226.000; -160.000
383.261; -141.225; -706.000; -768.000
383.391; -111.725; -552.000; -377.000
383.521;    2.400;  451.000;  263.000
383.650; -181.350; -947.000; -904.000
383.780; -136.025; -783.000; -656.000
383.910;   50.350;  880.000;  802.000
384.039; -142.825; -794.000; -656.000
384.169; -199.925;-1205.000;-1017.000
384.299; -130.100; -650.000; -662.000
384.428; -142.450; -764.000; -680.000
384.558;  -86.725; -308.000; -275.000
384.687; -102.500; -414.000; -334.000
384.817;  -15.875;   75.000;   -2.000
384.947;  -61.725; -234.000; -141.000
385.076;   85.025;  982.000;  912.000
385.206;   19.700;  369.000;  480.000
385.335;  -96.075; -549.000; -417.000
385.465; -141.925; -655.000; -663.000
385.594;  -47.050;  -53.000;  -44.000
385.724; -168.825; -868.000; -838.000
385.853;  -77.025; -296.000; -270.000
385.982; -154.800; -743.000; -787.000
386.112; -170.700;-1052.000; -871.000
386.241;  -81.700; -307.000; -312.000
386.371;  -58.875; -174.000;  -87.000
386.500; -156.025; -825.000; -789.000
386.629; -146.350; -874.000; -817.000
386.759;  -52.550;  -43.000;   68.000
386.888;  -50.225; -170.000; -250.000
387.017; -140.350; -648.000; -620.000
387.147; -138.650; -771.000; -798.000
387.276; -125.675; -410.000; -397.000
387.405;  -93.450; -398.000; -342.000
387.535; -113.250; -452.000; -361.000
387.664; -136.375; -692.000; -620.000
387.793;  -76.050; -198.000; -113.000
387.922;  -27.025;  255.000;  200.000
388.052; -114.525; -576.000; -423.000
388.181; -102.650; -342.000; -472.000
388.310; -150.350; -889.000; -710.000
388.439; -154.000; -749.000; -742.000
388.568;   -6.400;  365.000;  244.000
388.697; -127.450; -756.000; -653.000
388.826; -138.000; -768.000; -666.000
388.956;  -77.225; -285.000; -307.000
389.085; -103.575; -347.000; -287.000
389.214; -150.175; -842.000; -872.000
389.343; -141.575; -645.000; -413.000
389.472;  -21.400;  126.000;  149.000
389.601;  -35.225;   91.000;    0.000
389.730; -118.350; -568.000; -687.000
389.859;   -8.350;  226.000;   46.000
389.988;  -96.350; -423.000; -408.000
390.117;  -78.900; -168.000; -146.000
390.246; -100.900; -331.000; -320.000
390.375; -149.450; -673.000; -626.000
390.504; -122.850; -703.000; -621.000
390.633; -154.800; -672.000; -726.000
390.761; -137.425; -732.000; -645.000
390.890;  -66.950;   -4.000; -130.000
391.019;  -97.150; -421.000; -441.000
391.148; -170.225; -826.000; -855.000
391.277; -114.775; -576.000; -493.000
391.406; -157.350; -821.000; -805.000
391.534;  -22.050;  574.000; -301.000
391.663; -127.050; -583.000; -645.000
391.792; -143.875; -673.000; -701.000
391.921;  -47.875;   -3.000;   15.000
392.050;  -85.925; -287.000; -228.000
392.178; -208.550;-1206.000;-1061.000
392.307; -156.925; -758.000; -712.000
392.436; -136.550; -427.000; -641.000
392.564;  -34.925;  166.000;   -6.000
392.693; -160.700; -860.000; -682.000
392.822; -117.325; -529.000; -534.000
392.950; -158.300; -880.000; -714.000
393.079;  -90.900; -188.000; -328.000
393.208; -110.450; -488.000; -511.000
393.336;  -65.850; -170.000; -145.000
393.465;  -88.750; -317.000; -199.000
393.593;  -18.225;   62.000;   79.000
393.722; -189.150;-1121.000; -916.000
393.850;  -63.600; -188.000;  -61.000
393.979; -176.650; -926.000; -805.000
394.107; -109.875; -517.000; -537.000
394.236; -115.000; -570.000; -507.000
394.364;    0.675;  383.000;  206.000
394.493; -154.425; -911.000; -767.000
394.621; -164.325; -955.000; -916.000
394.750; -157.175; -873.000; -923.000
394.878;  -72.025; -247.000; -149.000
395.007; -150.325; -721.000; -807.000
395.135; -141.600; -790.000; -721.000
395.263; -178.275;-1038.000;-1040.000
395.392;  -43.675;  -25.000; -107.000
395.520; -165.325; -818.000; -679.000
395.648; -166.275; -865.000; -915.000
395.777; -111.525; -366.000; -405.000
395.905; -114.400; -449.000; -564.000
396.033;  -37.375;  217.000;  172.000
396.162;  -92.150; -399.000; -453.000
396.290;  -84.850;  -17.000;   -2.000
396.418; -115.925; -555.000; -514.000
396.546; -141.100; -571.000; -466.000
396.674; -170.400; -850.000; -878.000
396.803;  -57.075;  -72.000;  -23.000
396.931;  -61.125; -179.000; -199.000
397.059; -204.450;-1026.000; -989.000
397.187; -169.725;-1026.000; -975.000
397.315; -163.300; -884.000; -649.000
397.443; -115.925; -592.000; -443.000
397.572; -127.000; -578.000; -424.000
397.700; -140.700; -607.000; -614.000
397.828;  -61.800;  120.000;  -90.000
397.956; -117.975; -508.000; -478.000
398.084; -134.600; -767.000; -626.000
398.212;  -25.100;  137.000;  124.000
398.340;  -33.075;  -56.000;  159.000
398.468;  -91.750; -390.000; -169.000
398.596; -180.550; -993.000; -953.000
398.724; -154.275; -762.000; -767.000
398.852; -190.350;-1024.000; -976.000
398.980; -124.325; -560.000; -560.000
399.108; -155.850; -982.000; -735.000
399.236;  -42.600;   13.000;    8.000
399.363;  -20.700;  222.000;  196.000
399.491; -110.450; -404.000; -398.000
399.619; -161.200; -829.000; -800.000
399.747; -167.625; -859.000; -771.000
399.875;  -15.600;  220.000;  234.000
400.003;  -90.000; -359.000; -284.000
400.130; -113.625; -421.000; -341.000
400.258;  -48.875;  -83.000;   38.000
400.386;  -85.625; -352.000; -168.000
400.514; -117.050; -526.000; -587.000
400.641; -186.825; -928.000; -802.000
400.769; -177.625; -979.000; -888.000
400.897; -153.750; -838.000; -793.000
401.025;  -54.400; -166.000; -152.000
401.152;  -26.250;  220.000;   38.000
401.280; -103.050; -430.000; -429.000
401.408; -150.950; -712.000; -576.000
401.535; -146.850; -735.000; -758.000
401.663; -227.850;-1134.000;-1054.000
401.790; -118.025; -514.000; -525.000
401.918;   11.925;  436.000;  405.000
402.046;  -60.050;  134.000;  122.000
402.173;  -61.525;  -18.000;    7.000
402.301;  -99.050; -519.000; -397.000
402.428;   23.450;  528.000;  383.000
402.556; -196.675;-1188.000; -913.000
402.683;  -62.050;  -20.000;   -1.000
402.811;  -65.650;  -37.000; -206.000
402.938;  -45.150;   20.000;   27.000
403.066; -122.025; -574.000; -558.000
403.193;  -30.175;  299.000;  239.000
403.321; -120.075; -396.000; -574.000
403.448;  -28.450;   83.000;   27.000
403.575;  -54.000;  -90.000;  -46.000
403.703; -145.600; -732.000; -557.000
403.830; -109.775; -531.000; -496.000
403.957; -190.375;-1117.000;-1023.000
404.085;  -77.300;  -61.000; -172.000
404.212;  -33.700;  -50.000;   63.000
404.339; -100.250; -566.000; -306.000
404.467; -120.250; -612.000; -524.000
404.594;  -68.825; -287.000; -227.000
404.721; -170.625; -869.000; -764.000
404.848;  -73.500; -113.000; -202.000
404.976; -155.600; -856.000; -783.000
405.103;  -48.375;  -14.000;  -82.000
405.230;  -44.300;  190.000;  226.000
405.357;  -42.250;  117.000;   44.000
405.484;  -61.050;  -49.000;    5.000
405.612; -109.750; -548.000; -563.000
405.739; -110.075; -488.000; -243.000
405.866;   32.725;  669.000;  385.000
405.993;  -91.375; -398.000; -102.000
406.120; -170.075; -801.000; -887.000
406.247; -105.325; -323.000; -342.000
406.374;   38.525;  540.000;  629.000
406.501; -136.975; -632.000; -702.000
406.628; -121.525; -621.000; -589.000
406.755; -141.475; -803.000; -620.000
406.882;  -74.550; -228.000; -277.000
407.009; -139.725; -719.000; -628.000
407.136; -101.375; -480.000; -401.000
407.263; -181.050; -939.000; -829.000
407.390; -135.175; -692.000; -614.000
407.517; -215.825;-1139.000;-1187.000
407.644;  -96.800; -332.000; -256.000
407.771; -102.525; -249.000; -287.000
407.898;  -13.050;  168.000;  328.000
408.025; -112.900; -421.000; -313.000
408.151;  -43.050;   82.000;  153.000
408.278; -105.675; -267.000; -216.000
408.405; -176.950; -931.000; -899.000
408.532; -119.425; -549.000; -542.000
408.659; -145.275; -677.000; -648.000
408.785; -225.125;-1298.000;-1170.000
408.912; -102.000; -412.000; -296.000
409.039; -125.500; -610.000; -686.000
409.166; -114.650; -591.000; -555.000
409.292; -120.050; -571.000; -534.000
409.419; -136.750; -665.000; -649.000
409.546;  -91.700; -431.000; -192.000
409.672; -144.875; -713.000; -545.000
409.799;  -56.200;  -36.000;   34.000
409.926;  -82.650; -180.000; -179.000
410.052; -209.050;-1127.000;-1091.000
410.179; -104.600; -368.000; -392.000
410.305; -101.150; -375.000; -493.000
410.432;  -81.250; -220.000; -333.000
410.558; -121.850; -305.000; -380.000
410.685; -128.675; -688.000; -431.000
410.812; -134.850; -409.000; -588.000
410.938; -175.425; -964.000; -808.000
411.065; -134.825; -671.000; -645.000
411.191;  -70.350; -189.000; -174.000
411.317; -164.325; -823.000; -742.000
411.444;  -74.950; -317.000; -246.000
411.570;  -92.075; -339.000; -294.000
411.697; -137.575; -758.000; -752.000
411.823; -184.575; -989.000; -999.000
411.949;  -69.975;  -56.000;   17.000
412.076; -133.500; -539.000; -519.000
412.202; -157.750; -758.000; -757.000
412.329; -163.450; -798.000; -752.000
412.455; -137.825; -821.000; -657.000
412.581;  -46.650;  -15.000;  172.000
412.707; -121.800; -540.000; -457.000
412.834;  -18.525;  156.000;  219.000
412.960; -149.300; -785.000; -784.000
413.086; -146.850; -743.000; -701.000
413.212;   24.750;  604.000;  578.000
413.339; -156.750; -685.000; -701.000
413.465; -108.525; -364.000; -310.000
413.591; -147.150; -757.000; -474.000
413.717;  -81.925; -358.000; -366.000
413.843; -163.350; -839.000; -861.000
413.969;  -98.700;  -47.000; -292.000
414.096; -150.750; -679.000; -679.000
414.222;  -46.525;  -33.000;   85.000
414.348; -141.575; -652.000; -385.000
414.474;  -75.800;   38.000;  -52.000
414.600;  -68.125; -126.000; -144.000
414.726;  -52.100;  -96.000;  -55.000
414.852; -121.275; -365.000; -342.000
414.978;  -38.175;  104.000;  -18.000
415.104;  -58.225;   38.000;   80.000
415.230; -100.725; -329.000; -330.000
415.356; -127.050; -409.000; -514.000
415.482;  -58.050;   13.000;  -35.000
415.608;  -88.300; -247.000; -323.000
415.734;  -42.500;   67.000;   38.000
415.860; -161.050; -875.000; -767.000
415.986; -155.025; -685.000; -607.000
416.111; -160.750; -798.000; -652.000
416.237; -112.225; -424.000; -571.000
416.363; -156.200; -765.000; -733.000
416.489;  -88.325; -324.000; -251.000
416.615; -165.625; -707.000; -742.000
416.741; -142.700; -677.000; -784.000
416.866; -153.125; -673.000; -736.000
416.992; -165.175; -801.000; -818.000
417.118;  -98.725;  -41.000;  -80.000
417.244; -149.550; -798.000; -531.000
417.369; -154.600; -801.000; -612.000
417.495;  -87.075; -325.000; -254.000
417.621; -185.075;-1015.000; -803.000
417.746; -119.600; -579.000; -572.000
417.872;  -75.525; -254.000; -144.000
417.998; -127.950; -515.000; -530.000
418.123; -201.725;-1073.000; -845.000
418.249; -121.525; -512.000; -601.000
418.374; -178.525; -916.000; -824.000
418.500; -121.750; -383.000; -482.000
418.626;  -44.800;   70.000;  -59.000
418.751; -118.725; -549.000; -448.000
418.877; -154.200; -637.000; -643.000
419.002; -136.475; -688.000; -560.000
419.128; -175.325; -930.000; -721.000
419.253; -166.725; -967.000; -837.000
419.379; -133.500; -391.000; -338.000
419.504;   -4.900;  325.000;  415.000
419.629;  -96.300; -393.000; -212.000
419.755;  -74.650; -317.000; -254.000
419.880;  -99.075;  -98.000;   67.000
420.006;  -90.325; -280.000; -221.000
420.131; -148.725; -662.000; -775.000
420.256;  -98.150; -315.000; -316.000
420.382; -143.825; -665.000; -687.000
420.507; -144.350; -649.000; -778.000
420.632;  -95.600; -337.000; -339.000
420.758;  -86.925; -251.000; -425.000
420.883; -144.275; -876.000; -672.000
421.008; -148.900; -775.000; -619.000
421.133; -108.775; -509.000; -467.000
421.259;  -86.475; -325.000; -259.000
421.384; -163.575; -834.000; -693.000
421.509; -172.500;-1052.000; -862.000
421.634; -196.850; -936.000; -820.000
421.759; -112.425; -359.000; -327.000
421.885; -149.300; -717.000; -656.000
422.010; -134.175; -673.000; -542.000
422.135; -182.075; -695.000; -727.000
422.260;   -1.625;  340.000;  280.000
422.385;  -95.575;   12.000;  -98.000
422.510;  -36.000;  151.000;  -26.000
422.635;  -68.175;  -87.000;  -43.000
422.760; -153.425; -766.000; -791.000
422.885;  -64.175;  -57.000;  -80.000
423.010;  -72.125; -112.000; -169.000
423.135; -130.550; -481.000; -561.000
423.260;  -75.025; -150.000; -245.000
423.385;  -13.650;  476.000;  222.000
423.510;  -33.050;   71.000;  -22.000
423.635;  -56.475;  133.000;   45.000
423.760;  -14.850;  383.000;  328.000
423.885;  -12.700;  336.000;  391.000
424.010;  -55.150;  -68.000;  -13.000
424.135;  -61.425;    5.000;  -33.000
424.259; -133.775; -654.000; -457.000
424.384; -108.475; -279.000; -272.000
424.509;  -74.450; -260.000; -186.000
424.634; -165.800; -761.000; -623.000
424.759; -142.175; -688.000; -544.000
424.883; -134.500; -506.000; -527.000
425.008; -132.375; -502.000; -410.000
425.133; -147.050; -679.000; -653.000
425.258; -131.125; -517.000; -381.000
425.382; -157.400; -867.000; -774.000
425.507; -131.050; -487.000; -543.000
425.632; -168.825; -802.000; -663.000
425.756;  -91.650; -256.000; -146.000
425.881; -163.875; -831.000; -857.000
426.006; -114.550; -604.000; -355.000
426.130; -154.475; -696.000; -508.000
426.255; -144.750; -611.000; -491.000
426.379;  -80.800; -189.000; -577.000
426.504;   37.100;  660.000;  544.000
426.629; -134.650; -519.000; -466.000
426.753;  -59.925;   64.000;  -46.000
426.878; -100.625; -252.000; -288.000
427.002; -173.675; -651.000; -668.000
427.127;  -82.325;  -35.000; -158.000
427.251;  -28.725;  372.000;  401.000
427.375; -108.925; -191.000; -173.000
427.500; -135.650; -616.000; -610.000
427.624; -100.400; -234.000; -400.000
427.749;  -92.575; -216.000; -225.000
427.873; -128.225; -499.000; -412.000
427.997;  -88.675; -222.000; -230.000
428.122;   24.125;  795.000;  703.000
428.246;   -3.050;  433.000;  434.000
428.371; -186.150; -869.000; -773.000
428.495; -142.600; -624.000; -646.000
428.619;  -75.825; -186.000; -117.000
428.743;  -41.025;   65.000;  132.000
428.868; -174.525; -732.000; -643.000
428.992;  -98.325; -219.000; -326.000
429.116; -101.800; -329.000; -357.000
429.240;  -16.575;  419.000;  426.000
429.365; -115.950; -454.000; -574.000
429.489; -138.675; -638.000; -647.000
429.613;  -75.225; -236.000; -177.000
429.737; -112.225; -563.000; -432.000
429.861; -100.800; -247.000; -133.000
429.985; -107.650; -425.000; -305.000
430.109; -187.450; -770.000; -908.000
430.234;  -49.425;   76.000;  -50.000
430.358; -102.525; -250.000; -160.000
430.482; -163.250; -672.000; -564.000
430.606; -130.175; -655.000; -375.000
430.730; -124.675; -437.000; -388.000
430.854; -179.350; -909.000; -835.000
430.978; -163.375; -795.000; -764.000
431.102; -138.925; -499.000; -422.000
431.226; -174.675; -874.000; -815.000
431.350;   -5.625;  345.000;  422.000
431.474; -132.075; -661.000; -373.000
431.597; -191.225;-1060.000; -848.000
431.721;  -91.750; -276.000; -267.000
431.845; -157.525; -704.000; -472.000
431.969; -107.050; -304.000; -349.000
432.093; -114.825; -395.000; -317.000
432.217;  -50.575;   32.000;   82.000
432.341; -138.150; -523.000; -518.000
432.464;  -65.725;   96.000;   40.000
432.588; -125.675; -401.000; -329.000
432.712;  -76.725;  -52.000;  -52.000
432.836;  -25.325;  213.000;  263.000
432.959; -107.325; -372.000; -311.000
433.083;  -63.125;   11.000;    2.000
433.207;   -4.050;  285.000;  930.000
433.330; -101.500; -391.000; -200.000
433.454; -136.550; -654.000; -638.000
433.578;   13.900;  583.000;  278.000
433.701; -160.250; -623.000; -675.000
433.825; -113.500; -292.000; -299.000
433.949;  -76.975;   28.000;  -72.000
434.072; -111.850; -410.000; -323.000
434.196;  -80.500; -309.000; -117.000
434.319; 3695.300;25482.000;25124.000
434.443; -149.525; -656.000; -603.000
434.566;  -32.550;  281.000;   62.000
434.690; -140.225; -637.000; -383.000
434.813; -109.025; -251.000; -173.000
434.937; -146.550; -569.000; -696.000
435.060; -110.200; -423.000; -332.000
435.184; -106.950; -492.000; -217.000
435.307;  -60.600;  159.000;  102.000
435.431;  -64.475;  -40.000;   24.000
435.554; -100.650; -399.000; -240.000
435.677; -107.800; -350.000; -258.000
435.801;  -61.700;  -25.000;   49.000
435.924;  -66.225;    1.000;  -67.000
436.048; -184.675;-1019.000; -732.000
436.171;  -98.475; -240.000;  -66.000
436.294; -103.700; -248.000; -229.000
436.417; -201.650; -963.000; -849.000
436.541; -158.500; -814.000; -840.000
436.664;  -76.475; -242.000; -316.000
436.787;  -70.950;   13.000;  113.000
436.910; -141.750; -792.000; -422.000
437.034;  -51.775;  142.000;  143.000
437.157;  -57.725;  -11.000;    0.000
437.280; -113.700; -392.000; -292.000
437.403; -181.825; -982.000; -869.000
437.526; -185.050; -903.000; -865.000
437.649; -130.500; -505.000; -332.000
437.772; -152.075; -692.000; -540.000
437.896;   29.225;  700.000;  544.000
438.019; -155.000; -758.000; -503.000
438.142; -136.575; -596.000; -506.000
438.265; -160.800; -639.000; -670.000
438.388; -117.500; -520.000; -410.000
438.511; -149.125; -597.000; -394.000
438.634;  -94.975; -247.000; -125.000
438.757; -164.075; -693.000; -619.000
438.880;  -70.775;  -34.000;  -57.000
439.003; -115.225; -417.000; -437.000
439.126;  -91.325; -287.000; -167.000
439.248;  -89.075;  -98.000; -139.000
439.371;  -66.075;    9.000;  -53.000
439.494;    9.050;  510.000;  439.000
439.617;  -71.000;   65.000;  -88.000
439.740; -190.650; -968.000; -816.000
439.863; -160.375; -755.000; -595.000
439.986; -139.900; -476.000; -431.000
440.108;  -88.000; -161.000; -112.000
440.231; -203.025; -950.000; -836.000
440.354;  -76.150;  -64.000; -150.000
440.477; -154.250; -566.000; -542.000
440.599; -116.575; -200.000; -225.000
440.722; -157.150; -709.000; -586.000
440.845;   47.150;  751.000;  928.000
440.968; -113.325; -415.000; -311.000
441.090;  -82.050; -199.000;  -33.000
441.213; -178.200;-1021.000; -825.000
441.336;  -66.625; -159.000;   -5.000
441.458; -115.375; -549.000; -396.000
441.581; -149.300; -628.000; -629.000
441.703;  -98.300; -152.000;   13.000
441.826; -134.900; -557.000; -400.000
441.948;  -56.550;   56.000;   51.000
442.071;   13.950;  555.000;  424.000
442.193; -142.075; -531.000; -485.000
442.316;  -37.125;  152.000;   97.000
442.438;  -88.925; -233.000;  -10.000
442.561;  -22.125;  272.000;  262.000
442.683; -155.600; -809.000; -522.000
442.806;  -71.000;   -8.000;   74.000
442.928; -188.500; -859.000; -604.000
443.051; -133.850; -577.000; -373.000
443.173; -115.400; -341.000; -339.000
443.295; -116.500; -263.000; -371.000
443.418; -104.500; -321.000;  -29.000
443.540;  -65.400; -106.000;   -4.000
443.662; -150.050; -563.000; -465.000
443.785;  -29.750;  335.000;  199.000
443.907; -131.150; -362.000; -208.000
444.029; -152.950; -767.000; -494.000
444.152; -166.125; -644.000; -554.000
444.274;  -74.500;  -18.000;  -24.000
444.396; -137.675; -461.000; -221.000
444.518; -159.625; -691.000; -454.000
444.640; -130.850; -268.000; -111.000
444.763;  -39.600;  388.000;  249.000
444.885; -132.625; -432.000; -392.000
445.007;  -58.175;   35.000;   86.000
445.129; -146.675; -610.000; -515.000
445.251; -126.300; -372.000; -439.000
445.373; -150.825; -537.000; -386.000
445.495;  -25.625;  242.000;  350.000
445.617;   22.125;  853.000;  753.000
445.739;  -98.650; -215.000;  -97.000
445.861;  -84.450; -245.000; -112.000
445.984; -102.700; -267.000; -101.000
446.105; -129.300; -418.000; -251.000
446.227;  -81.100; -176.000;  -19.000
446.349; -123.900; -358.000; -249.000
446.471; -148.200; -615.000; -448.000
446.593; -109.350; -316.000;   19.000
446.715;  -74.950;  -67.000;   41.000
446.837;   38.425;  697.000;  832.000
446.959; -132.250; -457.000; -478.000
447.081; -148.875; -628.000; -518.000
447.203;   24.400;  862.000;  834.000
447.325; -103.350; -270.000;   42.000
447.446;  -30.625;  286.000;  530.000
447.568; -199.900; -921.000; -803.000
447.690; -115.475; -236.000; -245.000
447.812; -178.675; -798.000; -519.000
447.933;  -51.425;  155.000;  127.000
448.055; -101.250; -306.000; -261.000
448.177;  -54.100;   31.000;   79.000
448.299; -204.575; -935.000; -727.000
448.420;  -39.725;  -25.000;  159.000
448.542;  -62.425;   -3.000;   33.000
448.664;  -44.025;  109.000;  322.000
448.785;  -42.350;  265.000;   83.000
448.907; -135.950; -614.000; -353.000
449.028; -157.250; -771.000; -471.000
449.150;   13.000;  492.000;  589.000
449.272; -208.050;-1044.000; -913.000
449.393;    6.300;  612.000;  694.000
449.515; -162.225; -634.000; -581.000
449.636; -103.300; -264.000; -155.000
449.758;   20.725;  763.000;  622.000
449.879; -117.325; -498.000; -396.000
450.001;  -98.650; -149.000;  -49.000
450.122;  -67.600;  -95.000;  162.000
450.244;  -52.100;   37.000;  364.000
450.365; -127.375; -495.000; -301.000
450.486;  -69.800;   80.000;  268.000
450.608;  -28.675;  393.000;  326.000
450.729;    6.075;  578.000;  645.000
450.850; -147.575; -574.000; -466.000
450.972; -169.100; -552.000; -389.000
451.093;  -28.125;  190.000;  588.000
451.214; -143.125; -516.000; -337.000
451.336;   40.250;  773.000;  579.000
451.457;  -28.075;  264.000;  393.000
451.578;  -71.875; -118.000;  -74.000
451.699; -140.625; -546.000; -540.000
451.821;  -92.050; -284.000;  -50.000
451.942;  -46.350;  278.000;  285.000
452.063;  -39.950;  228.000;  419.000
452.184; -102.625;  -54.000;  -49.000
452.305;  -43.750;  103.000;  170.000
452.427; -136.175; -549.000; -301.000
452.548; -101.100;   23.000;   79.000
452.669;  -94.700; -257.000;  -89.000
452.790;  -92.475;    3.000;  -18.000
452.911;  -61.225;  195.000;  259.000
453.032; -107.425; -289.000;  -60.000
453.153;  -86.400;  -29.000;   81.000
453.274;   41.325;  737.000;  868.000
453.395;  -77.950;  -51.000;  175.000
453.516;   85.325; 1317.000; 1388.000
453.637; -122.325; -205.000; -150.000
453.758;  -75.800;   15.000;   69.000
453.879; -131.600; -462.000; -250.000
454.000;   60.000; 1086.000;  948.000
454.121; -168.850; -554.000; -326.000
454.242; -151.800; -599.000; -383.000
454.362;  -84.675;  -99.000;  114.000
454.483; -115.275; -309.000; -229.000
454.604;  -37.325;  512.000;  580.000
454.725; -157.075; -627.000; -555.000
454.846; -123.925; -474.000; -406.000
454.967;  -47.650;  230.000;  539.000
455.087;  -62.725;  179.000;  153.000
455.208;    8.475;  554.000;  856.000
455.329;  -74.600;  -22.000;   82.000
455.450;   -2.600;  473.000;  633.000
455.570; -122.125; -234.000; -211.000
455.691;  -62.425;  201.000;  407.000
455.812; -123.425; -270.000;  -92.000
455.932;  -80.700;  107.000;  -97.000
456.053;  -86.325;   36.000;   24.000
456.173; -127.875; -433.000; -355.000
456.294; -150.100; -476.000; -303.000
456.415;  -77.700;  -73.000;   70.000
456.535;  -47.725;  297.000;  273.000
456.656;  -60.325;  132.000;  240.000
456.776;  -90.150;    3.000;  298.000
456.897;  -21.850;  308.000;  513.000
457.017;  -99.475; -153.000;   -3.000
457.138; -152.925; -402.000; -249.000
457.258;  -46.925;  263.000;  224.000
457.379;  -35.800;  509.000;  521.000
457.499;  -36.500;  443.000;  432.000
457.620; -137.925; -407.000; -231.000
457.740; -109.250; -132.000;  -11.000
457.860;  -75.050;   87.000;   44.000
457.981;  -72.150;  132.000;  124.000
458.101; -100.775;  -89.000;   40.000
458.221;  -30.850;  336.000;  402.000
458.342;  -80.675;   -4.000;  -37.000
458.462;   -9.975;  617.000;  352.000
458.582; -127.925; -302.000; -294.000
458.703;  -73.700;  303.000;  154.000
458.823;  -74.800;   22.000;  163.000
458.943;  -45.350;  341.000;  467.000
459.063;  -70.875; 1124.000;  192.000
459.183;  -53.750;  328.000;  313.000
459.304;  -30.875;  315.000;  517.000
459.424; -112.000; -246.000;  -89.000
459.544;  -14.075;  388.000;  764.000
459.664;  -15.450;  499.000;  506.000
459.784;   52.025; 1004.000; 1175.000
459.904;   10.425;  867.000;  744.000
460.024;   32.075;  867.000;  684.000
460.144;  -25.525;  449.000;  554.000
460.264;  -31.400;  515.000;  327.000
460.385; -100.250; -145.000; -119.000
460.505;   29.000;  905.000;  858.000
460.625;  -97.625;  -17.000;  -68.000
460.745;  -25.575;  396.000;  541.000
460.864;  -71.750;  153.000;  469.000
460.984;  -36.225;  499.000;  573.000
461.104;  126.250; 1656.000; 1775.000
461.224;   18.425;  657.000;  650.000
461.344;  -42.225;  431.000;  360.000
461.464;  -58.725;  258.000;  513.000
461.584;  -41.125;  283.000;  466.000
461.704;  -81.225;   58.000;  108.000
461.824;  -69.450;  238.000;  259.000
461.943;  -61.375;  191.000;  130.000
462.063;  -89.825;    2.000;  324.000
462.183;   10.875;  639.000;  717.000
462.303;   85.825; 1678.000; 1230.000
462.422;    4.625;  781.000;  840.000
462.542;  -66.850;  271.000;  391.000
462.662;  -39.375;  353.000;  380.000
462.782;  -20.050;  833.000;  572.000
462.901;  -18.675;  545.000;  717.000
463.021;  129.725; 1702.000; 1638.000
463.141;  -41.675;  337.000;  770.000
463.260;  -33.225;  614.000;  474.000
463.380;   13.375;  902.000;  884.000
463.499;  -49.300;  342.000;  332.000
463.619;  -53.400;  581.000;  559.000
463.738;   82.175; 1644.000;  903.000
463.858;    1.375;  657.000;  811.000
463.978;  -57.900;  542.000;  396.000
464.097;   34.075;  921.000; 1114.000
464.217;   40.550; 1196.000; 1143.000
464.336;   61.050; 1068.000; 1130.000
464.455;  -42.825;  328.000;  659.000
464.575;   -1.650;  597.000;  602.000
464.694;   60.400; 1204.000; 1179.000
464.814;   18.625; 1190.000; 1138.000
464.933;   31.800; 1095.000; 1027.000
465.052;   68.400; 1412.000; 1054.000
465.172;    2.525;  922.000;  799.000
465.291;   70.550; 1376.000; 1320.000
465.410;  -13.925;  462.000;  735.000
465.530;   67.825; 1355.000; 1310.000
465.649;   37.300; 1209.000; 1273.000
465.768;  116.025; 1673.000; 1508.000
465.888;   37.500;  941.000; 1174.000
466.007;   76.500; 1335.000; 1440.000
466.126;  -18.275;  721.000;  641.000
466.245;   23.775; 1176.000; 1187.000
466.364;   10.850;  950.000; 1060.000
466.484;   37.375; 1024.000; 1213.000
466.603;   14.400; 1101.000; 1222.000
466.722;   85.400; 1490.000; 1769.000
466.841;   41.525; 1151.000; 1401.000
466.960;   13.100; 1069.000;  972.000
467.079;  118.450; 1971.000; 1786.000
467.198;   25.200; 1238.000; 1181.000
467.317;   80.550; 1768.000; 1162.000
467.436;   57.700; 1709.000; 1261.000
467.555;  117.000; 1796.000; 1746.000
467.674;   58.350; 1227.000; 1329.000
467.793;   46.900; 1376.000; 1374.000
467.912;   62.050; 1658.000; 1539.000
468.031;  137.625; 2038.000; 1930.000
468.150;  113.350; 1842.000; 1837.000
468.269;  185.050; 2313.000; 2090.000
468.388;  182.500; 2168.000; 2339.000
468.507;  253.125; 2884.000; 2903.000
468.626;  234.000; 2555.000; 2541.000
468.744;  131.950; 2018.000; 2174.000
468.863;  186.475; 2312.000; 2523.000
468.982;   65.800; 1503.000; 1555.000
469.101;  203.300; 2788.000; 2692.000
469.220;  145.225; 2333.000; 2176.000
469.338;  230.450; 2935.000; 3051.000
469.457;  185.700; 2719.000; 2545.000
469.576;  327.650; 3953.000; 3784.000
469.695;  214.900; 2877.000; 3066.000
469.813;  396.075; 4148.000; 4192.000
469.932;  360.800; 4255.000; 4485.000
470.051;  364.400; 4075.000; 4161.000
470.169;  385.350; 4470.000; 4338.000
470.288;  435.200; 4700.000; 4809.000
470.406;  478.250; 5059.000; 5194.000
470.525;  554.700; 6101.000; 5787.000
470.644;  623.175; 6847.000; 6794.000
470.762;  772.600; 8397.000; 7873.000
470.881;  833.150; 8651.000; 8464.000
470.999;  983.475; 9685.000; 9151.000
471.118; 1097.575;11174.000;10711.000

