
Integration time [ms]: 100.000
Averaging Nr. [scans]: 40
Smoothing Nr. [pixels]: 0
Data measured with spectrometer [name]: 2101012U2
Wave   ;Sample   ;Dark     ;Reference
[nm]   ;[counts] ;[counts] ;[counts] 

197.733;   54.150;  516.000;  404.000
197.879;  -77.200; -610.000; -634.000
198.025;  -58.975; -475.000; -420.000
198.171;  -69.325; -602.000; -612.000
198.317;  -42.700; -401.000; -316.000
198.463;  -59.150; -655.000; -404.000
198.609;   28.950;  181.000; -137.000
198.755;  -83.425; -644.000; -410.000
198.901;  -93.150; -505.000; -424.000
199.047;  -76.975; -615.000; -488.000
199.193;  -45.825; -230.000; -468.000
199.339;  -46.050; -222.000; -369.000
199.485;   50.300;  330.000;  271.000
199.631;   26.075;  227.000;  310.000
199.777;  -59.450; -466.000; -398.000
199.923;  -60.575; -610.000; -424.000
200.069;   -0.100; -141.000;  -58.000
200.215;   58.925;  128.000;  453.000
200.361;   48.600;  243.000;  477.000
200.507;  -53.550; -600.000; -373.000
200.653;  -24.900; -371.000; -194.000
200.798;  -31.750; -215.000; -125.000
200.944;    2.400; -146.000;  -41.000
201.090;   53.950;   61.000;  222.000
201.236;   -8.500; -116.000; -158.000
201.382;  144.400;  874.000;  903.000
201.528;    6.900;  -58.000;  -48.000
201.674;  -12.150; -386.000; -293.000
201.819;  -74.925; -540.000; -439.000
201.965;  -78.800; -699.000; -447.000
202.111;  -20.700; -273.000; -226.000
202.257;  -40.900; -250.000; -238.000
202.402;   14.050;   13.000;  -36.000
202.548;  -27.525; -169.000; -116.000
202.694;   76.525;  410.000; -183.000
202.840;  -73.675; -603.000; -531.000
202.985;  -57.950; -681.000; -639.000
203.131; -110.000; -832.000; -666.000
203.277;  -27.025; -199.000; -262.000
203.423;  -32.950; -434.000; -520.000
203.568;  -32.325; -462.000; -237.000
203.714;  -55.275; -535.000; -542.000
203.860;  -79.975; -682.000; -641.000
204.005;   12.325;  112.000;  167.000
204.151;   71.350;  561.000;  556.000
204.296;  -33.525; -354.000; -221.000
204.442;  -77.450; -600.000; -547.000
204.588;  -81.875; -592.000; -579.000
204.733;   26.900;  178.000;  168.000
204.879; -116.975;-1018.000; -822.000
205.025;    5.375;  -99.000;  126.000
205.170;    4.125;  -17.000;   94.000
205.316;   70.650;  438.000;  661.000
205.461;  -79.550; -698.000; -554.000
205.607;   86.150;  609.000;  665.000
205.752;  -76.200; -626.000; -551.000
205.898;  -62.525; -501.000; -391.000
206.043;  -54.500; -578.000; -506.000
206.189;  -33.325; -243.000; -285.000
206.334;   89.200;  554.000;  606.000
206.480;   90.350;  409.000;  239.000
206.625;  -84.975; -529.000; -552.000
206.771;  -41.425; -451.000; -373.000
206.916;  -18.775; -210.000; -537.000
207.062;  -79.825; -545.000; -591.000
207.207;  -57.575; -546.000; -443.000
207.353;   55.075;  185.000;  460.000
207.498;   20.675;  196.000;   85.000
207.643;  -47.075; -501.000; -370.000
207.789; -133.350;-1069.000; -910.000
207.934;  -98.025; -665.000; -713.000
208.080;  -25.150; -154.000;   66.000
208.225;   -3.550;  -22.000;  -57.000
208.370;  -81.450; -727.000; -619.000
208.516;  -73.675; -741.000; -487.000
208.661;  -29.950; -127.000;  -69.000
208.806;  -13.125; -165.000; -171.000
208.952; -134.475;-1044.000; -731.000
209.097;   79.675;  378.000;  349.000
209.242;  -44.025; -307.000; -382.000
209.387;   76.325;  392.000;  350.000
209.533;  -43.350; -321.000; -350.000
209.678;   83.600;  472.000;  543.000
209.823;  -47.175; -408.000; -310.000
209.969; -104.125; -860.000; -757.000
210.114;  -97.750; -907.000; -719.000
210.259; -110.750; -939.000; -889.000
210.404;    2.875; -171.000;  103.000
210.549;    5.200;  108.000;    3.000
210.695;   -2.225;   -3.000;  -95.000
210.840;   46.850;   94.000;   67.000
210.985;  -55.200; -484.000; -303.000
211.130;   66.900;  268.000;  406.000
211.275;   21.500;  207.000;  199.000
211.420;  -54.600; -300.000; -289.000
211.566;  -71.750; -536.000; -489.000
211.711;   30.125;  218.000;  157.000
211.856;  -67.425; -545.000; -519.000
212.001;    5.825;  151.000;   44.000
212.146;   26.325;  153.000;   49.000
212.291;  -23.075; -210.000; -186.000
212.436;  -12.025; -280.000;   -6.000
212.581;  -87.850; -685.000; -653.000
212.726;  -77.000; -487.000; -538.000
212.871;  -45.975; -552.000; -217.000
213.016; -140.925;-1172.000;-1029.000
213.161;   70.675;  406.000;  291.000
213.306;  -71.875; -435.000; -577.000
213.451;  -95.825; -778.000; -689.000
213.596;  -27.975; -455.000; -347.000
213.741;  -49.200; -448.000; -538.000
213.886;  -63.550; -498.000; -517.000
214.031;  -23.925; -294.000; -124.000
214.176;  -39.625; -408.000; -341.000
214.321;  -23.225; -296.000; -157.000
214.466;  -26.975; -163.000;  -43.000
214.611;   -0.300;  -61.000;  -10.000
214.756; -119.725; -948.000; -858.000
214.901;  -34.175; -388.000; -226.000
215.046; -117.750; -797.000; -825.000
215.191;   21.975;  128.000;   35.000
215.336;   -6.475; -157.000;  -19.000
215.480;  -75.750; -684.000; -505.000
215.625;   -3.075; -175.000;  -19.000
215.770;  -96.375; -757.000; -662.000
215.915;    0.900;   -5.000;  -97.000
216.060;  -15.450; -113.000;  -21.000
216.205; -100.200; -731.000; -779.000
216.349;  -65.875; -470.000; -533.000
216.494; -128.275; -939.000; -867.000
216.639; -111.600; -823.000; -888.000
216.784;  -87.225; -577.000; -525.000
216.929;   57.425;  392.000;  281.000
217.073;   -2.100; -244.000;  -31.000
217.218;   -1.850;   78.000;  -47.000
217.363;  -79.500; -656.000; -618.000
217.507;  -86.175; -623.000; -588.000
217.652; -128.625; -845.000; -874.000
217.797;  -93.375; -708.000; -659.000
217.942;  -96.175; -856.000; -720.000
218.086;   83.850;  608.000;  539.000
218.231;  -12.175; -174.000;  -26.000
218.376;  -31.450; -337.000; -229.000
218.520;   28.325;  -41.000;   96.000
218.665;  -34.250; -338.000; -204.000
218.810;  -35.725; -275.000; -233.000
218.954;   24.550;  201.000;   35.000
219.099; -103.575; -713.000; -963.000
219.243;  -76.775; -589.000; -554.000
219.388;  -32.450; -264.000; -136.000
219.532;  -12.225; -116.000; -116.000
219.677;  -64.300; -564.000; -521.000
219.822;   -4.150;   33.000;   89.000
219.966;    7.425;   17.000;  -99.000
220.111;  -37.250; -328.000;  -40.000
220.255;  -91.075; -797.000; -750.000
220.400;  -25.625; -180.000; -146.000
220.544;  -70.350; -516.000; -450.000
220.689;  -58.925; -422.000; -451.000
220.833;  -16.450; -123.000;  -58.000
220.978;  -42.325; -393.000; -563.000
221.122;   30.225;  319.000;  307.000
221.267; -116.575; -906.000; -837.000
221.411;  -67.575; -478.000; -394.000
221.555;  -19.675; -104.000;  -23.000
221.700;  -47.400; -329.000; -222.000
221.844;   43.775;  255.000;  272.000
221.989;  -47.900; -328.000; -311.000
222.133;  -37.675; -289.000; -307.000
222.277;    5.350;    5.000;   78.000
222.422;   19.250;  227.000;  113.000
222.566;  -23.975; -381.000; -214.000
222.711;  -57.850; -414.000; -479.000
222.855;  -67.050; -643.000; -586.000
222.999;  -82.050; -642.000; -717.000
223.144;  -20.025; -195.000; -194.000
223.288;   51.450;  423.000;  251.000
223.432;   40.650;  184.000;  230.000
223.576;    7.300;  152.000;  -21.000
223.721;   42.925;  364.000;  273.000
223.865;  -65.350; -472.000; -475.000
224.009;  223.350; 1673.000; 1631.000
224.153;  -93.275; -660.000; -671.000
224.298;  -64.925; -531.000; -489.000
224.442;  -15.925;  -74.000;  -33.000
224.586;   -6.275; -169.000; -106.000
224.730;  -99.650; -858.000; -670.000
224.875; -106.000; -739.000; -688.000
225.019;    8.450;  102.000;  188.000
225.163;   57.650;  208.000;  341.000
225.307;   16.575;   97.000;  -91.000
225.451;   50.600;  360.000;  481.000
225.595;   31.850;  264.000;  176.000
225.739;  -10.925; -170.000;  -94.000
225.884;   -3.050;   86.000;    5.000
226.028;  -99.075; -760.000; -626.000
226.172;  -41.175; -260.000; -273.000
226.316; -122.950; -941.000; -902.000
226.460;  -62.650; -645.000; -493.000
226.604;  -50.125; -406.000; -400.000
226.748; -112.125; -836.000; -733.000
226.892;  -23.450; -227.000; -181.000
227.036;  -43.150; -537.000; -447.000
227.180;  -52.725; -551.000; -375.000
227.324;  -66.300; -561.000; -580.000
227.468; -112.800; -819.000; -717.000
227.612;   13.575;  242.000;  -28.000
227.756; -102.025; -845.000; -698.000
227.900;   57.225;  342.000;  441.000
228.044;  -57.700; -509.000; -290.000
228.188;   51.925;  448.000;  568.000
228.332;  -89.525; -546.000; -472.000
228.476;  -31.025; -223.000; -149.000
228.620;  -23.425; -210.000; -150.000
228.764;   74.150;  431.000;  349.000
228.908;  -24.525; -155.000;   30.000
229.052;  -65.500; -615.000; -528.000
229.195;  -13.100; -172.000;   13.000
229.339;  -29.200; -235.000; -305.000
229.483;  -28.025;    5.000; -162.000
229.627;  -12.125; -156.000;  139.000
229.771;  -33.475; -218.000; -294.000
229.915;    8.725;  230.000;   79.000
230.059;  -88.775; -648.000; -663.000
230.202;  -47.375; -370.000; -317.000
230.346;   -8.275; -107.000;  107.000
230.490;  -65.450; -489.000; -521.000
230.634; -103.075; -736.000; -553.000
230.777;   67.650;  478.000;  509.000
230.921;  -58.450; -450.000; -359.000
231.065;  -44.625; -246.000; -286.000
231.209;   48.700;  261.000;  265.000
231.352;   17.300;   54.000;   40.000
231.496;   21.675;  568.000;  188.000
231.640;  -74.675; -693.000; -621.000
231.783;   74.375;  546.000;  525.000
231.927;  -55.325; -294.000; -365.000
232.071; -109.875; -962.000; -736.000
232.214; -119.475; -980.000; -764.000
232.358;  -94.375; -683.000; -599.000
232.502;    9.025;  -19.000;    7.000
232.645; -136.050;-1090.000; -927.000
232.789;  -12.375; -257.000; -218.000
232.933;  -43.700; -407.000; -224.000
233.076; -128.300;-1038.000; -897.000
233.220; -107.425; -752.000; -777.000
233.363;  -74.200; -669.000; -477.000
233.507;   66.925;  371.000;  129.000
233.650;  -84.125; -764.000; -834.000
233.794;   68.625;  438.000;  461.000
233.938;  -72.125; -530.000; -362.000
234.081;  -14.025;  -93.000;   31.000
234.225;  -53.050; -631.000; -539.000
234.368; -121.125; -773.000; -723.000
234.512;  -32.900; -385.000; -299.000
234.655;  -83.325; -582.000; -555.000
234.798;  -68.325; -493.000; -466.000
234.942; -122.150; -884.000;-1002.000
235.085;  -69.300; -651.000; -443.000
235.229;  -80.325; -405.000; -410.000
235.372;  -54.800; -247.000; -191.000
235.516;  -66.925; -397.000; -321.000
235.659;   17.300;   92.000;  121.000
235.802;   -6.550;  -38.000;  -22.000
235.946;   26.150;  335.000;  215.000
236.089;   45.450;  126.000;  250.000
236.233;   57.850;  275.000;  298.000
236.376;  -49.625; -235.000; -378.000
236.519;  -43.300; -297.000; -319.000
236.663;  -32.200; -215.000; -117.000
236.806; -138.050;-1029.000; -999.000
236.949;   59.250;  543.000;  431.000
237.092;   53.050;  412.000;  391.000
237.236;  -77.425; -589.000; -502.000
237.379;   82.475;  352.000;  428.000
237.522; -111.975; -879.000; -768.000
237.666;  -18.725; -271.000;   18.000
237.809; -122.450; -851.000; -823.000
237.952;   46.100;  469.000;  271.000
238.095;  -67.475; -447.000; -442.000
238.238;   73.425;  688.000;  700.000
238.382;    0.325;  166.000;  103.000
238.525;  -65.200; -598.000; -511.000
238.668; -131.450;-1060.000; -985.000
238.811;  -85.925; -638.000; -643.000
238.954;  -53.225; -483.000; -334.000
239.097;   97.875;  617.000;  664.000
239.241;   28.925;  394.000;  326.000
239.384;  -42.450; -254.000; -214.000
239.527;  -55.400; -424.000; -224.000
239.670; -158.050; -994.000;-1091.000
239.813; -102.725; -696.000; -658.000
239.956;   78.225;  579.000;  473.000
240.099; -110.925; -778.000; -725.000
240.242;   68.550;  428.000;  432.000
240.385;   43.850;  466.000;  450.000
240.528;  -81.975; -706.000; -473.000
240.671;   17.200;  189.000;  134.000
240.814;  -51.050; -441.000; -158.000
240.957; -102.450; -767.000; -578.000
241.100; -102.425; -779.000; -755.000
241.243; -134.725;-1234.000; -893.000
241.386;  -68.225; -508.000; -379.000
241.529; -100.000; -735.000; -547.000
241.672;  -71.525; -566.000; -495.000
241.815; -118.050; -832.000; -808.000
241.958;  -27.500; -125.000; -182.000
242.101;  -83.750; -545.000; -390.000
242.244;  -36.525; -270.000; -325.000
242.387;  -43.675; -304.000; -246.000
242.530;   67.125;  470.000;  134.000
242.673;  -38.050; -381.000; -309.000
242.815; -123.925; -925.000; -899.000
242.958;  -71.200; -482.000; -381.000
243.101;   20.625;  132.000;  187.000
243.244;  -92.400; -564.000; -521.000
243.387;  -48.525; -313.000; -316.000
243.530; -106.850; -657.000; -674.000
243.672;    0.900;   43.000;  -92.000
243.815;  -50.625; -355.000; -283.000
243.958;   -9.450;   98.000;  -26.000
244.101;    7.600;   59.000;  -16.000
244.243;  -10.875;  -47.000;  101.000
244.386; -114.200; -761.000; -630.000
244.529;  -22.425; -132.000; -139.000
244.672; -146.000;-1154.000; -951.000
244.814; -111.050; -621.000; -794.000
244.957;  -74.500; -380.000; -304.000
245.100;  -89.150; -489.000; -489.000
245.242;  -67.850; -387.000; -374.000
245.385;  -11.725;  -59.000;  -39.000
245.528; -111.050; -871.000; -705.000
245.670;   87.225;  612.000;  634.000
245.813;  -78.200; -599.000; -547.000
245.956;  -37.800; -324.000; -275.000
246.098;  -67.350; -508.000; -650.000
246.241;    3.775;  194.000;   48.000
246.383;  -13.750; -119.000;  -73.000
246.526;  -78.725; -454.000; -525.000
246.669; -111.650; -889.000; -780.000
246.811;    5.450;  172.000;   -1.000
246.954;  -67.475; -512.000; -426.000
247.096;  -23.050;  -84.000;   -6.000
247.239;  -59.175; -482.000; -445.000
247.381;  -78.350; -647.000; -488.000
247.524;  101.275;  645.000;  679.000
247.666;    5.025;   58.000;   11.000
247.809; -111.100; -887.000; -691.000
247.951;  -16.800;  -75.000;  138.000
248.094;   28.300;  432.000;  308.000
248.236; -185.950;-1262.000;-1238.000
248.378;   10.375; -356.000;  -81.000
248.521;  -27.325; -334.000; -337.000
248.663;  -42.625; -236.000; -267.000
248.806;  -27.375; -300.000; -266.000
248.948;  -95.400; -886.000; -763.000
249.090;  -52.850; -428.000; -398.000
249.233;  -44.500; -344.000; -381.000
249.375;  -69.425; -474.000; -451.000
249.518;  -13.575;  -83.000; -133.000
249.660;  -10.025; -103.000;    3.000
249.802; -174.450;-1303.000;-1189.000
249.945;  -83.550; -612.000; -540.000
250.087; -105.475; -834.000; -768.000
250.229;  -53.600; -362.000; -480.000
250.371;  -75.200; -494.000; -439.000
250.514;  -59.475; -310.000; -244.000
250.656;   -3.900;   69.000;  102.000
250.798; -115.500; -849.000; -800.000
250.940;  -56.275; -322.000; -322.000
251.083;  -41.525; -335.000; -111.000
251.225;   54.850;  338.000;  310.000
251.367;  -41.950; -274.000; -373.000
251.509;  -16.750; -265.000; -210.000
251.651;  -99.425; -731.000; -671.000
251.794;   52.500;  538.000;  632.000
251.936; -109.500; -821.000; -747.000
252.078;  -62.100; -540.000; -461.000
252.220;  -66.375; -645.000; -477.000
252.362;   89.700;  344.000;  462.000
252.504;  -71.675; -677.000; -584.000
252.646; -114.850; -875.000; -722.000
252.788;   -9.875;   14.000; -128.000
252.931;  -39.250; -257.000; -253.000
253.073;  -50.575; -376.000; -317.000
253.215;   -5.425;  141.000;  122.000
253.357;  -25.750;   82.000; -153.000
253.499;  -51.725; -374.000; -234.000
253.641;  -89.150; -749.000; -594.000
253.783;  -88.525; -609.000; -527.000
253.925;  -93.300; -586.000; -591.000
254.067; -109.625; -744.000; -667.000
254.209;  -31.225; -391.000; -259.000
254.351; -139.275; -865.000; -883.000
254.493;  -73.275; -441.000; -417.000
254.635; -131.350; -936.000; -818.000
254.777;  -84.925; -752.000; -687.000
254.918;  -56.975; -512.000; -430.000
255.060;  -58.950; -551.000; -395.000
255.202;  -48.950; -473.000; -261.000
255.344;  -80.275; -658.000; -455.000
255.486;  -70.325; -471.000; -406.000
255.628; -102.375; -780.000; -781.000
255.770; -114.900; -676.000; -536.000
255.912;  -67.425; -559.000; -468.000
256.053;  -95.550; -730.000; -508.000
256.195;  153.275; 1008.000;  903.000
256.337; -100.925; -861.000; -595.000
256.479;   53.500;  532.000;  416.000
256.621;  -36.625; -394.000; -212.000
256.762; -109.475; -789.000; -742.000
256.904;   55.700;  485.000;  487.000
257.046;  -59.475; -381.000; -271.000
257.188;  -27.600; -351.000; -264.000
257.329;  -75.950; -525.000; -464.000
257.471; -112.650; -939.000; -807.000
257.613;  -72.000; -584.000; -498.000
257.755; -138.100;-1073.000; -982.000
257.896;   41.700;  286.000;  392.000
258.038;  -78.975; -403.000; -352.000
258.180;  -40.400; -354.000; -279.000
258.321;  -84.150; -581.000; -457.000
258.463;   -7.800;  -71.000;  133.000
258.605;  -90.500; -562.000; -570.000
258.746; -104.975; -886.000; -772.000
258.888; -155.600;-1026.000;-1020.000
259.029;   23.000;  121.000;   -8.000
259.171;  -87.850; -614.000; -550.000
259.313;   -3.425;  -49.000;  -47.000
259.454;  -66.975; -536.000; -414.000
259.596;  -63.250; -483.000; -390.000
259.737;  -66.125; -590.000; -474.000
259.879;   24.950;  217.000;  311.000
260.020;  103.775;  901.000;  636.000
260.162;  -37.750; -146.000; -253.000
260.303; -122.550; -768.000; -687.000
260.445;  -91.400; -609.000; -613.000
260.586;   26.650;  392.000;  157.000
260.728;  -50.300; -360.000; -248.000
260.869;  -93.625; -350.000; -343.000
261.011;   87.850;  706.000;  537.000
261.152;  -67.750; -479.000; -319.000
261.293;  -98.500; -576.000; -595.000
261.435;  -27.675; -219.000; -184.000
261.576;  -52.025; -455.000; -325.000
261.718;   51.975;  420.000;  470.000
261.859; -128.625; -940.000; -949.000
262.000; -123.925; -951.000;-1016.000
262.142;  -32.200;  -52.000;  -60.000
262.283; -113.300; -808.000; -691.000
262.424;  -92.125; -666.000; -625.000
262.566; -162.250;-1161.000; -983.000
262.707; -120.050; -840.000; -830.000
262.848; -115.825; -769.000; -726.000
262.990;  -47.325; -362.000; -345.000
263.131;   93.550;  650.000;  681.000
263.272;   -5.425;  -61.000;  -41.000
263.413;  -93.525; -589.000; -561.000
263.555;  -67.375; -669.000; -143.000
263.696;  -83.525; -550.000; -641.000
263.837;  -66.000; -449.000; -551.000
263.978;  -19.100;   -5.000;  -77.000
264.119;  -46.700; -283.000; -264.000
264.261; -115.575; -847.000; -630.000
264.402;    9.875;   33.000;   40.000
264.543;  -71.000; -509.000; -524.000
264.684;  -10.325;   61.000;  -50.000
264.825;  -75.000; -816.000; -538.000
264.966;  -10.100;  -84.000;  -67.000
265.107; -127.025; -646.000; -670.000
265.248; -136.525; -825.000; -812.000
265.390;  -12.500;  152.000;   -9.000
265.531;  -31.500; -238.000; -107.000
265.672;  -84.675; -557.000; -630.000
265.813;   74.750;  563.000;  439.000
265.954; -143.225; -959.000; -940.000
266.095;  -15.275; -372.000; -322.000
266.236;  -81.325; -686.000; -548.000
266.377;  -46.500; -243.000; -297.000
266.518;  -79.575; -619.000; -547.000
266.659;   29.275;  170.000;  268.000
266.800;   14.225;   83.000;   85.000
266.941;  -82.475; -487.000; -478.000
267.082;   28.650;  354.000;   99.000
267.223;  -62.925; -344.000; -273.000
267.364; -118.950; -892.000; -686.000
267.504;  -18.675;    3.000;  135.000
267.645;   11.025;  160.000;   67.000
267.786;  -32.300; -147.000;  -86.000
267.927;  -73.150; -473.000; -379.000
268.068;  -17.150; -186.000;  -61.000
268.209;  -41.475; -175.000; -413.000
268.350;  -51.825; -388.000; -532.000
268.490;  -79.675; -648.000; -521.000
268.631;   18.825;  127.000;  225.000
268.772; -108.675; -874.000; -647.000
268.913;  -60.750; -328.000; -476.000
269.054;   -7.950; -117.000;   12.000
269.194;  -49.600; -418.000; -402.000
269.335; -144.200;-1137.000;-1074.000
269.476;  -23.725;   33.000;  -35.000
269.617;  -42.975; -347.000; -392.000
269.757;  -96.300; -713.000; -646.000
269.898; -112.750; -856.000; -613.000
270.039;  -66.300; -415.000; -405.000
270.180; -148.550; -952.000; -816.000
270.320;  -29.700; -190.000; -250.000
270.461;  -43.550; -277.000; -249.000
270.602;  -31.625; -186.000; -156.000
270.742; -122.325; -868.000; -943.000
270.883;  -64.600; -442.000; -390.000
271.023;  -51.450; -358.000; -357.000
271.164;  -85.525; -607.000; -528.000
271.305;  -98.200; -666.000; -654.000
271.445;  -94.075; -722.000; -683.000
271.586;  -67.950; -462.000; -283.000
271.726;  -63.500; -397.000; -322.000
271.867;  -59.925; -594.000; -534.000
272.008;  156.725; -473.000; -285.000
272.148;  127.250;  462.000;  468.000
272.289;   -0.875; -113.000; -181.000
272.429;    5.575;   19.000;  185.000
272.570;  -97.925; -633.000; -737.000
272.710; -105.900; -825.000; -775.000
272.851;  -19.750;  113.000; -130.000
272.991; -164.500;-1173.000;-1077.000
273.131;  -77.975; -419.000; -459.000
273.272;  -98.175; -683.000; -723.000
273.412;   -6.150; -143.000;  -31.000
273.553;  -57.825; -488.000; -507.000
273.693;  131.475;  913.000;  858.000
273.834; -102.250; -894.000; -692.000
273.974;  -83.100; -664.000; -615.000
274.114; -111.600; -772.000; -560.000
274.255;   60.200;  414.000;  373.000
274.395;    9.225; -180.000; -125.000
274.535;   24.025;  199.000;  350.000
274.676;   26.150;  225.000;   94.000
274.816;  -17.550;  110.000;   34.000
274.956;  -83.775; -624.000; -690.000
275.097;  -78.025;-1014.000; -922.000
275.237; -122.525; -913.000; -803.000
275.377; -105.450; -778.000; -689.000
275.517; -151.425; -878.000; -937.000
275.658;  -67.125; -590.000; -555.000
275.798;  -74.600; -606.000; -413.000
275.938;   19.525;  215.000;  323.000
276.078; -103.300; -626.000; -395.000
276.218;    0.575;   99.000;  104.000
276.359; -134.300;-1026.000;-1024.000
276.499;  -77.500; -605.000; -446.000
276.639;  -33.975; -305.000; -151.000
276.779;  -48.700; -475.000; -357.000
276.919;  -97.225; -783.000; -624.000
277.059;  -18.675; -261.000; -212.000
277.199;  -40.050; -357.000; -259.000
277.340;   33.900;  287.000;  175.000
277.480; -113.300; -840.000; -693.000
277.620;   15.125;  192.000;   16.000
277.760; -204.775;-1533.000;-1294.000
277.900;   13.725;  113.000;   33.000
278.040;   23.975;  137.000;  159.000
278.180;   32.825;  270.000;  170.000
278.320;  -10.500;   21.000;   56.000
278.460;  -85.375; -443.000; -469.000
278.600;  -87.225; -708.000; -598.000
278.740;   54.950;  448.000;  224.000
278.880;  -83.825; -768.000; -791.000
279.020;  -20.400; -194.000; -144.000
279.160;  -95.800; -672.000; -595.000
279.300; -137.075; -926.000; -873.000
279.440;  -90.450; -709.000; -622.000
279.579;  -32.000;-1014.000; -929.000
279.719;  -52.325; -410.000; -394.000
279.859;   61.200;   -4.000;   41.000
279.999;   25.600; -208.000;  101.000
280.139;  -39.000; -435.000; -387.000
280.279;  -74.025; -708.000; -745.000
280.419;  -11.425; -229.000; -147.000
280.559;  -26.750; -259.000; -180.000
280.698; -106.225; -790.000; -639.000
280.838; -106.150; -778.000; -800.000
280.978; -113.275; -846.000; -790.000
281.118; -106.325; -811.000; -704.000
281.257;   -2.900;   24.000;    6.000
281.397; -132.400;-1094.000; -960.000
281.537;  -90.550; -599.000; -712.000
281.677;  -27.575; -150.000; -101.000
281.816;  -97.400; -700.000; -630.000
281.956;  -30.075; -193.000; -257.000
282.096;  -74.175; -539.000; -396.000
282.235; -100.625; -672.000; -638.000
282.375;  -27.700; -243.000;  -98.000
282.515; -118.275; -715.000; -707.000
282.654;    4.450;   29.000;  106.000
282.794;   15.625;  388.000;  244.000
282.934;  -56.800; -530.000; -491.000
283.073; -129.325;-1030.000; -857.000
283.213;  -69.275; -460.000; -467.000
283.353;  -57.200; -408.000; -349.000
283.492;  -32.875; -264.000; -296.000
283.632;  -39.775; -254.000; -168.000
283.771; -106.750; -859.000; -730.000
283.911;  -51.050; -369.000; -260.000
284.050; -117.125; -794.000; -748.000
284.190; -160.025;-1229.000;-1096.000
284.329; -152.700;-1055.000; -964.000
284.469;  -81.350; -516.000; -591.000
284.608;  -67.675; -559.000; -598.000
284.748;  -80.850; -614.000; -570.000
284.887;  -18.400;  -87.000;  -20.000
285.027; -116.500; -844.000; -892.000
285.166;  -45.500; -192.000; -249.000
285.306;   -1.150; -116.000;  -33.000
285.445;  -50.275; -229.000; -343.000
285.584; -110.875; -630.000; -494.000
285.724;  -45.275; -282.000; -322.000
285.863; -113.950; -857.000; -507.000
286.002;  -52.475; -366.000; -276.000
286.142; -108.800; -715.000; -622.000
286.281;  -68.950; -525.000; -493.000
286.420;  -74.475; -554.000; -417.000
286.560;   83.650;  653.000;  623.000
286.699; -148.025; -958.000; -912.000
286.838;  -88.000; -590.000; -591.000
286.978;  -88.050; -533.000; -537.000
287.117; -149.000;-1085.000; -950.000
287.256;  -27.650; -228.000; -211.000
287.395;  -67.500; -197.000; -378.000
287.535;  -56.200; -370.000; -298.000
287.674;  -85.550; -509.000; -484.000
287.813;   66.525;  661.000;  533.000
287.952; -143.200;-1010.000; -871.000
288.091; -153.350;-1049.000; -915.000
288.231;    2.150;   13.000;   15.000
288.370; -164.475;-1217.000;-1200.000
288.509; -105.025; -728.000; -645.000
288.648;  -82.750; -770.000; -548.000
288.787;  -35.475; -243.000;  -87.000
288.926;  -68.550; -454.000; -475.000
289.065;  110.200;  859.000;  672.000
289.204;  -54.650; -377.000; -217.000
289.344; -106.900; -791.000; -690.000
289.483;   31.925;  416.000;  304.000
289.622;  -31.800; -291.000; -149.000
289.761;  -31.400; -309.000; -166.000
289.900; -112.875; -785.000; -626.000
290.039;  -12.725;  -12.000;  -95.000
290.178;  -45.025; -274.000; -180.000
290.317;  -73.825; -618.000; -479.000
290.456;  -80.950; -463.000; -451.000
290.595; -146.925; -961.000; -833.000
290.734; -139.400; -904.000; -891.000
290.873;  -64.200; -456.000; -420.000
291.011; -122.100; -833.000; -843.000
291.150; -100.825; -770.000; -682.000
291.289;  -24.925; -343.000; -110.000
291.428;  -83.000; -599.000; -480.000
291.567;  -56.475; -370.000; -442.000
291.706;   -8.025;  109.000;  154.000
291.845; -100.300; -597.000; -505.000
291.984; -165.400;-1234.000;-1061.000
292.122;   66.950;  602.000;  582.000
292.261;   39.200;  620.000;  463.000
292.400;    2.600; -144.000;  211.000
292.539; -126.650; -959.000; -813.000
292.678;  -34.250; -325.000; -300.000
292.816; -152.825;-1136.000; -965.000
292.955; -105.700; -844.000; -684.000
293.094;   -6.400; -173.000; -337.000
293.233;  -55.375; -556.000; -400.000
293.371;  -46.575; -225.000;  -84.000
293.510; -120.375; -866.000; -780.000
293.649; -135.475; -959.000; -924.000
293.787;  -90.825;-1083.000;-1012.000
293.926;  -10.975; -113.000;  -32.000
294.065;  -51.675; -379.000; -290.000
294.203;   60.450;  298.000;  406.000
294.342;    7.025;   74.000;  156.000
294.481; 5150.325;51180.000; -836.000
294.619;  -34.700; -425.000; -582.000
294.758; -148.025;-1230.000;-1137.000
294.896;   51.200; -125.000;    5.000
295.035; -139.150;-1040.000;-1006.000
295.174; -128.275;-1082.000; -954.000
295.312;  -52.975; -323.000; -203.000
295.451;  -25.350; -307.000; -428.000
295.589;  -52.275; -389.000; -518.000
295.728;   22.300; -292.000; -165.000
295.866;   -1.950;  -36.000;  -51.000
296.005;  -77.500; -584.000; -341.000
296.143;  -80.825; -558.000; -596.000
296.282;  -97.700; -957.000; -881.000
296.420;  -83.400; -657.000; -557.000
296.559;  -98.025; -892.000; -633.000
296.697;  -11.725; -847.000; -665.000
296.835;   15.550;-1141.000;-1002.000
296.974;   54.175;  -23.000;   39.000
297.112;   -9.200; -443.000; -504.000
297.251;  -85.900; -815.000; -755.000
297.389;   59.700; -576.000; -438.000
297.527;   24.675; -145.000;  -83.000
297.666;  -54.850; -486.000; -438.000
297.804;  -54.125; -404.000; -264.000
297.942;   -2.425; -136.000; -161.000
298.081;  -10.675; -183.000;   63.000
298.219;   52.050;  -17.000;  -19.000
298.357;   29.400; -144.000;  -71.000
298.495;   -4.250; -810.000; -812.000
298.634;   50.175;  245.000;  219.000
298.772;   12.475; -220.000; -338.000
298.910;  -48.675; -309.000; -182.000
299.048;  -12.575; -130.000; -153.000
299.187;  -41.450; -350.000; -250.000
299.325;   18.950;   52.000;  122.000
299.463;   33.975; -389.000; -299.000
299.601;   72.300; -327.000; -271.000
299.739; -109.150; -908.000; -883.000
299.877;  -92.950; -791.000; -703.000
300.016;  -63.375;-1095.000; -935.000
300.154;  121.725;  -19.000; -161.000
300.292;   28.525; -428.000; -348.000
300.430;    7.875; -408.000; -291.000
300.568; -115.450; -940.000; -874.000
300.706;  -63.800; -366.000; -469.000
300.844; -104.100;-1108.000; -979.000
300.982;   97.650;  246.000;  282.000
301.120; -108.100; -965.000; -866.000
301.258;  -85.425; -812.000; -705.000
301.396;   25.900;  104.000;  -41.000
301.534;   48.825; -218.000; -293.000
301.672;  -37.200; -664.000; -521.000
301.810;   -7.675; -613.000; -545.000
301.948;   91.250;   53.000;  149.000
302.086;  512.100; -250.000;  -32.000
302.224;  804.400; -610.000; -585.000
302.362;   -4.325; -558.000; -622.000
302.500;  -36.025; -923.000; -893.000
302.638;   81.950;  128.000;  245.000
302.776;  -10.975; -352.000; -408.000
302.913;   46.175;  447.000;  236.000
303.051;   -7.700;  -86.000;  -23.000
303.189;   40.325;   90.000;  118.000
303.327;  -29.750; -341.000; -256.000
303.465;  -99.750; -832.000; -588.000
303.603; -102.200; -805.000; -604.000
303.740;   79.775;  417.000;  241.000
303.878;    5.300; -800.000; -759.000
304.016; -102.700; -915.000; -790.000
304.154; -128.775;-1123.000;-1152.000
304.291;  -52.375; -505.000; -554.000
304.429;   11.225;  102.000;   74.000
304.567; -136.625; -908.000; -893.000
304.705;  -58.550; -408.000; -515.000
304.842;   56.825; -616.000; -540.000
304.980;   42.150;  215.000;   35.000
305.118;    5.600; -367.000; -365.000
305.255;  -88.650; -945.000; -927.000
305.393;   43.725;  178.000;  239.000
305.531; -118.750;-1173.000; -956.000
305.668;  -75.050; -663.000; -582.000
305.806;   68.075; -358.000; -439.000
305.943;   62.000; -629.000; -637.000
306.081;   48.675; -378.000; -267.000
306.219; -107.850; -863.000; -748.000
306.356;   13.550;  158.000;   27.000
306.494;   95.500;  981.000;  761.000
306.631;   -6.050;  -11.000;  -55.000
306.769;  -22.375; -613.000; -485.000
306.906;  -21.225; -284.000; -258.000
307.044;  -83.950; -473.000; -488.000
307.181;  -62.375; -410.000; -332.000
307.319;    7.375;  112.000;   87.000
307.456; -180.100;-1191.000;-1153.000
307.594; -114.650; -980.000; -727.000
307.731;  -30.400; -371.000; -164.000
307.868;  -14.900;  -15.000;   20.000
308.006; -142.250; -961.000; -847.000
308.143;  -86.450; -618.000; -330.000
308.281;   91.200;  -37.000; -254.000
308.418;  -38.625; -748.000; -640.000
308.555;  -84.475; -400.000; -250.000
308.693;  -71.250; -577.000; -573.000
308.830; -122.325; -712.000; -657.000
308.967;  -19.250; -215.000;  -95.000
309.105;  -55.500; -507.000; -396.000
309.242;    6.025; -468.000; -367.000
309.379;  166.725; -577.000; -655.000
309.517; -101.725; -936.000; -948.000
309.654; -102.175; -910.000; -734.000
309.791;  -89.175; -662.000; -580.000
309.928; -116.300; -977.000; -914.000
310.065;  155.150;  819.000;  697.000
310.203;  -37.375; -825.000; -850.000
310.340;  -27.600; -465.000; -321.000
310.477;  -80.075; -412.000; -516.000
310.614;  -83.925; -383.000; -473.000
310.751;  -80.450; -427.000; -518.000
310.889;  -19.950;    1.000;   11.000
311.026; -161.325;-1161.000; -939.000
311.163;  -50.850; -386.000; -380.000
311.300;  -83.725; -512.000; -479.000
311.437; -100.725; -658.000; -619.000
311.574; -168.100;-1226.000; -985.000
311.711;  -87.200; -595.000; -433.000
311.848;  -38.275; -380.000; -388.000
311.985;   -7.925;  270.000;   93.000
312.122; -122.175; -932.000; -762.000
312.259; -132.400; -941.000; -994.000
312.396;  -98.400; -508.000; -551.000
312.533; -103.475; -812.000; -790.000
312.670; -141.825;-1070.000; -898.000
312.807;  -61.350; -352.000; -367.000
312.944;  -80.750; -513.000; -611.000
313.081;  -56.575; -150.000; -415.000
313.218; -120.525;-1111.000; -867.000
313.355;   -9.950; -531.000; -449.000
313.492;  -13.400; -455.000; -292.000
313.629;  111.450;  815.000;  735.000
313.766; -170.425;-1176.000;-1008.000
313.902;  -23.025; -186.000;   21.000
314.039;  -66.575; -372.000; -289.000
314.176;   15.100;  286.000;  192.000
314.313;  -85.400; -569.000; -473.000
314.450;  -99.600; -788.000; -684.000
314.587;  -78.775; -468.000; -480.000
314.723;   18.125;  -78.000;  130.000
314.860;   21.525;  318.000;  332.000
314.997;   15.675;  223.000;  142.000
315.134;  -58.000; -385.000; -368.000
315.270;  -48.425; -480.000; -496.000
315.407; -144.800;-1094.000; -967.000
315.544;  -64.750; -657.000; -538.000
315.681;  -61.600; -681.000; -565.000
315.817;    8.550; -133.000; -176.000
315.954;   -6.750; -613.000; -392.000
316.091; -139.350;-1045.000;-1023.000
316.227;  -31.600;  -71.000; -179.000
316.364;   -7.600;   23.000;    6.000
316.500;  -51.850; -113.000; -300.000
316.637;  -54.275; -181.000; -302.000
316.774;  -98.900; -625.000; -358.000
316.910;  -93.075; -598.000; -629.000
317.047;  -70.900; -487.000; -351.000
317.183;  -64.475; -435.000; -566.000
317.320;  -18.600; -367.000; -321.000
317.456;  -67.825; -733.000; -805.000
317.593;  -98.950; -598.000; -641.000
317.729;   -2.025;  168.000;  -67.000
317.866; -200.600;-1434.000;-1285.000
318.002; -108.150; -708.000; -948.000
318.139; -118.100; -883.000; -867.000
318.275; -115.350;-1003.000; -738.000
318.412;  -59.900; -517.000; -336.000
318.548;  -48.000; -751.000; -720.000
318.685; -105.200; -985.000; -888.000
318.821; -110.750; -762.000; -735.000
318.957;  -23.175;   34.000;  -23.000
319.094;   32.000;  297.000;  154.000
319.230;  -73.325; -756.000; -742.000
319.367;   90.350; -471.000; -520.000
319.503;   32.425; -538.000; -436.000
319.639; -108.675; -877.000; -793.000
319.775;  -72.325; -750.000; -685.000
319.912;  -66.225; -424.000; -519.000
320.048;  -91.900;-1184.000;-1184.000
320.184;   77.925;   59.000;   70.000
320.321;  -62.550; -497.000; -467.000
320.457;   57.325;  475.000;  662.000
320.593;  -73.650; -375.000; -382.000
320.729; -112.675; -732.000; -734.000
320.866;  -64.750; -577.000; -635.000
321.002;  -94.150; -759.000; -809.000
321.138;  -14.350; -135.000; -211.000
321.274;   56.050; -148.000; -115.000
321.410;  -42.875; -585.000; -353.000
321.546;  -58.350;-1011.000; -911.000
321.683;   46.325;  400.000;  185.000
321.819;  -13.450;  -48.000; -117.000
321.955; -121.900; -743.000; -722.000
322.091;  -48.700; -585.000; -540.000
322.227;  -20.550; -382.000; -202.000
322.363;  -24.875; -320.000; -215.000
322.499;  -31.800; -343.000; -331.000
322.635;  138.100;  636.000;  443.000
322.771;   19.400; -139.000;   12.000
322.907;   77.250;  129.000;  327.000
323.043;  -29.500; -115.000; -206.000
323.179;  -45.700; -394.000; -363.000
323.315;    0.900; -401.000; -371.000
323.451;   52.675; -328.000; -236.000
323.587;   46.150;  -60.000;  -77.000
323.723;  -16.875; -682.000; -601.000
323.859;  -19.500; -258.000;  -76.000
323.995;  -49.700; -467.000; -409.000
324.131; -131.150; -967.000; -892.000
324.267;  -45.150; -254.000; -276.000
324.402; -135.400; -960.000; -983.000
324.538;  -19.100; -279.000; -104.000
324.674;   18.500;  164.000;   77.000
324.810;   90.975;  226.000;  308.000
324.946;  -18.475; -810.000; -658.000
325.082;  -89.175; -568.000; -475.000
325.217;  -10.475;  -62.000;   16.000
325.353; -110.175; -764.000; -659.000
325.489;  -79.775; -540.000; -506.000
325.625;  -80.450; -579.000; -525.000
325.760;   56.900;  517.000;  376.000
325.896;  -29.300; -515.000; -702.000
326.032;  -55.125; -403.000; -352.000
326.168;  -69.150; -462.000; -369.000
326.303;  -60.525; -352.000; -461.000
326.439;  -30.925; -336.000; -276.000
326.575;  -19.775; -190.000;  -29.000
326.710;  -14.625; -156.000;  -30.000
326.846;  -13.550;  146.000;  103.000
326.982;  -94.250; -530.000; -548.000
327.117;  -84.750; -481.000; -442.000
327.253; -100.400; -745.000; -742.000
327.388; -178.925;-1137.000;-1153.000
327.524;  -80.050; -811.000; -578.000
327.659;  -29.425;  -58.000;  -22.000
327.795;  -23.575;   69.000;   45.000
327.931;  -75.900; -723.000; -499.000
328.066;  -37.725; -417.000; -276.000
328.202;  -27.925;   12.000; -129.000
328.337;   93.450;  957.000;  713.000
328.473;   34.275;  -12.000;  -74.000
328.608;  -32.725; -256.000; -267.000
328.743;  -96.700; -799.000; -664.000
328.879;   -1.575;  214.000;  114.000
329.014;  -24.350; -102.000; -122.000
329.150;  -93.050; -358.000; -483.000
329.285;  -78.900; -465.000; -466.000
329.421;  -65.200; -548.000; -246.000
329.556;  -29.550;  -36.000;   85.000
329.691; -100.750; -633.000; -615.000
329.827;  -95.400; -626.000; -480.000
329.962;  -57.925;  131.000; -301.000
330.097;  -98.150; -673.000; -585.000
330.233;  -49.000; -410.000; -223.000
330.368; -113.500; -839.000; -628.000
330.503;  -24.350;    3.000;   98.000
330.638;   -9.500;  -93.000; -125.000
330.774;  -69.350; -609.000; -530.000
330.909;  -40.975; -434.000; -244.000
331.044; -106.450; -714.000; -708.000
331.179; -181.825;-1217.000;-1109.000
331.315;   10.050;   77.000;   20.000
331.450;   14.725;  157.000;  285.000
331.585; -101.050; -805.000; -706.000
331.720; -101.125; -510.000; -460.000
331.855;  -14.350;  -35.000; -102.000
331.990;  259.650;   62.000;  138.000
332.126;  130.450; -110.000;   71.000
332.261;  -12.700; -379.000; -265.000
332.396;   -9.500; -135.000; -242.000
332.531;  -99.175;-1074.000;-1031.000
332.666;   25.100; -519.000; -363.000
332.801; -111.875; -726.000; -807.000
332.936;  -33.375; -192.000; -122.000
333.071; -145.175; -870.000; -817.000
333.206;    8.650;  307.000;  379.000
333.341;   42.950;  344.000;  418.000
333.476;  -96.600; -627.000; -623.000
333.611;  -39.175; -251.000; -173.000
333.746;  -53.150; -381.000; -464.000
333.881; -131.900; -973.000; -935.000
334.016; -136.650; -936.000; -917.000
334.151; -140.350; -746.000; -702.000
334.286;    8.375;  152.000;  186.000
334.421;  -26.200; -125.000; -178.000
334.556;  -98.775; -611.000; -567.000
334.690; -108.600; -631.000; -577.000
334.825;   38.775;  381.000;   83.000
334.960;  -75.025; -285.000; -413.000
335.095;  -15.125;  135.000;  -91.000
335.230; -108.925; -722.000; -738.000
335.365; -153.850;-1084.000; -990.000
335.499; -147.150;-1108.000;-1037.000
335.634;   19.100;    9.000;  534.000
335.769;  -97.550; -755.000; -720.000
335.904;  -81.150; -603.000; -561.000
336.038;  -77.550; -735.000; -657.000
336.173; -145.625;-1206.000;-1194.000
336.308;   -7.250; -116.000; -189.000
336.443;   11.025; -544.000; -634.000
336.577;  -82.200; -936.000; -787.000
336.712;   42.750;   -4.000;  -12.000
336.847;  -73.125; -724.000; -607.000
336.981;   41.825; -272.000; -208.000
337.116;  249.225;  615.000;  501.000
337.250;  100.925; -434.000; -421.000
337.385;  269.625; -297.000; -208.000
337.520;   93.425; -632.000; -603.000
337.654;  -47.300; -215.000; -126.000
337.789; -138.925; -989.000; -933.000
337.923;  -37.875; -104.000; -205.000
338.058;  -96.825; -673.000; -738.000
338.192;  -52.825; -611.000; -488.000
338.327;  -25.325;  -18.000; -155.000
338.461;  -68.700; -299.000; -469.000
338.596;  -97.475; -780.000; -638.000
338.730; -104.925; -767.000; -803.000
338.865;   92.800;  -46.000; -140.000
338.999;  -50.075; -846.000; -702.000
339.134;  -33.925; -634.000; -536.000
339.268;   -3.925; -741.000; -603.000
339.403;  373.425; -740.000; -775.000
339.537;  123.650; -894.000; -820.000
339.671; -132.400; -829.000; -813.000
339.806;  -63.075; -556.000; -512.000
339.940;   22.075; -261.000; -235.000
340.074;  -93.000; -685.000; -510.000
340.209;  -56.500; -351.000; -230.000
340.343;  -92.525; -517.000; -573.000
340.477;  139.900;  998.000; 1036.000
340.612;  -55.700;-1033.000; -900.000
340.746;  145.450; -199.000; -243.000
340.880;  -81.975; -924.000; -785.000
341.014;  -27.775;  -45.000; -154.000
341.149; -122.475; -756.000; -718.000
341.283; -117.650; -839.000; -754.000
341.417; -106.300;-1124.000; -938.000
341.551;   80.300; -768.000; -708.000
341.685;  -44.675; -633.000; -611.000
341.820;  -67.100; -562.000; -493.000
341.954;  -50.725; -218.000; -349.000
342.088; -173.750;-1102.000;-1019.000
342.222;   48.900;  565.000;  618.000
342.356;  -62.200; -395.000; -335.000
342.490; -118.650; -880.000; -841.000
342.624;  -68.075; -339.000; -242.000
342.758;  -20.975; -364.000; -312.000
342.892;  -70.375; -710.000; -585.000
343.026;  -43.625;  -58.000; -116.000
343.160;  -56.275; -426.000; -376.000
343.294;  -89.625; -474.000; -337.000
343.428;  -45.200; -488.000; -448.000
343.562;  -20.475; -172.000;  -23.000
343.696;  -39.175; -385.000; -314.000
343.830;  -26.600; -362.000; -356.000
343.964;    0.475; -231.000; -168.000
344.098;  755.350;  199.000;   70.000
344.232;  615.575; -266.000; -127.000
344.366;   50.050; -567.000; -453.000
344.500;   12.275; -665.000; -744.000
344.634;    7.100; -324.000; -164.000
344.768;  -22.700; -531.000; -341.000
344.902;   30.450;  278.000;  256.000
345.035;  -79.625; -556.000; -496.000
345.169; -135.725; -933.000; -656.000
345.303;  -42.225; -308.000; -482.000
345.437;  -96.025; -826.000; -717.000
345.571;  -77.075; -675.000; -594.000
345.704;  -72.200; -309.000; -532.000
345.838;  -32.225; -331.000; -284.000
345.972;  -53.125; -543.000; -495.000
346.106;  158.550; -179.000; -190.000
346.239;  403.075; -312.000; -243.000
346.373;   -6.225; -343.000; -302.000
346.507; -138.925; -950.000; -962.000
346.640;  114.350;  -30.000;   13.000
346.774;  -60.925; -650.000; -797.000
346.908;  -25.050; -138.000;  -11.000
347.041;  -96.900; -646.000; -593.000
347.175;  -13.575;  259.000;   27.000
347.309;  -83.250; -698.000; -628.000
347.442; -131.875; -883.000; -732.000
347.576;  228.100;  670.000;  668.000
347.709;  153.600; -123.000;  -52.000
347.843; -106.700; -933.000; -825.000
347.976;   23.225;  235.000;  294.000
348.110; -177.450;-1268.000;-1186.000
348.243; -123.175; -679.000; -772.000
348.377;    7.125;  -26.000;   60.000
348.510;   41.200;  403.000;  540.000
348.644;  -43.000;  -37.000; -159.000
348.777;   -9.300;  180.000;  191.000
348.911;  -60.825; -142.000; -112.000
349.044;  154.650;  471.000;  448.000
349.178;  101.275;-1069.000;-1006.000
349.311;  108.650;  141.000;  255.000
349.444;  -24.250; -927.000; -813.000
349.578;  -35.275; -347.000; -200.000
349.711; -112.325; -959.000; -862.000
349.845;  -36.425; -661.000; -591.000
349.978; -156.175;-1224.000;-1137.000
350.111;  -98.650; -546.000; -612.000
350.244;  -87.325; -596.000; -700.000
350.378;  -20.275; -392.000; -393.000
350.511;  -76.150; -393.000; -426.000
350.644; -113.950; -808.000; -806.000
350.778;    7.400;  168.000;  104.000
350.911;    0.425;  134.000;  140.000
351.044;  -97.825; -685.000; -615.000
351.177;  -42.025; -321.000; -281.000
351.310;  -31.425;    3.000; -131.000
351.444; -102.050; -888.000; -788.000
351.577;  107.300;  140.000;   90.000
351.710;   87.675;  593.000;  417.000
351.843;  -27.150; -165.000;  -77.000
351.976;    0.550;  149.000;  -79.000
352.109;  -96.750; -621.000; -612.000
352.242;  -45.075; -464.000; -419.000
352.376;  -73.475; -580.000; -636.000
352.509;  115.950; -437.000; -356.000
352.642;  -29.100; -654.000; -604.000
352.775;   34.325; -141.000;  -98.000
352.908; -130.725; -933.000; -904.000
353.041; -120.975; -814.000; -824.000
353.174;  -66.675; -551.000; -424.000
353.307;  -95.800; -753.000; -764.000
353.440;   68.575;  541.000;  453.000
353.573; -128.925; -957.000;-1008.000
353.706;  -66.900; -384.000; -558.000
353.839;  -23.025; -264.000; -220.000
353.971;  -87.450; -657.000; -512.000
354.104; -102.525; -896.000; -835.000
354.237;  -60.525; -627.000; -662.000
354.370;  -97.075; -846.000; -879.000
354.503; -186.150;-1231.000;-1308.000
354.636;  -55.200; -529.000; -348.000
354.769; -127.575; -937.000; -860.000
354.902;  -33.550; -230.000; -139.000
355.034;  -18.000; -164.000; -220.000
355.167;  -38.275; -262.000; -162.000
355.300;  -93.600;-1061.000; -880.000
355.433;  970.800;  -71.000;  -14.000
355.565; 1564.400; -402.000; -384.000
355.698;  403.700; -356.000; -296.000
355.831;  -12.750; -882.000; -801.000
355.964;   33.475; -285.000; -170.000
356.096; -107.025; -856.000; -843.000
356.229;  -27.425; -523.000; -530.000
356.362;  316.075; -373.000; -266.000
356.494;  595.450; -229.000; -162.000
356.627;  407.675;  269.000;  377.000
356.760;  639.850;  120.000;   53.000
356.892;  981.850; -286.000; -601.000
357.025;  533.525;  403.000;  389.000
357.157;  479.375; -167.000; -179.000
357.290;  722.425; -856.000; -713.000
357.423;  196.000; -667.000; -556.000
357.555;   87.625; -217.000; -228.000
357.688;   98.425; -483.000; -364.000
357.820;  352.150; -870.000; -877.000
357.953; 3257.675; -563.000; -589.000
358.085;  634.350; -632.000; -612.000
358.218;  797.625;-1131.000; -932.000
358.350;  150.850;  -58.000;  312.000
358.483; -156.300;-1300.000;-1187.000
358.615;  -61.600;-1182.000;-1078.000
358.747;  -92.725;-1187.000;-1058.000
358.880;  -15.925; -810.000; -744.000
359.012;  -14.950; -376.000; -202.000
359.145;  -56.675; -480.000; -511.000
359.277;   35.975; -962.000; -913.000
359.409; 2633.425;  536.000;  231.000
359.542;  662.875; -738.000; -688.000
359.674;   49.025;   46.000;   13.000
359.806;  -69.975; -565.000; -438.000
359.939;  -67.100; -617.000; -516.000
360.071;  -10.900; -583.000; -579.000
360.203;  -36.925; -411.000; -364.000
360.335;   46.950;  164.000;  -16.000
360.468;  156.150; -249.000; -307.000
360.600; 2177.675; -547.000; -454.000
360.732; 2948.750; -546.000; -423.000
360.864;  397.325;-1216.000;-1044.000
360.996;  188.075; -516.000; -554.000
361.129;    9.300; -389.000; -598.000
361.261;    3.975;  110.000; -113.000
361.393;  -29.125; -252.000; -214.000
361.525;   12.025;   94.000;  244.000
361.657;  -74.700; -821.000; -703.000
361.789;  -11.275; -139.000; -155.000
361.921;  146.975; -642.000; -593.000
362.053;  198.700;  524.000;  541.000
362.185;   28.725;  288.000;   72.000
362.318;  -92.425; -709.000; -705.000
362.450;   89.525;  294.000;  444.000
362.582;   24.500; -913.000; -870.000
362.714;  -69.175; -353.000; -332.000
362.846;  -96.375; -606.000; -490.000
362.978; -135.450; -941.000; -811.000
363.109;    8.950; -161.000; -260.000
363.241;  319.325; -739.000; -749.000
363.373;  420.350; -649.000; -564.000
363.505;  692.775; -186.000;  -91.000
363.637;  130.800; -787.000; -601.000
363.769; -142.800;-1067.000;-1080.000
363.901;  -96.550; -596.000; -654.000
364.033; -108.325;-1103.000;-1062.000
364.165;  -19.450; -283.000; -283.000
364.296;   76.175; -316.000; -177.000
364.428;   51.825;-1344.000;-1220.000
364.560;  -70.900; -679.000; -661.000
364.692;  -83.050; -738.000; -835.000
364.824;  174.325; -588.000; -456.000
364.955;  406.750; -402.000; -564.000
365.087;  988.775;-1097.000; -852.000
365.219;   20.200; -686.000; -816.000
365.351;  -80.050; -526.000; -572.000
365.482;   39.575;  300.000;  240.000
365.614;  -56.575; -402.000; -314.000
365.746; -114.450; -729.000; -752.000
365.877;  -89.025; -706.000; -672.000
366.009;  272.125;  -35.000;  -62.000
366.141;  -97.675;-1249.000;-1134.000
366.272; -121.900; -803.000; -719.000
366.404; -123.650;-1005.000; -874.000
366.535;  -27.925; -139.000;  -12.000
366.667; -121.075; -644.000; -649.000
366.799;   16.375;  353.000;  203.000
366.930; -133.050; -862.000; -996.000
367.062;  106.900; -639.000; -613.000
367.193;  162.200; -872.000; -842.000
367.325;  -64.800; -580.000; -684.000
367.456;   29.225; -246.000;   31.000
367.588;  164.975; -371.000; -318.000
367.719;    5.675;  -44.000;  -45.000
367.851;  -30.150; -222.000; -241.000
367.982;  -71.900; -875.000; -732.000
368.113;   61.575; -475.000; -358.000
368.245; -135.775; -960.000; -841.000
368.376;  -40.200; -254.000; -302.000
368.508;  -34.200; -188.000; -263.000
368.639; -153.150;-1166.000;-1034.000
368.770;  -42.925; -670.000; -589.000
368.902;  -77.000; -836.000; -926.000
369.033; -115.450; -906.000; -855.000
369.164;  -60.725; -720.000; -653.000
369.296; -114.550; -452.000; -601.000
369.427;  -18.300; -209.000; -144.000
369.558;  -64.200; -593.000; -377.000
369.689; -102.425; -721.000; -569.000
369.821; -139.100; -951.000; -845.000
369.952;  -27.225;   42.000; -108.000
370.083;  -51.800; -229.000; -108.000
370.214;  -97.600; -735.000; -650.000
370.345;  -10.650;   65.000;   81.000
370.477; -113.525; -810.000; -790.000
370.608;  174.900; -328.000; -264.000
370.739;  -91.025;-1233.000;-1292.000
370.870;  -62.050;-1102.000; -923.000
371.001;   50.400; -378.000; -467.000
371.132;  -81.200; -754.000; -735.000
371.263;  -23.800;  -42.000; -148.000
371.394; -136.650; -841.000; -748.000
371.525;   28.925;  345.000;  225.000
371.657;  -83.600; -808.000; -670.000
371.788;   40.650;  103.000;  199.000
371.919;  133.475; -384.000; -304.000
372.050; 3061.700;  -91.000; -156.000
372.181;  873.575; -188.000; -294.000
372.311;  280.500;   42.000; -127.000
372.442;    8.150; -457.000; -451.000
372.573;  -45.525; -444.000; -340.000
372.704; -133.075;-1008.000; -980.000
372.835;   37.075; -228.000; -289.000
372.966;  -77.600; -646.000; -554.000
373.097;  -86.200; -575.000; -711.000
373.228;  -60.250; -717.000; -542.000
373.359;   73.125; -824.000; -536.000
373.490;  705.225; -881.000; -727.000
373.620;  892.675;-1001.000; -803.000
373.751; 1417.100; -332.000; -396.000
373.882;  604.750; -663.000; -733.000
374.013;   21.250; -449.000; -262.000
374.143;  -67.350; -581.000; -659.000
374.274; -112.825; -987.000; -908.000
374.405;  136.925; -388.000; -276.000
374.536;  346.425; -526.000; -387.000
374.666;  864.800; -759.000; -807.000
374.797;  142.825; -817.000; -868.000
374.928;  653.750; -710.000; -560.000
375.058;  708.800; -535.000; -500.000
375.189;   42.675;  -59.000;  -93.000
375.320; -121.525; -928.000;-1034.000
375.450;  -55.300; -625.000; -616.000
375.581;  -54.750; -526.000; -436.000
375.712;  -60.175; -574.000; -250.000
375.842;  220.250; -438.000; -415.000
375.973;  137.675; -554.000; -513.000
376.103;  -66.050; -665.000; -648.000
376.234;  -93.175; -531.000; -552.000
376.364;  -64.750; -944.000; -867.000
376.495;  271.175;  925.000;  529.000
376.625;  -25.400; -472.000; -485.000
376.756;   16.275; -709.000; -678.000
376.886; -105.050;-1178.000;-1026.000
377.017;   53.750;-1048.000;-1061.000
377.147;  383.250; -786.000; -782.000
377.278;   55.425;  174.000;  228.000
377.408; -125.700; -801.000; -815.000
377.538; -109.575; -707.000; -693.000
377.669;  -94.225; -537.000; -613.000
377.799; -102.625; -645.000; -635.000
377.929;  -71.625; -610.000; -428.000
378.060; -139.500; -781.000; -847.000
378.190;  -66.800; -726.000; -531.000
378.320;  -61.850; -401.000; -406.000
378.451;  -13.000; -131.000;  -22.000
378.581;  -28.800;  -67.000; -110.000
378.711;  137.725; 1035.000;  866.000
378.841;  -36.125; -533.000; -675.000
378.972;  -89.350; -871.000; -751.000
379.102;  -44.125; -652.000; -579.000
379.232;  -38.050; -126.000;  -73.000
379.362; -124.725;-1001.000; -885.000
379.492;  -22.850; -373.000; -424.000
379.623;   73.875;    0.000;  111.000
379.753; -117.700;-1107.000; -974.000
379.883;  147.900;   59.000;  156.000
380.013;  -36.700;-1081.000;-1017.000
380.143; -137.025;-1097.000;-1056.000
380.273; -114.675; -985.000; -861.000
380.403;  -28.175; -344.000; -257.000
380.533;  -47.375; -651.000; -664.000
380.663;   41.025;  173.000;  128.000
380.793; -120.625;-1027.000;-1074.000
380.923;  -42.125; -103.000;  -34.000
381.053; -101.700; -613.000; -623.000
381.183;  -36.825; -106.000; -248.000
381.313;    5.275; -656.000; -470.000
381.443;   -3.250; -692.000; -473.000
381.573;  122.250; -402.000; -409.000
381.703;  147.325;-1249.000;-1095.000
381.833; -153.725;-1454.000;-1336.000
381.963;   74.050; -134.000;  -87.000
382.093; 1176.600; -925.000; -909.000
382.223;  332.575; -713.000; -602.000
382.353;  -40.650; -801.000; -608.000
382.482;  252.125;-1091.000; -964.000
382.612;  618.700; -872.000; -644.000
382.742;  308.050; -695.000; -622.000
382.872;  165.400; -565.000; -551.000
383.002;   41.925;  347.000; -132.000
383.131;  -39.150; -226.000; -160.000
383.261;  -56.075; -706.000; -768.000
383.391;  275.375; -552.000; -377.000
383.521; 3363.850;  451.000;  263.000
383.650;  793.625; -947.000; -904.000
383.780;  -37.800; -783.000; -656.000
383.910;  104.700;  880.000;  802.000
384.039;  -22.000; -794.000; -656.000
384.169;  112.825;-1205.000;-1017.000
384.299;  -56.200; -650.000; -662.000
384.428;  -95.600; -764.000; -680.000
384.558;  -67.250; -308.000; -275.000
384.687;  -53.900; -414.000; -334.000
384.817;  -23.500;   75.000;   -2.000
384.947;    1.750; -234.000; -141.000
385.076;  228.900;  982.000;  912.000
385.206;   83.725;  369.000;  480.000
385.335;  -65.225; -549.000; -417.000
385.465;  -89.000; -655.000; -663.000
385.594;  106.800;  -53.000;  -44.000
385.724;  299.450; -868.000; -838.000
385.853;   78.125; -296.000; -270.000
385.982; 1101.175; -743.000; -787.000
386.112; 1733.225;-1052.000; -871.000
386.241;   98.775; -307.000; -312.000
386.371;   -6.400; -174.000;  -87.000
386.500;  -40.475; -825.000; -789.000
386.629;    5.475; -874.000; -817.000
386.759;   55.725;  -43.000;   68.000
386.888;  -31.775; -170.000; -250.000
387.017;  -97.350; -648.000; -620.000
387.147; -115.300; -771.000; -798.000
387.276;  -30.475; -410.000; -397.000
387.405;  -24.375; -398.000; -342.000
387.535;  -57.725; -452.000; -361.000
387.664;  -73.350; -692.000; -620.000
387.793;   41.225; -198.000; -113.000
387.922;  397.300;  255.000;  200.000
388.052;  -10.700; -576.000; -423.000
388.181;  -31.875; -342.000; -472.000
388.310;  -56.675; -889.000; -710.000
388.439;  -81.675; -749.000; -742.000
388.568;  140.250;  365.000;  244.000
388.697;  801.725; -756.000; -653.000
388.826;  130.850; -768.000; -666.000
388.956;    7.325; -285.000; -307.000
389.085;  -54.075; -347.000; -287.000
389.214; -128.175; -842.000; -872.000
389.343;  -74.575; -645.000; -413.000
389.472;  411.400;  126.000;  149.000
389.601;  487.500;   91.000;    0.000
389.730;  -19.950; -568.000; -687.000
389.859;   56.100;  226.000;   46.000
389.988;  126.075; -423.000; -408.000
390.117;  102.075; -168.000; -146.000
390.246;  -38.875; -331.000; -320.000
390.375;   44.000; -673.000; -626.000
390.504;  -78.175; -703.000; -621.000
390.633; -102.175; -672.000; -726.000
390.761;  -79.875; -732.000; -645.000
390.890;   -3.275;   -4.000; -130.000
391.019;  -49.000; -421.000; -441.000
391.148; -131.750; -826.000; -855.000
391.277;  -95.525; -576.000; -493.000
391.406;  -98.850; -821.000; -805.000
391.534;   12.700;  574.000; -301.000
391.663;  -89.650; -583.000; -645.000
391.792;  -96.475; -673.000; -701.000
391.921;   62.875;   -3.000;   15.000
392.050;  108.225; -287.000; -228.000
392.178;  -83.575;-1206.000;-1061.000
392.307;   74.275; -758.000; -712.000
392.436;   32.650; -427.000; -641.000
392.564;   11.025;  166.000;   -6.000
392.693;  -92.325; -860.000; -682.000
392.822;  124.125; -529.000; -534.000
392.950;   39.300; -880.000; -714.000
393.079;  245.125; -188.000; -328.000
393.208;   -6.850; -488.000; -511.000
393.336;  -32.850; -170.000; -145.000
393.465;  -58.575; -317.000; -199.000
393.593;    2.875;   62.000;   79.000
393.722; -161.725;-1121.000; -916.000
393.850;  -40.425; -188.000;  -61.000
393.979; -153.750; -926.000; -805.000
394.107;  -70.150; -517.000; -537.000
394.236;  -41.725; -570.000; -507.000
394.364;  154.900;  383.000;  206.000
394.493;  185.250; -911.000; -767.000
394.621;  -48.725; -955.000; -916.000
394.750;  738.000; -873.000; -923.000
394.878; 3060.675; -247.000; -149.000
395.007; 4106.775; -721.000; -807.000
395.135;  291.950; -790.000; -721.000
395.263;  -90.200;-1038.000;-1040.000
395.392;   -8.250;  -25.000; -107.000
395.520; -148.325; -818.000; -679.000
395.648; -108.675; -865.000; -915.000
395.777;  -41.500; -366.000; -405.000
395.905;  -71.100; -449.000; -564.000
396.033;    0.850;  217.000;  172.000
396.162;  340.450; -399.000; -453.000
396.290;  312.275;  -17.000;   -2.000
396.418;   35.625; -555.000; -514.000
396.546;  -89.900; -571.000; -466.000
396.674; -114.600; -850.000; -878.000
396.803;  -19.100;  -72.000;  -23.000
396.931;   48.475; -179.000; -199.000
397.059;  -24.525;-1026.000; -989.000
397.187; -133.050;-1026.000; -975.000
397.315; -150.475; -884.000; -649.000
397.443;  -82.750; -592.000; -443.000
397.572; -102.525; -578.000; -424.000
397.700;  -42.425; -607.000; -614.000
397.828;    6.125;  120.000;  -90.000
397.956;  -62.600; -508.000; -478.000
398.084;  -81.200; -767.000; -626.000
398.212;   17.225;  137.000;  124.000
398.340;   -6.950;  -56.000;  159.000
398.468;   -6.475; -390.000; -169.000
398.596; -153.375; -993.000; -953.000
398.724; -134.875; -762.000; -767.000
398.852; -174.450;-1024.000; -976.000
398.980;  -89.650; -560.000; -560.000
399.108;  -84.550; -982.000; -735.000
399.236;    7.325;   13.000;    8.000
399.363;    9.825;  222.000;  196.000
399.491;  -83.975; -404.000; -398.000
399.619; -133.300; -829.000; -800.000
399.747; -119.725; -859.000; -771.000
399.875;   64.850;  220.000;  234.000
400.003;  -66.900; -359.000; -284.000
400.130;  -99.025; -421.000; -341.000
400.258;  -31.225;  -83.000;   38.000
400.386;  -73.550; -352.000; -168.000
400.514;  -69.950; -526.000; -587.000
400.641; -114.300; -928.000; -802.000
400.769; -148.425; -979.000; -888.000
400.897; -125.400; -838.000; -793.000
401.025;  -36.250; -166.000; -152.000
401.152;  -13.525;  220.000;   38.000
401.280;  -99.925; -430.000; -429.000
401.408; -115.975; -712.000; -576.000
401.535; -112.325; -735.000; -758.000
401.663; -209.050;-1134.000;-1054.000
401.790;  -93.075; -514.000; -525.000
401.918;   15.650;  436.000;  405.000
402.046;  -31.775;  134.000;  122.000
402.173;  -51.700;  -18.000;    7.000
402.301;  -83.375; -519.000; -397.000
402.428;   35.800;  528.000;  383.000
402.556; -165.950;-1188.000; -913.000
402.683;  -46.250;  -20.000;   -1.000
402.811;  -49.100;  -37.000; -206.000
402.938;   -3.225;   20.000;   27.000
403.066;  133.325; -574.000; -558.000
403.193;  257.575;  299.000;  239.000
403.321;  197.975; -396.000; -574.000
403.448;  263.800;   83.000;   27.000
403.575;  113.975;  -90.000;  -46.000
403.703; -117.825; -732.000; -557.000
403.830;  -81.350; -531.000; -496.000
403.957; -148.725;-1117.000;-1023.000
404.085;   -8.175;  -61.000; -172.000
404.212;   85.650;  -50.000;   63.000
404.339;  255.550; -566.000; -306.000
404.467; 6081.850; -612.000; -524.000
404.594; 3698.950; -287.000; -227.000
404.721;  777.050; -869.000; -764.000
404.848;   54.575; -113.000; -202.000
404.976; -113.950; -856.000; -783.000
405.103;  -16.425;  -14.000;  -82.000
405.230;  -16.900;  190.000;  226.000
405.357;    9.400;  117.000;   44.000
405.484;  281.600;  -49.000;    5.000
405.612;   44.100; -548.000; -563.000
405.739;  -69.950; -488.000; -243.000
405.866;   79.375;  669.000;  385.000
405.993;  -49.800; -398.000; -102.000
406.120; -156.900; -801.000; -887.000
406.247;  -61.050; -323.000; -342.000
406.374;  327.200;  540.000;  629.000
406.501;   33.525; -632.000; -702.000
406.628;  -90.750; -621.000; -589.000
406.755; -113.375; -803.000; -620.000
406.882;  -40.200; -228.000; -277.000
407.009; -126.325; -719.000; -628.000
407.136;   -3.225; -480.000; -401.000
407.263;   43.150; -939.000; -829.000
407.390;  -96.650; -692.000; -614.000
407.517; -191.075;-1139.000;-1187.000
407.644;  -79.775; -332.000; -256.000
407.771; -130.225; -249.000; -287.000
407.898;   -5.025;  168.000;  328.000
408.025;  -82.050; -421.000; -313.000
408.151;  -32.850;   82.000;  153.000
408.278;  -72.850; -267.000; -216.000
408.405; -125.850; -931.000; -899.000
408.532;  -72.825; -549.000; -542.000
408.659; -125.075; -677.000; -648.000
408.785; -210.175;-1298.000;-1170.000
408.912;  -72.100; -412.000; -296.000
409.039; -103.200; -610.000; -686.000
409.166; -120.000; -591.000; -555.000
409.292; -109.200; -571.000; -534.000
409.419; -129.650; -665.000; -649.000
409.546;  -98.150; -431.000; -192.000
409.672; -112.575; -713.000; -545.000
409.799;  -10.550;  -36.000;   34.000
409.926;  -50.300; -180.000; -179.000
410.052; -184.825;-1127.000;-1091.000
410.179;  -65.225; -368.000; -392.000
410.305;  -86.875; -375.000; -493.000
410.432;  -58.925; -220.000; -333.000
410.558;  -93.000; -305.000; -380.000
410.685; -106.200; -688.000; -431.000
410.812;  -97.150; -409.000; -588.000
410.938; -153.075; -964.000; -808.000
411.065; -101.600; -671.000; -645.000
411.191;  -34.750; -189.000; -174.000
411.317; -127.100; -823.000; -742.000
411.444;  -81.125; -317.000; -246.000
411.570;  -84.700; -339.000; -294.000
411.697; -127.475; -758.000; -752.000
411.823; -184.500; -989.000; -999.000
411.949;  -55.825;  -56.000;   17.000
412.076; -121.425; -539.000; -519.000
412.202; -137.700; -758.000; -757.000
412.329; -132.875; -798.000; -752.000
412.455; -127.525; -821.000; -657.000
412.581;  -21.725;  -15.000;  172.000
412.707;  -79.500; -540.000; -457.000
412.834;   -6.375;  156.000;  219.000
412.960;  -96.725; -785.000; -784.000
413.086; -111.650; -743.000; -701.000
413.212;  120.250;  604.000;  578.000
413.339;  -88.350; -685.000; -701.000
413.465;  -28.825; -364.000; -310.000
413.591; -108.200; -757.000; -474.000
413.717;  -80.575; -358.000; -366.000
413.843; -147.125; -839.000; -861.000
413.969;  -72.700;  -47.000; -292.000
414.096; -112.250; -679.000; -679.000
414.222;  -14.675;  -33.000;   85.000
414.348;  -40.925; -652.000; -385.000
414.474;   59.675;   38.000;  -52.000
414.600;  -34.950; -126.000; -144.000
414.726;  -20.625;  -96.000;  -55.000
414.852;  -70.675; -365.000; -342.000
414.978;   13.300;  104.000;  -18.000
415.104;   28.775;   38.000;   80.000
415.230;    8.950; -329.000; -330.000
415.356;   22.700; -409.000; -514.000
415.482;  173.375;   13.000;  -35.000
415.608;  279.875; -247.000; -323.000
415.734;  968.800;   67.000;   38.000
415.860;20661.175; -875.000; -767.000
415.986;14491.275; -685.000; -607.000
416.111; 1216.600; -798.000; -652.000
416.237;  238.975; -424.000; -571.000
416.363; 1211.475; -765.000; -733.000
416.489; 4356.725; -324.000; -251.000
416.615;  449.975; -707.000; -742.000
416.741;  -48.050; -677.000; -784.000
416.866;  -87.400; -673.000; -736.000
416.992; -131.700; -801.000; -818.000
417.118;  -42.400;  -41.000;  -80.000
417.244;  -74.325; -798.000; -531.000
417.369;  -94.300; -801.000; -612.000
417.495;  -11.950; -325.000; -254.000
417.621; -104.525;-1015.000; -803.000
417.746;    5.150; -579.000; -572.000
417.872;   34.275; -254.000; -144.000
417.998;   48.625; -515.000; -530.000
418.123; 1150.025;-1073.000; -845.000
418.249; 5605.000; -512.000; -601.000
418.374;  739.200; -916.000; -824.000
418.500;   93.700; -383.000; -482.000
418.626;  115.925;   70.000;  -59.000
418.751;  107.550; -549.000; -448.000
418.877;  201.125; -637.000; -643.000
419.002; 1918.950; -688.000; -560.000
419.128;13154.475; -930.000; -721.000
419.253; 3073.525; -967.000; -837.000
419.379;  419.975; -391.000; -338.000
419.504;  403.275;  325.000;  415.000
419.629;  517.300; -393.000; -212.000
419.755; 3895.625; -317.000; -254.000
419.880;22539.875;  -98.000;   67.000
420.006;11984.075; -280.000; -221.000
420.131;30313.625; -662.000; -775.000
420.256; 4170.700; -315.000; -316.000
420.382;  554.325; -665.000; -687.000
420.507;   58.950; -649.000; -778.000
420.632;   88.050; -337.000; -339.000
420.758;  169.850; -251.000; -425.000
420.883;  -90.950; -876.000; -672.000
421.008; -108.575; -775.000; -619.000
421.133;  -95.500; -509.000; -467.000
421.259;  -55.325; -325.000; -259.000
421.384; -123.350; -834.000; -693.000
421.509;  -81.250;-1052.000; -862.000
421.634;  815.300; -936.000; -820.000
421.759;  338.175; -359.000; -327.000
421.885;  -72.800; -717.000; -656.000
422.010;  -99.300; -673.000; -542.000
422.135; -150.000; -695.000; -727.000
422.260;   18.750;  340.000;  280.000
422.385;  -43.150;   12.000;  -98.000
422.510;  -12.550;  151.000;  -26.000
422.635;    4.375;  -87.000;  -43.000
422.760;   70.625; -766.000; -791.000
422.885;   38.125;  -57.000;  -80.000
423.010;  -53.175; -112.000; -169.000
423.135; -100.925; -481.000; -561.000
423.260;  -29.775; -150.000; -245.000
423.385;   55.925;  476.000;  222.000
423.510;   11.975;   71.000;  -22.000
423.635;   52.775;  133.000;   45.000
423.760;   39.125;  383.000;  328.000
423.885;   50.025;  336.000;  391.000
424.010;    1.975;  -68.000;  -13.000
424.135;  -27.250;    5.000;  -33.000
424.259;  -94.800; -654.000; -457.000
424.384;  -81.850; -279.000; -272.000
424.509;  -32.375; -260.000; -186.000
424.634;  -97.475; -761.000; -623.000
424.759;  -46.550; -688.000; -544.000
424.883;  -25.100; -506.000; -527.000
425.008;  140.350; -502.000; -410.000
425.133; 2097.225; -679.000; -653.000
425.258;  929.000; -517.000; -381.000
425.382;  903.800; -867.000; -774.000
425.507; 2174.575; -487.000; -543.000
425.632;  369.600; -802.000; -663.000
425.756;  462.500; -256.000; -146.000
425.881; 7263.625; -831.000; -857.000
426.006;19154.550; -604.000; -355.000
426.130; 2850.625; -696.000; -508.000
426.255;  363.400; -611.000; -491.000
426.379;  153.425; -189.000; -577.000
426.504;  387.900;  660.000;  544.000
426.629; 4148.125; -519.000; -466.000
426.753; 2728.150;   64.000;  -46.000
426.878;  297.850; -252.000; -288.000
427.002;  141.075; -651.000; -668.000
427.127; 1666.650;  -35.000; -158.000
427.251;11972.825;  372.000;  401.000
427.375; 3269.350; -191.000; -173.000
427.500; 1997.150; -616.000; -610.000
427.624;  647.650; -234.000; -400.000
427.749;   74.225; -216.000; -225.000
427.873;  -45.150; -499.000; -412.000
427.997;  -57.750; -222.000; -230.000
428.122;   80.375;  795.000;  703.000
428.246;   55.050;  433.000;  434.000
428.371; -144.375; -869.000; -773.000
428.495; -117.500; -624.000; -646.000
428.619;  -48.575; -186.000; -117.000
428.743;    9.800;   65.000;  132.000
428.868;  -21.950; -732.000; -643.000
428.992; 1151.725; -219.000; -326.000
429.116;  438.750; -329.000; -357.000
429.240;  208.025;  419.000;  426.000
429.365;  -47.900; -454.000; -574.000
429.489;  -63.075; -638.000; -647.000
429.613;   19.875; -236.000; -177.000
429.737;   30.250; -563.000; -432.000
429.861;  263.675; -247.000; -133.000
429.985; 5828.275; -425.000; -305.000
430.109; 6258.050; -770.000; -908.000
430.234;  697.850;   76.000;  -50.000
430.358;   47.750; -250.000; -160.000
430.482;  -72.025; -672.000; -564.000
430.606;  -66.825; -655.000; -375.000
430.730;  -18.200; -437.000; -388.000
430.854;   42.975; -909.000; -835.000
430.978;  -85.150; -795.000; -764.000
431.102; -105.000; -499.000; -422.000
431.226; -140.525; -874.000; -815.000
431.350;   18.550;  345.000;  422.000
431.474;  -97.875; -661.000; -373.000
431.597; -164.475;-1060.000; -848.000
431.721;  -90.600; -276.000; -267.000
431.845; -132.975; -704.000; -472.000
431.969;  -85.275; -304.000; -349.000
432.093;  -85.850; -395.000; -317.000
432.217;  -16.825;   32.000;   82.000
432.341;  -94.525; -523.000; -518.000
432.464;  -27.200;   96.000;   40.000
432.588;  117.175; -401.000; -329.000
432.712;   49.000;  -52.000;  -52.000
432.836;   54.525;  213.000;  263.000
432.959;  -25.075; -372.000; -311.000
433.083;   79.350;   11.000;    2.000
433.207;  391.725;  285.000;  930.000
433.330; 5384.750; -391.000; -200.000
433.454; 6469.800; -654.000; -638.000
433.578; 3706.225;  583.000;  278.000
433.701;  637.175; -623.000; -675.000
433.825;  108.125; -292.000; -299.000
433.949;  109.000;   28.000;  -72.000
434.072;   -3.575; -410.000; -323.000
434.196;  -35.525; -309.000; -117.000
434.319; 3804.825;25482.000;25124.000
434.443;  726.050; -656.000; -603.000
434.566; 2728.225;  281.000;   62.000
434.690;  424.800; -637.000; -383.000
434.813;   21.225; -251.000; -173.000
434.937;  -95.400; -569.000; -696.000
435.060;  -76.925; -423.000; -332.000
435.184;  162.150; -492.000; -217.000
435.307;   99.025;  159.000;  102.000
435.431;  -38.825;  -40.000;   24.000
435.554;  -97.300; -399.000; -240.000
435.677; -101.950; -350.000; -258.000
435.801;  -53.825;  -25.000;   49.000
435.924;  -22.000;    1.000;  -67.000
436.048; -138.800;-1019.000; -732.000
436.171;  -68.900; -240.000;  -66.000
436.294;  -30.475; -248.000; -229.000
436.417;   85.075; -963.000; -849.000
436.541;  -96.450; -814.000; -840.000
436.664;  -60.575; -242.000; -316.000
436.787;  -29.775;   13.000;  113.000
436.910; -128.500; -792.000; -422.000
437.034;   -5.550;  142.000;  143.000
437.157;   19.775;  -11.000;    0.000
437.280;  -55.025; -392.000; -292.000
437.403; -127.375; -982.000; -869.000
437.526;  405.800; -903.000; -865.000
437.649; 1556.125; -505.000; -332.000
437.772;  188.750; -692.000; -540.000
437.896;   86.175;  700.000;  544.000
438.019; -120.150; -758.000; -503.000
438.142; -105.650; -596.000; -506.000
438.265;  -58.275; -639.000; -670.000
438.388;  374.025; -520.000; -410.000
438.511;   21.475; -597.000; -394.000
438.634;  -68.700; -247.000; -125.000
438.757; -153.925; -693.000; -619.000
438.880;  -25.025;  -34.000;  -57.000
439.003;  -90.400; -417.000; -437.000
439.126;  -75.525; -287.000; -167.000
439.248;  -61.525;  -98.000; -139.000
439.371;  -61.050;    9.000;  -53.000
439.494;   24.775;  510.000;  439.000
439.617;  -67.850;   65.000;  -88.000
439.740; -191.850; -968.000; -816.000
439.863; -155.950; -755.000; -595.000
439.986; -120.300; -476.000; -431.000
440.108;  -62.425; -161.000; -112.000
440.231; -165.450; -950.000; -836.000
440.354;  -40.400;  -64.000; -150.000
440.477;  -21.600; -566.000; -542.000
440.599;  -41.775; -200.000; -225.000
440.722; -137.050; -709.000; -586.000
440.845;   53.950;  751.000;  928.000
440.968; -117.825; -415.000; -311.000
441.090;  -70.275; -199.000;  -33.000
441.213; -173.600;-1021.000; -825.000
441.336;  -69.825; -159.000;   -5.000
441.458;  -84.025; -549.000; -396.000
441.581; -101.350; -628.000; -629.000
441.703;  -76.575; -152.000;   13.000
441.826; -128.800; -557.000; -400.000
441.948;  -53.475;   56.000;   51.000
442.071;    5.200;  555.000;  424.000
442.193; -125.125; -531.000; -485.000
442.316;   18.325;  152.000;   97.000
442.438;   44.575; -233.000;  -10.000
442.561;   49.475;  272.000;  262.000
442.683;  381.375; -809.000; -522.000
442.806;  805.875;   -8.000;   74.000
442.928;  -38.375; -859.000; -604.000
443.051;  -81.750; -577.000; -373.000
443.173; -103.650; -341.000; -339.000
443.295;  -97.225; -263.000; -371.000
443.418;  -74.075; -321.000;  -29.000
443.540;  -14.050; -106.000;   -4.000
443.662; -122.175; -563.000; -465.000
443.785;  -10.225;  335.000;  199.000
443.907; -111.325; -362.000; -208.000
444.029; -143.550; -767.000; -494.000
444.152; -143.925; -644.000; -554.000
444.274;  -29.900;  -18.000;  -24.000
444.396; -104.575; -461.000; -221.000
444.518; -132.425; -691.000; -454.000
444.640; -117.750; -268.000; -111.000
444.763;  -23.125;  388.000;  249.000
444.885; -123.900; -432.000; -392.000
445.007;  -50.700;   35.000;   86.000
445.129; -130.050; -610.000; -515.000
445.251; -125.400; -372.000; -439.000
445.373; -140.625; -537.000; -386.000
445.495;  -16.450;  242.000;  350.000
445.617;   65.875;  853.000;  753.000
445.739;  -79.025; -215.000;  -97.000
445.861;  -43.050; -245.000; -112.000
445.984;  -59.500; -267.000; -101.000
446.105;  121.350; -418.000; -251.000
446.227;  431.950; -176.000;  -19.000
446.349;  -25.625; -358.000; -249.000
446.471; -126.850; -615.000; -448.000
446.593;  -68.800; -316.000;   19.000
446.715;  -25.975;  -67.000;   41.000
446.837;   43.475;  697.000;  832.000
446.959; -100.325; -457.000; -478.000
447.081; -126.650; -628.000; -518.000
447.203;   48.150;  862.000;  834.000
447.325; -102.925; -270.000;   42.000
447.446;  -15.050;  286.000;  530.000
447.568; -161.100; -921.000; -803.000
447.690; -106.900; -236.000; -245.000
447.812; -152.500; -798.000; -519.000
447.933;  -35.350;  155.000;  127.000
448.055;  -63.400; -306.000; -261.000
448.177;  117.350;   31.000;   79.000
448.299;   15.900; -935.000; -727.000
448.420;   -5.200;  -25.000;  159.000
448.542;  -62.525;   -3.000;   33.000
448.664;  -30.525;  109.000;  322.000
448.785;  -31.600;  265.000;   83.000
448.907;  -99.100; -614.000; -353.000
449.028;  -56.450; -771.000; -471.000
449.150;   44.550;  492.000;  589.000
449.272; -195.275;-1044.000; -913.000
449.393;   16.750;  612.000;  694.000
449.515; -140.750; -634.000; -581.000
449.636;  -75.025; -264.000; -155.000
449.758;   67.050;  763.000;  622.000
449.879; -117.925; -498.000; -396.000
450.001;  -94.925; -149.000;  -49.000
450.122;  -56.950;  -95.000;  162.000
450.244;  -24.775;   37.000;  364.000
450.365;  -96.475; -495.000; -301.000
450.486;  -29.675;   80.000;  268.000
450.608;   18.400;  393.000;  326.000
450.729;   78.375;  578.000;  645.000
450.850;   11.600; -574.000; -466.000
450.972;  818.175; -552.000; -389.000
451.093; 5325.250;  190.000;  588.000
451.214; 2178.600; -516.000; -337.000
451.336;  400.725;  773.000;  579.000
451.457;   66.275;  264.000;  393.000
451.578;  -45.775; -118.000;  -74.000
451.699; -112.800; -546.000; -540.000
451.821;  -69.600; -284.000;  -50.000
451.942;   -2.700;  278.000;  285.000
452.063;   36.900;  228.000;  419.000
452.184;  588.725;  -54.000;  -49.000
452.305; 1136.300;  103.000;  170.000
452.427;  135.825; -549.000; -301.000
452.548;  -23.175;   23.000;   79.000
452.669;  -50.025; -257.000;  -89.000
452.790;  -56.700;    3.000;  -18.000
452.911;   -7.325;  195.000;  259.000
453.032;  -88.200; -289.000;  -60.000
453.153;  -56.050;  -29.000;   81.000
453.274;   49.825;  737.000;  868.000
453.395;  -62.175;  -51.000;  175.000
453.516;  107.225; 1317.000; 1388.000
453.637;  -91.000; -205.000; -150.000
453.758;  -79.775;   15.000;   69.000
453.879; -118.525; -462.000; -250.000
454.000;   70.900; 1086.000;  948.000
454.121; -133.350; -554.000; -326.000
454.242; -137.125; -599.000; -383.000
454.362;  -58.750;  -99.000;  114.000
454.483;  -45.925; -309.000; -229.000
454.604;   37.950;  512.000;  580.000
454.725; -140.450; -627.000; -555.000
454.846; -133.150; -474.000; -406.000
454.967;  -37.500;  230.000;  539.000
455.087;  -47.600;  179.000;  153.000
455.208;    4.150;  554.000;  856.000
455.329;  -68.450;  -22.000;   82.000
455.450;   34.425;  473.000;  633.000
455.570;  -84.775; -234.000; -211.000
455.691;  -58.425;  201.000;  407.000
455.812; -111.025; -270.000;  -92.000
455.932;  -73.850;  107.000;  -97.000
456.053;  -88.250;   36.000;   24.000
456.173; -110.525; -433.000; -355.000
456.294; -145.250; -476.000; -303.000
456.415;  -74.700;  -73.000;   70.000
456.535;  -42.825;  297.000;  273.000
456.656;  -52.900;  132.000;  240.000
456.776;  -57.450;    3.000;  298.000
456.897;  -14.600;  308.000;  513.000
457.017;  -84.325; -153.000;   -3.000
457.138; -131.775; -402.000; -249.000
457.258;  -32.950;  263.000;  224.000
457.379;  -18.050;  509.000;  521.000
457.499;  -41.300;  443.000;  432.000
457.620; -128.200; -407.000; -231.000
457.740;  -98.525; -132.000;  -11.000
457.860;  -52.350;   87.000;   44.000
457.981;  -51.225;  132.000;  124.000
458.101;  -86.625;  -89.000;   40.000
458.221;  -18.000;  336.000;  402.000
458.342;  -70.275;   -4.000;  -37.000
458.462;   15.925;  617.000;  352.000
458.582;  -38.675; -302.000; -294.000
458.703;    3.700;  303.000;  154.000
458.823;  -39.900;   22.000;  163.000
458.943;   17.475;  341.000;  467.000
459.063;  -35.250; 1124.000;  192.000
459.183;  -25.825;  328.000;  313.000
459.304;    4.000;  315.000;  517.000
459.424;  -65.475; -246.000;  -89.000
459.544;  349.625;  388.000;  764.000
459.664;  857.850;  499.000;  506.000
459.784;  310.375; 1004.000; 1175.000
459.904;   57.275;  867.000;  744.000
460.024;   54.775;  867.000;  684.000
460.144;    8.000;  449.000;  554.000
460.264;  -26.650;  515.000;  327.000
460.385;  -91.150; -145.000; -119.000
460.505;   27.000;  905.000;  858.000
460.625; -105.400;  -17.000;  -68.000
460.745;  -31.350;  396.000;  541.000
460.864;  -52.025;  153.000;  469.000
460.984;    0.350;  499.000;  573.000
461.104;  131.125; 1656.000; 1775.000
461.224;   15.375;  657.000;  650.000
461.344;  -31.100;  431.000;  360.000
461.464;  -33.075;  258.000;  513.000
461.584;  -35.525;  283.000;  466.000
461.704;  -65.600;   58.000;  108.000
461.824;  -59.150;  238.000;  259.000
461.943;  -73.975;  191.000;  130.000
462.063;  -80.300;    2.000;  324.000
462.183;   26.050;  639.000;  717.000
462.303;   90.425; 1678.000; 1230.000
462.422;   20.550;  781.000;  840.000
462.542;  -30.175;  271.000;  391.000
462.662;   20.925;  353.000;  380.000
462.782;  253.850;  833.000;  572.000
462.901;  493.675;  545.000;  717.000
463.021;  276.700; 1702.000; 1638.000
463.141;  -16.650;  337.000;  770.000
463.260;  -18.675;  614.000;  474.000
463.380;  -11.750;  902.000;  884.000
463.499;  -46.450;  342.000;  332.000
463.619;  -42.650;  581.000;  559.000
463.738;  117.550; 1644.000;  903.000
463.858;   13.100;  657.000;  811.000
463.978;  -43.175;  542.000;  396.000
464.097;   46.700;  921.000; 1114.000
464.217;  113.525; 1196.000; 1143.000
464.336;  120.250; 1068.000; 1130.000
464.455;  -37.500;  328.000;  659.000
464.575;   25.300;  597.000;  602.000
464.694;  144.525; 1204.000; 1179.000
464.814;  139.150; 1190.000; 1138.000
464.933;   76.575; 1095.000; 1027.000
465.052;   84.150; 1412.000; 1054.000
465.172;   53.150;  922.000;  799.000
465.291;  119.750; 1376.000; 1320.000
465.410;   13.175;  462.000;  735.000
465.530;   62.700; 1355.000; 1310.000
465.649;   66.700; 1209.000; 1273.000
465.768;  134.550; 1673.000; 1508.000
465.888;   38.525;  941.000; 1174.000
466.007;   77.250; 1335.000; 1440.000
466.126;    8.425;  721.000;  641.000
466.245;   44.375; 1176.000; 1187.000
466.364;   22.625;  950.000; 1060.000
466.484;   49.350; 1024.000; 1213.000
466.603;   26.350; 1101.000; 1222.000
466.722;  114.100; 1490.000; 1769.000
466.841;   64.000; 1151.000; 1401.000
466.960;   37.975; 1069.000;  972.000
467.079;  132.225; 1971.000; 1786.000
467.198;   28.825; 1238.000; 1181.000
467.317;   84.900; 1768.000; 1162.000
467.436;   59.350; 1709.000; 1261.000
467.555;  115.550; 1796.000; 1746.000
467.674;   41.975; 1227.000; 1329.000
467.793;   46.275; 1376.000; 1374.000
467.912;   92.575; 1658.000; 1539.000
468.031;  140.200; 2038.000; 1930.000
468.150;  131.500; 1842.000; 1837.000
468.269;  183.875; 2313.000; 2090.000
468.388;  175.425; 2168.000; 2339.000
468.507;  248.250; 2884.000; 2903.000
468.626;  226.750; 2555.000; 2541.000
468.744;  139.800; 2018.000; 2174.000
468.863;  198.800; 2312.000; 2523.000
468.982;   92.300; 1503.000; 1555.000
469.101;  237.725; 2788.000; 2692.000
469.220;  153.800; 2333.000; 2176.000
469.338;  256.025; 2935.000; 3051.000
469.457;  184.025; 2719.000; 2545.000
469.576;  331.925; 3953.000; 3784.000
469.695;  254.200; 2877.000; 3066.000
469.813;  404.575; 4148.000; 4192.000
469.932;  416.450; 4255.000; 4485.000
470.051;  413.575; 4075.000; 4161.000
470.169;  879.950; 4470.000; 4338.000
470.288; 1494.025; 4700.000; 4809.000
470.406;  873.900; 5059.000; 5194.000
470.525;  616.225; 6101.000; 5787.000
470.644;  638.650; 6847.000; 6794.000
470.762;  786.425; 8397.000; 7873.000
470.881;  917.175; 8651.000; 8464.000
470.999; 1034.825; 9685.000; 9151.000
471.118; 1138.725;11174.000;10711.000

