
Integration time [ms]: 100.000
Averaging Nr. [scans]: 40
Smoothing Nr. [pixels]: 0
Data measured with spectrometer [name]: 2101012U2
Wave   ;Sample   ;Dark     ;Reference
[nm]   ;[counts] ;[counts] ;[counts] 

197.733;   69.400;  516.000;  404.000
197.879;  -82.000; -610.000; -634.000
198.025;  -43.475; -475.000; -420.000
198.171;  -67.250; -602.000; -612.000
198.317;  -32.500; -401.000; -316.000
198.463;  -65.300; -655.000; -404.000
198.609;   25.775;  181.000; -137.000
198.755;  -67.100; -644.000; -410.000
198.901;  -72.600; -505.000; -424.000
199.047;  -58.925; -615.000; -488.000
199.193;  -44.750; -230.000; -468.000
199.339;  -51.400; -222.000; -369.000
199.485;   39.025;  330.000;  271.000
199.631;    8.125;  227.000;  310.000
199.777;  -52.925; -466.000; -398.000
199.923;  -67.825; -610.000; -424.000
200.069;   -1.050; -141.000;  -58.000
200.215;   41.575;  128.000;  453.000
200.361;   56.500;  243.000;  477.000
200.507;  -66.925; -600.000; -373.000
200.653;  -21.750; -371.000; -194.000
200.798;  -43.525; -215.000; -125.000
200.944;   -8.850; -146.000;  -41.000
201.090;   37.350;   61.000;  222.000
201.236;    3.225; -116.000; -158.000
201.382;  130.250;  874.000;  903.000
201.528;   10.100;  -58.000;  -48.000
201.674;  -40.825; -386.000; -293.000
201.819;  -65.775; -540.000; -439.000
201.965;  -94.400; -699.000; -447.000
202.111;  -29.000; -273.000; -226.000
202.257;  -39.950; -250.000; -238.000
202.402;   14.800;   13.000;  -36.000
202.548;  -24.050; -169.000; -116.000
202.694;   80.400;  410.000; -183.000
202.840;  -81.575; -603.000; -531.000
202.985;  -65.325; -681.000; -639.000
203.131; -126.300; -832.000; -666.000
203.277;  -11.575; -199.000; -262.000
203.423;  -55.600; -434.000; -520.000
203.568;  -43.425; -462.000; -237.000
203.714;  -78.125; -535.000; -542.000
203.860;  -89.675; -682.000; -641.000
204.005;    8.825;  112.000;  167.000
204.151;   82.975;  561.000;  556.000
204.296;  -48.600; -354.000; -221.000
204.442;  -67.200; -600.000; -547.000
204.588;  -83.400; -592.000; -579.000
204.733;   18.800;  178.000;  168.000
204.879; -129.200;-1018.000; -822.000
205.025;   12.375;  -99.000;  126.000
205.170;   -9.600;  -17.000;   94.000
205.316;   78.975;  438.000;  661.000
205.461;  -97.975; -698.000; -554.000
205.607;   71.900;  609.000;  665.000
205.752;  -87.400; -626.000; -551.000
205.898;  -47.350; -501.000; -391.000
206.043;  -77.025; -578.000; -506.000
206.189;  -34.475; -243.000; -285.000
206.334;   60.050;  554.000;  606.000
206.480;   94.400;  409.000;  239.000
206.625;  -87.025; -529.000; -552.000
206.771;  -40.475; -451.000; -373.000
206.916;  -45.250; -210.000; -537.000
207.062;  -76.325; -545.000; -591.000
207.207;  -62.550; -546.000; -443.000
207.353;   50.350;  185.000;  460.000
207.498;    1.825;  196.000;   85.000
207.643;  -57.525; -501.000; -370.000
207.789; -123.225;-1069.000; -910.000
207.934;  -94.600; -665.000; -713.000
208.080;  -24.050; -154.000;   66.000
208.225;   -3.125;  -22.000;  -57.000
208.370;  -86.750; -727.000; -619.000
208.516;  -72.275; -741.000; -487.000
208.661;  -41.000; -127.000;  -69.000
208.806;  -21.250; -165.000; -171.000
208.952; -118.625;-1044.000; -731.000
209.097;   85.075;  378.000;  349.000
209.242;  -60.875; -307.000; -382.000
209.387;   63.475;  392.000;  350.000
209.533;  -53.050; -321.000; -350.000
209.678;   66.325;  472.000;  543.000
209.823;  -63.150; -408.000; -310.000
209.969; -100.625; -860.000; -757.000
210.114; -107.150; -907.000; -719.000
210.259; -113.000; -939.000; -889.000
210.404;  -17.725; -171.000;  103.000
210.549;   14.350;  108.000;    3.000
210.695;  -10.550;   -3.000;  -95.000
210.840;   24.725;   94.000;   67.000
210.985;  -77.175; -484.000; -303.000
211.130;   68.175;  268.000;  406.000
211.275;    8.975;  207.000;  199.000
211.420;  -57.900; -300.000; -289.000
211.566;  -64.650; -536.000; -489.000
211.711;   21.925;  218.000;  157.000
211.856;  -62.925; -545.000; -519.000
212.001;    7.450;  151.000;   44.000
212.146;   14.600;  153.000;   49.000
212.291;  -20.675; -210.000; -186.000
212.436;  -39.575; -280.000;   -6.000
212.581;  -96.550; -685.000; -653.000
212.726;  -83.875; -487.000; -538.000
212.871;  -57.350; -552.000; -217.000
213.016; -153.625;-1172.000;-1029.000
213.161;   72.725;  406.000;  291.000
213.306;  -84.875; -435.000; -577.000
213.451; -104.450; -778.000; -689.000
213.596;  -55.200; -455.000; -347.000
213.741;  -53.300; -448.000; -538.000
213.886;  -83.000; -498.000; -517.000
214.031;  -29.800; -294.000; -124.000
214.176;  -59.975; -408.000; -341.000
214.321;  -22.425; -296.000; -157.000
214.466;  -31.950; -163.000;  -43.000
214.611;   -3.975;  -61.000;  -10.000
214.756; -115.575; -948.000; -858.000
214.901;  -23.000; -388.000; -226.000
215.046; -124.175; -797.000; -825.000
215.191;   24.850;  128.000;   35.000
215.336;  -14.725; -157.000;  -19.000
215.480;  -69.600; -684.000; -505.000
215.625;  -17.975; -175.000;  -19.000
215.770;  -83.950; -757.000; -662.000
215.915;  -13.750;   -5.000;  -97.000
216.060;   -5.875; -113.000;  -21.000
216.205; -114.825; -731.000; -779.000
216.349;  -60.750; -470.000; -533.000
216.494; -136.275; -939.000; -867.000
216.639; -117.125; -823.000; -888.000
216.784;  -93.875; -577.000; -525.000
216.929;   44.075;  392.000;  281.000
217.073;  -10.950; -244.000;  -31.000
217.218;    8.050;   78.000;  -47.000
217.363;  -92.675; -656.000; -618.000
217.507;  -86.775; -623.000; -588.000
217.652; -121.300; -845.000; -874.000
217.797;  -96.800; -708.000; -659.000
217.942; -117.200; -856.000; -720.000
218.086;   70.150;  608.000;  539.000
218.231;  -19.050; -174.000;  -26.000
218.376;  -37.975; -337.000; -229.000
218.520;   -7.525;  -41.000;   96.000
218.665;  -43.225; -338.000; -204.000
218.810;  -52.925; -275.000; -233.000
218.954;   24.525;  201.000;   35.000
219.099; -114.350; -713.000; -963.000
219.243;  -77.600; -589.000; -554.000
219.388;  -35.575; -264.000; -136.000
219.532;    2.850; -116.000; -116.000
219.677;  -72.650; -564.000; -521.000
219.822;   -6.300;   33.000;   89.000
219.966;    7.825;   17.000;  -99.000
220.111;  -42.050; -328.000;  -40.000
220.255; -100.275; -797.000; -750.000
220.400;  -23.925; -180.000; -146.000
220.544;  -75.400; -516.000; -450.000
220.689;  -50.575; -422.000; -451.000
220.833;  -26.350; -123.000;  -58.000
220.978;  -40.275; -393.000; -563.000
221.122;    7.175;  319.000;  307.000
221.267; -112.250; -906.000; -837.000
221.411;  -75.850; -478.000; -394.000
221.555;   -4.625; -104.000;  -23.000
221.700;  -47.325; -329.000; -222.000
221.844;   37.975;  255.000;  272.000
221.989;  -63.950; -328.000; -311.000
222.133;  -35.000; -289.000; -307.000
222.277;   -7.275;    5.000;   78.000
222.422;   21.075;  227.000;  113.000
222.566;  -36.400; -381.000; -214.000
222.711;  -57.100; -414.000; -479.000
222.855;  -82.150; -643.000; -586.000
222.999;  -90.725; -642.000; -717.000
223.144;  -42.525; -195.000; -194.000
223.288;   59.550;  423.000;  251.000
223.432;   20.625;  184.000;  230.000
223.576;   20.200;  152.000;  -21.000
223.721;   40.850;  364.000;  273.000
223.865;  -54.750; -472.000; -475.000
224.009;  217.975; 1673.000; 1631.000
224.153;  -74.125; -660.000; -671.000
224.298;  -74.750; -531.000; -489.000
224.442;  -28.700;  -74.000;  -33.000
224.586;   -7.125; -169.000; -106.000
224.730; -100.500; -858.000; -670.000
224.875; -106.525; -739.000; -688.000
225.019;   16.325;  102.000;  188.000
225.163;   59.275;  208.000;  341.000
225.307;   17.375;   97.000;  -91.000
225.451;   43.950;  360.000;  481.000
225.595;   30.525;  264.000;  176.000
225.739;  -46.050; -170.000;  -94.000
225.884;   13.425;   86.000;    5.000
226.028;  -97.325; -760.000; -626.000
226.172;  -35.775; -260.000; -273.000
226.316; -133.325; -941.000; -902.000
226.460;  -67.200; -645.000; -493.000
226.604;  -73.850; -406.000; -400.000
226.748;  -94.875; -836.000; -733.000
226.892;  -30.050; -227.000; -181.000
227.036;  -58.575; -537.000; -447.000
227.180;  -65.275; -551.000; -375.000
227.324;  -56.675; -561.000; -580.000
227.468; -111.950; -819.000; -717.000
227.612;   13.725;  242.000;  -28.000
227.756; -106.600; -845.000; -698.000
227.900;   56.350;  342.000;  441.000
228.044;  -74.225; -509.000; -290.000
228.188;   52.050;  448.000;  568.000
228.332; -103.025; -546.000; -472.000
228.476;  -34.900; -223.000; -149.000
228.620;  -42.525; -210.000; -150.000
228.764;   72.100;  431.000;  349.000
228.908;  -24.575; -155.000;   30.000
229.052;  -58.275; -615.000; -528.000
229.195;  -23.200; -172.000;   13.000
229.339;  -28.475; -235.000; -305.000
229.483;  -24.450;    5.000; -162.000
229.627;   -3.775; -156.000;  139.000
229.771;  -58.325; -218.000; -294.000
229.915;   10.600;  230.000;   79.000
230.059;  -88.300; -648.000; -663.000
230.202;  -47.825; -370.000; -317.000
230.346;  -17.100; -107.000;  107.000
230.490;  -65.175; -489.000; -521.000
230.634; -116.225; -736.000; -553.000
230.777;   66.550;  478.000;  509.000
230.921;  -57.075; -450.000; -359.000
231.065;  -40.400; -246.000; -286.000
231.209;   14.650;  261.000;  265.000
231.352;   12.550;   54.000;   40.000
231.496;   11.825;  568.000;  188.000
231.640;  -85.575; -693.000; -621.000
231.783;   55.475;  546.000;  525.000
231.927;  -48.775; -294.000; -365.000
232.071; -119.525; -962.000; -736.000
232.214; -112.100; -980.000; -764.000
232.358; -110.650; -683.000; -599.000
232.502;    2.250;  -19.000;    7.000
232.645; -141.175;-1090.000; -927.000
232.789;  -30.325; -257.000; -218.000
232.933;  -55.550; -407.000; -224.000
233.076; -125.400;-1038.000; -897.000
233.220; -112.675; -752.000; -777.000
233.363;  -77.650; -669.000; -477.000
233.507;   50.050;  371.000;  129.000
233.650; -106.925; -764.000; -834.000
233.794;   35.700;  438.000;  461.000
233.938;  -60.100; -530.000; -362.000
234.081;  -32.500;  -93.000;   31.000
234.225;  -72.575; -631.000; -539.000
234.368; -117.450; -773.000; -723.000
234.512;  -59.625; -385.000; -299.000
234.655;  -85.875; -582.000; -555.000
234.798;  -68.075; -493.000; -466.000
234.942; -136.375; -884.000;-1002.000
235.085;  -67.850; -651.000; -443.000
235.229;  -89.250; -405.000; -410.000
235.372;  -47.375; -247.000; -191.000
235.516;  -71.225; -397.000; -321.000
235.659;   25.575;   92.000;  121.000
235.802;  -14.875;  -38.000;  -22.000
235.946;   33.975;  335.000;  215.000
236.089;   21.400;  126.000;  250.000
236.233;   41.275;  275.000;  298.000
236.376;  -52.400; -235.000; -378.000
236.519;  -55.000; -297.000; -319.000
236.663;  -41.750; -215.000; -117.000
236.806; -139.300;-1029.000; -999.000
236.949;   61.950;  543.000;  431.000
237.092;   54.150;  412.000;  391.000
237.236;  -88.725; -589.000; -502.000
237.379;   71.825;  352.000;  428.000
237.522; -120.250; -879.000; -768.000
237.666;  -17.975; -271.000;   18.000
237.809; -119.900; -851.000; -823.000
237.952;   33.575;  469.000;  271.000
238.095;  -82.350; -447.000; -442.000
238.238;   83.875;  688.000;  700.000
238.382;   -8.275;  166.000;  103.000
238.525;  -75.300; -598.000; -511.000
238.668; -135.975;-1060.000; -985.000
238.811;  -78.775; -638.000; -643.000
238.954;  -64.800; -483.000; -334.000
239.097;   81.500;  617.000;  664.000
239.241;   26.725;  394.000;  326.000
239.384;  -33.600; -254.000; -214.000
239.527;  -60.025; -424.000; -224.000
239.670; -142.250; -994.000;-1091.000
239.813; -108.825; -696.000; -658.000
239.956;   78.600;  579.000;  473.000
240.099; -125.950; -778.000; -725.000
240.242;   45.600;  428.000;  432.000
240.385;   28.825;  466.000;  450.000
240.528;  -72.225; -706.000; -473.000
240.671;    3.500;  189.000;  134.000
240.814;  -47.200; -441.000; -158.000
240.957; -117.475; -767.000; -578.000
241.100;  -99.775; -779.000; -755.000
241.243; -140.775;-1234.000; -893.000
241.386;  -56.175; -508.000; -379.000
241.529;  -89.300; -735.000; -547.000
241.672;  -53.850; -566.000; -495.000
241.815; -122.850; -832.000; -808.000
241.958;  -34.900; -125.000; -182.000
242.101;  -93.400; -545.000; -390.000
242.244;  -43.225; -270.000; -325.000
242.387;  -48.000; -304.000; -246.000
242.530;   59.050;  470.000;  134.000
242.673;  -56.075; -381.000; -309.000
242.815; -121.425; -925.000; -899.000
242.958;  -71.525; -482.000; -381.000
243.101;    8.675;  132.000;  187.000
243.244;  -87.750; -564.000; -521.000
243.387;  -40.525; -313.000; -316.000
243.530; -102.375; -657.000; -674.000
243.672;   -1.575;   43.000;  -92.000
243.815;  -59.400; -355.000; -283.000
243.958;    1.125;   98.000;  -26.000
244.101;  -14.450;   59.000;  -16.000
244.243;  -17.425;  -47.000;  101.000
244.386; -115.925; -761.000; -630.000
244.529;  -35.950; -132.000; -139.000
244.672; -157.025;-1154.000; -951.000
244.814; -105.275; -621.000; -794.000
244.957;  -58.025; -380.000; -304.000
245.100;  -70.650; -489.000; -489.000
245.242;  -52.650; -387.000; -374.000
245.385;   -7.225;  -59.000;  -39.000
245.528; -135.500; -871.000; -705.000
245.670;   71.600;  612.000;  634.000
245.813; -102.000; -599.000; -547.000
245.956;  -29.725; -324.000; -275.000
246.098;  -72.475; -508.000; -650.000
246.241;    6.400;  194.000;   48.000
246.383;  -19.075; -119.000;  -73.000
246.526;  -87.150; -454.000; -525.000
246.669; -131.000; -889.000; -780.000
246.811;   21.625;  172.000;   -1.000
246.954;  -80.125; -512.000; -426.000
247.096;  -27.200;  -84.000;   -6.000
247.239;  -75.025; -482.000; -445.000
247.381;  -76.425; -647.000; -488.000
247.524;   79.900;  645.000;  679.000
247.666;    1.650;   58.000;   11.000
247.809; -121.300; -887.000; -691.000
247.951;  -10.100;  -75.000;  138.000
248.094;   24.875;  432.000;  308.000
248.236; -167.775;-1262.000;-1238.000
248.378;   -7.925; -356.000;  -81.000
248.521;  -15.700; -334.000; -337.000
248.663;  -52.950; -236.000; -267.000
248.806;  -31.350; -300.000; -266.000
248.948; -101.875; -886.000; -763.000
249.090;  -45.275; -428.000; -398.000
249.233;  -46.475; -344.000; -381.000
249.375;  -80.550; -474.000; -451.000
249.518;  -38.950;  -83.000; -133.000
249.660;   -5.125; -103.000;    3.000
249.802; -181.350;-1303.000;-1189.000
249.945;  -69.050; -612.000; -540.000
250.087; -109.925; -834.000; -768.000
250.229;  -37.350; -362.000; -480.000
250.371;  -79.400; -494.000; -439.000
250.514;  -52.950; -310.000; -244.000
250.656;  -12.900;   69.000;  102.000
250.798; -112.775; -849.000; -800.000
250.940;  -67.925; -322.000; -322.000
251.083;  -25.050; -335.000; -111.000
251.225;   55.725;  338.000;  310.000
251.367;  -38.675; -274.000; -373.000
251.509;  -40.375; -265.000; -210.000
251.651; -106.475; -731.000; -671.000
251.794;   36.625;  538.000;  632.000
251.936; -109.625; -821.000; -747.000
252.078;  -85.625; -540.000; -461.000
252.220;  -67.975; -645.000; -477.000
252.362;   59.725;  344.000;  462.000
252.504;  -70.675; -677.000; -584.000
252.646; -124.825; -875.000; -722.000
252.788;  -14.750;   14.000; -128.000
252.931;  -45.350; -257.000; -253.000
253.073;  -39.350; -376.000; -317.000
253.215;  -14.200;  141.000;  122.000
253.357;    1.850;   82.000; -153.000
253.499;  -70.050; -374.000; -234.000
253.641;  -92.825; -749.000; -594.000
253.783; -105.350; -609.000; -527.000
253.925; -110.475; -586.000; -591.000
254.067; -126.875; -744.000; -667.000
254.209;  -26.950; -391.000; -259.000
254.351; -143.000; -865.000; -883.000
254.493;  -76.750; -441.000; -417.000
254.635; -129.725; -936.000; -818.000
254.777;  -96.700; -752.000; -687.000
254.918;  -67.050; -512.000; -430.000
255.060;  -69.200; -551.000; -395.000
255.202;  -81.300; -473.000; -261.000
255.344;  -87.050; -658.000; -455.000
255.486;  -73.700; -471.000; -406.000
255.628; -114.300; -780.000; -781.000
255.770;  -93.450; -676.000; -536.000
255.912;  -65.925; -559.000; -468.000
256.053;  -96.225; -730.000; -508.000
256.195;  150.375; 1008.000;  903.000
256.337; -101.000; -861.000; -595.000
256.479;   55.350;  532.000;  416.000
256.621;  -60.850; -394.000; -212.000
256.762; -111.825; -789.000; -742.000
256.904;   42.200;  485.000;  487.000
257.046;  -47.425; -381.000; -271.000
257.188;  -47.950; -351.000; -264.000
257.329;  -73.250; -525.000; -464.000
257.471; -128.575; -939.000; -807.000
257.613;  -70.175; -584.000; -498.000
257.755; -157.725;-1073.000; -982.000
257.896;   35.800;  286.000;  392.000
258.038;  -74.100; -403.000; -352.000
258.180;  -40.375; -354.000; -279.000
258.321;  -88.600; -581.000; -457.000
258.463;   -2.350;  -71.000;  133.000
258.605; -101.850; -562.000; -570.000
258.746; -113.950; -886.000; -772.000
258.888; -159.000;-1026.000;-1020.000
259.029;   14.175;  121.000;   -8.000
259.171;  -96.075; -614.000; -550.000
259.313;  -11.675;  -49.000;  -47.000
259.454;  -93.825; -536.000; -414.000
259.596;  -57.625; -483.000; -390.000
259.737;  -80.325; -590.000; -474.000
259.879;   35.625;  217.000;  311.000
260.020;   73.050;  901.000;  636.000
260.162;  -25.325; -146.000; -253.000
260.303; -134.075; -768.000; -687.000
260.445;  -84.950; -609.000; -613.000
260.586;   28.650;  392.000;  157.000
260.728;  -47.075; -360.000; -248.000
260.869; -107.675; -350.000; -343.000
261.011;   71.925;  706.000;  537.000
261.152;  -69.875; -479.000; -319.000
261.293;  -81.400; -576.000; -595.000
261.435;  -50.800; -219.000; -184.000
261.576;  -46.100; -455.000; -325.000
261.718;   46.675;  420.000;  470.000
261.859; -142.350; -940.000; -949.000
262.000; -151.600; -951.000;-1016.000
262.142;  -29.125;  -52.000;  -60.000
262.283; -119.225; -808.000; -691.000
262.424;  -90.125; -666.000; -625.000
262.566; -154.450;-1161.000; -983.000
262.707; -103.400; -840.000; -830.000
262.848; -120.050; -769.000; -726.000
262.990;  -52.450; -362.000; -345.000
263.131;   59.425;  650.000;  681.000
263.272;  -12.400;  -61.000;  -41.000
263.413;  -99.800; -589.000; -561.000
263.555;  -73.200; -669.000; -143.000
263.696; -108.625; -550.000; -641.000
263.837;  -73.350; -449.000; -551.000
263.978;   -6.675;   -5.000;  -77.000
264.119;  -56.425; -283.000; -264.000
264.261; -124.450; -847.000; -630.000
264.402;   -1.575;   33.000;   40.000
264.543;  -85.675; -509.000; -524.000
264.684;  -19.125;   61.000;  -50.000
264.825;  -85.375; -816.000; -538.000
264.966;  -11.050;  -84.000;  -67.000
265.107; -122.950; -646.000; -670.000
265.248; -125.150; -825.000; -812.000
265.390;  -22.675;  152.000;   -9.000
265.531;  -35.525; -238.000; -107.000
265.672; -102.225; -557.000; -630.000
265.813;   52.925;  563.000;  439.000
265.954; -156.425; -959.000; -940.000
266.095;   -6.600; -372.000; -322.000
266.236; -110.875; -686.000; -548.000
266.377;  -38.500; -243.000; -297.000
266.518;  -81.600; -619.000; -547.000
266.659;   29.225;  170.000;  268.000
266.800;    0.225;   83.000;   85.000
266.941;  -73.850; -487.000; -478.000
267.082;    5.175;  354.000;   99.000
267.223;  -53.500; -344.000; -273.000
267.364; -128.100; -892.000; -686.000
267.504;  -10.600;    3.000;  135.000
267.645;  -17.800;  160.000;   67.000
267.786;  -43.775; -147.000;  -86.000
267.927;  -68.950; -473.000; -379.000
268.068;  -24.275; -186.000;  -61.000
268.209;  -57.175; -175.000; -413.000
268.350;  -64.025; -388.000; -532.000
268.490;  -94.775; -648.000; -521.000
268.631;   35.075;  127.000;  225.000
268.772; -109.475; -874.000; -647.000
268.913;  -55.150; -328.000; -476.000
269.054;  -33.550; -117.000;   12.000
269.194;  -61.575; -418.000; -402.000
269.335; -163.000;-1137.000;-1074.000
269.476;  -25.375;   33.000;  -35.000
269.617;  -50.250; -347.000; -392.000
269.757;  -93.800; -713.000; -646.000
269.898; -113.125; -856.000; -613.000
270.039;  -57.150; -415.000; -405.000
270.180; -134.350; -952.000; -816.000
270.320;  -33.375; -190.000; -250.000
270.461;  -48.800; -277.000; -249.000
270.602;  -24.175; -186.000; -156.000
270.742; -138.750; -868.000; -943.000
270.883;  -66.125; -442.000; -390.000
271.023;  -64.650; -358.000; -357.000
271.164;  -79.425; -607.000; -528.000
271.305; -114.250; -666.000; -654.000
271.445;  -97.125; -722.000; -683.000
271.586;  -76.200; -462.000; -283.000
271.726;  -52.300; -397.000; -322.000
271.867;  -73.150; -594.000; -534.000
272.008;  156.725; -473.000; -285.000
272.148;  123.675;  462.000;  468.000
272.289;    1.650; -113.000; -181.000
272.429;   10.900;   19.000;  185.000
272.570; -101.525; -633.000; -737.000
272.710; -103.275; -825.000; -775.000
272.851;  -21.100;  113.000; -130.000
272.991; -167.950;-1173.000;-1077.000
273.131;  -62.150; -419.000; -459.000
273.272; -101.350; -683.000; -723.000
273.412;    3.900; -143.000;  -31.000
273.553;  -77.900; -488.000; -507.000
273.693;  142.125;  913.000;  858.000
273.834;  -94.525; -894.000; -692.000
273.974;  -81.275; -664.000; -615.000
274.114; -116.975; -772.000; -560.000
274.255;   57.225;  414.000;  373.000
274.395;  -13.525; -180.000; -125.000
274.535;   23.475;  199.000;  350.000
274.676;   15.125;  225.000;   94.000
274.816;   -1.200;  110.000;   34.000
274.956;  -97.775; -624.000; -690.000
275.097;  -69.675;-1014.000; -922.000
275.237; -133.375; -913.000; -803.000
275.377;  -89.250; -778.000; -689.000
275.517; -166.625; -878.000; -937.000
275.658;  -67.700; -590.000; -555.000
275.798;  -85.375; -606.000; -413.000
275.938;   16.700;  215.000;  323.000
276.078; -108.225; -626.000; -395.000
276.218;   -9.425;   99.000;  104.000
276.359; -137.850;-1026.000;-1024.000
276.499;  -76.150; -605.000; -446.000
276.639;  -51.100; -305.000; -151.000
276.779;  -67.375; -475.000; -357.000
276.919; -122.875; -783.000; -624.000
277.059;  -37.975; -261.000; -212.000
277.199;  -49.950; -357.000; -259.000
277.340;   19.550;  287.000;  175.000
277.480; -117.350; -840.000; -693.000
277.620;   13.150;  192.000;   16.000
277.760; -210.200;-1533.000;-1294.000
277.900;   18.525;  113.000;   33.000
278.040;    1.000;  137.000;  159.000
278.180;   32.150;  270.000;  170.000
278.320;  -10.575;   21.000;   56.000
278.460;  -64.575; -443.000; -469.000
278.600; -101.000; -708.000; -598.000
278.740;   40.675;  448.000;  224.000
278.880;  -85.275; -768.000; -791.000
279.020;  -25.825; -194.000; -144.000
279.160; -105.625; -672.000; -595.000
279.300; -129.100; -926.000; -873.000
279.440; -101.050; -709.000; -622.000
279.579;  -39.675;-1014.000; -929.000
279.719;  -67.725; -410.000; -394.000
279.859;   58.425;   -4.000;   41.000
279.999;   11.525; -208.000;  101.000
280.139;  -37.175; -435.000; -387.000
280.279;  -86.025; -708.000; -745.000
280.419;  -14.275; -229.000; -147.000
280.559;  -46.975; -259.000; -180.000
280.698;  -97.350; -790.000; -639.000
280.838; -107.050; -778.000; -800.000
280.978; -106.275; -846.000; -790.000
281.118; -114.750; -811.000; -704.000
281.257;   10.200;   24.000;    6.000
281.397; -120.800;-1094.000; -960.000
281.537;  -81.325; -599.000; -712.000
281.677;  -35.800; -150.000; -101.000
281.816;  -96.050; -700.000; -630.000
281.956;  -49.700; -193.000; -257.000
282.096;  -68.275; -539.000; -396.000
282.235; -106.400; -672.000; -638.000
282.375;  -25.025; -243.000;  -98.000
282.515; -115.025; -715.000; -707.000
282.654;   11.100;   29.000;  106.000
282.794;   20.075;  388.000;  244.000
282.934;  -67.475; -530.000; -491.000
283.073; -140.450;-1030.000; -857.000
283.213;  -69.300; -460.000; -467.000
283.353;  -53.500; -408.000; -349.000
283.492;  -42.450; -264.000; -296.000
283.632;  -40.750; -254.000; -168.000
283.771;  -95.875; -859.000; -730.000
283.911;  -58.375; -369.000; -260.000
284.050; -114.400; -794.000; -748.000
284.190; -168.950;-1229.000;-1096.000
284.329; -144.400;-1055.000; -964.000
284.469;  -86.025; -516.000; -591.000
284.608;  -63.175; -559.000; -598.000
284.748;  -94.550; -614.000; -570.000
284.887;   -3.050;  -87.000;  -20.000
285.027; -138.175; -844.000; -892.000
285.166;  -48.925; -192.000; -249.000
285.306;  -13.650; -116.000;  -33.000
285.445;  -46.175; -229.000; -343.000
285.584; -107.500; -630.000; -494.000
285.724;  -42.850; -282.000; -322.000
285.863; -133.700; -857.000; -507.000
286.002;  -59.500; -366.000; -276.000
286.142; -123.150; -715.000; -622.000
286.281;  -65.625; -525.000; -493.000
286.420;  -85.825; -554.000; -417.000
286.560;   94.550;  653.000;  623.000
286.699; -139.450; -958.000; -912.000
286.838;  -89.925; -590.000; -591.000
286.978;  -92.425; -533.000; -537.000
287.117; -137.950;-1085.000; -950.000
287.256;  -41.025; -228.000; -211.000
287.395;  -44.025; -197.000; -378.000
287.535;  -63.675; -370.000; -298.000
287.674;  -77.575; -509.000; -484.000
287.813;   55.400;  661.000;  533.000
287.952; -138.075;-1010.000; -871.000
288.091; -153.050;-1049.000; -915.000
288.231;  -16.125;   13.000;   15.000
288.370; -193.750;-1217.000;-1200.000
288.509;  -84.950; -728.000; -645.000
288.648;  -93.525; -770.000; -548.000
288.787;  -26.600; -243.000;  -87.000
288.926;  -64.125; -454.000; -475.000
289.065;   95.150;  859.000;  672.000
289.204;  -63.350; -377.000; -217.000
289.344; -100.825; -791.000; -690.000
289.483;   22.725;  416.000;  304.000
289.622;  -42.550; -291.000; -149.000
289.761;  -34.475; -309.000; -166.000
289.900; -107.500; -785.000; -626.000
290.039;  -28.775;  -12.000;  -95.000
290.178;  -39.700; -274.000; -180.000
290.317;  -85.950; -618.000; -479.000
290.456;  -69.350; -463.000; -451.000
290.595; -144.925; -961.000; -833.000
290.734; -147.250; -904.000; -891.000
290.873;  -76.675; -456.000; -420.000
291.011; -119.200; -833.000; -843.000
291.150; -108.175; -770.000; -682.000
291.289;  -39.975; -343.000; -110.000
291.428; -107.225; -599.000; -480.000
291.567;  -72.000; -370.000; -442.000
291.706;   -2.600;  109.000;  154.000
291.845;  -97.150; -597.000; -505.000
291.984; -173.025;-1234.000;-1061.000
292.122;   62.275;  602.000;  582.000
292.261;   27.300;  620.000;  463.000
292.400;   17.450; -144.000;  211.000
292.539; -124.775; -959.000; -813.000
292.678;  -31.800; -325.000; -300.000
292.816; -159.050;-1136.000; -965.000
292.955;  -98.025; -844.000; -684.000
293.094;  -37.225; -173.000; -337.000
293.233;  -64.025; -556.000; -400.000
293.371;  -47.850; -225.000;  -84.000
293.510; -101.275; -866.000; -780.000
293.649; -142.425; -959.000; -924.000
293.787;  -81.650;-1083.000;-1012.000
293.926;  -10.275; -113.000;  -32.000
294.065;  -49.425; -379.000; -290.000
294.203;   21.475;  298.000;  406.000
294.342;   16.150;   74.000;  156.000
294.481; 6762.725;51180.000; -836.000
294.619;  -34.125; -425.000; -582.000
294.758; -159.525;-1230.000;-1137.000
294.896;   56.775; -125.000;    5.000
295.035; -134.325;-1040.000;-1006.000
295.174; -127.125;-1082.000; -954.000
295.312;  -58.950; -323.000; -203.000
295.451;  -36.625; -307.000; -428.000
295.589;  -80.650; -389.000; -518.000
295.728;   11.850; -292.000; -165.000
295.866;   -6.250;  -36.000;  -51.000
296.005;  -65.550; -584.000; -341.000
296.143;  -83.325; -558.000; -596.000
296.282; -103.825; -957.000; -881.000
296.420;  -92.225; -657.000; -557.000
296.559; -101.500; -892.000; -633.000
296.697;  -15.200; -847.000; -665.000
296.835;   19.450;-1141.000;-1002.000
296.974;   20.600;  -23.000;   39.000
297.112;  -16.250; -443.000; -504.000
297.251; -101.775; -815.000; -755.000
297.389;   45.025; -576.000; -438.000
297.527;   23.850; -145.000;  -83.000
297.666;  -67.200; -486.000; -438.000
297.804;  -50.275; -404.000; -264.000
297.942;  -19.350; -136.000; -161.000
298.081;  -28.550; -183.000;   63.000
298.219;   51.200;  -17.000;  -19.000
298.357;   39.675; -144.000;  -71.000
298.495;    2.000; -810.000; -812.000
298.634;   49.525;  245.000;  219.000
298.772;   35.300; -220.000; -338.000
298.910;  -49.025; -309.000; -182.000
299.048;   -9.150; -130.000; -153.000
299.187;  -44.075; -350.000; -250.000
299.325;    6.025;   52.000;  122.000
299.463;   24.875; -389.000; -299.000
299.601;   77.525; -327.000; -271.000
299.739; -118.525; -908.000; -883.000
299.877;  -82.775; -791.000; -703.000
300.016;  -67.800;-1095.000; -935.000
300.154;  127.400;  -19.000; -161.000
300.292;   25.975; -428.000; -348.000
300.430;   17.625; -408.000; -291.000
300.568; -118.850; -940.000; -874.000
300.706;  -68.875; -366.000; -469.000
300.844;  -97.700;-1108.000; -979.000
300.982;   92.850;  246.000;  282.000
301.120; -109.600; -965.000; -866.000
301.258;  -77.325; -812.000; -705.000
301.396;   18.075;  104.000;  -41.000
301.534;   32.050; -218.000; -293.000
301.672;  -32.225; -664.000; -521.000
301.810;   -3.925; -613.000; -545.000
301.948;   94.725;   53.000;  149.000
302.086;  537.475; -250.000;  -32.000
302.224;  787.975; -610.000; -585.000
302.362;    8.500; -558.000; -622.000
302.500;  -62.325; -923.000; -893.000
302.638;   70.400;  128.000;  245.000
302.776;  -29.600; -352.000; -408.000
302.913;   42.100;  447.000;  236.000
303.051;  -11.925;  -86.000;  -23.000
303.189;   42.625;   90.000;  118.000
303.327;  -47.300; -341.000; -256.000
303.465;  -89.025; -832.000; -588.000
303.603;  -96.550; -805.000; -604.000
303.740;   74.700;  417.000;  241.000
303.878;   -5.375; -800.000; -759.000
304.016; -104.300; -915.000; -790.000
304.154; -144.275;-1123.000;-1152.000
304.291;  -35.075; -505.000; -554.000
304.429;    2.425;  102.000;   74.000
304.567; -133.100; -908.000; -893.000
304.705;  -69.000; -408.000; -515.000
304.842;   74.700; -616.000; -540.000
304.980;   39.075;  215.000;   35.000
305.118;   21.550; -367.000; -365.000
305.255;  -86.950; -945.000; -927.000
305.393;   49.075;  178.000;  239.000
305.531; -123.000;-1173.000; -956.000
305.668;  -72.625; -663.000; -582.000
305.806;   85.150; -358.000; -439.000
305.943;   78.425; -629.000; -637.000
306.081;   25.175; -378.000; -267.000
306.219; -102.575; -863.000; -748.000
306.356;   -3.250;  158.000;   27.000
306.494;  101.250;  981.000;  761.000
306.631;   -0.475;  -11.000;  -55.000
306.769;  -23.900; -613.000; -485.000
306.906;  -20.050; -284.000; -258.000
307.044;  -68.350; -473.000; -488.000
307.181;  -74.675; -410.000; -332.000
307.319;   10.500;  112.000;   87.000
307.456; -181.175;-1191.000;-1153.000
307.594; -102.925; -980.000; -727.000
307.731;  -27.125; -371.000; -164.000
307.868;  -19.125;  -15.000;   20.000
308.006; -144.125; -961.000; -847.000
308.143;  -81.200; -618.000; -330.000
308.281;  111.600;  -37.000; -254.000
308.418;  -31.100; -748.000; -640.000
308.555;  -81.150; -400.000; -250.000
308.693;  -76.925; -577.000; -573.000
308.830; -109.425; -712.000; -657.000
308.967;  -27.375; -215.000;  -95.000
309.105;  -66.900; -507.000; -396.000
309.242;   20.325; -468.000; -367.000
309.379;  242.675; -577.000; -655.000
309.517;  -86.725; -936.000; -948.000
309.654; -119.650; -910.000; -734.000
309.791;  -75.350; -662.000; -580.000
309.928; -128.150; -977.000; -914.000
310.065;  155.075;  819.000;  697.000
310.203;  -27.575; -825.000; -850.000
310.340;  -27.650; -465.000; -321.000
310.477;  -93.725; -412.000; -516.000
310.614;  -78.950; -383.000; -473.000
310.751;  -93.375; -427.000; -518.000
310.889;  -35.200;    1.000;   11.000
311.026; -149.950;-1161.000; -939.000
311.163;  -62.725; -386.000; -380.000
311.300;  -90.225; -512.000; -479.000
311.437;  -89.875; -658.000; -619.000
311.574; -157.900;-1226.000; -985.000
311.711;  -70.425; -595.000; -433.000
311.848;  -59.275; -380.000; -388.000
311.985;   -0.125;  270.000;   93.000
312.122; -136.425; -932.000; -762.000
312.259; -130.850; -941.000; -994.000
312.396; -107.250; -508.000; -551.000
312.533; -102.125; -812.000; -790.000
312.670; -137.425;-1070.000; -898.000
312.807;  -50.275; -352.000; -367.000
312.944;  -87.475; -513.000; -611.000
313.081;  -44.125; -150.000; -415.000
313.218; -106.175;-1111.000; -867.000
313.355;  -18.250; -531.000; -449.000
313.492;   -8.300; -455.000; -292.000
313.629;  127.275;  815.000;  735.000
313.766; -174.675;-1176.000;-1008.000
313.902;  -18.775; -186.000;   21.000
314.039;  -74.000; -372.000; -289.000
314.176;   24.200;  286.000;  192.000
314.313;  -86.725; -569.000; -473.000
314.450;  -89.475; -788.000; -684.000
314.587;  -59.925; -468.000; -480.000
314.723;  -15.100;  -78.000;  130.000
314.860;   13.400;  318.000;  332.000
314.997;   22.575;  223.000;  142.000
315.134;  -55.050; -385.000; -368.000
315.270;  -33.675; -480.000; -496.000
315.407; -145.225;-1094.000; -967.000
315.544;  -66.250; -657.000; -538.000
315.681;  -85.125; -681.000; -565.000
315.817;    8.175; -133.000; -176.000
315.954;  -11.050; -613.000; -392.000
316.091; -133.650;-1045.000;-1023.000
316.227;  -40.000;  -71.000; -179.000
316.364;   -5.175;   23.000;    6.000
316.500;  -46.325; -113.000; -300.000
316.637;  -46.600; -181.000; -302.000
316.774; -108.825; -625.000; -358.000
316.910;  -89.675; -598.000; -629.000
317.047;  -77.375; -487.000; -351.000
317.183;  -43.475; -435.000; -566.000
317.320;  -16.800; -367.000; -321.000
317.456;  -77.125; -733.000; -805.000
317.593;  -99.225; -598.000; -641.000
317.729;   -5.025;  168.000;  -67.000
317.866; -198.025;-1434.000;-1285.000
318.002; -102.400; -708.000; -948.000
318.139; -118.400; -883.000; -867.000
318.275; -116.875;-1003.000; -738.000
318.412;  -77.200; -517.000; -336.000
318.548;  -54.800; -751.000; -720.000
318.685; -121.450; -985.000; -888.000
318.821; -110.250; -762.000; -735.000
318.957;  -38.350;   34.000;  -23.000
319.094;   32.575;  297.000;  154.000
319.230;  -80.125; -756.000; -742.000
319.367;   90.675; -471.000; -520.000
319.503;   31.425; -538.000; -436.000
319.639; -102.550; -877.000; -793.000
319.775;  -81.950; -750.000; -685.000
319.912;  -63.700; -424.000; -519.000
320.048; -107.975;-1184.000;-1184.000
320.184;   62.400;   59.000;   70.000
320.321;  -82.075; -497.000; -467.000
320.457;   66.550;  475.000;  662.000
320.593;  -79.100; -375.000; -382.000
320.729; -104.675; -732.000; -734.000
320.866;  -83.250; -577.000; -635.000
321.002;  -92.825; -759.000; -809.000
321.138;  -34.275; -135.000; -211.000
321.274;   50.800; -148.000; -115.000
321.410;  -29.150; -585.000; -353.000
321.546;  -58.350;-1011.000; -911.000
321.683;   42.525;  400.000;  185.000
321.819;  -13.300;  -48.000; -117.000
321.955; -115.500; -743.000; -722.000
322.091;  -47.725; -585.000; -540.000
322.227;  -24.675; -382.000; -202.000
322.363;  -37.425; -320.000; -215.000
322.499;  -57.150; -343.000; -331.000
322.635;  145.975;  636.000;  443.000
322.771;    1.575; -139.000;   12.000
322.907;   77.375;  129.000;  327.000
323.043;  -37.725; -115.000; -206.000
323.179;  -46.150; -394.000; -363.000
323.315;   -7.875; -401.000; -371.000
323.451;   56.775; -328.000; -236.000
323.587;   46.850;  -60.000;  -77.000
323.723;   -2.750; -682.000; -601.000
323.859;  -25.000; -258.000;  -76.000
323.995;  -42.375; -467.000; -409.000
324.131; -135.250; -967.000; -892.000
324.267;  -42.800; -254.000; -276.000
324.402; -135.125; -960.000; -983.000
324.538;  -23.625; -279.000; -104.000
324.674;    9.025;  164.000;   77.000
324.810;   89.850;  226.000;  308.000
324.946;  -19.800; -810.000; -658.000
325.082;  -72.050; -568.000; -475.000
325.217;  -17.775;  -62.000;   16.000
325.353; -114.025; -764.000; -659.000
325.489;  -97.775; -540.000; -506.000
325.625;  -77.250; -579.000; -525.000
325.760;   45.050;  517.000;  376.000
325.896;  -28.975; -515.000; -702.000
326.032;  -60.000; -403.000; -352.000
326.168;  -70.025; -462.000; -369.000
326.303;  -77.450; -352.000; -461.000
326.439;  -29.350; -336.000; -276.000
326.575;   -1.850; -190.000;  -29.000
326.710;  -13.775; -156.000;  -30.000
326.846;  -17.125;  146.000;  103.000
326.982;  -95.275; -530.000; -548.000
327.117;  -82.650; -481.000; -442.000
327.253; -104.000; -745.000; -742.000
327.388; -171.450;-1137.000;-1153.000
327.524;  -66.275; -811.000; -578.000
327.659;  -38.375;  -58.000;  -22.000
327.795;  -24.125;   69.000;   45.000
327.931;  -94.475; -723.000; -499.000
328.066;  -41.275; -417.000; -276.000
328.202;  -14.625;   12.000; -129.000
328.337;   86.475;  957.000;  713.000
328.473;   16.025;  -12.000;  -74.000
328.608;  -32.325; -256.000; -267.000
328.743;  -95.625; -799.000; -664.000
328.879;   -1.500;  214.000;  114.000
329.014;  -53.200; -102.000; -122.000
329.150; -101.925; -358.000; -483.000
329.285;  -74.875; -465.000; -466.000
329.421;  -52.100; -548.000; -246.000
329.556;  -44.925;  -36.000;   85.000
329.691;  -85.675; -633.000; -615.000
329.827;  -80.525; -626.000; -480.000
329.962;  -46.975;  131.000; -301.000
330.097; -112.125; -673.000; -585.000
330.233;  -61.625; -410.000; -223.000
330.368; -125.475; -839.000; -628.000
330.503;   -8.075;    3.000;   98.000
330.638;  -12.175;  -93.000; -125.000
330.774;  -70.025; -609.000; -530.000
330.909;  -58.350; -434.000; -244.000
331.044; -105.150; -714.000; -708.000
331.179; -188.500;-1217.000;-1109.000
331.315;   -5.300;   77.000;   20.000
331.450;   14.050;  157.000;  285.000
331.585;  -89.850; -805.000; -706.000
331.720;  -86.250; -510.000; -460.000
331.855;   -1.175;  -35.000; -102.000
331.990;  241.525;   62.000;  138.000
332.126;  141.050; -110.000;   71.000
332.261;  -21.125; -379.000; -265.000
332.396;    7.300; -135.000; -242.000
332.531; -105.350;-1074.000;-1031.000
332.666;   24.400; -519.000; -363.000
332.801; -114.325; -726.000; -807.000
332.936;  -29.050; -192.000; -122.000
333.071; -163.600; -870.000; -817.000
333.206;   13.200;  307.000;  379.000
333.341;   29.600;  344.000;  418.000
333.476; -100.950; -627.000; -623.000
333.611;  -55.150; -251.000; -173.000
333.746;  -54.100; -381.000; -464.000
333.881; -130.225; -973.000; -935.000
334.016; -140.075; -936.000; -917.000
334.151; -126.075; -746.000; -702.000
334.286;    9.950;  152.000;  186.000
334.421;  -38.100; -125.000; -178.000
334.556; -101.600; -611.000; -567.000
334.690;  -99.150; -631.000; -577.000
334.825;   35.675;  381.000;   83.000
334.960;  -72.725; -285.000; -413.000
335.095;   -7.650;  135.000;  -91.000
335.230; -107.400; -722.000; -738.000
335.365; -139.575;-1084.000; -990.000
335.499; -153.150;-1108.000;-1037.000
335.634;    6.125;    9.000;  534.000
335.769; -107.175; -755.000; -720.000
335.904;  -66.850; -603.000; -561.000
336.038;  -81.500; -735.000; -657.000
336.173; -130.875;-1206.000;-1194.000
336.308;   -4.650; -116.000; -189.000
336.443;    6.150; -544.000; -634.000
336.577;  -92.950; -936.000; -787.000
336.712;   52.400;   -4.000;  -12.000
336.847;  -70.175; -724.000; -607.000
336.981;   47.275; -272.000; -208.000
337.116;  230.825;  615.000;  501.000
337.250;  106.675; -434.000; -421.000
337.385;  267.075; -297.000; -208.000
337.520;  101.525; -632.000; -603.000
337.654;  -50.150; -215.000; -126.000
337.789; -132.625; -989.000; -933.000
337.923;  -47.175; -104.000; -205.000
338.058;  -97.600; -673.000; -738.000
338.192;  -54.925; -611.000; -488.000
338.327;  -17.750;  -18.000; -155.000
338.461;  -80.350; -299.000; -469.000
338.596;  -96.725; -780.000; -638.000
338.730; -112.700; -767.000; -803.000
338.865;   92.200;  -46.000; -140.000
338.999;  -59.625; -846.000; -702.000
339.134;  -31.150; -634.000; -536.000
339.268;    1.700; -741.000; -603.000
339.403;  370.400; -740.000; -775.000
339.537;  123.875; -894.000; -820.000
339.671; -115.450; -829.000; -813.000
339.806;  -63.775; -556.000; -512.000
339.940;   20.625; -261.000; -235.000
340.074; -113.175; -685.000; -510.000
340.209;  -55.600; -351.000; -230.000
340.343;  -97.950; -517.000; -573.000
340.477;  136.650;  998.000; 1036.000
340.612;  -42.475;-1033.000; -900.000
340.746;  148.800; -199.000; -243.000
340.880;  -84.150; -924.000; -785.000
341.014;  -19.850;  -45.000; -154.000
341.149; -127.850; -756.000; -718.000
341.283; -123.025; -839.000; -754.000
341.417; -112.800;-1124.000; -938.000
341.551;   90.000; -768.000; -708.000
341.685;  -59.950; -633.000; -611.000
341.820;  -67.350; -562.000; -493.000
341.954;  -69.950; -218.000; -349.000
342.088; -168.700;-1102.000;-1019.000
342.222;   50.350;  565.000;  618.000
342.356;  -57.425; -395.000; -335.000
342.490; -110.225; -880.000; -841.000
342.624;  -41.650; -339.000; -242.000
342.758;  -30.275; -364.000; -312.000
342.892;  -81.250; -710.000; -585.000
343.026;  -52.775;  -58.000; -116.000
343.160;  -63.075; -426.000; -376.000
343.294;  -96.675; -474.000; -337.000
343.428;  -36.575; -488.000; -448.000
343.562;  -26.325; -172.000;  -23.000
343.696;  -35.250; -385.000; -314.000
343.830;  -38.550; -362.000; -356.000
343.964;    8.925; -231.000; -168.000
344.098;  756.700;  199.000;   70.000
344.232;  620.625; -266.000; -127.000
344.366;   73.250; -567.000; -453.000
344.500;   33.650; -665.000; -744.000
344.634;   14.125; -324.000; -164.000
344.768;  -37.150; -531.000; -341.000
344.902;   -2.450;  278.000;  256.000
345.035;  -88.650; -556.000; -496.000
345.169; -143.050; -933.000; -656.000
345.303;  -45.375; -308.000; -482.000
345.437;  -91.975; -826.000; -717.000
345.571;  -83.150; -675.000; -594.000
345.704;  -71.200; -309.000; -532.000
345.838;  -25.525; -331.000; -284.000
345.972;  -60.025; -543.000; -495.000
346.106;  166.100; -179.000; -190.000
346.239;  393.625; -312.000; -243.000
346.373;   -5.500; -343.000; -302.000
346.507; -142.100; -950.000; -962.000
346.640;   94.975;  -30.000;   13.000
346.774;  -75.775; -650.000; -797.000
346.908;  -13.700; -138.000;  -11.000
347.041; -120.000; -646.000; -593.000
347.175;   -1.325;  259.000;   27.000
347.309;  -81.675; -698.000; -628.000
347.442; -102.000; -883.000; -732.000
347.576;  227.750;  670.000;  668.000
347.709;  149.650; -123.000;  -52.000
347.843; -106.250; -933.000; -825.000
347.976;   30.175;  235.000;  294.000
348.110; -177.750;-1268.000;-1186.000
348.243;  -98.775; -679.000; -772.000
348.377;  -21.125;  -26.000;   60.000
348.510;   46.100;  403.000;  540.000
348.644;  -48.375;  -37.000; -159.000
348.777;  -13.500;  180.000;  191.000
348.911;  -62.975; -142.000; -112.000
349.044;  144.950;  471.000;  448.000
349.178;  107.000;-1069.000;-1006.000
349.311;  105.975;  141.000;  255.000
349.444;  -12.850; -927.000; -813.000
349.578;  -25.750; -347.000; -200.000
349.711; -132.425; -959.000; -862.000
349.845;  -19.900; -661.000; -591.000
349.978; -172.575;-1224.000;-1137.000
350.111;  -89.650; -546.000; -612.000
350.244;  -97.525; -596.000; -700.000
350.378;   -4.350; -392.000; -393.000
350.511;  -79.875; -393.000; -426.000
350.644;  -94.375; -808.000; -806.000
350.778;   -0.350;  168.000;  104.000
350.911;   -9.725;  134.000;  140.000
351.044; -101.050; -685.000; -615.000
351.177;  -37.725; -321.000; -281.000
351.310;  -37.200;    3.000; -131.000
351.444;  -90.050; -888.000; -788.000
351.577;   84.500;  140.000;   90.000
351.710;   72.725;  593.000;  417.000
351.843;  -42.175; -165.000;  -77.000
351.976;    6.175;  149.000;  -79.000
352.109; -104.750; -621.000; -612.000
352.242;  -44.550; -464.000; -419.000
352.376;  -92.800; -580.000; -636.000
352.509;  131.350; -437.000; -356.000
352.642;  -28.350; -654.000; -604.000
352.775;   49.800; -141.000;  -98.000
352.908; -128.225; -933.000; -904.000
353.041; -107.025; -814.000; -824.000
353.174;  -64.525; -551.000; -424.000
353.307;  -95.725; -753.000; -764.000
353.440;   64.625;  541.000;  453.000
353.573; -116.350; -957.000;-1008.000
353.706;  -63.700; -384.000; -558.000
353.839;  -31.700; -264.000; -220.000
353.971;  -93.475; -657.000; -512.000
354.104;  -99.825; -896.000; -835.000
354.237;  -53.625; -627.000; -662.000
354.370; -102.500; -846.000; -879.000
354.503; -197.425;-1231.000;-1308.000
354.636;  -43.675; -529.000; -348.000
354.769; -149.525; -937.000; -860.000
354.902;  -25.275; -230.000; -139.000
355.034;  -33.475; -164.000; -220.000
355.167;  -29.825; -262.000; -162.000
355.300; -119.825;-1061.000; -880.000
355.433;  984.650;  -71.000;  -14.000
355.565; 1534.850; -402.000; -384.000
355.698;  386.100; -356.000; -296.000
355.831;  -13.975; -882.000; -801.000
355.964;   50.075; -285.000; -170.000
356.096; -101.125; -856.000; -843.000
356.229;  -10.150; -523.000; -530.000
356.362;  326.650; -373.000; -266.000
356.494;  603.075; -229.000; -162.000
356.627;  425.575;  269.000;  377.000
356.760;  677.075;  120.000;   53.000
356.892;  987.025; -286.000; -601.000
357.025;  563.525;  403.000;  389.000
357.157;  497.725; -167.000; -179.000
357.290;  739.025; -856.000; -713.000
357.423;  198.000; -667.000; -556.000
357.555;   76.700; -217.000; -228.000
357.688;   81.575; -483.000; -364.000
357.820;  387.000; -870.000; -877.000
357.953; 3353.800; -563.000; -589.000
358.085;  694.350; -632.000; -612.000
358.218;  851.300;-1131.000; -932.000
358.350;  167.875;  -58.000;  312.000
358.483; -148.675;-1300.000;-1187.000
358.615;  -46.975;-1182.000;-1078.000
358.747; -100.075;-1187.000;-1058.000
358.880;   -9.025; -810.000; -744.000
359.012;  -25.125; -376.000; -202.000
359.145;  -40.125; -480.000; -511.000
359.277;   37.475; -962.000; -913.000
359.409; 2767.350;  536.000;  231.000
359.542;  700.525; -738.000; -688.000
359.674;   52.825;   46.000;   13.000
359.806;  -71.300; -565.000; -438.000
359.939;  -59.050; -617.000; -516.000
360.071;  -23.900; -583.000; -579.000
360.203;  -24.300; -411.000; -364.000
360.335;   29.025;  164.000;  -16.000
360.468;  177.675; -249.000; -307.000
360.600; 2248.300; -547.000; -454.000
360.732; 2990.200; -546.000; -423.000
360.864;  393.200;-1216.000;-1044.000
360.996;  200.675; -516.000; -554.000
361.129;    4.550; -389.000; -598.000
361.261;   11.325;  110.000; -113.000
361.393;  -39.775; -252.000; -214.000
361.525;   22.225;   94.000;  244.000
361.657;  -60.000; -821.000; -703.000
361.789;    0.550; -139.000; -155.000
361.921;  139.350; -642.000; -593.000
362.053;  211.050;  524.000;  541.000
362.185;   37.600;  288.000;   72.000
362.318; -104.125; -709.000; -705.000
362.450;   70.600;  294.000;  444.000
362.582;   28.700; -913.000; -870.000
362.714;  -50.600; -353.000; -332.000
362.846;  -92.725; -606.000; -490.000
362.978; -147.975; -941.000; -811.000
363.109;   27.350; -161.000; -260.000
363.241;  332.075; -739.000; -749.000
363.373;  432.475; -649.000; -564.000
363.505;  684.950; -186.000;  -91.000
363.637;  165.675; -787.000; -601.000
363.769; -135.325;-1067.000;-1080.000
363.901;  -73.225; -596.000; -654.000
364.033; -147.450;-1103.000;-1062.000
364.165;  -16.025; -283.000; -283.000
364.296;   70.800; -316.000; -177.000
364.428;   86.425;-1344.000;-1220.000
364.560;  -75.175; -679.000; -661.000
364.692;  -69.525; -738.000; -835.000
364.824;  161.725; -588.000; -456.000
364.955;  419.750; -402.000; -564.000
365.087; 1018.850;-1097.000; -852.000
365.219;   24.775; -686.000; -816.000
365.351;  -79.500; -526.000; -572.000
365.482;   42.250;  300.000;  240.000
365.614;  -67.675; -402.000; -314.000
365.746; -103.525; -729.000; -752.000
365.877; -118.575; -706.000; -672.000
366.009;  254.650;  -35.000;  -62.000
366.141;  -89.800;-1249.000;-1134.000
366.272; -103.050; -803.000; -719.000
366.404; -119.300;-1005.000; -874.000
366.535;  -23.850; -139.000;  -12.000
366.667; -107.900; -644.000; -649.000
366.799;   32.375;  353.000;  203.000
366.930; -130.475; -862.000; -996.000
367.062;  106.800; -639.000; -613.000
367.193;  170.175; -872.000; -842.000
367.325;  -68.275; -580.000; -684.000
367.456;   10.950; -246.000;   31.000
367.588;  172.575; -371.000; -318.000
367.719;   -8.650;  -44.000;  -45.000
367.851;  -52.325; -222.000; -241.000
367.982;  -61.325; -875.000; -732.000
368.113;   69.800; -475.000; -358.000
368.245; -142.800; -960.000; -841.000
368.376;  -34.800; -254.000; -302.000
368.508;  -56.350; -188.000; -263.000
368.639; -137.475;-1166.000;-1034.000
368.770;  -43.425; -670.000; -589.000
368.902;  -75.225; -836.000; -926.000
369.033; -111.975; -906.000; -855.000
369.164;  -47.725; -720.000; -653.000
369.296; -121.100; -452.000; -601.000
369.427;  -18.750; -209.000; -144.000
369.558;  -63.650; -593.000; -377.000
369.689;  -90.475; -721.000; -569.000
369.821; -141.175; -951.000; -845.000
369.952;  -16.500;   42.000; -108.000
370.083;  -62.650; -229.000; -108.000
370.214;  -91.000; -735.000; -650.000
370.345;  -12.850;   65.000;   81.000
370.477; -106.600; -810.000; -790.000
370.608;  155.775; -328.000; -264.000
370.739;  -65.325;-1233.000;-1292.000
370.870;  -74.100;-1102.000; -923.000
371.001;   62.200; -378.000; -467.000
371.132;  -95.775; -754.000; -735.000
371.263;  -24.475;  -42.000; -148.000
371.394; -144.550; -841.000; -748.000
371.525;   17.225;  345.000;  225.000
371.657; -116.125; -808.000; -670.000
371.788;   68.075;  103.000;  199.000
371.919;  123.550; -384.000; -304.000
372.050; 3128.300;  -91.000; -156.000
372.181;  947.375; -188.000; -294.000
372.311;  289.775;   42.000; -127.000
372.442;   15.175; -457.000; -451.000
372.573;  -22.525; -444.000; -340.000
372.704; -136.525;-1008.000; -980.000
372.835;   54.350; -228.000; -289.000
372.966;  -80.075; -646.000; -554.000
373.097;  -81.525; -575.000; -711.000
373.228;  -53.950; -717.000; -542.000
373.359;   83.800; -824.000; -536.000
373.490;  738.125; -881.000; -727.000
373.620;  940.625;-1001.000; -803.000
373.751; 1457.850; -332.000; -396.000
373.882;  652.225; -663.000; -733.000
374.013;   25.200; -449.000; -262.000
374.143;  -43.475; -581.000; -659.000
374.274; -112.400; -987.000; -908.000
374.405;  128.000; -388.000; -276.000
374.536;  343.600; -526.000; -387.000
374.666;  909.875; -759.000; -807.000
374.797;  156.275; -817.000; -868.000
374.928;  705.675; -710.000; -560.000
375.058;  714.750; -535.000; -500.000
375.189;   47.825;  -59.000;  -93.000
375.320; -106.475; -928.000;-1034.000
375.450;  -52.700; -625.000; -616.000
375.581;  -73.700; -526.000; -436.000
375.712;  -42.125; -574.000; -250.000
375.842;  229.600; -438.000; -415.000
375.973;  151.900; -554.000; -513.000
376.103;  -65.900; -665.000; -648.000
376.234;  -88.975; -531.000; -552.000
376.364;  -65.800; -944.000; -867.000
376.495;  279.275;  925.000;  529.000
376.625;  -45.400; -472.000; -485.000
376.756;   20.800; -709.000; -678.000
376.886; -100.325;-1178.000;-1026.000
377.017;   42.175;-1048.000;-1061.000
377.147;  370.875; -786.000; -782.000
377.278;   50.150;  174.000;  228.000
377.408; -133.475; -801.000; -815.000
377.538; -101.975; -707.000; -693.000
377.669;  -94.525; -537.000; -613.000
377.799; -102.675; -645.000; -635.000
377.929;  -88.625; -610.000; -428.000
378.060; -140.450; -781.000; -847.000
378.190;  -63.800; -726.000; -531.000
378.320;  -65.450; -401.000; -406.000
378.451;  -39.675; -131.000;  -22.000
378.581;  -17.150;  -67.000; -110.000
378.711;  139.550; 1035.000;  866.000
378.841;  -41.550; -533.000; -675.000
378.972;  -98.175; -871.000; -751.000
379.102;  -30.575; -652.000; -579.000
379.232;  -28.950; -126.000;  -73.000
379.362; -117.575;-1001.000; -885.000
379.492;  -33.225; -373.000; -424.000
379.623;   90.150;    0.000;  111.000
379.753; -119.400;-1107.000; -974.000
379.883;  141.225;   59.000;  156.000
380.013;  -49.175;-1081.000;-1017.000
380.143; -113.725;-1097.000;-1056.000
380.273; -117.450; -985.000; -861.000
380.403;  -19.000; -344.000; -257.000
380.533;  -57.775; -651.000; -664.000
380.663;   51.850;  173.000;  128.000
380.793; -122.000;-1027.000;-1074.000
380.923;  -46.275; -103.000;  -34.000
381.053; -110.575; -613.000; -623.000
381.183;  -46.225; -106.000; -248.000
381.313;    4.475; -656.000; -470.000
381.443;   10.050; -692.000; -473.000
381.573;  112.250; -402.000; -409.000
381.703;  178.925;-1249.000;-1095.000
381.833; -163.425;-1454.000;-1336.000
381.963;   97.075; -134.000;  -87.000
382.093; 1204.450; -925.000; -909.000
382.223;  356.800; -713.000; -602.000
382.353;  -46.200; -801.000; -608.000
382.482;  284.450;-1091.000; -964.000
382.612;  625.375; -872.000; -644.000
382.742;  353.750; -695.000; -622.000
382.872;  176.975; -565.000; -551.000
383.002;   51.025;  347.000; -132.000
383.131;  -49.025; -226.000; -160.000
383.261;  -61.425; -706.000; -768.000
383.391;  246.700; -552.000; -377.000
383.521; 3416.450;  451.000;  263.000
383.650;  847.950; -947.000; -904.000
383.780;  -22.450; -783.000; -656.000
383.910;   93.825;  880.000;  802.000
384.039;   -6.925; -794.000; -656.000
384.169;  125.750;-1205.000;-1017.000
384.299;  -48.175; -650.000; -662.000
384.428; -103.375; -764.000; -680.000
384.558;  -51.800; -308.000; -275.000
384.687;  -71.875; -414.000; -334.000
384.817;    6.275;   75.000;   -2.000
384.947;  -13.975; -234.000; -141.000
385.076;  250.025;  982.000;  912.000
385.206;   70.475;  369.000;  480.000
385.335;  -54.350; -549.000; -417.000
385.465; -117.225; -655.000; -663.000
385.594;   77.450;  -53.000;  -44.000
385.724;  313.875; -868.000; -838.000
385.853;   82.400; -296.000; -270.000
385.982; 1135.475; -743.000; -787.000
386.112; 1805.650;-1052.000; -871.000
386.241;   96.825; -307.000; -312.000
386.371;   -0.625; -174.000;  -87.000
386.500;  -21.425; -825.000; -789.000
386.629;   -2.800; -874.000; -817.000
386.759;   47.925;  -43.000;   68.000
386.888;  -13.825; -170.000; -250.000
387.017; -100.700; -648.000; -620.000
387.147; -111.100; -771.000; -798.000
387.276;  -35.750; -410.000; -397.000
387.405;  -13.050; -398.000; -342.000
387.535;  -64.650; -452.000; -361.000
387.664;  -69.350; -692.000; -620.000
387.793;   25.275; -198.000; -113.000
387.922;  409.450;  255.000;  200.000
388.052;  -14.250; -576.000; -423.000
388.181;  -20.575; -342.000; -472.000
388.310;  -65.000; -889.000; -710.000
388.439;  -77.175; -749.000; -742.000
388.568;  149.625;  365.000;  244.000
388.697;  846.125; -756.000; -653.000
388.826;  155.325; -768.000; -666.000
388.956;   30.125; -285.000; -307.000
389.085;  -45.475; -347.000; -287.000
389.214; -119.500; -842.000; -872.000
389.343;  -81.875; -645.000; -413.000
389.472;  405.925;  126.000;  149.000
389.601;  507.550;   91.000;    0.000
389.730;   -7.900; -568.000; -687.000
389.859;   38.650;  226.000;   46.000
389.988;  126.775; -423.000; -408.000
390.117;   97.775; -168.000; -146.000
390.246;  -36.300; -331.000; -320.000
390.375;   47.900; -673.000; -626.000
390.504;  -73.850; -703.000; -621.000
390.633; -108.325; -672.000; -726.000
390.761;  -82.550; -732.000; -645.000
390.890;    5.500;   -4.000; -130.000
391.019;  -48.500; -421.000; -441.000
391.148; -139.400; -826.000; -855.000
391.277;  -83.075; -576.000; -493.000
391.406; -111.500; -821.000; -805.000
391.534;   -6.075;  574.000; -301.000
391.663;  -79.850; -583.000; -645.000
391.792;  -89.550; -673.000; -701.000
391.921;   47.950;   -3.000;   15.000
392.050;  116.575; -287.000; -228.000
392.178;  -70.550;-1206.000;-1061.000
392.307;  117.300; -758.000; -712.000
392.436;   40.350; -427.000; -641.000
392.564;    0.125;  166.000;   -6.000
392.693; -106.775; -860.000; -682.000
392.822;  130.925; -529.000; -534.000
392.950;   38.025; -880.000; -714.000
393.079;  251.500; -188.000; -328.000
393.208;    0.175; -488.000; -511.000
393.336;  -20.525; -170.000; -145.000
393.465;  -52.375; -317.000; -199.000
393.593;  -12.150;   62.000;   79.000
393.722; -170.300;-1121.000; -916.000
393.850;  -40.975; -188.000;  -61.000
393.979; -151.800; -926.000; -805.000
394.107;  -74.375; -517.000; -537.000
394.236;  -40.200; -570.000; -507.000
394.364;  177.325;  383.000;  206.000
394.493;  259.825; -911.000; -767.000
394.621;  -19.950; -955.000; -916.000
394.750;  726.025; -873.000; -923.000
394.878; 3021.525; -247.000; -149.000
395.007; 4154.400; -721.000; -807.000
395.135;  324.300; -790.000; -721.000
395.263; -106.175;-1038.000;-1040.000
395.392;   18.475;  -25.000; -107.000
395.520; -143.175; -818.000; -679.000
395.648; -103.575; -865.000; -915.000
395.777;  -26.900; -366.000; -405.000
395.905;  -60.875; -449.000; -564.000
396.033;   -0.700;  217.000;  172.000
396.162;  454.600; -399.000; -453.000
396.290;  396.425;  -17.000;   -2.000
396.418;   38.875; -555.000; -514.000
396.546;  -90.625; -571.000; -466.000
396.674; -111.050; -850.000; -878.000
396.803;   -0.850;  -72.000;  -23.000
396.931;   44.225; -179.000; -199.000
397.059;  -24.775;-1026.000; -989.000
397.187; -119.275;-1026.000; -975.000
397.315; -134.950; -884.000; -649.000
397.443; -108.750; -592.000; -443.000
397.572; -108.800; -578.000; -424.000
397.700;  -40.600; -607.000; -614.000
397.828;   -8.350;  120.000;  -90.000
397.956;  -46.125; -508.000; -478.000
398.084;  -84.350; -767.000; -626.000
398.212;   13.025;  137.000;  124.000
398.340;  -13.775;  -56.000;  159.000
398.468;    2.450; -390.000; -169.000
398.596; -148.225; -993.000; -953.000
398.724; -121.400; -762.000; -767.000
398.852; -157.825;-1024.000; -976.000
398.980;  -83.500; -560.000; -560.000
399.108;  -71.500; -982.000; -735.000
399.236;   19.525;   13.000;    8.000
399.363;  -10.325;  222.000;  196.000
399.491;  -75.025; -404.000; -398.000
399.619; -127.075; -829.000; -800.000
399.747;  -99.800; -859.000; -771.000
399.875;   54.325;  220.000;  234.000
400.003;  -66.825; -359.000; -284.000
400.130; -105.825; -421.000; -341.000
400.258;  -44.975;  -83.000;   38.000
400.386;  -83.875; -352.000; -168.000
400.514;  -69.050; -526.000; -587.000
400.641; -117.050; -928.000; -802.000
400.769; -146.325; -979.000; -888.000
400.897; -131.300; -838.000; -793.000
401.025;  -36.475; -166.000; -152.000
401.152;  -11.950;  220.000;   38.000
401.280;  -93.650; -430.000; -429.000
401.408; -137.000; -712.000; -576.000
401.535; -110.375; -735.000; -758.000
401.663; -197.275;-1134.000;-1054.000
401.790;  -87.625; -514.000; -525.000
401.918;   37.400;  436.000;  405.000
402.046;  -44.150;  134.000;  122.000
402.173;  -53.325;  -18.000;    7.000
402.301;  -89.875; -519.000; -397.000
402.428;   39.200;  528.000;  383.000
402.556; -152.825;-1188.000; -913.000
402.683;  -46.250;  -20.000;   -1.000
402.811;  -27.800;  -37.000; -206.000
402.938;  -20.125;   20.000;   27.000
403.066;  123.800; -574.000; -558.000
403.193;  272.800;  299.000;  239.000
403.321;  187.025; -396.000; -574.000
403.448;  258.575;   83.000;   27.000
403.575;  121.800;  -90.000;  -46.000
403.703; -111.450; -732.000; -557.000
403.830;  -67.775; -531.000; -496.000
403.957; -143.975;-1117.000;-1023.000
404.085;   12.000;  -61.000; -172.000
404.212;   75.075;  -50.000;   63.000
404.339;  275.375; -566.000; -306.000
404.467; 5974.975; -612.000; -524.000
404.594; 3842.925; -287.000; -227.000
404.721;  842.875; -869.000; -764.000
404.848;   60.575; -113.000; -202.000
404.976; -112.250; -856.000; -783.000
405.103;  -17.475;  -14.000;  -82.000
405.230;  -27.500;  190.000;  226.000
405.357;   19.700;  117.000;   44.000
405.484;  265.775;  -49.000;    5.000
405.612;   39.200; -548.000; -563.000
405.739;  -67.750; -488.000; -243.000
405.866;   93.750;  669.000;  385.000
405.993;  -57.700; -398.000; -102.000
406.120; -143.700; -801.000; -887.000
406.247;  -77.475; -323.000; -342.000
406.374;  336.450;  540.000;  629.000
406.501;   55.075; -632.000; -702.000
406.628; -100.000; -621.000; -589.000
406.755; -104.425; -803.000; -620.000
406.882;  -37.100; -228.000; -277.000
407.009; -123.500; -719.000; -628.000
407.136;   17.850; -480.000; -401.000
407.263;   50.175; -939.000; -829.000
407.390;  -94.400; -692.000; -614.000
407.517; -186.750;-1139.000;-1187.000
407.644;  -59.450; -332.000; -256.000
407.771;  -90.575; -249.000; -287.000
407.898;    1.650;  168.000;  328.000
408.025;  -85.225; -421.000; -313.000
408.151;  -25.500;   82.000;  153.000
408.278;  -92.200; -267.000; -216.000
408.405; -126.050; -931.000; -899.000
408.532;  -80.200; -549.000; -542.000
408.659; -109.275; -677.000; -648.000
408.785; -205.950;-1298.000;-1170.000
408.912;  -70.350; -412.000; -296.000
409.039; -128.775; -610.000; -686.000
409.166; -112.600; -591.000; -555.000
409.292; -111.325; -571.000; -534.000
409.419; -124.525; -665.000; -649.000
409.546; -109.225; -431.000; -192.000
409.672; -115.125; -713.000; -545.000
409.799;  -39.250;  -36.000;   34.000
409.926;  -53.475; -180.000; -179.000
410.052; -183.025;-1127.000;-1091.000
410.179;  -75.600; -368.000; -392.000
410.305;  -98.150; -375.000; -493.000
410.432;  -50.675; -220.000; -333.000
410.558; -101.475; -305.000; -380.000
410.685; -113.050; -688.000; -431.000
410.812; -112.625; -409.000; -588.000
410.938; -146.875; -964.000; -808.000
411.065; -113.400; -671.000; -645.000
411.191;  -33.175; -189.000; -174.000
411.317; -134.150; -823.000; -742.000
411.444;  -58.925; -317.000; -246.000
411.570;  -85.650; -339.000; -294.000
411.697; -132.500; -758.000; -752.000
411.823; -185.000; -989.000; -999.000
411.949;  -48.600;  -56.000;   17.000
412.076; -122.825; -539.000; -519.000
412.202; -123.500; -758.000; -757.000
412.329; -135.975; -798.000; -752.000
412.455; -131.500; -821.000; -657.000
412.581;  -41.325;  -15.000;  172.000
412.707;  -84.800; -540.000; -457.000
412.834;   -7.800;  156.000;  219.000
412.960;  -91.050; -785.000; -784.000
413.086; -117.025; -743.000; -701.000
413.212;  127.150;  604.000;  578.000
413.339;  -93.625; -685.000; -701.000
413.465;  -11.350; -364.000; -310.000
413.591; -106.150; -757.000; -474.000
413.717;  -54.750; -358.000; -366.000
413.843; -148.700; -839.000; -861.000
413.969;  -63.400;  -47.000; -292.000
414.096; -101.175; -679.000; -679.000
414.222;   -1.225;  -33.000;   85.000
414.348;  -50.975; -652.000; -385.000
414.474;   66.300;   38.000;  -52.000
414.600;  -17.925; -126.000; -144.000
414.726;  -25.000;  -96.000;  -55.000
414.852;  -72.725; -365.000; -342.000
414.978;   22.700;  104.000;  -18.000
415.104;   28.275;   38.000;   80.000
415.230;   19.125; -329.000; -330.000
415.356;   30.725; -409.000; -514.000
415.482;  187.175;   13.000;  -35.000
415.608;  258.900; -247.000; -323.000
415.734;  962.425;   67.000;   38.000
415.860;20117.975; -875.000; -767.000
415.986;15072.450; -685.000; -607.000
416.111; 1286.775; -798.000; -652.000
416.237;  256.625; -424.000; -571.000
416.363; 1172.100; -765.000; -733.000
416.489; 4427.925; -324.000; -251.000
416.615;  494.400; -707.000; -742.000
416.741;  -15.100; -677.000; -784.000
416.866; -101.175; -673.000; -736.000
416.992; -132.375; -801.000; -818.000
417.118;  -47.725;  -41.000;  -80.000
417.244;  -77.975; -798.000; -531.000
417.369;  -99.750; -801.000; -612.000
417.495;  -23.325; -325.000; -254.000
417.621; -101.425;-1015.000; -803.000
417.746;   -9.925; -579.000; -572.000
417.872;   38.675; -254.000; -144.000
417.998;   58.750; -515.000; -530.000
418.123; 1060.875;-1073.000; -845.000
418.249; 5645.700; -512.000; -601.000
418.374;  789.975; -916.000; -824.000
418.500;  120.050; -383.000; -482.000
418.626;  102.550;   70.000;  -59.000
418.751;   99.000; -549.000; -448.000
418.877;  203.500; -637.000; -643.000
419.002; 1846.350; -688.000; -560.000
419.128;13178.950; -930.000; -721.000
419.253; 3312.450; -967.000; -837.000
419.379;  431.975; -391.000; -338.000
419.504;  405.000;  325.000;  415.000
419.629;  514.350; -393.000; -212.000
419.755; 3728.275; -317.000; -254.000
419.880;22563.825;  -98.000;   67.000
420.006;11965.750; -280.000; -221.000
420.131;30725.975; -662.000; -775.000
420.256; 4504.350; -315.000; -316.000
420.382;  558.900; -665.000; -687.000
420.507;   78.875; -649.000; -778.000
420.632;   84.150; -337.000; -339.000
420.758;  156.025; -251.000; -425.000
420.883;  -99.450; -876.000; -672.000
421.008; -106.975; -775.000; -619.000
421.133;  -96.375; -509.000; -467.000
421.259;  -52.975; -325.000; -259.000
421.384; -133.800; -834.000; -693.000
421.509;  -77.025;-1052.000; -862.000
421.634;  841.100; -936.000; -820.000
421.759;  378.700; -359.000; -327.000
421.885;  -78.750; -717.000; -656.000
422.010;  -90.400; -673.000; -542.000
422.135; -157.725; -695.000; -727.000
422.260;   24.800;  340.000;  280.000
422.385;  -42.200;   12.000;  -98.000
422.510;    0.100;  151.000;  -26.000
422.635;    8.375;  -87.000;  -43.000
422.760;   65.200; -766.000; -791.000
422.885;   34.500;  -57.000;  -80.000
423.010;  -32.075; -112.000; -169.000
423.135; -101.800; -481.000; -561.000
423.260;  -27.900; -150.000; -245.000
423.385;   40.700;  476.000;  222.000
423.510;   14.525;   71.000;  -22.000
423.635;   42.875;  133.000;   45.000
423.760;   53.125;  383.000;  328.000
423.885;   27.550;  336.000;  391.000
424.010;    2.025;  -68.000;  -13.000
424.135;  -20.675;    5.000;  -33.000
424.259;  -83.650; -654.000; -457.000
424.384;  -69.125; -279.000; -272.000
424.509;  -34.300; -260.000; -186.000
424.634;  -97.875; -761.000; -623.000
424.759;  -32.500; -688.000; -544.000
424.883;  -13.425; -506.000; -527.000
425.008;  149.500; -502.000; -410.000
425.133; 2067.850; -679.000; -653.000
425.258;  989.225; -517.000; -381.000
425.382;  885.675; -867.000; -774.000
425.507; 2314.500; -487.000; -543.000
425.632;  434.400; -802.000; -663.000
425.756;  475.950; -256.000; -146.000
425.881; 6923.100; -831.000; -857.000
426.006;19398.450; -604.000; -355.000
426.130; 3035.075; -696.000; -508.000
426.255;  389.475; -611.000; -491.000
426.379;  150.125; -189.000; -577.000
426.504;  371.075;  660.000;  544.000
426.629; 4072.475; -519.000; -466.000
426.753; 2901.150;   64.000;  -46.000
426.878;  327.050; -252.000; -288.000
427.002;  133.550; -651.000; -668.000
427.127; 1571.850;  -35.000; -158.000
427.251;11927.475;  372.000;  401.000
427.375; 3461.125; -191.000; -173.000
427.500; 2081.275; -616.000; -610.000
427.624;  694.425; -234.000; -400.000
427.749;   70.175; -216.000; -225.000
427.873;  -51.650; -499.000; -412.000
427.997;  -49.000; -222.000; -230.000
428.122;   60.675;  795.000;  703.000
428.246;   59.300;  433.000;  434.000
428.371; -143.175; -869.000; -773.000
428.495; -111.025; -624.000; -646.000
428.619;  -46.350; -186.000; -117.000
428.743;   19.500;   65.000;  132.000
428.868;  -14.225; -732.000; -643.000
428.992; 1213.575; -219.000; -326.000
429.116;  466.775; -329.000; -357.000
429.240;  221.800;  419.000;  426.000
429.365;  -39.550; -454.000; -574.000
429.489;  -60.725; -638.000; -647.000
429.613;   16.125; -236.000; -177.000
429.737;   31.775; -563.000; -432.000
429.861;  248.050; -247.000; -133.000
429.985; 5708.225; -425.000; -305.000
430.109; 6390.225; -770.000; -908.000
430.234;  742.375;   76.000;  -50.000
430.358;   63.950; -250.000; -160.000
430.482;  -75.950; -672.000; -564.000
430.606;  -84.075; -655.000; -375.000
430.730;  -11.875; -437.000; -388.000
430.854;   46.050; -909.000; -835.000
430.978;  -94.450; -795.000; -764.000
431.102; -120.075; -499.000; -422.000
431.226; -127.750; -874.000; -815.000
431.350;   11.200;  345.000;  422.000
431.474;  -90.375; -661.000; -373.000
431.597; -159.150;-1060.000; -848.000
431.721;  -98.625; -276.000; -267.000
431.845; -143.725; -704.000; -472.000
431.969;  -85.475; -304.000; -349.000
432.093;  -89.375; -395.000; -317.000
432.217;   -5.050;   32.000;   82.000
432.341;  -92.725; -523.000; -518.000
432.464;  -20.275;   96.000;   40.000
432.588;  116.175; -401.000; -329.000
432.712;   60.350;  -52.000;  -52.000
432.836;   33.300;  213.000;  263.000
432.959;  -19.675; -372.000; -311.000
433.083;  102.425;   11.000;    2.000
433.207;  372.425;  285.000;  930.000
433.330; 5269.550; -391.000; -200.000
433.454; 6610.575; -654.000; -638.000
433.578; 3795.750;  583.000;  278.000
433.701;  724.025; -623.000; -675.000
433.825;  103.300; -292.000; -299.000
433.949;  105.250;   28.000;  -72.000
434.072;   16.450; -410.000; -323.000
434.196;  -11.850; -309.000; -117.000
434.319; 3650.250;25482.000;25124.000
434.443;  689.875; -656.000; -603.000
434.566; 2783.750;  281.000;   62.000
434.690;  487.275; -637.000; -383.000
434.813;   37.400; -251.000; -173.000
434.937;  -84.575; -569.000; -696.000
435.060;  -73.500; -423.000; -332.000
435.184;  174.200; -492.000; -217.000
435.307;   92.925;  159.000;  102.000
435.431;  -27.025;  -40.000;   24.000
435.554;  -94.975; -399.000; -240.000
435.677;  -92.650; -350.000; -258.000
435.801;  -47.925;  -25.000;   49.000
435.924;  -30.175;    1.000;  -67.000
436.048; -134.925;-1019.000; -732.000
436.171;  -74.550; -240.000;  -66.000
436.294;  -37.425; -248.000; -229.000
436.417;   98.825; -963.000; -849.000
436.541;  -81.825; -814.000; -840.000
436.664;  -59.150; -242.000; -316.000
436.787;  -57.375;   13.000;  113.000
436.910; -110.150; -792.000; -422.000
437.034;  -19.150;  142.000;  143.000
437.157;   25.625;  -11.000;    0.000
437.280;  -77.750; -392.000; -292.000
437.403; -128.875; -982.000; -869.000
437.526;  391.875; -903.000; -865.000
437.649; 1662.625; -505.000; -332.000
437.772;  222.775; -692.000; -540.000
437.896;   80.150;  700.000;  544.000
438.019; -115.850; -758.000; -503.000
438.142;  -98.375; -596.000; -506.000
438.265;  -64.025; -639.000; -670.000
438.388;  406.525; -520.000; -410.000
438.511;   31.650; -597.000; -394.000
438.634;  -59.050; -247.000; -125.000
438.757; -143.375; -693.000; -619.000
438.880;  -22.075;  -34.000;  -57.000
439.003;  -96.200; -417.000; -437.000
439.126;  -69.050; -287.000; -167.000
439.248;  -75.375;  -98.000; -139.000
439.371;  -51.725;    9.000;  -53.000
439.494;   -0.150;  510.000;  439.000
439.617;  -67.175;   65.000;  -88.000
439.740; -189.750; -968.000; -816.000
439.863; -148.850; -755.000; -595.000
439.986; -124.900; -476.000; -431.000
440.108;  -54.875; -161.000; -112.000
440.231; -167.250; -950.000; -836.000
440.354;  -54.925;  -64.000; -150.000
440.477;  -22.500; -566.000; -542.000
440.599;  -26.475; -200.000; -225.000
440.722; -139.725; -709.000; -586.000
440.845;   53.700;  751.000;  928.000
440.968; -129.025; -415.000; -311.000
441.090;  -69.875; -199.000;  -33.000
441.213; -185.525;-1021.000; -825.000
441.336;  -68.975; -159.000;   -5.000
441.458;  -95.550; -549.000; -396.000
441.581; -115.275; -628.000; -629.000
441.703;  -74.150; -152.000;   13.000
441.826; -132.075; -557.000; -400.000
441.948;  -64.850;   56.000;   51.000
442.071;   16.675;  555.000;  424.000
442.193; -125.750; -531.000; -485.000
442.316;   13.900;  152.000;   97.000
442.438;   35.725; -233.000;  -10.000
442.561;   59.750;  272.000;  262.000
442.683;  354.925; -809.000; -522.000
442.806;  868.975;   -8.000;   74.000
442.928;  -24.350; -859.000; -604.000
443.051;  -81.225; -577.000; -373.000
443.173; -108.575; -341.000; -339.000
443.295;  -85.975; -263.000; -371.000
443.418;  -79.150; -321.000;  -29.000
443.540;  -14.350; -106.000;   -4.000
443.662; -145.550; -563.000; -465.000
443.785;  -22.600;  335.000;  199.000
443.907; -103.825; -362.000; -208.000
444.029; -131.150; -767.000; -494.000
444.152; -144.425; -644.000; -554.000
444.274;  -41.250;  -18.000;  -24.000
444.396; -114.025; -461.000; -221.000
444.518; -135.075; -691.000; -454.000
444.640; -116.425; -268.000; -111.000
444.763;  -23.475;  388.000;  249.000
444.885; -126.875; -432.000; -392.000
445.007;  -35.000;   35.000;   86.000
445.129; -125.500; -610.000; -515.000
445.251; -118.350; -372.000; -439.000
445.373; -153.075; -537.000; -386.000
445.495;   -1.450;  242.000;  350.000
445.617;   20.900;  853.000;  753.000
445.739;  -75.750; -215.000;  -97.000
445.861;  -45.150; -245.000; -112.000
445.984;  -32.275; -267.000; -101.000
446.105;  132.225; -418.000; -251.000
446.227;  450.425; -176.000;  -19.000
446.349;  -24.025; -358.000; -249.000
446.471; -114.800; -615.000; -448.000
446.593;  -71.225; -316.000;   19.000
446.715;  -31.100;  -67.000;   41.000
446.837;   57.325;  697.000;  832.000
446.959; -106.775; -457.000; -478.000
447.081; -150.175; -628.000; -518.000
447.203;   45.400;  862.000;  834.000
447.325;  -90.375; -270.000;   42.000
447.446;  -32.750;  286.000;  530.000
447.568; -177.550; -921.000; -803.000
447.690;  -84.725; -236.000; -245.000
447.812; -164.125; -798.000; -519.000
447.933;  -37.175;  155.000;  127.000
448.055;  -80.225; -306.000; -261.000
448.177;   99.150;   31.000;   79.000
448.299;   20.000; -935.000; -727.000
448.420;   10.825;  -25.000;  159.000
448.542;  -63.350;   -3.000;   33.000
448.664;  -27.175;  109.000;  322.000
448.785;  -53.525;  265.000;   83.000
448.907;  -84.875; -614.000; -353.000
449.028;  -61.800; -771.000; -471.000
449.150;   46.775;  492.000;  589.000
449.272; -182.750;-1044.000; -913.000
449.393;   16.575;  612.000;  694.000
449.515; -146.275; -634.000; -581.000
449.636;  -69.100; -264.000; -155.000
449.758;   68.875;  763.000;  622.000
449.879; -107.275; -498.000; -396.000
450.001;  -95.250; -149.000;  -49.000
450.122;  -51.875;  -95.000;  162.000
450.244;  -37.150;   37.000;  364.000
450.365; -103.600; -495.000; -301.000
450.486;  -30.725;   80.000;  268.000
450.608;   32.075;  393.000;  326.000
450.729;   64.650;  578.000;  645.000
450.850;   18.125; -574.000; -466.000
450.972;  782.075; -552.000; -389.000
451.093; 5239.650;  190.000;  588.000
451.214; 2344.200; -516.000; -337.000
451.336;  376.975;  773.000;  579.000
451.457;   54.600;  264.000;  393.000
451.578;  -32.075; -118.000;  -74.000
451.699; -137.625; -546.000; -540.000
451.821;  -71.050; -284.000;  -50.000
451.942;  -11.875;  278.000;  285.000
452.063;   30.675;  228.000;  419.000
452.184;  568.700;  -54.000;  -49.000
452.305; 1139.100;  103.000;  170.000
452.427;  139.000; -549.000; -301.000
452.548;  -20.300;   23.000;   79.000
452.669;  -57.500; -257.000;  -89.000
452.790;  -48.600;    3.000;  -18.000
452.911;  -21.525;  195.000;  259.000
453.032;  -74.200; -289.000;  -60.000
453.153;  -50.850;  -29.000;   81.000
453.274;   44.025;  737.000;  868.000
453.395;  -57.200;  -51.000;  175.000
453.516;  109.150; 1317.000; 1388.000
453.637;  -90.500; -205.000; -150.000
453.758;  -58.700;   15.000;   69.000
453.879; -138.825; -462.000; -250.000
454.000;   65.050; 1086.000;  948.000
454.121; -130.900; -554.000; -326.000
454.242; -114.975; -599.000; -383.000
454.362;  -73.150;  -99.000;  114.000
454.483;  -55.000; -309.000; -229.000
454.604;   35.400;  512.000;  580.000
454.725; -133.150; -627.000; -555.000
454.846; -131.250; -474.000; -406.000
454.967;  -23.275;  230.000;  539.000
455.087;  -47.875;  179.000;  153.000
455.208;   20.600;  554.000;  856.000
455.329;  -69.100;  -22.000;   82.000
455.450;   32.900;  473.000;  633.000
455.570; -101.725; -234.000; -211.000
455.691;  -56.300;  201.000;  407.000
455.812; -112.850; -270.000;  -92.000
455.932;  -61.250;  107.000;  -97.000
456.053;  -89.200;   36.000;   24.000
456.173; -114.050; -433.000; -355.000
456.294; -141.275; -476.000; -303.000
456.415;  -68.500;  -73.000;   70.000
456.535;  -47.025;  297.000;  273.000
456.656;  -54.400;  132.000;  240.000
456.776;  -82.750;    3.000;  298.000
456.897;  -21.150;  308.000;  513.000
457.017;  -77.600; -153.000;   -3.000
457.138; -116.950; -402.000; -249.000
457.258;  -48.175;  263.000;  224.000
457.379;  -28.800;  509.000;  521.000
457.499;  -44.350;  443.000;  432.000
457.620; -126.875; -407.000; -231.000
457.740; -105.675; -132.000;  -11.000
457.860;  -73.300;   87.000;   44.000
457.981;  -72.925;  132.000;  124.000
458.101;  -67.325;  -89.000;   40.000
458.221;  -43.925;  336.000;  402.000
458.342;  -50.300;   -4.000;  -37.000
458.462;   27.500;  617.000;  352.000
458.582;  -58.675; -302.000; -294.000
458.703;   11.450;  303.000;  154.000
458.823;  -18.100;   22.000;  163.000
458.943;   23.375;  341.000;  467.000
459.063;  -16.400; 1124.000;  192.000
459.183;  -36.325;  328.000;  313.000
459.304;   -4.475;  315.000;  517.000
459.424;  -65.300; -246.000;  -89.000
459.544;  324.075;  388.000;  764.000
459.664;  875.250;  499.000;  506.000
459.784;  333.000; 1004.000; 1175.000
459.904;   49.325;  867.000;  744.000
460.024;   55.200;  867.000;  684.000
460.144;  -12.400;  449.000;  554.000
460.264;   -4.600;  515.000;  327.000
460.385;  -98.575; -145.000; -119.000
460.505;   26.850;  905.000;  858.000
460.625;  -94.400;  -17.000;  -68.000
460.745;  -19.700;  396.000;  541.000
460.864;  -65.625;  153.000;  469.000
460.984;    8.725;  499.000;  573.000
461.104;  121.925; 1656.000; 1775.000
461.224;   17.750;  657.000;  650.000
461.344;  -32.400;  431.000;  360.000
461.464;  -41.300;  258.000;  513.000
461.584;  -28.350;  283.000;  466.000
461.704;  -54.500;   58.000;  108.000
461.824;  -73.325;  238.000;  259.000
461.943;  -36.450;  191.000;  130.000
462.063;  -92.300;    2.000;  324.000
462.183;   18.450;  639.000;  717.000
462.303;   77.975; 1678.000; 1230.000
462.422;   32.950;  781.000;  840.000
462.542;  -55.850;  271.000;  391.000
462.662;   25.850;  353.000;  380.000
462.782;  235.150;  833.000;  572.000
462.901;  501.125;  545.000;  717.000
463.021;  269.475; 1702.000; 1638.000
463.141;  -22.250;  337.000;  770.000
463.260;   -9.000;  614.000;  474.000
463.380;    3.225;  902.000;  884.000
463.499;  -43.025;  342.000;  332.000
463.619;  -39.775;  581.000;  559.000
463.738;  110.475; 1644.000;  903.000
463.858;   -1.625;  657.000;  811.000
463.978;  -49.175;  542.000;  396.000
464.097;   40.925;  921.000; 1114.000
464.217;  103.250; 1196.000; 1143.000
464.336;  115.650; 1068.000; 1130.000
464.455;  -45.475;  328.000;  659.000
464.575;   21.000;  597.000;  602.000
464.694;  152.550; 1204.000; 1179.000
464.814;  134.475; 1190.000; 1138.000
464.933;   65.125; 1095.000; 1027.000
465.052;   85.400; 1412.000; 1054.000
465.172;   68.300;  922.000;  799.000
465.291;  125.025; 1376.000; 1320.000
465.410;   17.400;  462.000;  735.000
465.530;   78.425; 1355.000; 1310.000
465.649;   48.975; 1209.000; 1273.000
465.768;  112.100; 1673.000; 1508.000
465.888;   40.425;  941.000; 1174.000
466.007;   83.000; 1335.000; 1440.000
466.126;   -2.625;  721.000;  641.000
466.245;   46.225; 1176.000; 1187.000
466.364;   11.300;  950.000; 1060.000
466.484;   60.550; 1024.000; 1213.000
466.603;   32.750; 1101.000; 1222.000
466.722;  107.800; 1490.000; 1769.000
466.841;   65.475; 1151.000; 1401.000
466.960;   30.675; 1069.000;  972.000
467.079;  132.400; 1971.000; 1786.000
467.198;   45.600; 1238.000; 1181.000
467.317;   76.200; 1768.000; 1162.000
467.436;   64.750; 1709.000; 1261.000
467.555;  118.725; 1796.000; 1746.000
467.674;   60.150; 1227.000; 1329.000
467.793;   26.775; 1376.000; 1374.000
467.912;   77.050; 1658.000; 1539.000
468.031;  120.050; 2038.000; 1930.000
468.150;  140.725; 1842.000; 1837.000
468.269;  187.600; 2313.000; 2090.000
468.388;  182.650; 2168.000; 2339.000
468.507;  251.400; 2884.000; 2903.000
468.626;  264.325; 2555.000; 2541.000
468.744;  126.375; 2018.000; 2174.000
468.863;  199.900; 2312.000; 2523.000
468.982;   85.000; 1503.000; 1555.000
469.101;  214.825; 2788.000; 2692.000
469.220;  149.025; 2333.000; 2176.000
469.338;  250.800; 2935.000; 3051.000
469.457;  188.975; 2719.000; 2545.000
469.576;  347.925; 3953.000; 3784.000
469.695;  228.500; 2877.000; 3066.000
469.813;  413.475; 4148.000; 4192.000
469.932;  389.175; 4255.000; 4485.000
470.051;  424.250; 4075.000; 4161.000
470.169;  865.375; 4470.000; 4338.000
470.288; 1521.300; 4700.000; 4809.000
470.406;  883.075; 5059.000; 5194.000
470.525;  628.475; 6101.000; 5787.000
470.644;  649.750; 6847.000; 6794.000
470.762;  799.750; 8397.000; 7873.000
470.881;  899.350; 8651.000; 8464.000
470.999; 1046.850; 9685.000; 9151.000
471.118; 1110.575;11174.000;10711.000

