
Integration time [ms]: 100.000
Averaging Nr. [scans]: 40
Smoothing Nr. [pixels]: 0
Data measured with spectrometer [name]: 2101012U2
Wave   ;Sample   ;Dark     ;Reference
[nm]   ;[counts] ;[counts] ;[counts] 

197.733;   50.700;  516.000;  404.000
197.879;  -77.800; -610.000; -634.000
198.025;  -54.675; -475.000; -420.000
198.171;  -74.600; -602.000; -612.000
198.317;  -31.200; -401.000; -316.000
198.463;  -60.350; -655.000; -404.000
198.609;   15.075;  181.000; -137.000
198.755;  -74.125; -644.000; -410.000
198.901;  -67.400; -505.000; -424.000
199.047;  -71.975; -615.000; -488.000
199.193;  -42.725; -230.000; -468.000
199.339;  -41.050; -222.000; -369.000
199.485;   45.525;  330.000;  271.000
199.631;   27.725;  227.000;  310.000
199.777;  -44.525; -466.000; -398.000
199.923;  -68.125; -610.000; -424.000
200.069;    3.275; -141.000;  -58.000
200.215;   59.950;  128.000;  453.000
200.361;   44.400;  243.000;  477.000
200.507;  -52.825; -600.000; -373.000
200.653;  -18.975; -371.000; -194.000
200.798;  -24.500; -215.000; -125.000
200.944;   -7.200; -146.000;  -41.000
201.090;   54.225;   61.000;  222.000
201.236;   -7.925; -116.000; -158.000
201.382;  123.250;  874.000;  903.000
201.528;   -0.775;  -58.000;  -48.000
201.674;  -38.725; -386.000; -293.000
201.819;  -64.150; -540.000; -439.000
201.965;  -89.575; -699.000; -447.000
202.111;  -25.325; -273.000; -226.000
202.257;  -26.750; -250.000; -238.000
202.402;   15.375;   13.000;  -36.000
202.548;  -13.150; -169.000; -116.000
202.694;   79.825;  410.000; -183.000
202.840;  -68.750; -603.000; -531.000
202.985;  -80.300; -681.000; -639.000
203.131; -112.900; -832.000; -666.000
203.277;  -32.175; -199.000; -262.000
203.423;  -45.775; -434.000; -520.000
203.568;  -37.350; -462.000; -237.000
203.714;  -51.450; -535.000; -542.000
203.860;  -87.800; -682.000; -641.000
204.005;   19.900;  112.000;  167.000
204.151;   81.250;  561.000;  556.000
204.296;  -49.800; -354.000; -221.000
204.442;  -66.600; -600.000; -547.000
204.588;  -79.350; -592.000; -579.000
204.733;   14.475;  178.000;  168.000
204.879; -118.100;-1018.000; -822.000
205.025;   21.075;  -99.000;  126.000
205.170;    1.300;  -17.000;   94.000
205.316;   89.775;  438.000;  661.000
205.461;  -87.700; -698.000; -554.000
205.607;   92.025;  609.000;  665.000
205.752;  -71.575; -626.000; -551.000
205.898;  -60.850; -501.000; -391.000
206.043;  -40.225; -578.000; -506.000
206.189;  -35.025; -243.000; -285.000
206.334;   90.925;  554.000;  606.000
206.480;   83.250;  409.000;  239.000
206.625;  -85.275; -529.000; -552.000
206.771;  -50.775; -451.000; -373.000
206.916;  -41.075; -210.000; -537.000
207.062;  -74.050; -545.000; -591.000
207.207;  -59.000; -546.000; -443.000
207.353;   35.325;  185.000;  460.000
207.498;   17.850;  196.000;   85.000
207.643;  -51.725; -501.000; -370.000
207.789; -120.500;-1069.000; -910.000
207.934;  -91.900; -665.000; -713.000
208.080;  -21.300; -154.000;   66.000
208.225;   -3.400;  -22.000;  -57.000
208.370;  -83.025; -727.000; -619.000
208.516;  -78.850; -741.000; -487.000
208.661;  -26.675; -127.000;  -69.000
208.806;  -19.200; -165.000; -171.000
208.952; -130.300;-1044.000; -731.000
209.097;   81.075;  378.000;  349.000
209.242;  -38.200; -307.000; -382.000
209.387;   56.325;  392.000;  350.000
209.533;  -42.775; -321.000; -350.000
209.678;   85.850;  472.000;  543.000
209.823;  -55.200; -408.000; -310.000
209.969; -104.625; -860.000; -757.000
210.114; -102.475; -907.000; -719.000
210.259; -110.700; -939.000; -889.000
210.404;   -1.425; -171.000;  103.000
210.549;   -2.675;  108.000;    3.000
210.695;   -4.200;   -3.000;  -95.000
210.840;   36.100;   94.000;   67.000
210.985;  -48.775; -484.000; -303.000
211.130;   68.925;  268.000;  406.000
211.275;   16.925;  207.000;  199.000
211.420;  -50.725; -300.000; -289.000
211.566;  -65.975; -536.000; -489.000
211.711;   29.225;  218.000;  157.000
211.856;  -71.725; -545.000; -519.000
212.001;    5.900;  151.000;   44.000
212.146;   33.800;  153.000;   49.000
212.291;  -24.225; -210.000; -186.000
212.436;  -25.250; -280.000;   -6.000
212.581;  -93.650; -685.000; -653.000
212.726;  -79.050; -487.000; -538.000
212.871;  -52.675; -552.000; -217.000
213.016; -144.825;-1172.000;-1029.000
213.161;   65.425;  406.000;  291.000
213.306;  -74.475; -435.000; -577.000
213.451;  -97.125; -778.000; -689.000
213.596;  -41.250; -455.000; -347.000
213.741;  -58.125; -448.000; -538.000
213.886;  -67.950; -498.000; -517.000
214.031;  -30.100; -294.000; -124.000
214.176;  -50.550; -408.000; -341.000
214.321;  -19.800; -296.000; -157.000
214.466;  -11.225; -163.000;  -43.000
214.611;   -3.125;  -61.000;  -10.000
214.756; -127.500; -948.000; -858.000
214.901;  -28.025; -388.000; -226.000
215.046; -115.950; -797.000; -825.000
215.191;   16.350;  128.000;   35.000
215.336;   -0.025; -157.000;  -19.000
215.480;  -86.225; -684.000; -505.000
215.625;   -5.900; -175.000;  -19.000
215.770;  -87.825; -757.000; -662.000
215.915;    7.925;   -5.000;  -97.000
216.060;    0.050; -113.000;  -21.000
216.205; -115.975; -731.000; -779.000
216.349;  -73.150; -470.000; -533.000
216.494; -132.650; -939.000; -867.000
216.639; -119.125; -823.000; -888.000
216.784;  -79.325; -577.000; -525.000
216.929;   46.425;  392.000;  281.000
217.073;  -10.175; -244.000;  -31.000
217.218;   18.275;   78.000;  -47.000
217.363;  -84.175; -656.000; -618.000
217.507;  -77.525; -623.000; -588.000
217.652; -119.025; -845.000; -874.000
217.797;  -91.400; -708.000; -659.000
217.942; -114.550; -856.000; -720.000
218.086;   73.675;  608.000;  539.000
218.231;  -27.325; -174.000;  -26.000
218.376;  -29.125; -337.000; -229.000
218.520;   -2.800;  -41.000;   96.000
218.665;  -25.050; -338.000; -204.000
218.810;  -46.250; -275.000; -233.000
218.954;   14.975;  201.000;   35.000
219.099; -105.800; -713.000; -963.000
219.243;  -59.125; -589.000; -554.000
219.388;  -38.750; -264.000; -136.000
219.532;  -21.750; -116.000; -116.000
219.677;  -75.400; -564.000; -521.000
219.822;   11.175;   33.000;   89.000
219.966;   -0.375;   17.000;  -99.000
220.111;  -37.750; -328.000;  -40.000
220.255;  -94.300; -797.000; -750.000
220.400;  -28.025; -180.000; -146.000
220.544;  -72.050; -516.000; -450.000
220.689;  -56.075; -422.000; -451.000
220.833;  -15.600; -123.000;  -58.000
220.978;  -51.050; -393.000; -563.000
221.122;   39.175;  319.000;  307.000
221.267; -125.725; -906.000; -837.000
221.411;  -56.525; -478.000; -394.000
221.555;   -4.000; -104.000;  -23.000
221.700;  -46.125; -329.000; -222.000
221.844;   34.450;  255.000;  272.000
221.989;  -33.725; -328.000; -311.000
222.133;  -33.350; -289.000; -307.000
222.277;   13.750;    5.000;   78.000
222.422;   24.050;  227.000;  113.000
222.566;  -45.275; -381.000; -214.000
222.711;  -54.975; -414.000; -479.000
222.855;  -78.125; -643.000; -586.000
222.999;  -99.200; -642.000; -717.000
223.144;  -27.725; -195.000; -194.000
223.288;   50.375;  423.000;  251.000
223.432;   38.475;  184.000;  230.000
223.576;    9.875;  152.000;  -21.000
223.721;   37.400;  364.000;  273.000
223.865;  -50.750; -472.000; -475.000
224.009;  231.325; 1673.000; 1631.000
224.153;  -79.925; -660.000; -671.000
224.298;  -58.850; -531.000; -489.000
224.442;   -8.650;  -74.000;  -33.000
224.586;   -9.725; -169.000; -106.000
224.730; -101.650; -858.000; -670.000
224.875; -106.200; -739.000; -688.000
225.019;   22.650;  102.000;  188.000
225.163;   66.825;  208.000;  341.000
225.307;   23.500;   97.000;  -91.000
225.451;   36.300;  360.000;  481.000
225.595;   25.050;  264.000;  176.000
225.739;  -16.875; -170.000;  -94.000
225.884;   16.600;   86.000;    5.000
226.028;  -95.175; -760.000; -626.000
226.172;  -20.150; -260.000; -273.000
226.316; -119.850; -941.000; -902.000
226.460;  -74.275; -645.000; -493.000
226.604;  -53.075; -406.000; -400.000
226.748;  -94.775; -836.000; -733.000
226.892;  -28.175; -227.000; -181.000
227.036;  -43.500; -537.000; -447.000
227.180;  -63.650; -551.000; -375.000
227.324;  -68.450; -561.000; -580.000
227.468; -112.800; -819.000; -717.000
227.612;   14.200;  242.000;  -28.000
227.756;  -98.300; -845.000; -698.000
227.900;   49.225;  342.000;  441.000
228.044;  -55.500; -509.000; -290.000
228.188;   63.200;  448.000;  568.000
228.332;  -68.925; -546.000; -472.000
228.476;  -27.425; -223.000; -149.000
228.620;  -26.800; -210.000; -150.000
228.764;   72.200;  431.000;  349.000
228.908;  -15.625; -155.000;   30.000
229.052;  -65.225; -615.000; -528.000
229.195;   -6.375; -172.000;   13.000
229.339;  -31.400; -235.000; -305.000
229.483;  -26.050;    5.000; -162.000
229.627;   -4.075; -156.000;  139.000
229.771;  -38.425; -218.000; -294.000
229.915;   20.200;  230.000;   79.000
230.059;  -83.200; -648.000; -663.000
230.202;  -40.100; -370.000; -317.000
230.346;  -19.075; -107.000;  107.000
230.490;  -57.100; -489.000; -521.000
230.634; -111.500; -736.000; -553.000
230.777;   73.875;  478.000;  509.000
230.921;  -49.700; -450.000; -359.000
231.065;  -31.100; -246.000; -286.000
231.209;   38.800;  261.000;  265.000
231.352;   17.475;   54.000;   40.000
231.496;   38.050;  568.000;  188.000
231.640;  -82.000; -693.000; -621.000
231.783;   64.950;  546.000;  525.000
231.927;  -37.150; -294.000; -365.000
232.071; -122.800; -962.000; -736.000
232.214; -104.650; -980.000; -764.000
232.358;  -90.575; -683.000; -599.000
232.502;    4.750;  -19.000;    7.000
232.645; -127.475;-1090.000; -927.000
232.789;  -19.425; -257.000; -218.000
232.933;  -36.475; -407.000; -224.000
233.076; -136.375;-1038.000; -897.000
233.220; -101.975; -752.000; -777.000
233.363;  -84.850; -669.000; -477.000
233.507;   69.725;  371.000;  129.000
233.650; -108.025; -764.000; -834.000
233.794;   61.600;  438.000;  461.000
233.938;  -68.575; -530.000; -362.000
234.081;   -2.000;  -93.000;   31.000
234.225;  -75.475; -631.000; -539.000
234.368; -112.975; -773.000; -723.000
234.512;  -39.800; -385.000; -299.000
234.655;  -82.750; -582.000; -555.000
234.798;  -72.775; -493.000; -466.000
234.942; -124.775; -884.000;-1002.000
235.085;  -69.975; -651.000; -443.000
235.229;  -74.050; -405.000; -410.000
235.372;  -46.425; -247.000; -191.000
235.516;  -52.125; -397.000; -321.000
235.659;   30.375;   92.000;  121.000
235.802;  -11.475;  -38.000;  -22.000
235.946;   25.125;  335.000;  215.000
236.089;   37.125;  126.000;  250.000
236.233;   42.125;  275.000;  298.000
236.376;  -34.800; -235.000; -378.000
236.519;  -44.650; -297.000; -319.000
236.663;  -40.350; -215.000; -117.000
236.806; -143.025;-1029.000; -999.000
236.949;   54.500;  543.000;  431.000
237.092;   58.675;  412.000;  391.000
237.236;  -86.675; -589.000; -502.000
237.379;   56.300;  352.000;  428.000
237.522; -111.500; -879.000; -768.000
237.666;  -14.725; -271.000;   18.000
237.809; -100.175; -851.000; -823.000
237.952;   31.475;  469.000;  271.000
238.095;  -58.225; -447.000; -442.000
238.238;   94.150;  688.000;  700.000
238.382;    9.775;  166.000;  103.000
238.525;  -79.525; -598.000; -511.000
238.668; -138.250;-1060.000; -985.000
238.811;  -87.900; -638.000; -643.000
238.954;  -41.650; -483.000; -334.000
239.097;   92.975;  617.000;  664.000
239.241;   24.700;  394.000;  326.000
239.384;  -34.325; -254.000; -214.000
239.527;  -56.725; -424.000; -224.000
239.670; -150.200; -994.000;-1091.000
239.813; -112.425; -696.000; -658.000
239.956;   77.800;  579.000;  473.000
240.099; -107.550; -778.000; -725.000
240.242;   61.400;  428.000;  432.000
240.385;   40.500;  466.000;  450.000
240.528;  -51.975; -706.000; -473.000
240.671;   26.025;  189.000;  134.000
240.814;  -40.725; -441.000; -158.000
240.957;  -99.325; -767.000; -578.000
241.100;  -93.700; -779.000; -755.000
241.243; -139.300;-1234.000; -893.000
241.386;  -61.350; -508.000; -379.000
241.529;  -85.000; -735.000; -547.000
241.672;  -63.125; -566.000; -495.000
241.815; -118.050; -832.000; -808.000
241.958;  -16.800; -125.000; -182.000
242.101;  -89.675; -545.000; -390.000
242.244;  -33.300; -270.000; -325.000
242.387;  -34.550; -304.000; -246.000
242.530;   54.700;  470.000;  134.000
242.673;  -43.800; -381.000; -309.000
242.815; -121.925; -925.000; -899.000
242.958;  -66.950; -482.000; -381.000
243.101;   16.250;  132.000;  187.000
243.244;  -82.650; -564.000; -521.000
243.387;  -46.600; -313.000; -316.000
243.530;  -91.850; -657.000; -674.000
243.672;    0.350;   43.000;  -92.000
243.815;  -54.475; -355.000; -283.000
243.958;    2.850;   98.000;  -26.000
244.101;   -6.500;   59.000;  -16.000
244.243;  -22.350;  -47.000;  101.000
244.386; -117.825; -761.000; -630.000
244.529;  -21.700; -132.000; -139.000
244.672; -154.750;-1154.000; -951.000
244.814; -107.750; -621.000; -794.000
244.957;  -64.300; -380.000; -304.000
245.100;  -76.275; -489.000; -489.000
245.242;  -58.250; -387.000; -374.000
245.385;   -5.325;  -59.000;  -39.000
245.528; -120.450; -871.000; -705.000
245.670;   92.100;  612.000;  634.000
245.813;  -87.150; -599.000; -547.000
245.956;  -48.300; -324.000; -275.000
246.098;  -69.650; -508.000; -650.000
246.241;    1.375;  194.000;   48.000
246.383;  -10.525; -119.000;  -73.000
246.526;  -70.425; -454.000; -525.000
246.669; -114.250; -889.000; -780.000
246.811;   17.775;  172.000;   -1.000
246.954;  -55.725; -512.000; -426.000
247.096;  -24.225;  -84.000;   -6.000
247.239;  -70.500; -482.000; -445.000
247.381;  -67.500; -647.000; -488.000
247.524;   82.875;  645.000;  679.000
247.666;  -12.175;   58.000;   11.000
247.809; -121.400; -887.000; -691.000
247.951;   -8.600;  -75.000;  138.000
248.094;   37.500;  432.000;  308.000
248.236; -160.800;-1262.000;-1238.000
248.378;    0.150; -356.000;  -81.000
248.521;  -30.550; -334.000; -337.000
248.663;  -44.225; -236.000; -267.000
248.806;  -31.075; -300.000; -266.000
248.948; -106.225; -886.000; -763.000
249.090;  -47.825; -428.000; -398.000
249.233;  -52.800; -344.000; -381.000
249.375;  -64.800; -474.000; -451.000
249.518;  -14.275;  -83.000; -133.000
249.660;   -4.350; -103.000;    3.000
249.802; -177.525;-1303.000;-1189.000
249.945;  -81.275; -612.000; -540.000
250.087; -110.750; -834.000; -768.000
250.229;  -51.350; -362.000; -480.000
250.371;  -72.325; -494.000; -439.000
250.514;  -46.250; -310.000; -244.000
250.656;    4.750;   69.000;  102.000
250.798; -132.400; -849.000; -800.000
250.940;  -52.600; -322.000; -322.000
251.083;  -29.550; -335.000; -111.000
251.225;   55.975;  338.000;  310.000
251.367;  -54.775; -274.000; -373.000
251.509;  -27.150; -265.000; -210.000
251.651; -101.775; -731.000; -671.000
251.794;   51.075;  538.000;  632.000
251.936; -102.450; -821.000; -747.000
252.078;  -81.225; -540.000; -461.000
252.220;  -74.425; -645.000; -477.000
252.362;   80.125;  344.000;  462.000
252.504;  -74.850; -677.000; -584.000
252.646; -111.850; -875.000; -722.000
252.788;   -5.775;   14.000; -128.000
252.931;  -41.125; -257.000; -253.000
253.073;  -32.325; -376.000; -317.000
253.215;   -0.800;  141.000;  122.000
253.357;  -20.600;   82.000; -153.000
253.499;  -55.900; -374.000; -234.000
253.641;  -89.975; -749.000; -594.000
253.783;  -95.450; -609.000; -527.000
253.925;  -93.350; -586.000; -591.000
254.067; -109.050; -744.000; -667.000
254.209;  -30.325; -391.000; -259.000
254.351; -138.125; -865.000; -883.000
254.493;  -43.750; -441.000; -417.000
254.635; -123.900; -936.000; -818.000
254.777;  -87.475; -752.000; -687.000
254.918;  -53.250; -512.000; -430.000
255.060;  -65.525; -551.000; -395.000
255.202;  -51.950; -473.000; -261.000
255.344;  -71.825; -658.000; -455.000
255.486;  -75.675; -471.000; -406.000
255.628; -124.750; -780.000; -781.000
255.770;  -93.575; -676.000; -536.000
255.912;  -70.325; -559.000; -468.000
256.053;  -88.525; -730.000; -508.000
256.195;  145.900; 1008.000;  903.000
256.337;  -94.125; -861.000; -595.000
256.479;   49.950;  532.000;  416.000
256.621;  -44.375; -394.000; -212.000
256.762; -105.650; -789.000; -742.000
256.904;   67.700;  485.000;  487.000
257.046;  -55.175; -381.000; -271.000
257.188;  -60.425; -351.000; -264.000
257.329;  -80.850; -525.000; -464.000
257.471; -128.125; -939.000; -807.000
257.613;  -84.425; -584.000; -498.000
257.755; -142.575;-1073.000; -982.000
257.896;   31.775;  286.000;  392.000
258.038;  -75.150; -403.000; -352.000
258.180;  -60.500; -354.000; -279.000
258.321;  -84.325; -581.000; -457.000
258.463;   -8.550;  -71.000;  133.000
258.605;  -90.100; -562.000; -570.000
258.746; -106.875; -886.000; -772.000
258.888; -144.500;-1026.000;-1020.000
259.029;    6.225;  121.000;   -8.000
259.171;  -81.425; -614.000; -550.000
259.313;   -4.100;  -49.000;  -47.000
259.454;  -70.750; -536.000; -414.000
259.596;  -54.300; -483.000; -390.000
259.737;  -72.325; -590.000; -474.000
259.879;   45.950;  217.000;  311.000
260.020;   84.500;  901.000;  636.000
260.162;  -31.425; -146.000; -253.000
260.303; -110.975; -768.000; -687.000
260.445;  -73.725; -609.000; -613.000
260.586;   25.900;  392.000;  157.000
260.728;  -42.925; -360.000; -248.000
260.869; -115.775; -350.000; -343.000
261.011;   85.675;  706.000;  537.000
261.152;  -65.875; -479.000; -319.000
261.293;  -83.300; -576.000; -595.000
261.435;  -31.000; -219.000; -184.000
261.576;  -59.175; -455.000; -325.000
261.718;   50.250;  420.000;  470.000
261.859; -133.575; -940.000; -949.000
262.000; -129.850; -951.000;-1016.000
262.142;  -11.800;  -52.000;  -60.000
262.283; -121.750; -808.000; -691.000
262.424;  -89.325; -666.000; -625.000
262.566; -149.775;-1161.000; -983.000
262.707; -120.350; -840.000; -830.000
262.848; -108.825; -769.000; -726.000
262.990;  -62.925; -362.000; -345.000
263.131;   84.150;  650.000;  681.000
263.272;  -17.675;  -61.000;  -41.000
263.413;  -96.175; -589.000; -561.000
263.555;  -58.300; -669.000; -143.000
263.696; -109.325; -550.000; -641.000
263.837;  -60.875; -449.000; -551.000
263.978;   -2.650;   -5.000;  -77.000
264.119;  -47.300; -283.000; -264.000
264.261; -125.150; -847.000; -630.000
264.402;    8.600;   33.000;   40.000
264.543;  -70.175; -509.000; -524.000
264.684;   -0.175;   61.000;  -50.000
264.825;  -75.550; -816.000; -538.000
264.966;   -5.300;  -84.000;  -67.000
265.107; -110.325; -646.000; -670.000
265.248; -120.025; -825.000; -812.000
265.390;   -3.175;  152.000;   -9.000
265.531;  -24.250; -238.000; -107.000
265.672;  -87.075; -557.000; -630.000
265.813;   56.175;  563.000;  439.000
265.954; -135.750; -959.000; -940.000
266.095;  -16.225; -372.000; -322.000
266.236;  -86.900; -686.000; -548.000
266.377;  -42.425; -243.000; -297.000
266.518;  -71.000; -619.000; -547.000
266.659;   34.875;  170.000;  268.000
266.800;   10.550;   83.000;   85.000
266.941;  -88.075; -487.000; -478.000
267.082;   19.950;  354.000;   99.000
267.223;  -52.200; -344.000; -273.000
267.364; -121.375; -892.000; -686.000
267.504;  -11.225;    3.000;  135.000
267.645;  -18.925;  160.000;   67.000
267.786;  -24.050; -147.000;  -86.000
267.927;  -73.200; -473.000; -379.000
268.068;  -17.150; -186.000;  -61.000
268.209;  -52.400; -175.000; -413.000
268.350;  -70.850; -388.000; -532.000
268.490;  -91.475; -648.000; -521.000
268.631;   31.500;  127.000;  225.000
268.772; -103.550; -874.000; -647.000
268.913;  -56.525; -328.000; -476.000
269.054;  -11.950; -117.000;   12.000
269.194;  -48.725; -418.000; -402.000
269.335; -155.625;-1137.000;-1074.000
269.476;  -40.050;   33.000;  -35.000
269.617;  -55.575; -347.000; -392.000
269.757; -100.100; -713.000; -646.000
269.898;  -98.775; -856.000; -613.000
270.039;  -73.600; -415.000; -405.000
270.180; -137.675; -952.000; -816.000
270.320;  -26.125; -190.000; -250.000
270.461;  -39.350; -277.000; -249.000
270.602;  -28.950; -186.000; -156.000
270.742; -128.275; -868.000; -943.000
270.883;  -54.200; -442.000; -390.000
271.023;  -66.225; -358.000; -357.000
271.164;  -83.400; -607.000; -528.000
271.305;  -96.950; -666.000; -654.000
271.445;  -86.325; -722.000; -683.000
271.586;  -55.225; -462.000; -283.000
271.726;  -52.125; -397.000; -322.000
271.867;  -53.150; -594.000; -534.000
272.008;  165.225; -473.000; -285.000
272.148;  130.750;  462.000;  468.000
272.289;   14.050; -113.000; -181.000
272.429;   20.350;   19.000;  185.000
272.570;  -95.675; -633.000; -737.000
272.710; -102.000; -825.000; -775.000
272.851;  -17.550;  113.000; -130.000
272.991; -165.425;-1173.000;-1077.000
273.131;  -77.650; -419.000; -459.000
273.272;  -97.975; -683.000; -723.000
273.412;   -8.575; -143.000;  -31.000
273.553;  -43.700; -488.000; -507.000
273.693;  128.150;  913.000;  858.000
273.834; -112.100; -894.000; -692.000
273.974;  -82.375; -664.000; -615.000
274.114; -113.025; -772.000; -560.000
274.255;   58.900;  414.000;  373.000
274.395;    5.650; -180.000; -125.000
274.535;   34.725;  199.000;  350.000
274.676;   20.925;  225.000;   94.000
274.816;   -1.800;  110.000;   34.000
274.956;  -77.175; -624.000; -690.000
275.097;  -77.025;-1014.000; -922.000
275.237; -124.325; -913.000; -803.000
275.377; -111.625; -778.000; -689.000
275.517; -156.225; -878.000; -937.000
275.658;  -69.300; -590.000; -555.000
275.798;  -58.850; -606.000; -413.000
275.938;   29.875;  215.000;  323.000
276.078; -112.800; -626.000; -395.000
276.218;    3.275;   99.000;  104.000
276.359; -126.775;-1026.000;-1024.000
276.499;  -67.275; -605.000; -446.000
276.639;  -20.200; -305.000; -151.000
276.779;  -46.900; -475.000; -357.000
276.919; -106.425; -783.000; -624.000
277.059;  -29.900; -261.000; -212.000
277.199;  -42.425; -357.000; -259.000
277.340;   46.375;  287.000;  175.000
277.480; -114.475; -840.000; -693.000
277.620;   28.725;  192.000;   16.000
277.760; -200.125;-1533.000;-1294.000
277.900;   10.375;  113.000;   33.000
278.040;   25.800;  137.000;  159.000
278.180;   29.525;  270.000;  170.000
278.320;  -19.875;   21.000;   56.000
278.460;  -71.725; -443.000; -469.000
278.600; -108.050; -708.000; -598.000
278.740;   52.750;  448.000;  224.000
278.880;  -64.625; -768.000; -791.000
279.020;  -24.925; -194.000; -144.000
279.160;  -95.900; -672.000; -595.000
279.300; -112.150; -926.000; -873.000
279.440;  -91.750; -709.000; -622.000
279.579;  -33.100;-1014.000; -929.000
279.719;  -49.125; -410.000; -394.000
279.859;   64.400;   -4.000;   41.000
279.999;   24.850; -208.000;  101.000
280.139;  -18.325; -435.000; -387.000
280.279;  -77.475; -708.000; -745.000
280.419;  -17.325; -229.000; -147.000
280.559;  -29.625; -259.000; -180.000
280.698;  -95.425; -790.000; -639.000
280.838;  -89.800; -778.000; -800.000
280.978;  -98.275; -846.000; -790.000
281.118; -116.475; -811.000; -704.000
281.257;   10.725;   24.000;    6.000
281.397; -136.850;-1094.000; -960.000
281.537;  -90.800; -599.000; -712.000
281.677;  -27.375; -150.000; -101.000
281.816;  -86.600; -700.000; -630.000
281.956;  -32.700; -193.000; -257.000
282.096;  -77.950; -539.000; -396.000
282.235; -100.500; -672.000; -638.000
282.375;  -18.050; -243.000;  -98.000
282.515; -104.125; -715.000; -707.000
282.654;   17.175;   29.000;  106.000
282.794;   23.225;  388.000;  244.000
282.934;  -54.325; -530.000; -491.000
283.073; -136.900;-1030.000; -857.000
283.213;  -53.675; -460.000; -467.000
283.353;  -46.825; -408.000; -349.000
283.492;  -33.950; -264.000; -296.000
283.632;  -47.050; -254.000; -168.000
283.771; -103.125; -859.000; -730.000
283.911;  -57.025; -369.000; -260.000
284.050; -107.675; -794.000; -748.000
284.190; -166.100;-1229.000;-1096.000
284.329; -138.300;-1055.000; -964.000
284.469;  -73.225; -516.000; -591.000
284.608;  -56.900; -559.000; -598.000
284.748;  -75.700; -614.000; -570.000
284.887;   -9.925;  -87.000;  -20.000
285.027; -130.400; -844.000; -892.000
285.166;  -36.450; -192.000; -249.000
285.306;   -2.300; -116.000;  -33.000
285.445;  -49.025; -229.000; -343.000
285.584;  -92.375; -630.000; -494.000
285.724;  -27.750; -282.000; -322.000
285.863; -114.625; -857.000; -507.000
286.002;  -58.575; -366.000; -276.000
286.142; -111.575; -715.000; -622.000
286.281;  -81.475; -525.000; -493.000
286.420;  -71.600; -554.000; -417.000
286.560;   99.375;  653.000;  623.000
286.699; -135.125; -958.000; -912.000
286.838;  -89.825; -590.000; -591.000
286.978;  -82.175; -533.000; -537.000
287.117; -134.100;-1085.000; -950.000
287.256;  -34.925; -228.000; -211.000
287.395;  -63.350; -197.000; -378.000
287.535;  -57.550; -370.000; -298.000
287.674;  -78.725; -509.000; -484.000
287.813;   51.850;  661.000;  533.000
287.952; -139.725;-1010.000; -871.000
288.091; -166.500;-1049.000; -915.000
288.231;   10.025;   13.000;   15.000
288.370; -170.025;-1217.000;-1200.000
288.509;  -94.150; -728.000; -645.000
288.648;  -96.025; -770.000; -548.000
288.787;  -37.925; -243.000;  -87.000
288.926;  -63.400; -454.000; -475.000
289.065;  120.225;  859.000;  672.000
289.204;  -43.425; -377.000; -217.000
289.344; -108.775; -791.000; -690.000
289.483;   31.975;  416.000;  304.000
289.622;  -26.125; -291.000; -149.000
289.761;  -12.500; -309.000; -166.000
289.900; -119.650; -785.000; -626.000
290.039;  -16.450;  -12.000;  -95.000
290.178;  -32.850; -274.000; -180.000
290.317;  -83.500; -618.000; -479.000
290.456;  -82.350; -463.000; -451.000
290.595; -141.750; -961.000; -833.000
290.734; -132.025; -904.000; -891.000
290.873;  -67.400; -456.000; -420.000
291.011; -114.450; -833.000; -843.000
291.150;  -96.475; -770.000; -682.000
291.289;  -25.100; -343.000; -110.000
291.428; -102.800; -599.000; -480.000
291.567;  -61.725; -370.000; -442.000
291.706;  -10.750;  109.000;  154.000
291.845;  -94.675; -597.000; -505.000
291.984; -170.400;-1234.000;-1061.000
292.122;   74.625;  602.000;  582.000
292.261;   56.150;  620.000;  463.000
292.400;    5.550; -144.000;  211.000
292.539; -134.050; -959.000; -813.000
292.678;  -37.075; -325.000; -300.000
292.816; -163.875;-1136.000; -965.000
292.955;  -90.750; -844.000; -684.000
293.094;  -29.275; -173.000; -337.000
293.233;  -59.475; -556.000; -400.000
293.371;  -33.750; -225.000;  -84.000
293.510; -107.075; -866.000; -780.000
293.649; -138.050; -959.000; -924.000
293.787;  -84.450;-1083.000;-1012.000
293.926;   -7.600; -113.000;  -32.000
294.065;  -36.975; -379.000; -290.000
294.203;   48.700;  298.000;  406.000
294.342;   27.025;   74.000;  156.000
294.481; 5568.600;51180.000; -836.000
294.619;  -38.425; -425.000; -582.000
294.758; -143.850;-1230.000;-1137.000
294.896;   59.450; -125.000;    5.000
295.035; -123.825;-1040.000;-1006.000
295.174; -132.200;-1082.000; -954.000
295.312;  -42.125; -323.000; -203.000
295.451;  -13.475; -307.000; -428.000
295.589;  -55.775; -389.000; -518.000
295.728;   13.950; -292.000; -165.000
295.866;    3.375;  -36.000;  -51.000
296.005;  -73.575; -584.000; -341.000
296.143;  -84.000; -558.000; -596.000
296.282; -110.575; -957.000; -881.000
296.420;  -91.300; -657.000; -557.000
296.559;  -93.225; -892.000; -633.000
296.697;   -3.575; -847.000; -665.000
296.835;   34.975;-1141.000;-1002.000
296.974;   41.875;  -23.000;   39.000
297.112;   -0.850; -443.000; -504.000
297.251;  -79.050; -815.000; -755.000
297.389;   51.150; -576.000; -438.000
297.527;   25.825; -145.000;  -83.000
297.666;  -51.000; -486.000; -438.000
297.804;  -50.175; -404.000; -264.000
297.942;  -22.975; -136.000; -161.000
298.081;  -15.650; -183.000;   63.000
298.219;   54.275;  -17.000;  -19.000
298.357;   44.875; -144.000;  -71.000
298.495;   11.175; -810.000; -812.000
298.634;   66.375;  245.000;  219.000
298.772;   43.150; -220.000; -338.000
298.910;  -41.600; -309.000; -182.000
299.048;  -12.325; -130.000; -153.000
299.187;  -35.200; -350.000; -250.000
299.325;    8.575;   52.000;  122.000
299.463;   50.425; -389.000; -299.000
299.601;  106.400; -327.000; -271.000
299.739; -110.350; -908.000; -883.000
299.877;  -98.600; -791.000; -703.000
300.016;  -65.950;-1095.000; -935.000
300.154;  139.000;  -19.000; -161.000
300.292;   31.225; -428.000; -348.000
300.430;   17.400; -408.000; -291.000
300.568; -107.975; -940.000; -874.000
300.706;  -66.275; -366.000; -469.000
300.844;  -79.025;-1108.000; -979.000
300.982;  108.125;  246.000;  282.000
301.120; -119.750; -965.000; -866.000
301.258;  -92.975; -812.000; -705.000
301.396;   32.400;  104.000;  -41.000
301.534;   46.850; -218.000; -293.000
301.672;   -7.950; -664.000; -521.000
301.810;    9.800; -613.000; -545.000
301.948;   96.675;   53.000;  149.000
302.086;  563.125; -250.000;  -32.000
302.224;  866.700; -610.000; -585.000
302.362;   23.950; -558.000; -622.000
302.500;  -38.750; -923.000; -893.000
302.638;   92.825;  128.000;  245.000
302.776;  -10.575; -352.000; -408.000
302.913;   43.200;  447.000;  236.000
303.051;   -9.550;  -86.000;  -23.000
303.189;   49.325;   90.000;  118.000
303.327;  -41.125; -341.000; -256.000
303.465;  -99.525; -832.000; -588.000
303.603;  -93.975; -805.000; -604.000
303.740;  103.125;  417.000;  241.000
303.878;    6.675; -800.000; -759.000
304.016;  -91.525; -915.000; -790.000
304.154; -127.025;-1123.000;-1152.000
304.291;  -50.075; -505.000; -554.000
304.429;   -1.975;  102.000;   74.000
304.567; -126.775; -908.000; -893.000
304.705;  -53.425; -408.000; -515.000
304.842;   81.025; -616.000; -540.000
304.980;   59.625;  215.000;   35.000
305.118;   11.950; -367.000; -365.000
305.255;  -92.900; -945.000; -927.000
305.393;   58.250;  178.000;  239.000
305.531; -111.975;-1173.000; -956.000
305.668;  -81.950; -663.000; -582.000
305.806;  103.075; -358.000; -439.000
305.943;   62.275; -629.000; -637.000
306.081;   42.125; -378.000; -267.000
306.219; -111.925; -863.000; -748.000
306.356;    3.475;  158.000;   27.000
306.494;  120.700;  981.000;  761.000
306.631;   -3.000;  -11.000;  -55.000
306.769;   -8.375; -613.000; -485.000
306.906;  -22.250; -284.000; -258.000
307.044;  -68.275; -473.000; -488.000
307.181;  -77.000; -410.000; -332.000
307.319;    9.175;  112.000;   87.000
307.456; -192.050;-1191.000;-1153.000
307.594; -111.075; -980.000; -727.000
307.731;   -5.200; -371.000; -164.000
307.868;    4.625;  -15.000;   20.000
308.006; -154.450; -961.000; -847.000
308.143;  -75.150; -618.000; -330.000
308.281;  103.425;  -37.000; -254.000
308.418;  -31.300; -748.000; -640.000
308.555;  -77.975; -400.000; -250.000
308.693;  -89.375; -577.000; -573.000
308.830;  -99.975; -712.000; -657.000
308.967;   -6.725; -215.000;  -95.000
309.105;  -50.475; -507.000; -396.000
309.242;    0.725; -468.000; -367.000
309.379;  195.550; -577.000; -655.000
309.517;  -94.750; -936.000; -948.000
309.654; -121.325; -910.000; -734.000
309.791;  -85.425; -662.000; -580.000
309.928; -117.050; -977.000; -914.000
310.065;  165.600;  819.000;  697.000
310.203;  -16.175; -825.000; -850.000
310.340;  -10.550; -465.000; -321.000
310.477;  -94.525; -412.000; -516.000
310.614;  -85.900; -383.000; -473.000
310.751;  -90.675; -427.000; -518.000
310.889;  -38.750;    1.000;   11.000
311.026; -154.125;-1161.000; -939.000
311.163;  -50.375; -386.000; -380.000
311.300;  -86.150; -512.000; -479.000
311.437;  -77.125; -658.000; -619.000
311.574; -154.025;-1226.000; -985.000
311.711;  -58.975; -595.000; -433.000
311.848;  -51.475; -380.000; -388.000
311.985;  -13.825;  270.000;   93.000
312.122; -126.900; -932.000; -762.000
312.259; -124.975; -941.000; -994.000
312.396;  -86.175; -508.000; -551.000
312.533; -109.150; -812.000; -790.000
312.670; -136.100;-1070.000; -898.000
312.807;  -46.950; -352.000; -367.000
312.944;  -74.400; -513.000; -611.000
313.081;  -38.250; -150.000; -415.000
313.218; -100.450;-1111.000; -867.000
313.355;    1.725; -531.000; -449.000
313.492;  -13.025; -455.000; -292.000
313.629;  123.150;  815.000;  735.000
313.766; -176.025;-1176.000;-1008.000
313.902;  -22.700; -186.000;   21.000
314.039;  -45.575; -372.000; -289.000
314.176;   28.025;  286.000;  192.000
314.313;  -78.550; -569.000; -473.000
314.450;  -82.425; -788.000; -684.000
314.587;  -75.250; -468.000; -480.000
314.723;   -6.300;  -78.000;  130.000
314.860;   13.100;  318.000;  332.000
314.997;   36.625;  223.000;  142.000
315.134;  -49.175; -385.000; -368.000
315.270;  -52.975; -480.000; -496.000
315.407; -131.800;-1094.000; -967.000
315.544;  -55.725; -657.000; -538.000
315.681;  -68.325; -681.000; -565.000
315.817;   24.850; -133.000; -176.000
315.954;   16.050; -613.000; -392.000
316.091; -133.725;-1045.000;-1023.000
316.227;  -38.300;  -71.000; -179.000
316.364;   -8.550;   23.000;    6.000
316.500;  -48.675; -113.000; -300.000
316.637;  -57.325; -181.000; -302.000
316.774;  -94.300; -625.000; -358.000
316.910;  -95.500; -598.000; -629.000
317.047;  -76.075; -487.000; -351.000
317.183;  -46.725; -435.000; -566.000
317.320;  -21.100; -367.000; -321.000
317.456;  -71.975; -733.000; -805.000
317.593;  -88.775; -598.000; -641.000
317.729;   16.175;  168.000;  -67.000
317.866; -202.175;-1434.000;-1285.000
318.002;  -95.500; -708.000; -948.000
318.139; -103.625; -883.000; -867.000
318.275; -119.100;-1003.000; -738.000
318.412;  -63.775; -517.000; -336.000
318.548;  -51.625; -751.000; -720.000
318.685; -101.550; -985.000; -888.000
318.821; -107.225; -762.000; -735.000
318.957;  -23.125;   34.000;  -23.000
319.094;   41.225;  297.000;  154.000
319.230;  -67.200; -756.000; -742.000
319.367;   98.225; -471.000; -520.000
319.503;   53.750; -538.000; -436.000
319.639; -102.600; -877.000; -793.000
319.775;  -73.900; -750.000; -685.000
319.912;  -52.100; -424.000; -519.000
320.048;  -99.150;-1184.000;-1184.000
320.184;   74.100;   59.000;   70.000
320.321;  -55.150; -497.000; -467.000
320.457;   74.525;  475.000;  662.000
320.593;  -72.700; -375.000; -382.000
320.729; -104.750; -732.000; -734.000
320.866;  -80.250; -577.000; -635.000
321.002;  -95.650; -759.000; -809.000
321.138;  -15.400; -135.000; -211.000
321.274;   56.250; -148.000; -115.000
321.410;  -33.075; -585.000; -353.000
321.546;  -50.825;-1011.000; -911.000
321.683;   47.400;  400.000;  185.000
321.819;    1.275;  -48.000; -117.000
321.955; -124.400; -743.000; -722.000
322.091;  -64.300; -585.000; -540.000
322.227;  -23.075; -382.000; -202.000
322.363;  -14.725; -320.000; -215.000
322.499;  -53.675; -343.000; -331.000
322.635;  141.875;  636.000;  443.000
322.771;   13.625; -139.000;   12.000
322.907;   81.775;  129.000;  327.000
323.043;  -22.250; -115.000; -206.000
323.179;  -51.775; -394.000; -363.000
323.315;   19.900; -401.000; -371.000
323.451;   80.500; -328.000; -236.000
323.587;   60.750;  -60.000;  -77.000
323.723;    3.875; -682.000; -601.000
323.859;  -11.925; -258.000;  -76.000
323.995;  -47.175; -467.000; -409.000
324.131; -126.250; -967.000; -892.000
324.267;  -48.525; -254.000; -276.000
324.402; -135.875; -960.000; -983.000
324.538;  -20.750; -279.000; -104.000
324.674;   11.950;  164.000;   77.000
324.810;  101.325;  226.000;  308.000
324.946;  -16.325; -810.000; -658.000
325.082;  -77.375; -568.000; -475.000
325.217;  -19.550;  -62.000;   16.000
325.353; -116.150; -764.000; -659.000
325.489;  -80.075; -540.000; -506.000
325.625;  -81.775; -579.000; -525.000
325.760;   55.550;  517.000;  376.000
325.896;  -16.625; -515.000; -702.000
326.032;  -52.125; -403.000; -352.000
326.168;  -63.575; -462.000; -369.000
326.303;  -68.625; -352.000; -461.000
326.439;  -21.975; -336.000; -276.000
326.575;    2.775; -190.000;  -29.000
326.710;   -6.300; -156.000;  -30.000
326.846;  -32.825;  146.000;  103.000
326.982;  -98.350; -530.000; -548.000
327.117;  -65.875; -481.000; -442.000
327.253;  -94.875; -745.000; -742.000
327.388; -185.300;-1137.000;-1153.000
327.524;  -60.025; -811.000; -578.000
327.659;  -23.725;  -58.000;  -22.000
327.795;  -18.375;   69.000;   45.000
327.931;  -92.475; -723.000; -499.000
328.066;  -43.850; -417.000; -276.000
328.202;  -17.775;   12.000; -129.000
328.337;  108.000;  957.000;  713.000
328.473;   52.450;  -12.000;  -74.000
328.608;  -22.200; -256.000; -267.000
328.743;  -82.850; -799.000; -664.000
328.879;    7.075;  214.000;  114.000
329.014;  -42.200; -102.000; -122.000
329.150;  -95.500; -358.000; -483.000
329.285;  -77.850; -465.000; -466.000
329.421;  -57.925; -548.000; -246.000
329.556;  -19.200;  -36.000;   85.000
329.691; -102.700; -633.000; -615.000
329.827;  -76.850; -626.000; -480.000
329.962;  -56.800;  131.000; -301.000
330.097;  -95.025; -673.000; -585.000
330.233;  -54.925; -410.000; -223.000
330.368; -130.950; -839.000; -628.000
330.503;  -21.725;    3.000;   98.000
330.638;   14.500;  -93.000; -125.000
330.774;  -55.350; -609.000; -530.000
330.909;  -42.150; -434.000; -244.000
331.044; -103.600; -714.000; -708.000
331.179; -180.450;-1217.000;-1109.000
331.315;   14.350;   77.000;   20.000
331.450;   18.650;  157.000;  285.000
331.585;  -92.400; -805.000; -706.000
331.720;  -83.200; -510.000; -460.000
331.855;   -6.100;  -35.000; -102.000
331.990;  252.600;   62.000;  138.000
332.126;  131.975; -110.000;   71.000
332.261;  -18.175; -379.000; -265.000
332.396;  -13.750; -135.000; -242.000
332.531;  -95.850;-1074.000;-1031.000
332.666;   32.775; -519.000; -363.000
332.801; -108.425; -726.000; -807.000
332.936;  -35.475; -192.000; -122.000
333.071; -132.475; -870.000; -817.000
333.206;    5.800;  307.000;  379.000
333.341;   19.400;  344.000;  418.000
333.476;  -94.375; -627.000; -623.000
333.611;  -38.175; -251.000; -173.000
333.746;  -53.025; -381.000; -464.000
333.881; -136.925; -973.000; -935.000
334.016; -133.025; -936.000; -917.000
334.151; -134.000; -746.000; -702.000
334.286;   14.625;  152.000;  186.000
334.421;  -10.300; -125.000; -178.000
334.556;  -75.425; -611.000; -567.000
334.690; -101.100; -631.000; -577.000
334.825;   56.975;  381.000;   83.000
334.960;  -71.850; -285.000; -413.000
335.095;   -6.200;  135.000;  -91.000
335.230; -109.025; -722.000; -738.000
335.365; -129.475;-1084.000; -990.000
335.499; -144.075;-1108.000;-1037.000
335.634;   14.875;    9.000;  534.000
335.769; -100.175; -755.000; -720.000
335.904;  -70.450; -603.000; -561.000
336.038;  -57.500; -735.000; -657.000
336.173; -127.050;-1206.000;-1194.000
336.308;    1.975; -116.000; -189.000
336.443;   11.975; -544.000; -634.000
336.577;  -89.625; -936.000; -787.000
336.712;   39.450;   -4.000;  -12.000
336.847;  -43.350; -724.000; -607.000
336.981;   50.875; -272.000; -208.000
337.116;  258.025;  615.000;  501.000
337.250;  123.375; -434.000; -421.000
337.385;  265.475; -297.000; -208.000
337.520;   99.350; -632.000; -603.000
337.654;  -48.975; -215.000; -126.000
337.789; -131.300; -989.000; -933.000
337.923;  -39.375; -104.000; -205.000
338.058;  -93.825; -673.000; -738.000
338.192;  -59.100; -611.000; -488.000
338.327;  -27.200;  -18.000; -155.000
338.461;  -62.375; -299.000; -469.000
338.596;  -93.775; -780.000; -638.000
338.730; -114.150; -767.000; -803.000
338.865;   88.300;  -46.000; -140.000
338.999;  -48.675; -846.000; -702.000
339.134;  -28.750; -634.000; -536.000
339.268;    8.375; -741.000; -603.000
339.403;  359.350; -740.000; -775.000
339.537;  114.475; -894.000; -820.000
339.671; -119.400; -829.000; -813.000
339.806;  -53.575; -556.000; -512.000
339.940;    4.425; -261.000; -235.000
340.074; -105.925; -685.000; -510.000
340.209;  -50.750; -351.000; -230.000
340.343;  -99.700; -517.000; -573.000
340.477;  142.350;  998.000; 1036.000
340.612;  -57.350;-1033.000; -900.000
340.746;  137.400; -199.000; -243.000
340.880;  -76.175; -924.000; -785.000
341.014;  -25.675;  -45.000; -154.000
341.149; -124.000; -756.000; -718.000
341.283; -121.500; -839.000; -754.000
341.417; -123.850;-1124.000; -938.000
341.551;  102.800; -768.000; -708.000
341.685;  -41.300; -633.000; -611.000
341.820;  -76.800; -562.000; -493.000
341.954;  -46.900; -218.000; -349.000
342.088; -152.925;-1102.000;-1019.000
342.222;   56.725;  565.000;  618.000
342.356;  -67.600; -395.000; -335.000
342.490; -103.675; -880.000; -841.000
342.624;  -48.900; -339.000; -242.000
342.758;  -12.275; -364.000; -312.000
342.892;  -79.775; -710.000; -585.000
343.026;  -43.175;  -58.000; -116.000
343.160;  -57.450; -426.000; -376.000
343.294;  -87.975; -474.000; -337.000
343.428;  -27.050; -488.000; -448.000
343.562;   -6.850; -172.000;  -23.000
343.696;  -38.475; -385.000; -314.000
343.830;  -24.075; -362.000; -356.000
343.964;    0.200; -231.000; -168.000
344.098;  814.500;  199.000;   70.000
344.232;  666.000; -266.000; -127.000
344.366;   73.525; -567.000; -453.000
344.500;   28.625; -665.000; -744.000
344.634;    5.800; -324.000; -164.000
344.768;  -13.475; -531.000; -341.000
344.902;   33.900;  278.000;  256.000
345.035;  -77.750; -556.000; -496.000
345.169; -143.675; -933.000; -656.000
345.303;  -26.975; -308.000; -482.000
345.437;  -76.650; -826.000; -717.000
345.571;  -78.700; -675.000; -594.000
345.704;  -57.575; -309.000; -532.000
345.838;  -42.475; -331.000; -284.000
345.972;  -39.675; -543.000; -495.000
346.106;  172.950; -179.000; -190.000
346.239;  415.200; -312.000; -243.000
346.373;    7.200; -343.000; -302.000
346.507; -150.000; -950.000; -962.000
346.640;  113.525;  -30.000;   13.000
346.774;  -43.125; -650.000; -797.000
346.908;  -25.625; -138.000;  -11.000
347.041; -106.425; -646.000; -593.000
347.175;    1.600;  259.000;   27.000
347.309;  -75.725; -698.000; -628.000
347.442; -118.750; -883.000; -732.000
347.576;  247.200;  670.000;  668.000
347.709;  162.225; -123.000;  -52.000
347.843; -108.425; -933.000; -825.000
347.976;   23.775;  235.000;  294.000
348.110; -190.750;-1268.000;-1186.000
348.243; -109.700; -679.000; -772.000
348.377;   -1.100;  -26.000;   60.000
348.510;   46.500;  403.000;  540.000
348.644;  -35.950;  -37.000; -159.000
348.777;  -10.200;  180.000;  191.000
348.911;  -52.075; -142.000; -112.000
349.044;  163.950;  471.000;  448.000
349.178;  132.975;-1069.000;-1006.000
349.311;  113.500;  141.000;  255.000
349.444;  -10.700; -927.000; -813.000
349.578;  -20.350; -347.000; -200.000
349.711; -113.925; -959.000; -862.000
349.845;  -14.600; -661.000; -591.000
349.978; -156.650;-1224.000;-1137.000
350.111;  -96.050; -546.000; -612.000
350.244;  -92.850; -596.000; -700.000
350.378;  -27.050; -392.000; -393.000
350.511;  -77.450; -393.000; -426.000
350.644; -124.025; -808.000; -806.000
350.778;   15.325;  168.000;  104.000
350.911;   -6.350;  134.000;  140.000
351.044; -103.025; -685.000; -615.000
351.177;  -44.850; -321.000; -281.000
351.310;  -21.575;    3.000; -131.000
351.444;  -98.775; -888.000; -788.000
351.577;   98.550;  140.000;   90.000
351.710;   86.575;  593.000;  417.000
351.843;  -52.525; -165.000;  -77.000
351.976;   -9.225;  149.000;  -79.000
352.109;  -90.225; -621.000; -612.000
352.242;  -34.700; -464.000; -419.000
352.376;  -74.100; -580.000; -636.000
352.509;  151.600; -437.000; -356.000
352.642;   -8.125; -654.000; -604.000
352.775;   45.925; -141.000;  -98.000
352.908; -122.250; -933.000; -904.000
353.041; -127.650; -814.000; -824.000
353.174;  -66.700; -551.000; -424.000
353.307;  -82.175; -753.000; -764.000
353.440;   64.400;  541.000;  453.000
353.573; -115.050; -957.000;-1008.000
353.706;  -65.375; -384.000; -558.000
353.839;  -31.725; -264.000; -220.000
353.971;  -92.550; -657.000; -512.000
354.104; -113.650; -896.000; -835.000
354.237;  -48.975; -627.000; -662.000
354.370;  -93.475; -846.000; -879.000
354.503; -188.250;-1231.000;-1308.000
354.636;  -43.025; -529.000; -348.000
354.769; -140.950; -937.000; -860.000
354.902;  -30.650; -230.000; -139.000
355.034;  -18.150; -164.000; -220.000
355.167;  -12.450; -262.000; -162.000
355.300; -102.725;-1061.000; -880.000
355.433;  984.250;  -71.000;  -14.000
355.565; 1516.475; -402.000; -384.000
355.698;  373.400; -356.000; -296.000
355.831;  -20.750; -882.000; -801.000
355.964;   67.750; -285.000; -170.000
356.096;  -95.575; -856.000; -843.000
356.229;  -18.850; -523.000; -530.000
356.362;  324.700; -373.000; -266.000
356.494;  598.125; -229.000; -162.000
356.627;  436.950;  269.000;  377.000
356.760;  685.400;  120.000;   53.000
356.892;  986.950; -286.000; -601.000
357.025;  598.950;  403.000;  389.000
357.157;  526.300; -167.000; -179.000
357.290;  710.700; -856.000; -713.000
357.423;  185.700; -667.000; -556.000
357.555;  104.275; -217.000; -228.000
357.688;  125.725; -483.000; -364.000
357.820;  405.425; -870.000; -877.000
357.953; 3472.825; -563.000; -589.000
358.085;  706.675; -632.000; -612.000
358.218;  968.275;-1131.000; -932.000
358.350;  181.575;  -58.000;  312.000
358.483; -131.975;-1300.000;-1187.000
358.615;  -52.950;-1182.000;-1078.000
358.747;  -82.750;-1187.000;-1058.000
358.880;    9.550; -810.000; -744.000
359.012;  -10.275; -376.000; -202.000
359.145;  -58.175; -480.000; -511.000
359.277;   32.800; -962.000; -913.000
359.409; 2827.475;  536.000;  231.000
359.542;  720.700; -738.000; -688.000
359.674;   72.325;   46.000;   13.000
359.806;  -63.025; -565.000; -438.000
359.939;  -49.975; -617.000; -516.000
360.071;  -11.500; -583.000; -579.000
360.203;  -31.575; -411.000; -364.000
360.335;   48.400;  164.000;  -16.000
360.468;  169.200; -249.000; -307.000
360.600; 2310.425; -547.000; -454.000
360.732; 2932.900; -546.000; -423.000
360.864;  390.750;-1216.000;-1044.000
360.996;  237.575; -516.000; -554.000
361.129;   25.850; -389.000; -598.000
361.261;   14.925;  110.000; -113.000
361.393;  -28.500; -252.000; -214.000
361.525;    7.400;   94.000;  244.000
361.657;  -46.575; -821.000; -703.000
361.789;    2.900; -139.000; -155.000
361.921;  176.475; -642.000; -593.000
362.053;  214.050;  524.000;  541.000
362.185;   38.550;  288.000;   72.000
362.318;  -81.125; -709.000; -705.000
362.450;  113.525;  294.000;  444.000
362.582;   55.350; -913.000; -870.000
362.714;  -35.200; -353.000; -332.000
362.846;  -90.750; -606.000; -490.000
362.978; -141.925; -941.000; -811.000
363.109;   32.925; -161.000; -260.000
363.241;  357.925; -739.000; -749.000
363.373;  428.675; -649.000; -564.000
363.505;  697.850; -186.000;  -91.000
363.637;  144.625; -787.000; -601.000
363.769; -133.800;-1067.000;-1080.000
363.901;  -74.325; -596.000; -654.000
364.033; -128.350;-1103.000;-1062.000
364.165;    4.700; -283.000; -283.000
364.296;   58.725; -316.000; -177.000
364.428;   45.175;-1344.000;-1220.000
364.560;  -85.800; -679.000; -661.000
364.692;  -63.775; -738.000; -835.000
364.824;  215.175; -588.000; -456.000
364.955;  445.000; -402.000; -564.000
365.087;  977.950;-1097.000; -852.000
365.219;   32.775; -686.000; -816.000
365.351;  -75.475; -526.000; -572.000
365.482;   49.325;  300.000;  240.000
365.614;  -56.875; -402.000; -314.000
365.746; -108.950; -729.000; -752.000
365.877;  -93.925; -706.000; -672.000
366.009;  287.300;  -35.000;  -62.000
366.141;  -85.625;-1249.000;-1134.000
366.272; -113.575; -803.000; -719.000
366.404; -122.225;-1005.000; -874.000
366.535;  -31.925; -139.000;  -12.000
366.667;  -97.625; -644.000; -649.000
366.799;   26.550;  353.000;  203.000
366.930; -121.075; -862.000; -996.000
367.062;  114.375; -639.000; -613.000
367.193;  165.100; -872.000; -842.000
367.325;  -67.750; -580.000; -684.000
367.456;   44.850; -246.000;   31.000
367.588;  171.725; -371.000; -318.000
367.719;   14.500;  -44.000;  -45.000
367.851;  -25.875; -222.000; -241.000
367.982;  -54.975; -875.000; -732.000
368.113;   82.825; -475.000; -358.000
368.245; -121.425; -960.000; -841.000
368.376;  -40.600; -254.000; -302.000
368.508;  -50.750; -188.000; -263.000
368.639; -151.150;-1166.000;-1034.000
368.770;  -31.150; -670.000; -589.000
368.902;  -69.250; -836.000; -926.000
369.033; -118.575; -906.000; -855.000
369.164;  -52.725; -720.000; -653.000
369.296; -101.975; -452.000; -601.000
369.427;  -17.825; -209.000; -144.000
369.558;  -61.700; -593.000; -377.000
369.689;  -86.600; -721.000; -569.000
369.821; -144.600; -951.000; -845.000
369.952;  -23.575;   42.000; -108.000
370.083;  -49.500; -229.000; -108.000
370.214;  -99.900; -735.000; -650.000
370.345;  -11.775;   65.000;   81.000
370.477;  -95.250; -810.000; -790.000
370.608;  188.900; -328.000; -264.000
370.739;  -69.600;-1233.000;-1292.000
370.870;  -44.850;-1102.000; -923.000
371.001;   75.800; -378.000; -467.000
371.132;  -80.500; -754.000; -735.000
371.263;  -13.750;  -42.000; -148.000
371.394; -154.375; -841.000; -748.000
371.525;   18.900;  345.000;  225.000
371.657; -100.550; -808.000; -670.000
371.788;   60.275;  103.000;  199.000
371.919;  146.725; -384.000; -304.000
372.050; 3339.900;  -91.000; -156.000
372.181;  963.675; -188.000; -294.000
372.311;  328.575;   42.000; -127.000
372.442;   12.825; -457.000; -451.000
372.573;  -27.100; -444.000; -340.000
372.704; -134.925;-1008.000; -980.000
372.835;   58.450; -228.000; -289.000
372.966;  -79.000; -646.000; -554.000
373.097;  -86.125; -575.000; -711.000
373.228;  -56.050; -717.000; -542.000
373.359;   98.625; -824.000; -536.000
373.490;  816.800; -881.000; -727.000
373.620; 1032.450;-1001.000; -803.000
373.751; 1591.500; -332.000; -396.000
373.882;  683.225; -663.000; -733.000
374.013;   51.500; -449.000; -262.000
374.143;  -57.175; -581.000; -659.000
374.274; -113.575; -987.000; -908.000
374.405;  144.375; -388.000; -276.000
374.536;  378.900; -526.000; -387.000
374.666;  980.175; -759.000; -807.000
374.797;  163.825; -817.000; -868.000
374.928;  760.375; -710.000; -560.000
375.058;  767.850; -535.000; -500.000
375.189;   64.025;  -59.000;  -93.000
375.320; -120.075; -928.000;-1034.000
375.450;  -43.450; -625.000; -616.000
375.581;  -58.200; -526.000; -436.000
375.712;  -56.000; -574.000; -250.000
375.842;  262.750; -438.000; -415.000
375.973;  162.825; -554.000; -513.000
376.103;  -65.750; -665.000; -648.000
376.234;  -94.950; -531.000; -552.000
376.364;  -55.625; -944.000; -867.000
376.495;  285.375;  925.000;  529.000
376.625;  -27.125; -472.000; -485.000
376.756;   41.000; -709.000; -678.000
376.886;  -83.400;-1178.000;-1026.000
377.017;   40.150;-1048.000;-1061.000
377.147;  361.600; -786.000; -782.000
377.278;   50.750;  174.000;  228.000
377.408; -126.775; -801.000; -815.000
377.538; -110.125; -707.000; -693.000
377.669;  -94.000; -537.000; -613.000
377.799; -111.250; -645.000; -635.000
377.929;  -63.875; -610.000; -428.000
378.060; -125.775; -781.000; -847.000
378.190;  -48.300; -726.000; -531.000
378.320;  -56.525; -401.000; -406.000
378.451;   -8.275; -131.000;  -22.000
378.581;  -17.850;  -67.000; -110.000
378.711;  145.700; 1035.000;  866.000
378.841;  -22.000; -533.000; -675.000
378.972;  -85.400; -871.000; -751.000
379.102;  -25.175; -652.000; -579.000
379.232;  -14.750; -126.000;  -73.000
379.362; -130.600;-1001.000; -885.000
379.492;    0.775; -373.000; -424.000
379.623;   81.650;    0.000;  111.000
379.753; -112.525;-1107.000; -974.000
379.883;  173.300;   59.000;  156.000
380.013;  -20.650;-1081.000;-1017.000
380.143; -118.775;-1097.000;-1056.000
380.273; -113.025; -985.000; -861.000
380.403;    1.750; -344.000; -257.000
380.533;  -47.600; -651.000; -664.000
380.663;   56.600;  173.000;  128.000
380.793; -103.400;-1027.000;-1074.000
380.923;  -38.000; -103.000;  -34.000
381.053; -102.300; -613.000; -623.000
381.183;  -34.225; -106.000; -248.000
381.313;   20.100; -656.000; -470.000
381.443;   18.625; -692.000; -473.000
381.573;  151.475; -402.000; -409.000
381.703;  209.950;-1249.000;-1095.000
381.833; -153.500;-1454.000;-1336.000
381.963;   86.600; -134.000;  -87.000
382.093; 1287.000; -925.000; -909.000
382.223;  383.225; -713.000; -602.000
382.353;  -40.100; -801.000; -608.000
382.482;  315.325;-1091.000; -964.000
382.612;  688.075; -872.000; -644.000
382.742;  361.900; -695.000; -622.000
382.872;  209.100; -565.000; -551.000
383.002;   48.525;  347.000; -132.000
383.131;  -16.475; -226.000; -160.000
383.261;  -49.875; -706.000; -768.000
383.391;  285.625; -552.000; -377.000
383.521; 3324.850;  451.000;  263.000
383.650;  752.450; -947.000; -904.000
383.780;  -21.975; -783.000; -656.000
383.910;  110.000;  880.000;  802.000
384.039;   -3.700; -794.000; -656.000
384.169;  158.550;-1205.000;-1017.000
384.299;  -33.100; -650.000; -662.000
384.428; -100.250; -764.000; -680.000
384.558;  -64.675; -308.000; -275.000
384.687;  -58.425; -414.000; -334.000
384.817;   -4.550;   75.000;   -2.000
384.947;   24.450; -234.000; -141.000
385.076;  262.850;  982.000;  912.000
385.206;   96.450;  369.000;  480.000
385.335;  -55.150; -549.000; -417.000
385.465;  -91.450; -655.000; -663.000
385.594;  101.175;  -53.000;  -44.000
385.724;  349.575; -868.000; -838.000
385.853;   82.625; -296.000; -270.000
385.982; 1242.925; -743.000; -787.000
386.112; 1892.850;-1052.000; -871.000
386.241;  111.300; -307.000; -312.000
386.371;    4.250; -174.000;  -87.000
386.500;  -13.825; -825.000; -789.000
386.629;    6.125; -874.000; -817.000
386.759;   65.100;  -43.000;   68.000
386.888;  -19.725; -170.000; -250.000
387.017;  -83.775; -648.000; -620.000
387.147; -116.375; -771.000; -798.000
387.276;  -27.350; -410.000; -397.000
387.405;  -12.800; -398.000; -342.000
387.535;  -58.075; -452.000; -361.000
387.664;  -70.825; -692.000; -620.000
387.793;   61.475; -198.000; -113.000
387.922;  462.000;  255.000;  200.000
388.052;   -5.700; -576.000; -423.000
388.181;   -4.025; -342.000; -472.000
388.310;  -18.300; -889.000; -710.000
388.439;  -65.500; -749.000; -742.000
388.568;  161.325;  365.000;  244.000
388.697;  920.200; -756.000; -653.000
388.826;  170.900; -768.000; -666.000
388.956;   31.150; -285.000; -307.000
389.085;  -34.825; -347.000; -287.000
389.214; -107.700; -842.000; -872.000
389.343;  -86.575; -645.000; -413.000
389.472;  405.500;  126.000;  149.000
389.601;  509.950;   91.000;    0.000
389.730;   -8.175; -568.000; -687.000
389.859;   58.750;  226.000;   46.000
389.988;  156.050; -423.000; -408.000
390.117;  118.725; -168.000; -146.000
390.246;  -26.800; -331.000; -320.000
390.375;   63.400; -673.000; -626.000
390.504;  -74.900; -703.000; -621.000
390.633; -110.175; -672.000; -726.000
390.761;  -87.600; -732.000; -645.000
390.890;    4.625;   -4.000; -130.000
391.019;  -49.425; -421.000; -441.000
391.148; -128.450; -826.000; -855.000
391.277;  -89.275; -576.000; -493.000
391.406;  -93.600; -821.000; -805.000
391.534;   24.525;  574.000; -301.000
391.663;  -82.400; -583.000; -645.000
391.792;  -76.900; -673.000; -701.000
391.921;   82.625;   -3.000;   15.000
392.050;  142.975; -287.000; -228.000
392.178;  -63.375;-1206.000;-1061.000
392.307;  110.800; -758.000; -712.000
392.436;   31.950; -427.000; -641.000
392.564;    1.625;  166.000;   -6.000
392.693;  -99.200; -860.000; -682.000
392.822;  172.275; -529.000; -534.000
392.950;   62.850; -880.000; -714.000
393.079;  274.775; -188.000; -328.000
393.208;  -16.000; -488.000; -511.000
393.336;  -12.800; -170.000; -145.000
393.465;  -52.025; -317.000; -199.000
393.593;   -7.625;   62.000;   79.000
393.722; -156.775;-1121.000; -916.000
393.850;  -31.025; -188.000;  -61.000
393.979; -158.000; -926.000; -805.000
394.107;  -76.225; -517.000; -537.000
394.236;  -35.425; -570.000; -507.000
394.364;  167.400;  383.000;  206.000
394.493;  219.725; -911.000; -767.000
394.621;  -29.075; -955.000; -916.000
394.750;  739.250; -873.000; -923.000
394.878; 3014.300; -247.000; -149.000
395.007; 4050.775; -721.000; -807.000
395.135;  275.000; -790.000; -721.000
395.263;  -87.025;-1038.000;-1040.000
395.392;   -5.075;  -25.000; -107.000
395.520; -155.800; -818.000; -679.000
395.648; -106.700; -865.000; -915.000
395.777;  -32.625; -366.000; -405.000
395.905;  -55.250; -449.000; -564.000
396.033;   -0.025;  217.000;  172.000
396.162;  397.175; -399.000; -453.000
396.290;  345.500;  -17.000;   -2.000
396.418;   59.400; -555.000; -514.000
396.546;  -88.075; -571.000; -466.000
396.674; -108.125; -850.000; -878.000
396.803;    8.625;  -72.000;  -23.000
396.931;   62.825; -179.000; -199.000
397.059;    5.700;-1026.000; -989.000
397.187; -128.625;-1026.000; -975.000
397.315; -134.700; -884.000; -649.000
397.443; -103.775; -592.000; -443.000
397.572;  -84.950; -578.000; -424.000
397.700;  -40.200; -607.000; -614.000
397.828;   -4.600;  120.000;  -90.000
397.956;  -57.175; -508.000; -478.000
398.084;  -54.875; -767.000; -626.000
398.212;   19.475;  137.000;  124.000
398.340;    1.750;  -56.000;  159.000
398.468;   -0.550; -390.000; -169.000
398.596; -143.300; -993.000; -953.000
398.724; -128.625; -762.000; -767.000
398.852; -167.075;-1024.000; -976.000
398.980;  -90.275; -560.000; -560.000
399.108;  -66.300; -982.000; -735.000
399.236;   26.700;   13.000;    8.000
399.363;    1.150;  222.000;  196.000
399.491;  -76.150; -404.000; -398.000
399.619; -132.825; -829.000; -800.000
399.747; -123.725; -859.000; -771.000
399.875;   64.625;  220.000;  234.000
400.003;  -67.275; -359.000; -284.000
400.130;  -96.025; -421.000; -341.000
400.258;  -45.850;  -83.000;   38.000
400.386;  -57.625; -352.000; -168.000
400.514;  -58.375; -526.000; -587.000
400.641;  -96.675; -928.000; -802.000
400.769; -155.450; -979.000; -888.000
400.897; -114.375; -838.000; -793.000
401.025;  -36.600; -166.000; -152.000
401.152;  -18.375;  220.000;   38.000
401.280;  -87.550; -430.000; -429.000
401.408; -114.975; -712.000; -576.000
401.535; -109.050; -735.000; -758.000
401.663; -188.125;-1134.000;-1054.000
401.790; -102.250; -514.000; -525.000
401.918;   35.425;  436.000;  405.000
402.046;  -26.700;  134.000;  122.000
402.173;  -35.225;  -18.000;    7.000
402.301;  -85.875; -519.000; -397.000
402.428;   47.325;  528.000;  383.000
402.556; -152.800;-1188.000; -913.000
402.683;  -33.725;  -20.000;   -1.000
402.811;  -32.925;  -37.000; -206.000
402.938;   -0.500;   20.000;   27.000
403.066;  155.400; -574.000; -558.000
403.193;  307.800;  299.000;  239.000
403.321;  222.225; -396.000; -574.000
403.448;  292.875;   83.000;   27.000
403.575;  105.700;  -90.000;  -46.000
403.703; -106.650; -732.000; -557.000
403.830;  -78.150; -531.000; -496.000
403.957; -143.925;-1117.000;-1023.000
404.085;    6.950;  -61.000; -172.000
404.212;   86.725;  -50.000;   63.000
404.339;  258.900; -566.000; -306.000
404.467; 6000.875; -612.000; -524.000
404.594; 3735.100; -287.000; -227.000
404.721;  815.625; -869.000; -764.000
404.848;   69.750; -113.000; -202.000
404.976; -118.625; -856.000; -783.000
405.103;  -29.625;  -14.000;  -82.000
405.230;   -1.475;  190.000;  226.000
405.357;   10.050;  117.000;   44.000
405.484;  266.250;  -49.000;    5.000
405.612;   39.275; -548.000; -563.000
405.739;  -61.100; -488.000; -243.000
405.866;   78.900;  669.000;  385.000
405.993;  -50.375; -398.000; -102.000
406.120; -152.800; -801.000; -887.000
406.247;  -66.575; -323.000; -342.000
406.374;  383.875;  540.000;  629.000
406.501;   61.375; -632.000; -702.000
406.628;  -84.500; -621.000; -589.000
406.755; -116.325; -803.000; -620.000
406.882;  -48.675; -228.000; -277.000
407.009; -124.325; -719.000; -628.000
407.136;   38.050; -480.000; -401.000
407.263;   87.325; -939.000; -829.000
407.390; -103.350; -692.000; -614.000
407.517; -180.725;-1139.000;-1187.000
407.644;  -82.700; -332.000; -256.000
407.771;  -76.025; -249.000; -287.000
407.898;   -5.875;  168.000;  328.000
408.025;  -76.125; -421.000; -313.000
408.151;  -17.500;   82.000;  153.000
408.278;  -76.575; -267.000; -216.000
408.405; -126.375; -931.000; -899.000
408.532;  -69.350; -549.000; -542.000
408.659; -120.625; -677.000; -648.000
408.785; -197.950;-1298.000;-1170.000
408.912;  -61.125; -412.000; -296.000
409.039; -111.675; -610.000; -686.000
409.166; -119.575; -591.000; -555.000
409.292; -105.975; -571.000; -534.000
409.419; -116.950; -665.000; -649.000
409.546;  -83.650; -431.000; -192.000
409.672; -113.375; -713.000; -545.000
409.799;  -25.525;  -36.000;   34.000
409.926;  -35.400; -180.000; -179.000
410.052; -178.350;-1127.000;-1091.000
410.179;  -84.250; -368.000; -392.000
410.305;  -97.725; -375.000; -493.000
410.432;  -57.150; -220.000; -333.000
410.558;  -88.275; -305.000; -380.000
410.685; -112.975; -688.000; -431.000
410.812;  -96.675; -409.000; -588.000
410.938; -148.100; -964.000; -808.000
411.065; -111.450; -671.000; -645.000
411.191;  -30.825; -189.000; -174.000
411.317; -127.100; -823.000; -742.000
411.444;  -76.475; -317.000; -246.000
411.570;  -70.425; -339.000; -294.000
411.697; -144.950; -758.000; -752.000
411.823; -174.400; -989.000; -999.000
411.949;  -43.850;  -56.000;   17.000
412.076; -118.300; -539.000; -519.000
412.202; -121.250; -758.000; -757.000
412.329; -136.125; -798.000; -752.000
412.455; -119.975; -821.000; -657.000
412.581;  -11.625;  -15.000;  172.000
412.707;  -83.525; -540.000; -457.000
412.834;    4.925;  156.000;  219.000
412.960; -101.650; -785.000; -784.000
413.086;  -94.625; -743.000; -701.000
413.212;  134.175;  604.000;  578.000
413.339;  -87.175; -685.000; -701.000
413.465;  -15.975; -364.000; -310.000
413.591;  -95.775; -757.000; -474.000
413.717;  -57.000; -358.000; -366.000
413.843; -146.625; -839.000; -861.000
413.969;  -71.225;  -47.000; -292.000
414.096; -104.500; -679.000; -679.000
414.222;  -11.700;  -33.000;   85.000
414.348;  -42.500; -652.000; -385.000
414.474;   65.925;   38.000;  -52.000
414.600;  -24.125; -126.000; -144.000
414.726;  -19.700;  -96.000;  -55.000
414.852;  -50.750; -365.000; -342.000
414.978;   19.325;  104.000;  -18.000
415.104;   45.225;   38.000;   80.000
415.230;    0.250; -329.000; -330.000
415.356;   39.725; -409.000; -514.000
415.482;  185.575;   13.000;  -35.000
415.608;  267.250; -247.000; -323.000
415.734;  981.150;   67.000;   38.000
415.860;20608.200; -875.000; -767.000
415.986;14353.225; -685.000; -607.000
416.111; 1216.925; -798.000; -652.000
416.237;  251.675; -424.000; -571.000
416.363; 1201.600; -765.000; -733.000
416.489; 4293.950; -324.000; -251.000
416.615;  426.800; -707.000; -742.000
416.741;  -22.175; -677.000; -784.000
416.866; -102.100; -673.000; -736.000
416.992; -127.150; -801.000; -818.000
417.118;  -40.575;  -41.000;  -80.000
417.244;  -84.000; -798.000; -531.000
417.369;  -79.925; -801.000; -612.000
417.495;   -9.075; -325.000; -254.000
417.621;  -87.325;-1015.000; -803.000
417.746;   -7.875; -579.000; -572.000
417.872;   44.625; -254.000; -144.000
417.998;   53.575; -515.000; -530.000
418.123; 1095.550;-1073.000; -845.000
418.249; 5465.025; -512.000; -601.000
418.374;  744.800; -916.000; -824.000
418.500;  106.500; -383.000; -482.000
418.626;  123.375;   70.000;  -59.000
418.751;  111.800; -549.000; -448.000
418.877;  206.275; -637.000; -643.000
419.002; 1911.450; -688.000; -560.000
419.128;12926.325; -930.000; -721.000
419.253; 3076.800; -967.000; -837.000
419.379;  400.675; -391.000; -338.000
419.504;  381.200;  325.000;  415.000
419.629;  533.100; -393.000; -212.000
419.755; 3808.775; -317.000; -254.000
419.880;22035.650;  -98.000;   67.000
420.006;11809.925; -280.000; -221.000
420.131;30006.575; -662.000; -775.000
420.256; 4144.175; -315.000; -316.000
420.382;  564.325; -665.000; -687.000
420.507;   71.475; -649.000; -778.000
420.632;  115.000; -337.000; -339.000
420.758;  183.525; -251.000; -425.000
420.883;  -94.675; -876.000; -672.000
421.008; -111.675; -775.000; -619.000
421.133;  -82.675; -509.000; -467.000
421.259;  -60.575; -325.000; -259.000
421.384; -122.100; -834.000; -693.000
421.509;  -68.425;-1052.000; -862.000
421.634;  963.225; -936.000; -820.000
421.759;  399.450; -359.000; -327.000
421.885;  -68.575; -717.000; -656.000
422.010;  -95.500; -673.000; -542.000
422.135; -140.525; -695.000; -727.000
422.260;   32.850;  340.000;  280.000
422.385;  -49.600;   12.000;  -98.000
422.510;   -8.525;  151.000;  -26.000
422.635;   20.050;  -87.000;  -43.000
422.760;   72.450; -766.000; -791.000
422.885;   58.950;  -57.000;  -80.000
423.010;  -57.650; -112.000; -169.000
423.135;  -93.500; -481.000; -561.000
423.260;  -17.675; -150.000; -245.000
423.385;   60.375;  476.000;  222.000
423.510;   10.225;   71.000;  -22.000
423.635;   66.550;  133.000;   45.000
423.760;   41.100;  383.000;  328.000
423.885;   38.250;  336.000;  391.000
424.010;    6.575;  -68.000;  -13.000
424.135;  -21.125;    5.000;  -33.000
424.259;  -88.025; -654.000; -457.000
424.384;  -73.550; -279.000; -272.000
424.509;  -40.725; -260.000; -186.000
424.634;  -97.600; -761.000; -623.000
424.759;  -43.250; -688.000; -544.000
424.883;  -10.525; -506.000; -527.000
425.008;  159.500; -502.000; -410.000
425.133; 2049.500; -679.000; -653.000
425.258;  927.575; -517.000; -381.000
425.382;  957.700; -867.000; -774.000
425.507; 2380.525; -487.000; -543.000
425.632;  399.275; -802.000; -663.000
425.756;  458.225; -256.000; -146.000
425.881; 7073.900; -831.000; -857.000
426.006;18553.750; -604.000; -355.000
426.130; 2789.075; -696.000; -508.000
426.255;  342.750; -611.000; -491.000
426.379;  149.675; -189.000; -577.000
426.504;  378.200;  660.000;  544.000
426.629; 4141.975; -519.000; -466.000
426.753; 2738.400;   64.000;  -46.000
426.878;  303.125; -252.000; -288.000
427.002;  182.650; -651.000; -668.000
427.127; 1646.725;  -35.000; -158.000
427.251;11835.625;  372.000;  401.000
427.375; 3206.525; -191.000; -173.000
427.500; 2121.575; -616.000; -610.000
427.624;  685.600; -234.000; -400.000
427.749;   69.575; -216.000; -225.000
427.873;  -42.850; -499.000; -412.000
427.997;  -49.075; -222.000; -230.000
428.122;   66.600;  795.000;  703.000
428.246;   64.100;  433.000;  434.000
428.371; -148.400; -869.000; -773.000
428.495; -114.500; -624.000; -646.000
428.619;  -39.975; -186.000; -117.000
428.743;   16.850;   65.000;  132.000
428.868;   -9.450; -732.000; -643.000
428.992; 1280.175; -219.000; -326.000
429.116;  501.425; -329.000; -357.000
429.240;  228.550;  419.000;  426.000
429.365;  -34.025; -454.000; -574.000
429.489;  -68.500; -638.000; -647.000
429.613;   23.075; -236.000; -177.000
429.737;   34.600; -563.000; -432.000
429.861;  267.075; -247.000; -133.000
429.985; 5785.475; -425.000; -305.000
430.109; 6176.625; -770.000; -908.000
430.234;  674.425;   76.000;  -50.000
430.358;   63.075; -250.000; -160.000
430.482;  -83.525; -672.000; -564.000
430.606;  -74.375; -655.000; -375.000
430.730;   -9.200; -437.000; -388.000
430.854;   70.925; -909.000; -835.000
430.978;  -86.075; -795.000; -764.000
431.102;  -94.375; -499.000; -422.000
431.226; -136.425; -874.000; -815.000
431.350;   14.225;  345.000;  422.000
431.474;  -89.975; -661.000; -373.000
431.597; -155.050;-1060.000; -848.000
431.721;  -76.775; -276.000; -267.000
431.845; -133.775; -704.000; -472.000
431.969;  -78.875; -304.000; -349.000
432.093;  -85.100; -395.000; -317.000
432.217;  -17.700;   32.000;   82.000
432.341;  -88.375; -523.000; -518.000
432.464;   -8.250;   96.000;   40.000
432.588;  140.625; -401.000; -329.000
432.712;   78.025;  -52.000;  -52.000
432.836;   42.125;  213.000;  263.000
432.959;  -23.475; -372.000; -311.000
433.083;  101.600;   11.000;    2.000
433.207;  404.825;  285.000;  930.000
433.330; 5305.250; -391.000; -200.000
433.454; 6372.850; -654.000; -638.000
433.578; 3639.000;  583.000;  278.000
433.701;  633.125; -623.000; -675.000
433.825;  111.775; -292.000; -299.000
433.949;  143.925;   28.000;  -72.000
434.072;   24.800; -410.000; -323.000
434.196;  -32.925; -309.000; -117.000
434.319; 3857.425;25482.000;25124.000
434.443;  738.325; -656.000; -603.000
434.566; 2693.050;  281.000;   62.000
434.690;  430.100; -637.000; -383.000
434.813;   33.325; -251.000; -173.000
434.937;  -85.800; -569.000; -696.000
435.060;  -52.300; -423.000; -332.000
435.184;  225.875; -492.000; -217.000
435.307;  105.925;  159.000;  102.000
435.431;  -20.925;  -40.000;   24.000
435.554;  -92.675; -399.000; -240.000
435.677;  -81.925; -350.000; -258.000
435.801;  -44.325;  -25.000;   49.000
435.924;  -18.475;    1.000;  -67.000
436.048; -136.125;-1019.000; -732.000
436.171;  -74.875; -240.000;  -66.000
436.294;  -24.775; -248.000; -229.000
436.417;   87.250; -963.000; -849.000
436.541;  -89.525; -814.000; -840.000
436.664;  -57.050; -242.000; -316.000
436.787;  -37.025;   13.000;  113.000
436.910; -122.825; -792.000; -422.000
437.034;    4.900;  142.000;  143.000
437.157;   28.550;  -11.000;    0.000
437.280;  -58.275; -392.000; -292.000
437.403; -102.100; -982.000; -869.000
437.526;  496.150; -903.000; -865.000
437.649; 1854.375; -505.000; -332.000
437.772;  240.250; -692.000; -540.000
437.896;  104.425;  700.000;  544.000
438.019; -112.925; -758.000; -503.000
438.142; -102.000; -596.000; -506.000
438.265;  -39.150; -639.000; -670.000
438.388;  443.325; -520.000; -410.000
438.511;   57.650; -597.000; -394.000
438.634;  -59.525; -247.000; -125.000
438.757; -139.100; -693.000; -619.000
438.880;  -39.725;  -34.000;  -57.000
439.003;  -71.350; -417.000; -437.000
439.126;  -76.300; -287.000; -167.000
439.248;  -76.200;  -98.000; -139.000
439.371;  -56.400;    9.000;  -53.000
439.494;   44.325;  510.000;  439.000
439.617;  -43.025;   65.000;  -88.000
439.740; -172.500; -968.000; -816.000
439.863; -149.250; -755.000; -595.000
439.986; -129.350; -476.000; -431.000
440.108;  -56.375; -161.000; -112.000
440.231; -160.400; -950.000; -836.000
440.354;  -39.825;  -64.000; -150.000
440.477;    2.100; -566.000; -542.000
440.599;  -37.050; -200.000; -225.000
440.722; -133.550; -709.000; -586.000
440.845;   51.275;  751.000;  928.000
440.968; -124.525; -415.000; -311.000
441.090;  -76.125; -199.000;  -33.000
441.213; -175.550;-1021.000; -825.000
441.336;  -56.800; -159.000;   -5.000
441.458;  -90.925; -549.000; -396.000
441.581;  -93.400; -628.000; -629.000
441.703;  -69.225; -152.000;   13.000
441.826; -128.825; -557.000; -400.000
441.948;  -62.475;   56.000;   51.000
442.071;   25.975;  555.000;  424.000
442.193; -113.525; -531.000; -485.000
442.316;   21.350;  152.000;   97.000
442.438;   52.300; -233.000;  -10.000
442.561;   63.050;  272.000;  262.000
442.683;  435.825; -809.000; -522.000
442.806;  948.450;   -8.000;   74.000
442.928;  -17.000; -859.000; -604.000
443.051;  -87.000; -577.000; -373.000
443.173; -115.925; -341.000; -339.000
443.295;  -95.475; -263.000; -371.000
443.418;  -70.525; -321.000;  -29.000
443.540;  -30.500; -106.000;   -4.000
443.662; -126.775; -563.000; -465.000
443.785;  -29.350;  335.000;  199.000
443.907; -121.725; -362.000; -208.000
444.029; -142.950; -767.000; -494.000
444.152; -140.450; -644.000; -554.000
444.274;  -34.575;  -18.000;  -24.000
444.396; -123.275; -461.000; -221.000
444.518; -140.175; -691.000; -454.000
444.640; -109.125; -268.000; -111.000
444.763;  -29.675;  388.000;  249.000
444.885; -111.700; -432.000; -392.000
445.007;  -35.350;   35.000;   86.000
445.129; -124.575; -610.000; -515.000
445.251; -118.950; -372.000; -439.000
445.373; -134.425; -537.000; -386.000
445.495;   -5.125;  242.000;  350.000
445.617;   52.600;  853.000;  753.000
445.739;  -86.250; -215.000;  -97.000
445.861;  -48.375; -245.000; -112.000
445.984;  -46.050; -267.000; -101.000
446.105;  161.575; -418.000; -251.000
446.227;  498.200; -176.000;  -19.000
446.349;  -25.300; -358.000; -249.000
446.471; -111.450; -615.000; -448.000
446.593;  -66.275; -316.000;   19.000
446.715;  -23.050;  -67.000;   41.000
446.837;   70.750;  697.000;  832.000
446.959; -100.175; -457.000; -478.000
447.081; -131.875; -628.000; -518.000
447.203;   57.550;  862.000;  834.000
447.325;  -96.500; -270.000;   42.000
447.446;   -8.775;  286.000;  530.000
447.568; -158.625; -921.000; -803.000
447.690;  -84.100; -236.000; -245.000
447.812; -158.650; -798.000; -519.000
447.933;  -42.725;  155.000;  127.000
448.055;  -82.475; -306.000; -261.000
448.177;  134.025;   31.000;   79.000
448.299;   41.850; -935.000; -727.000
448.420;   12.350;  -25.000;  159.000
448.542;  -46.150;   -3.000;   33.000
448.664;  -21.575;  109.000;  322.000
448.785;  -44.525;  265.000;   83.000
448.907;  -98.100; -614.000; -353.000
449.028;  -39.500; -771.000; -471.000
449.150;   49.750;  492.000;  589.000
449.272; -201.175;-1044.000; -913.000
449.393;   25.425;  612.000;  694.000
449.515; -147.000; -634.000; -581.000
449.636;  -76.675; -264.000; -155.000
449.758;   56.975;  763.000;  622.000
449.879; -100.075; -498.000; -396.000
450.001;  -81.325; -149.000;  -49.000
450.122;  -51.325;  -95.000;  162.000
450.244;  -17.825;   37.000;  364.000
450.365;  -96.275; -495.000; -301.000
450.486;  -33.425;   80.000;  268.000
450.608;   11.975;  393.000;  326.000
450.729;   66.225;  578.000;  645.000
450.850;    4.100; -574.000; -466.000
450.972;  817.725; -552.000; -389.000
451.093; 5156.700;  190.000;  588.000
451.214; 2162.675; -516.000; -337.000
451.336;  392.850;  773.000;  579.000
451.457;   64.475;  264.000;  393.000
451.578;  -53.425; -118.000;  -74.000
451.699; -128.525; -546.000; -540.000
451.821;  -62.250; -284.000;  -50.000
451.942;   -0.825;  278.000;  285.000
452.063;   38.200;  228.000;  419.000
452.184;  564.800;  -54.000;  -49.000
452.305; 1109.925;  103.000;  170.000
452.427;  134.450; -549.000; -301.000
452.548;  -24.050;   23.000;   79.000
452.669;  -56.250; -257.000;  -89.000
452.790;  -62.175;    3.000;  -18.000
452.911;  -21.600;  195.000;  259.000
453.032;  -70.425; -289.000;  -60.000
453.153;  -63.100;  -29.000;   81.000
453.274;   42.725;  737.000;  868.000
453.395;  -54.550;  -51.000;  175.000
453.516;  120.500; 1317.000; 1388.000
453.637;  -67.000; -205.000; -150.000
453.758;  -66.650;   15.000;   69.000
453.879; -121.575; -462.000; -250.000
454.000;   73.050; 1086.000;  948.000
454.121; -108.475; -554.000; -326.000
454.242; -129.625; -599.000; -383.000
454.362;  -48.725;  -99.000;  114.000
454.483;  -44.100; -309.000; -229.000
454.604;   46.000;  512.000;  580.000
454.725; -139.350; -627.000; -555.000
454.846; -135.450; -474.000; -406.000
454.967;  -24.425;  230.000;  539.000
455.087;  -47.900;  179.000;  153.000
455.208;    4.325;  554.000;  856.000
455.329;  -60.325;  -22.000;   82.000
455.450;   43.700;  473.000;  633.000
455.570;  -81.450; -234.000; -211.000
455.691;  -57.400;  201.000;  407.000
455.812; -103.525; -270.000;  -92.000
455.932;  -76.250;  107.000;  -97.000
456.053;  -90.275;   36.000;   24.000
456.173; -126.175; -433.000; -355.000
456.294; -133.275; -476.000; -303.000
456.415;  -63.675;  -73.000;   70.000
456.535;  -39.575;  297.000;  273.000
456.656;  -50.725;  132.000;  240.000
456.776;  -84.075;    3.000;  298.000
456.897;   -6.575;  308.000;  513.000
457.017;  -65.375; -153.000;   -3.000
457.138; -127.800; -402.000; -249.000
457.258;  -33.675;  263.000;  224.000
457.379;  -18.500;  509.000;  521.000
457.499;  -18.450;  443.000;  432.000
457.620; -148.000; -407.000; -231.000
457.740;  -87.750; -132.000;  -11.000
457.860;  -68.900;   87.000;   44.000
457.981;  -54.900;  132.000;  124.000
458.101;  -86.525;  -89.000;   40.000
458.221;  -17.325;  336.000;  402.000
458.342;  -69.700;   -4.000;  -37.000
458.462;   32.325;  617.000;  352.000
458.582;  -40.725; -302.000; -294.000
458.703;    4.625;  303.000;  154.000
458.823;  -37.625;   22.000;  163.000
458.943;   30.175;  341.000;  467.000
459.063;  -26.725; 1124.000;  192.000
459.183;  -30.850;  328.000;  313.000
459.304;    9.475;  315.000;  517.000
459.424;  -75.350; -246.000;  -89.000
459.544;  341.125;  388.000;  764.000
459.664;  863.600;  499.000;  506.000
459.784;  292.850; 1004.000; 1175.000
459.904;   40.150;  867.000;  744.000
460.024;   67.500;  867.000;  684.000
460.144;    9.400;  449.000;  554.000
460.264;   -8.800;  515.000;  327.000
460.385;  -94.850; -145.000; -119.000
460.505;   31.525;  905.000;  858.000
460.625; -102.450;  -17.000;  -68.000
460.745;  -30.250;  396.000;  541.000
460.864;  -58.275;  153.000;  469.000
460.984;    6.575;  499.000;  573.000
461.104;  152.800; 1656.000; 1775.000
461.224;   17.125;  657.000;  650.000
461.344;  -44.075;  431.000;  360.000
461.464;  -40.975;  258.000;  513.000
461.584;  -32.050;  283.000;  466.000
461.704;  -61.825;   58.000;  108.000
461.824;  -51.925;  238.000;  259.000
461.943;  -62.375;  191.000;  130.000
462.063;  -87.675;    2.000;  324.000
462.183;   29.150;  639.000;  717.000
462.303;  105.175; 1678.000; 1230.000
462.422;   31.775;  781.000;  840.000
462.542;  -42.525;  271.000;  391.000
462.662;   21.075;  353.000;  380.000
462.782;  251.600;  833.000;  572.000
462.901;  481.425;  545.000;  717.000
463.021;  282.450; 1702.000; 1638.000
463.141;  -28.050;  337.000;  770.000
463.260;  -35.150;  614.000;  474.000
463.380;    4.825;  902.000;  884.000
463.499;  -32.450;  342.000;  332.000
463.619;  -45.250;  581.000;  559.000
463.738;   92.250; 1644.000;  903.000
463.858;   13.025;  657.000;  811.000
463.978;  -41.200;  542.000;  396.000
464.097;   51.850;  921.000; 1114.000
464.217;  129.825; 1196.000; 1143.000
464.336;  121.325; 1068.000; 1130.000
464.455;  -44.200;  328.000;  659.000
464.575;   25.300;  597.000;  602.000
464.694;  156.450; 1204.000; 1179.000
464.814;  118.000; 1190.000; 1138.000
464.933;   88.400; 1095.000; 1027.000
465.052;   76.725; 1412.000; 1054.000
465.172;   75.275;  922.000;  799.000
465.291;  135.825; 1376.000; 1320.000
465.410;    7.025;  462.000;  735.000
465.530;   87.525; 1355.000; 1310.000
465.649;   57.425; 1209.000; 1273.000
465.768;  139.675; 1673.000; 1508.000
465.888;   53.775;  941.000; 1174.000
466.007;  102.000; 1335.000; 1440.000
466.126;   -3.200;  721.000;  641.000
466.245;   31.725; 1176.000; 1187.000
466.364;    8.075;  950.000; 1060.000
466.484;   56.500; 1024.000; 1213.000
466.603;   37.400; 1101.000; 1222.000
466.722;  108.475; 1490.000; 1769.000
466.841;   68.300; 1151.000; 1401.000
466.960;   21.300; 1069.000;  972.000
467.079;  141.150; 1971.000; 1786.000
467.198;   40.550; 1238.000; 1181.000
467.317;   82.025; 1768.000; 1162.000
467.436;   74.925; 1709.000; 1261.000
467.555;  116.850; 1796.000; 1746.000
467.674;   68.100; 1227.000; 1329.000
467.793;   45.675; 1376.000; 1374.000
467.912;   82.500; 1658.000; 1539.000
468.031;  146.100; 2038.000; 1930.000
468.150;  135.325; 1842.000; 1837.000
468.269;  196.750; 2313.000; 2090.000
468.388;  179.175; 2168.000; 2339.000
468.507;  259.150; 2884.000; 2903.000
468.626;  235.750; 2555.000; 2541.000
468.744;  128.775; 2018.000; 2174.000
468.863;  195.725; 2312.000; 2523.000
468.982;   96.975; 1503.000; 1555.000
469.101;  217.975; 2788.000; 2692.000
469.220;  158.725; 2333.000; 2176.000
469.338;  237.575; 2935.000; 3051.000
469.457;  189.150; 2719.000; 2545.000
469.576;  339.125; 3953.000; 3784.000
469.695;  243.075; 2877.000; 3066.000
469.813;  394.975; 4148.000; 4192.000
469.932;  418.675; 4255.000; 4485.000
470.051;  426.600; 4075.000; 4161.000
470.169;  874.750; 4470.000; 4338.000
470.288; 1518.400; 4700.000; 4809.000
470.406;  861.450; 5059.000; 5194.000
470.525;  629.175; 6101.000; 5787.000
470.644;  639.350; 6847.000; 6794.000
470.762;  820.525; 8397.000; 7873.000
470.881;  914.750; 8651.000; 8464.000
470.999; 1076.050; 9685.000; 9151.000
471.118; 1123.875;11174.000;10711.000

