
Integration time [ms]: 100.000
Averaging Nr. [scans]: 40
Smoothing Nr. [pixels]: 0
Data measured with spectrometer [name]: 2101012U2
Wave   ;Sample   ;Dark     ;Reference
[nm]   ;[counts] ;[counts] ;[counts] 

197.733;   65.200;  516.000;  404.000
197.879;  -76.575; -610.000; -634.000
198.025;  -38.800; -475.000; -420.000
198.171;  -70.225; -602.000; -612.000
198.317;  -44.025; -401.000; -316.000
198.463;  -62.500; -655.000; -404.000
198.609;   17.475;  181.000; -137.000
198.755;  -78.425; -644.000; -410.000
198.901;  -64.350; -505.000; -424.000
199.047;  -64.100; -615.000; -488.000
199.193;  -34.825; -230.000; -468.000
199.339;  -55.550; -222.000; -369.000
199.485;   53.000;  330.000;  271.000
199.631;    7.300;  227.000;  310.000
199.777;  -42.550; -466.000; -398.000
199.923;  -61.625; -610.000; -424.000
200.069;    5.550; -141.000;  -58.000
200.215;   55.150;  128.000;  453.000
200.361;   43.525;  243.000;  477.000
200.507;  -57.100; -600.000; -373.000
200.653;  -13.850; -371.000; -194.000
200.798;  -52.400; -215.000; -125.000
200.944;    2.325; -146.000;  -41.000
201.090;   33.675;   61.000;  222.000
201.236;   -1.450; -116.000; -158.000
201.382;  133.750;  874.000;  903.000
201.528;    4.875;  -58.000;  -48.000
201.674;  -55.825; -386.000; -293.000
201.819;  -62.875; -540.000; -439.000
201.965;  -76.625; -699.000; -447.000
202.111;  -21.225; -273.000; -226.000
202.257;  -46.000; -250.000; -238.000
202.402;    9.125;   13.000;  -36.000
202.548;  -41.775; -169.000; -116.000
202.694;   67.775;  410.000; -183.000
202.840;  -77.900; -603.000; -531.000
202.985;  -75.575; -681.000; -639.000
203.131; -107.850; -832.000; -666.000
203.277;  -18.125; -199.000; -262.000
203.423;  -47.925; -434.000; -520.000
203.568;  -41.225; -462.000; -237.000
203.714;  -58.325; -535.000; -542.000
203.860;  -79.575; -682.000; -641.000
204.005;    1.900;  112.000;  167.000
204.151;   77.850;  561.000;  556.000
204.296;  -51.800; -354.000; -221.000
204.442;  -60.475; -600.000; -547.000
204.588;  -71.550; -592.000; -579.000
204.733;   20.225;  178.000;  168.000
204.879; -132.750;-1018.000; -822.000
205.025;   21.800;  -99.000;  126.000
205.170;   -2.625;  -17.000;   94.000
205.316;   78.425;  438.000;  661.000
205.461;  -86.950; -698.000; -554.000
205.607;   74.175;  609.000;  665.000
205.752;  -85.825; -626.000; -551.000
205.898;  -55.750; -501.000; -391.000
206.043;  -59.450; -578.000; -506.000
206.189;  -36.425; -243.000; -285.000
206.334;   73.600;  554.000;  606.000
206.480;   67.850;  409.000;  239.000
206.625;  -81.425; -529.000; -552.000
206.771;  -37.750; -451.000; -373.000
206.916;  -44.125; -210.000; -537.000
207.062;  -71.625; -545.000; -591.000
207.207;  -59.450; -546.000; -443.000
207.353;   57.350;  185.000;  460.000
207.498;   14.950;  196.000;   85.000
207.643;  -55.100; -501.000; -370.000
207.789; -122.725;-1069.000; -910.000
207.934;  -93.150; -665.000; -713.000
208.080;  -29.050; -154.000;   66.000
208.225;   -6.175;  -22.000;  -57.000
208.370;  -91.025; -727.000; -619.000
208.516;  -59.200; -741.000; -487.000
208.661;  -20.025; -127.000;  -69.000
208.806;  -17.675; -165.000; -171.000
208.952; -132.825;-1044.000; -731.000
209.097;   85.825;  378.000;  349.000
209.242;  -48.650; -307.000; -382.000
209.387;   50.125;  392.000;  350.000
209.533;  -57.675; -321.000; -350.000
209.678;   74.375;  472.000;  543.000
209.823;  -56.425; -408.000; -310.000
209.969;  -93.575; -860.000; -757.000
210.114; -104.850; -907.000; -719.000
210.259; -114.025; -939.000; -889.000
210.404;  -17.625; -171.000;  103.000
210.549;    4.800;  108.000;    3.000
210.695;  -19.000;   -3.000;  -95.000
210.840;   33.375;   94.000;   67.000
210.985;  -70.500; -484.000; -303.000
211.130;   70.725;  268.000;  406.000
211.275;    8.325;  207.000;  199.000
211.420;  -42.575; -300.000; -289.000
211.566;  -72.450; -536.000; -489.000
211.711;   31.825;  218.000;  157.000
211.856;  -78.375; -545.000; -519.000
212.001;   19.125;  151.000;   44.000
212.146;   11.400;  153.000;   49.000
212.291;   -9.925; -210.000; -186.000
212.436;  -15.150; -280.000;   -6.000
212.581;  -97.325; -685.000; -653.000
212.726;  -71.825; -487.000; -538.000
212.871;  -49.400; -552.000; -217.000
213.016; -157.675;-1172.000;-1029.000
213.161;   58.125;  406.000;  291.000
213.306;  -76.750; -435.000; -577.000
213.451;  -82.325; -778.000; -689.000
213.596;  -51.925; -455.000; -347.000
213.741;  -48.475; -448.000; -538.000
213.886;  -79.800; -498.000; -517.000
214.031;   -9.125; -294.000; -124.000
214.176;  -63.325; -408.000; -341.000
214.321;  -20.800; -296.000; -157.000
214.466;  -15.225; -163.000;  -43.000
214.611;    6.650;  -61.000;  -10.000
214.756; -119.700; -948.000; -858.000
214.901;  -21.625; -388.000; -226.000
215.046; -135.325; -797.000; -825.000
215.191;    1.100;  128.000;   35.000
215.336;  -17.650; -157.000;  -19.000
215.480;  -61.525; -684.000; -505.000
215.625;   -8.850; -175.000;  -19.000
215.770;  -78.050; -757.000; -662.000
215.915;   -9.375;   -5.000;  -97.000
216.060;  -20.225; -113.000;  -21.000
216.205; -118.075; -731.000; -779.000
216.349;  -79.675; -470.000; -533.000
216.494; -130.725; -939.000; -867.000
216.639; -123.325; -823.000; -888.000
216.784;  -89.875; -577.000; -525.000
216.929;   59.100;  392.000;  281.000
217.073;  -13.850; -244.000;  -31.000
217.218;   20.875;   78.000;  -47.000
217.363;  -92.675; -656.000; -618.000
217.507;  -58.075; -623.000; -588.000
217.652; -136.675; -845.000; -874.000
217.797;  -92.700; -708.000; -659.000
217.942; -114.575; -856.000; -720.000
218.086;   69.275;  608.000;  539.000
218.231;  -16.850; -174.000;  -26.000
218.376;  -26.825; -337.000; -229.000
218.520;   -0.400;  -41.000;   96.000
218.665;  -26.725; -338.000; -204.000
218.810;  -41.925; -275.000; -233.000
218.954;   26.825;  201.000;   35.000
219.099; -112.575; -713.000; -963.000
219.243;  -67.200; -589.000; -554.000
219.388;  -38.200; -264.000; -136.000
219.532;   -6.475; -116.000; -116.000
219.677;  -69.275; -564.000; -521.000
219.822;    8.075;   33.000;   89.000
219.966;   11.925;   17.000;  -99.000
220.111;  -28.050; -328.000;  -40.000
220.255; -103.450; -797.000; -750.000
220.400;  -28.675; -180.000; -146.000
220.544;  -76.450; -516.000; -450.000
220.689;  -49.650; -422.000; -451.000
220.833;  -28.025; -123.000;  -58.000
220.978;  -48.300; -393.000; -563.000
221.122;   20.325;  319.000;  307.000
221.267; -111.925; -906.000; -837.000
221.411;  -73.825; -478.000; -394.000
221.555;   -9.825; -104.000;  -23.000
221.700;  -49.750; -329.000; -222.000
221.844;   24.000;  255.000;  272.000
221.989;  -52.975; -328.000; -311.000
222.133;  -32.050; -289.000; -307.000
222.277;  -12.125;    5.000;   78.000
222.422;    7.750;  227.000;  113.000
222.566;  -41.400; -381.000; -214.000
222.711;  -46.125; -414.000; -479.000
222.855;  -69.550; -643.000; -586.000
222.999;  -74.200; -642.000; -717.000
223.144;  -47.225; -195.000; -194.000
223.288;   50.950;  423.000;  251.000
223.432;   28.250;  184.000;  230.000
223.576;   22.525;  152.000;  -21.000
223.721;   37.575;  364.000;  273.000
223.865;  -58.075; -472.000; -475.000
224.009;  231.525; 1673.000; 1631.000
224.153;  -73.475; -660.000; -671.000
224.298;  -66.800; -531.000; -489.000
224.442;  -10.175;  -74.000;  -33.000
224.586;  -18.050; -169.000; -106.000
224.730;  -95.025; -858.000; -670.000
224.875; -119.200; -739.000; -688.000
225.019;   13.900;  102.000;  188.000
225.163;   34.175;  208.000;  341.000
225.307;   18.125;   97.000;  -91.000
225.451;   45.900;  360.000;  481.000
225.595;   41.400;  264.000;  176.000
225.739;  -25.875; -170.000;  -94.000
225.884;   14.875;   86.000;    5.000
226.028; -102.625; -760.000; -626.000
226.172;  -37.025; -260.000; -273.000
226.316; -123.125; -941.000; -902.000
226.460;  -66.625; -645.000; -493.000
226.604;  -50.025; -406.000; -400.000
226.748;  -97.425; -836.000; -733.000
226.892;  -38.950; -227.000; -181.000
227.036;  -43.750; -537.000; -447.000
227.180;  -60.475; -551.000; -375.000
227.324;  -67.875; -561.000; -580.000
227.468; -107.000; -819.000; -717.000
227.612;   13.475;  242.000;  -28.000
227.756; -103.850; -845.000; -698.000
227.900;   50.250;  342.000;  441.000
228.044;  -68.450; -509.000; -290.000
228.188;   55.025;  448.000;  568.000
228.332;  -80.125; -546.000; -472.000
228.476;  -24.850; -223.000; -149.000
228.620;  -44.275; -210.000; -150.000
228.764;   63.350;  431.000;  349.000
228.908;  -23.175; -155.000;   30.000
229.052;  -63.350; -615.000; -528.000
229.195;  -19.500; -172.000;   13.000
229.339;  -18.925; -235.000; -305.000
229.483;  -37.675;    5.000; -162.000
229.627;   -9.925; -156.000;  139.000
229.771;  -60.875; -218.000; -294.000
229.915;   20.125;  230.000;   79.000
230.059; -105.750; -648.000; -663.000
230.202;  -40.900; -370.000; -317.000
230.346;  -30.725; -107.000;  107.000
230.490;  -60.500; -489.000; -521.000
230.634; -109.225; -736.000; -553.000
230.777;   63.975;  478.000;  509.000
230.921;  -82.500; -450.000; -359.000
231.065;  -39.425; -246.000; -286.000
231.209;   19.650;  261.000;  265.000
231.352;   20.850;   54.000;   40.000
231.496;   -2.350;  568.000;  188.000
231.640;  -72.325; -693.000; -621.000
231.783;   64.075;  546.000;  525.000
231.927;  -45.900; -294.000; -365.000
232.071; -119.450; -962.000; -736.000
232.214; -108.900; -980.000; -764.000
232.358; -101.675; -683.000; -599.000
232.502;   14.025;  -19.000;    7.000
232.645; -144.900;-1090.000; -927.000
232.789;  -34.400; -257.000; -218.000
232.933;  -50.275; -407.000; -224.000
233.076; -115.775;-1038.000; -897.000
233.220; -108.900; -752.000; -777.000
233.363;  -77.000; -669.000; -477.000
233.507;   43.075;  371.000;  129.000
233.650;  -89.975; -764.000; -834.000
233.794;   37.200;  438.000;  461.000
233.938;  -53.225; -530.000; -362.000
234.081;  -23.625;  -93.000;   31.000
234.225;  -73.075; -631.000; -539.000
234.368; -115.200; -773.000; -723.000
234.512;  -48.675; -385.000; -299.000
234.655;  -81.250; -582.000; -555.000
234.798;  -53.350; -493.000; -466.000
234.942; -131.850; -884.000;-1002.000
235.085;  -60.475; -651.000; -443.000
235.229;  -74.300; -405.000; -410.000
235.372;  -59.100; -247.000; -191.000
235.516;  -74.500; -397.000; -321.000
235.659;   20.500;   92.000;  121.000
235.802;  -29.625;  -38.000;  -22.000
235.946;   38.800;  335.000;  215.000
236.089;   29.025;  126.000;  250.000
236.233;   60.750;  275.000;  298.000
236.376;  -41.975; -235.000; -378.000
236.519;  -41.850; -297.000; -319.000
236.663;  -25.425; -215.000; -117.000
236.806; -137.950;-1029.000; -999.000
236.949;   46.225;  543.000;  431.000
237.092;   59.025;  412.000;  391.000
237.236;  -80.225; -589.000; -502.000
237.379;   59.650;  352.000;  428.000
237.522; -123.100; -879.000; -768.000
237.666;  -18.025; -271.000;   18.000
237.809; -124.900; -851.000; -823.000
237.952;   32.125;  469.000;  271.000
238.095;  -59.600; -447.000; -442.000
238.238;   88.200;  688.000;  700.000
238.382;   -6.675;  166.000;  103.000
238.525;  -68.225; -598.000; -511.000
238.668; -142.650;-1060.000; -985.000
238.811;  -85.825; -638.000; -643.000
238.954;  -70.050; -483.000; -334.000
239.097;   83.775;  617.000;  664.000
239.241;   16.950;  394.000;  326.000
239.384;  -18.500; -254.000; -214.000
239.527;  -69.750; -424.000; -224.000
239.670; -136.550; -994.000;-1091.000
239.813; -116.550; -696.000; -658.000
239.956;   77.700;  579.000;  473.000
240.099; -120.750; -778.000; -725.000
240.242;   50.675;  428.000;  432.000
240.385;   29.350;  466.000;  450.000
240.528;  -75.400; -706.000; -473.000
240.671;    2.200;  189.000;  134.000
240.814;  -44.275; -441.000; -158.000
240.957; -112.575; -767.000; -578.000
241.100;  -94.050; -779.000; -755.000
241.243; -154.000;-1234.000; -893.000
241.386;  -59.725; -508.000; -379.000
241.529; -100.525; -735.000; -547.000
241.672;  -58.600; -566.000; -495.000
241.815; -129.275; -832.000; -808.000
241.958;  -24.975; -125.000; -182.000
242.101;  -74.350; -545.000; -390.000
242.244;  -39.550; -270.000; -325.000
242.387;  -44.800; -304.000; -246.000
242.530;   51.675;  470.000;  134.000
242.673;  -64.650; -381.000; -309.000
242.815; -114.075; -925.000; -899.000
242.958;  -85.625; -482.000; -381.000
243.101;   23.375;  132.000;  187.000
243.244;  -82.825; -564.000; -521.000
243.387;  -43.400; -313.000; -316.000
243.530; -112.525; -657.000; -674.000
243.672;    7.125;   43.000;  -92.000
243.815;  -67.100; -355.000; -283.000
243.958;   13.350;   98.000;  -26.000
244.101;    4.100;   59.000;  -16.000
244.243;  -12.125;  -47.000;  101.000
244.386; -113.950; -761.000; -630.000
244.529;  -31.225; -132.000; -139.000
244.672; -157.250;-1154.000; -951.000
244.814;  -90.775; -621.000; -794.000
244.957;  -59.875; -380.000; -304.000
245.100;  -71.825; -489.000; -489.000
245.242;  -65.225; -387.000; -374.000
245.385;    3.850;  -59.000;  -39.000
245.528; -129.000; -871.000; -705.000
245.670;   71.950;  612.000;  634.000
245.813;  -95.725; -599.000; -547.000
245.956;  -31.450; -324.000; -275.000
246.098;  -83.025; -508.000; -650.000
246.241;   10.350;  194.000;   48.000
246.383;  -29.525; -119.000;  -73.000
246.526;  -71.050; -454.000; -525.000
246.669; -131.675; -889.000; -780.000
246.811;    5.125;  172.000;   -1.000
246.954;  -79.775; -512.000; -426.000
247.096;  -15.150;  -84.000;   -6.000
247.239;  -72.400; -482.000; -445.000
247.381;  -58.600; -647.000; -488.000
247.524;   64.125;  645.000;  679.000
247.666;  -14.450;   58.000;   11.000
247.809; -118.150; -887.000; -691.000
247.951;   -6.000;  -75.000;  138.000
248.094;   29.825;  432.000;  308.000
248.236; -159.150;-1262.000;-1238.000
248.378;   -7.825; -356.000;  -81.000
248.521;  -15.150; -334.000; -337.000
248.663;  -46.100; -236.000; -267.000
248.806;  -21.900; -300.000; -266.000
248.948;  -93.850; -886.000; -763.000
249.090;  -51.075; -428.000; -398.000
249.233;  -59.900; -344.000; -381.000
249.375;  -76.500; -474.000; -451.000
249.518;  -31.050;  -83.000; -133.000
249.660;  -15.550; -103.000;    3.000
249.802; -168.300;-1303.000;-1189.000
249.945;  -75.725; -612.000; -540.000
250.087; -116.950; -834.000; -768.000
250.229;  -65.300; -362.000; -480.000
250.371;  -87.400; -494.000; -439.000
250.514;  -53.600; -310.000; -244.000
250.656;  -13.150;   69.000;  102.000
250.798; -112.025; -849.000; -800.000
250.940;  -64.225; -322.000; -322.000
251.083;  -24.100; -335.000; -111.000
251.225;   56.900;  338.000;  310.000
251.367;  -50.125; -274.000; -373.000
251.509;  -45.550; -265.000; -210.000
251.651;  -94.200; -731.000; -671.000
251.794;   39.975;  538.000;  632.000
251.936; -111.250; -821.000; -747.000
252.078;  -85.875; -540.000; -461.000
252.220;  -80.450; -645.000; -477.000
252.362;   84.575;  344.000;  462.000
252.504;  -63.375; -677.000; -584.000
252.646; -121.100; -875.000; -722.000
252.788;   -1.825;   14.000; -128.000
252.931;  -41.125; -257.000; -253.000
253.073;  -38.850; -376.000; -317.000
253.215;  -32.625;  141.000;  122.000
253.357;  -20.775;   82.000; -153.000
253.499;  -60.600; -374.000; -234.000
253.641;  -88.975; -749.000; -594.000
253.783;  -99.975; -609.000; -527.000
253.925;  -87.750; -586.000; -591.000
254.067; -118.800; -744.000; -667.000
254.209;  -20.975; -391.000; -259.000
254.351; -139.800; -865.000; -883.000
254.493;  -61.125; -441.000; -417.000
254.635; -126.325; -936.000; -818.000
254.777;  -82.275; -752.000; -687.000
254.918;  -78.575; -512.000; -430.000
255.060;  -59.175; -551.000; -395.000
255.202;  -68.300; -473.000; -261.000
255.344;  -71.800; -658.000; -455.000
255.486;  -79.150; -471.000; -406.000
255.628; -101.425; -780.000; -781.000
255.770; -100.975; -676.000; -536.000
255.912;  -66.225; -559.000; -468.000
256.053;  -93.975; -730.000; -508.000
256.195;  146.225; 1008.000;  903.000
256.337;  -93.275; -861.000; -595.000
256.479;   65.525;  532.000;  416.000
256.621;  -57.275; -394.000; -212.000
256.762;  -93.525; -789.000; -742.000
256.904;   38.275;  485.000;  487.000
257.046;  -48.675; -381.000; -271.000
257.188;  -57.100; -351.000; -264.000
257.329;  -81.325; -525.000; -464.000
257.471; -120.075; -939.000; -807.000
257.613;  -49.150; -584.000; -498.000
257.755; -152.275;-1073.000; -982.000
257.896;   42.700;  286.000;  392.000
258.038;  -73.975; -403.000; -352.000
258.180;  -38.275; -354.000; -279.000
258.321;  -81.650; -581.000; -457.000
258.463;  -14.150;  -71.000;  133.000
258.605; -103.100; -562.000; -570.000
258.746; -102.350; -886.000; -772.000
258.888; -152.200;-1026.000;-1020.000
259.029;   28.350;  121.000;   -8.000
259.171;  -97.575; -614.000; -550.000
259.313;   -8.175;  -49.000;  -47.000
259.454;  -71.475; -536.000; -414.000
259.596;  -47.725; -483.000; -390.000
259.737;  -78.475; -590.000; -474.000
259.879;   40.325;  217.000;  311.000
260.020;   85.425;  901.000;  636.000
260.162;  -36.825; -146.000; -253.000
260.303; -123.650; -768.000; -687.000
260.445;  -88.375; -609.000; -613.000
260.586;   15.325;  392.000;  157.000
260.728;  -28.925; -360.000; -248.000
260.869; -126.075; -350.000; -343.000
261.011;   75.950;  706.000;  537.000
261.152;  -82.500; -479.000; -319.000
261.293;  -80.725; -576.000; -595.000
261.435;  -42.325; -219.000; -184.000
261.576;  -70.500; -455.000; -325.000
261.718;   51.850;  420.000;  470.000
261.859; -119.775; -940.000; -949.000
262.000; -134.125; -951.000;-1016.000
262.142;  -17.625;  -52.000;  -60.000
262.283; -115.450; -808.000; -691.000
262.424;  -83.000; -666.000; -625.000
262.566; -156.800;-1161.000; -983.000
262.707; -120.275; -840.000; -830.000
262.848; -118.375; -769.000; -726.000
262.990;  -52.375; -362.000; -345.000
263.131;   56.275;  650.000;  681.000
263.272;  -15.475;  -61.000;  -41.000
263.413;  -93.650; -589.000; -561.000
263.555;  -58.925; -669.000; -143.000
263.696;  -84.475; -550.000; -641.000
263.837;  -52.950; -449.000; -551.000
263.978;  -15.775;   -5.000;  -77.000
264.119;  -52.600; -283.000; -264.000
264.261; -108.500; -847.000; -630.000
264.402;    3.025;   33.000;   40.000
264.543;  -86.850; -509.000; -524.000
264.684;   -4.425;   61.000;  -50.000
264.825;  -68.550; -816.000; -538.000
264.966;  -14.625;  -84.000;  -67.000
265.107; -113.850; -646.000; -670.000
265.248; -115.350; -825.000; -812.000
265.390;  -10.600;  152.000;   -9.000
265.531;  -14.600; -238.000; -107.000
265.672; -109.350; -557.000; -630.000
265.813;   73.850;  563.000;  439.000
265.954; -151.800; -959.000; -940.000
266.095;  -12.450; -372.000; -322.000
266.236;  -99.625; -686.000; -548.000
266.377;  -27.075; -243.000; -297.000
266.518;  -89.050; -619.000; -547.000
266.659;   32.225;  170.000;  268.000
266.800;    8.625;   83.000;   85.000
266.941;  -88.025; -487.000; -478.000
267.082;    4.325;  354.000;   99.000
267.223;  -65.350; -344.000; -273.000
267.364; -118.975; -892.000; -686.000
267.504;  -20.125;    3.000;  135.000
267.645;  -11.825;  160.000;   67.000
267.786;  -29.200; -147.000;  -86.000
267.927;  -76.050; -473.000; -379.000
268.068;  -11.750; -186.000;  -61.000
268.209;  -48.150; -175.000; -413.000
268.350;  -50.675; -388.000; -532.000
268.490;  -96.300; -648.000; -521.000
268.631;   25.875;  127.000;  225.000
268.772; -118.925; -874.000; -647.000
268.913;  -47.575; -328.000; -476.000
269.054;  -20.275; -117.000;   12.000
269.194;  -57.975; -418.000; -402.000
269.335; -163.350;-1137.000;-1074.000
269.476;  -29.900;   33.000;  -35.000
269.617;  -43.375; -347.000; -392.000
269.757;  -90.475; -713.000; -646.000
269.898; -103.725; -856.000; -613.000
270.039;  -63.450; -415.000; -405.000
270.180; -139.075; -952.000; -816.000
270.320;  -18.350; -190.000; -250.000
270.461;  -53.925; -277.000; -249.000
270.602;    0.625; -186.000; -156.000
270.742; -129.400; -868.000; -943.000
270.883;  -63.500; -442.000; -390.000
271.023;  -58.200; -358.000; -357.000
271.164;  -60.150; -607.000; -528.000
271.305;  -94.025; -666.000; -654.000
271.445;  -87.550; -722.000; -683.000
271.586;  -85.475; -462.000; -283.000
271.726;  -57.500; -397.000; -322.000
271.867;  -46.425; -594.000; -534.000
272.008;  190.750; -473.000; -285.000
272.148;  127.925;  462.000;  468.000
272.289;   -0.925; -113.000; -181.000
272.429;    2.100;   19.000;  185.000
272.570;  -95.950; -633.000; -737.000
272.710; -113.975; -825.000; -775.000
272.851;  -24.250;  113.000; -130.000
272.991; -171.250;-1173.000;-1077.000
273.131;  -62.700; -419.000; -459.000
273.272; -109.825; -683.000; -723.000
273.412;   -0.800; -143.000;  -31.000
273.553;  -60.100; -488.000; -507.000
273.693;  131.375;  913.000;  858.000
273.834;  -84.425; -894.000; -692.000
273.974;  -66.600; -664.000; -615.000
274.114; -107.300; -772.000; -560.000
274.255;   91.925;  414.000;  373.000
274.395;   -6.750; -180.000; -125.000
274.535;   30.925;  199.000;  350.000
274.676;   13.200;  225.000;   94.000
274.816;   11.500;  110.000;   34.000
274.956;  -93.050; -624.000; -690.000
275.097;  -68.500;-1014.000; -922.000
275.237; -104.150; -913.000; -803.000
275.377;  -93.275; -778.000; -689.000
275.517; -152.375; -878.000; -937.000
275.658;  -53.150; -590.000; -555.000
275.798;  -72.125; -606.000; -413.000
275.938;   25.375;  215.000;  323.000
276.078; -104.525; -626.000; -395.000
276.218;   15.000;   99.000;  104.000
276.359; -132.400;-1026.000;-1024.000
276.499;  -60.675; -605.000; -446.000
276.639;  -52.225; -305.000; -151.000
276.779;  -55.375; -475.000; -357.000
276.919; -102.100; -783.000; -624.000
277.059;  -19.425; -261.000; -212.000
277.199;  -31.400; -357.000; -259.000
277.340;   22.925;  287.000;  175.000
277.480; -125.325; -840.000; -693.000
277.620;   17.950;  192.000;   16.000
277.760; -202.500;-1533.000;-1294.000
277.900;   23.475;  113.000;   33.000
278.040;    9.100;  137.000;  159.000
278.180;   37.025;  270.000;  170.000
278.320;   -6.475;   21.000;   56.000
278.460;  -61.450; -443.000; -469.000
278.600;  -93.650; -708.000; -598.000
278.740;   52.025;  448.000;  224.000
278.880;  -49.175; -768.000; -791.000
279.020;   -0.325; -194.000; -144.000
279.160;  -96.400; -672.000; -595.000
279.300; -107.250; -926.000; -873.000
279.440;  -98.350; -709.000; -622.000
279.579;  -21.275;-1014.000; -929.000
279.719;  -54.800; -410.000; -394.000
279.859;   76.100;   -4.000;   41.000
279.999;   27.650; -208.000;  101.000
280.139;  -20.375; -435.000; -387.000
280.279;  -79.000; -708.000; -745.000
280.419;  -10.250; -229.000; -147.000
280.559;  -43.325; -259.000; -180.000
280.698;  -75.375; -790.000; -639.000
280.838;  -92.450; -778.000; -800.000
280.978;  -99.925; -846.000; -790.000
281.118; -124.575; -811.000; -704.000
281.257;    6.800;   24.000;    6.000
281.397; -114.625;-1094.000; -960.000
281.537;  -93.925; -599.000; -712.000
281.677;  -26.200; -150.000; -101.000
281.816;  -79.325; -700.000; -630.000
281.956;  -34.550; -193.000; -257.000
282.096;  -63.600; -539.000; -396.000
282.235; -119.200; -672.000; -638.000
282.375;  -34.300; -243.000;  -98.000
282.515; -109.300; -715.000; -707.000
282.654;   11.850;   29.000;  106.000
282.794;   23.575;  388.000;  244.000
282.934;  -50.425; -530.000; -491.000
283.073; -140.850;-1030.000; -857.000
283.213;  -57.850; -460.000; -467.000
283.353;  -20.725; -408.000; -349.000
283.492;  -26.825; -264.000; -296.000
283.632;  -49.775; -254.000; -168.000
283.771;  -92.000; -859.000; -730.000
283.911;  -53.675; -369.000; -260.000
284.050;  -97.725; -794.000; -748.000
284.190; -166.875;-1229.000;-1096.000
284.329; -133.425;-1055.000; -964.000
284.469;  -77.875; -516.000; -591.000
284.608;  -61.325; -559.000; -598.000
284.748;  -91.075; -614.000; -570.000
284.887;    0.875;  -87.000;  -20.000
285.027; -104.550; -844.000; -892.000
285.166;  -35.125; -192.000; -249.000
285.306;   -0.700; -116.000;  -33.000
285.445;  -39.525; -229.000; -343.000
285.584; -102.225; -630.000; -494.000
285.724;  -51.175; -282.000; -322.000
285.863; -104.050; -857.000; -507.000
286.002;  -64.850; -366.000; -276.000
286.142; -107.375; -715.000; -622.000
286.281;  -64.000; -525.000; -493.000
286.420;  -85.875; -554.000; -417.000
286.560;   96.250;  653.000;  623.000
286.699; -138.700; -958.000; -912.000
286.838;  -77.950; -590.000; -591.000
286.978;  -94.725; -533.000; -537.000
287.117; -133.275;-1085.000; -950.000
287.256;  -34.200; -228.000; -211.000
287.395;  -46.575; -197.000; -378.000
287.535;  -45.025; -370.000; -298.000
287.674;  -76.125; -509.000; -484.000
287.813;   47.025;  661.000;  533.000
287.952; -128.225;-1010.000; -871.000
288.091; -157.100;-1049.000; -915.000
288.231;    8.475;   13.000;   15.000
288.370; -180.850;-1217.000;-1200.000
288.509;  -84.550; -728.000; -645.000
288.648;  -93.225; -770.000; -548.000
288.787;  -26.900; -243.000;  -87.000
288.926;  -70.700; -454.000; -475.000
289.065;  119.900;  859.000;  672.000
289.204;  -68.675; -377.000; -217.000
289.344;  -91.625; -791.000; -690.000
289.483;   15.450;  416.000;  304.000
289.622;  -10.650; -291.000; -149.000
289.761;  -27.275; -309.000; -166.000
289.900; -103.700; -785.000; -626.000
290.039;  -37.950;  -12.000;  -95.000
290.178;  -48.250; -274.000; -180.000
290.317;  -98.675; -618.000; -479.000
290.456;  -67.225; -463.000; -451.000
290.595; -127.875; -961.000; -833.000
290.734; -134.050; -904.000; -891.000
290.873;  -75.775; -456.000; -420.000
291.011; -101.275; -833.000; -843.000
291.150; -116.350; -770.000; -682.000
291.289;  -21.325; -343.000; -110.000
291.428;  -79.550; -599.000; -480.000
291.567;  -59.525; -370.000; -442.000
291.706;   -4.075;  109.000;  154.000
291.845; -100.225; -597.000; -505.000
291.984; -166.725;-1234.000;-1061.000
292.122;   63.850;  602.000;  582.000
292.261;   47.450;  620.000;  463.000
292.400;    0.500; -144.000;  211.000
292.539; -130.325; -959.000; -813.000
292.678;  -43.500; -325.000; -300.000
292.816; -163.725;-1136.000; -965.000
292.955;  -88.425; -844.000; -684.000
293.094;  -35.175; -173.000; -337.000
293.233;  -65.700; -556.000; -400.000
293.371;  -39.600; -225.000;  -84.000
293.510; -103.350; -866.000; -780.000
293.649; -134.650; -959.000; -924.000
293.787;  -53.100;-1083.000;-1012.000
293.926;  -13.325; -113.000;  -32.000
294.065;  -34.725; -379.000; -290.000
294.203;   53.625;  298.000;  406.000
294.342;   21.125;   74.000;  156.000
294.481; 5626.050;51180.000; -836.000
294.619;  -34.500; -425.000; -582.000
294.758; -143.025;-1230.000;-1137.000
294.896;   71.400; -125.000;    5.000
295.035; -120.425;-1040.000;-1006.000
295.174; -111.600;-1082.000; -954.000
295.312;  -47.950; -323.000; -203.000
295.451;  -15.550; -307.000; -428.000
295.589;  -53.500; -389.000; -518.000
295.728;   16.625; -292.000; -165.000
295.866;   -9.150;  -36.000;  -51.000
296.005;  -64.775; -584.000; -341.000
296.143;  -73.550; -558.000; -596.000
296.282;  -85.650; -957.000; -881.000
296.420;  -96.550; -657.000; -557.000
296.559;  -92.100; -892.000; -633.000
296.697;   20.525; -847.000; -665.000
296.835;   89.025;-1141.000;-1002.000
296.974;   37.350;  -23.000;   39.000
297.112;   16.750; -443.000; -504.000
297.251;  -79.300; -815.000; -755.000
297.389;  111.925; -576.000; -438.000
297.527;   37.500; -145.000;  -83.000
297.666;  -65.850; -486.000; -438.000
297.804;  -50.725; -404.000; -264.000
297.942;  -15.125; -136.000; -161.000
298.081;  -16.400; -183.000;   63.000
298.219;   73.800;  -17.000;  -19.000
298.357;   46.325; -144.000;  -71.000
298.495;   47.950; -810.000; -812.000
298.634;   71.975;  245.000;  219.000
298.772;   66.250; -220.000; -338.000
298.910;  -36.375; -309.000; -182.000
299.048;   -9.100; -130.000; -153.000
299.187;  -36.050; -350.000; -250.000
299.325;   22.525;   52.000;  122.000
299.463;   59.100; -389.000; -299.000
299.601;  119.925; -327.000; -271.000
299.739; -101.200; -908.000; -883.000
299.877;  -80.550; -791.000; -703.000
300.016;  -32.875;-1095.000; -935.000
300.154;  184.750;  -19.000; -161.000
300.292;   61.700; -428.000; -348.000
300.430;   23.400; -408.000; -291.000
300.568; -100.775; -940.000; -874.000
300.706;  -43.475; -366.000; -469.000
300.844;  -74.675;-1108.000; -979.000
300.982;  111.950;  246.000;  282.000
301.120; -115.275; -965.000; -866.000
301.258;  -53.050; -812.000; -705.000
301.396;   17.975;  104.000;  -41.000
301.534;   88.225; -218.000; -293.000
301.672;   -1.000; -664.000; -521.000
301.810;   55.000; -613.000; -545.000
301.948;  121.850;   53.000;  149.000
302.086;  676.600; -250.000;  -32.000
302.224;  994.025; -610.000; -585.000
302.362;   46.675; -558.000; -622.000
302.500;  -24.625; -923.000; -893.000
302.638;  123.550;  128.000;  245.000
302.776;   -3.350; -352.000; -408.000
302.913;   50.825;  447.000;  236.000
303.051;   -5.775;  -86.000;  -23.000
303.189;   60.175;   90.000;  118.000
303.327;  -39.875; -341.000; -256.000
303.465;  -75.150; -832.000; -588.000
303.603;  -82.150; -805.000; -604.000
303.740;  108.900;  417.000;  241.000
303.878;   20.500; -800.000; -759.000
304.016;  -92.750; -915.000; -790.000
304.154; -123.275;-1123.000;-1152.000
304.291;  -31.900; -505.000; -554.000
304.429;    3.300;  102.000;   74.000
304.567; -124.175; -908.000; -893.000
304.705;  -49.875; -408.000; -515.000
304.842;  120.750; -616.000; -540.000
304.980;   58.150;  215.000;   35.000
305.118;   57.575; -367.000; -365.000
305.255;  -63.600; -945.000; -927.000
305.393;   58.850;  178.000;  239.000
305.531;  -90.700;-1173.000; -956.000
305.668;  -64.450; -663.000; -582.000
305.806;  118.050; -358.000; -439.000
305.943;  115.125; -629.000; -637.000
306.081;   60.450; -378.000; -267.000
306.219; -106.500; -863.000; -748.000
306.356;    9.275;  158.000;   27.000
306.494;  101.100;  981.000;  761.000
306.631;  -11.150;  -11.000;  -55.000
306.769;    6.350; -613.000; -485.000
306.906;  -17.175; -284.000; -258.000
307.044;  -64.825; -473.000; -488.000
307.181;  -81.100; -410.000; -332.000
307.319;   12.925;  112.000;   87.000
307.456; -177.125;-1191.000;-1153.000
307.594;  -89.325; -980.000; -727.000
307.731;  -11.800; -371.000; -164.000
307.868;   -3.125;  -15.000;   20.000
308.006; -144.800; -961.000; -847.000
308.143;  -61.975; -618.000; -330.000
308.281;  183.325;  -37.000; -254.000
308.418;    1.125; -748.000; -640.000
308.555;  -71.750; -400.000; -250.000
308.693;  -61.975; -577.000; -573.000
308.830; -112.875; -712.000; -657.000
308.967;   -4.800; -215.000;  -95.000
309.105;  -57.925; -507.000; -396.000
309.242;   48.075; -468.000; -367.000
309.379;  350.525; -577.000; -655.000
309.517;  -55.475; -936.000; -948.000
309.654;  -98.025; -910.000; -734.000
309.791;  -71.300; -662.000; -580.000
309.928; -117.450; -977.000; -914.000
310.065;  181.900;  819.000;  697.000
310.203;   -4.175; -825.000; -850.000
310.340;    7.525; -465.000; -321.000
310.477;  -75.775; -412.000; -516.000
310.614;  -72.150; -383.000; -473.000
310.751;  -87.550; -427.000; -518.000
310.889;  -23.275;    1.000;   11.000
311.026; -168.200;-1161.000; -939.000
311.163;  -42.600; -386.000; -380.000
311.300;  -80.575; -512.000; -479.000
311.437;  -57.400; -658.000; -619.000
311.574; -153.750;-1226.000; -985.000
311.711;  -48.925; -595.000; -433.000
311.848;  -52.825; -380.000; -388.000
311.985;   12.125;  270.000;   93.000
312.122; -116.725; -932.000; -762.000
312.259; -115.975; -941.000; -994.000
312.396;  -84.250; -508.000; -551.000
312.533;  -87.275; -812.000; -790.000
312.670; -140.075;-1070.000; -898.000
312.807;  -33.000; -352.000; -367.000
312.944;  -81.350; -513.000; -611.000
313.081;  -46.600; -150.000; -415.000
313.218; -113.550;-1111.000; -867.000
313.355;   12.150; -531.000; -449.000
313.492;    4.700; -455.000; -292.000
313.629;  134.200;  815.000;  735.000
313.766; -151.650;-1176.000;-1008.000
313.902;  -15.675; -186.000;   21.000
314.039;  -56.275; -372.000; -289.000
314.176;   47.475;  286.000;  192.000
314.313;  -84.325; -569.000; -473.000
314.450;  -73.625; -788.000; -684.000
314.587;  -68.625; -468.000; -480.000
314.723;   15.275;  -78.000;  130.000
314.860;   28.600;  318.000;  332.000
314.997;   37.550;  223.000;  142.000
315.134;  -44.625; -385.000; -368.000
315.270;  -29.675; -480.000; -496.000
315.407; -128.300;-1094.000; -967.000
315.544;  -45.825; -657.000; -538.000
315.681;  -77.625; -681.000; -565.000
315.817;   36.275; -133.000; -176.000
315.954;   19.500; -613.000; -392.000
316.091; -118.750;-1045.000;-1023.000
316.227;  -42.275;  -71.000; -179.000
316.364;   11.025;   23.000;    6.000
316.500;  -58.575; -113.000; -300.000
316.637;  -40.225; -181.000; -302.000
316.774;  -97.275; -625.000; -358.000
316.910;  -80.150; -598.000; -629.000
317.047;  -66.300; -487.000; -351.000
317.183;  -48.100; -435.000; -566.000
317.320;  -29.475; -367.000; -321.000
317.456;  -65.925; -733.000; -805.000
317.593;  -77.225; -598.000; -641.000
317.729;   -4.925;  168.000;  -67.000
317.866; -189.050;-1434.000;-1285.000
318.002;  -75.500; -708.000; -948.000
318.139; -101.475; -883.000; -867.000
318.275; -111.050;-1003.000; -738.000
318.412;  -73.725; -517.000; -336.000
318.548;  -43.625; -751.000; -720.000
318.685;  -97.825; -985.000; -888.000
318.821; -100.150; -762.000; -735.000
318.957;  -31.450;   34.000;  -23.000
319.094;   38.100;  297.000;  154.000
319.230;  -65.675; -756.000; -742.000
319.367;  150.500; -471.000; -520.000
319.503;   54.400; -538.000; -436.000
319.639;  -78.225; -877.000; -793.000
319.775;  -64.525; -750.000; -685.000
319.912;  -42.300; -424.000; -519.000
320.048;  -89.200;-1184.000;-1184.000
320.184;   79.150;   59.000;   70.000
320.321;  -72.100; -497.000; -467.000
320.457;   59.800;  475.000;  662.000
320.593;  -59.800; -375.000; -382.000
320.729; -101.375; -732.000; -734.000
320.866;  -64.400; -577.000; -635.000
321.002;  -82.150; -759.000; -809.000
321.138;  -14.425; -135.000; -211.000
321.274;   82.875; -148.000; -115.000
321.410;  -19.350; -585.000; -353.000
321.546;  -27.325;-1011.000; -911.000
321.683;   41.250;  400.000;  185.000
321.819;   -8.900;  -48.000; -117.000
321.955; -112.400; -743.000; -722.000
322.091;  -37.150; -585.000; -540.000
322.227;  -10.200; -382.000; -202.000
322.363;  -11.075; -320.000; -215.000
322.499;  -50.875; -343.000; -331.000
322.635;  179.775;  636.000;  443.000
322.771;   28.250; -139.000;   12.000
322.907;   82.425;  129.000;  327.000
323.043;  -18.250; -115.000; -206.000
323.179;  -30.000; -394.000; -363.000
323.315;   36.425; -401.000; -371.000
323.451;  102.225; -328.000; -236.000
323.587;   57.725;  -60.000;  -77.000
323.723;   35.100; -682.000; -601.000
323.859;  -12.625; -258.000;  -76.000
323.995;  -14.325; -467.000; -409.000
324.131; -122.275; -967.000; -892.000
324.267;  -37.850; -254.000; -276.000
324.402; -137.375; -960.000; -983.000
324.538;   -6.175; -279.000; -104.000
324.674;   16.100;  164.000;   77.000
324.810;  137.325;  226.000;  308.000
324.946;    2.150; -810.000; -658.000
325.082;  -62.525; -568.000; -475.000
325.217;  -22.775;  -62.000;   16.000
325.353; -111.450; -764.000; -659.000
325.489;  -95.700; -540.000; -506.000
325.625;  -74.100; -579.000; -525.000
325.760;   51.450;  517.000;  376.000
325.896;  -24.125; -515.000; -702.000
326.032;  -61.300; -403.000; -352.000
326.168;  -71.175; -462.000; -369.000
326.303;  -65.525; -352.000; -461.000
326.439;  -12.500; -336.000; -276.000
326.575;   -2.900; -190.000;  -29.000
326.710;   -7.800; -156.000;  -30.000
326.846;  -12.025;  146.000;  103.000
326.982;  -91.975; -530.000; -548.000
327.117;  -69.300; -481.000; -442.000
327.253;  -90.350; -745.000; -742.000
327.388; -166.425;-1137.000;-1153.000
327.524;  -53.975; -811.000; -578.000
327.659;  -20.375;  -58.000;  -22.000
327.795;  -18.675;   69.000;   45.000
327.931;  -88.800; -723.000; -499.000
328.066;  -21.700; -417.000; -276.000
328.202;  -31.475;   12.000; -129.000
328.337;  107.325;  957.000;  713.000
328.473;   41.650;  -12.000;  -74.000
328.608;  -22.850; -256.000; -267.000
328.743;  -77.175; -799.000; -664.000
328.879;   22.650;  214.000;  114.000
329.014;  -46.775; -102.000; -122.000
329.150;  -85.300; -358.000; -483.000
329.285;  -86.225; -465.000; -466.000
329.421;  -46.075; -548.000; -246.000
329.556;  -23.550;  -36.000;   85.000
329.691;  -99.050; -633.000; -615.000
329.827;  -87.200; -626.000; -480.000
329.962;  -33.900;  131.000; -301.000
330.097;  -92.175; -673.000; -585.000
330.233;  -65.200; -410.000; -223.000
330.368; -130.025; -839.000; -628.000
330.503;   -6.950;    3.000;   98.000
330.638;    3.550;  -93.000; -125.000
330.774;  -56.425; -609.000; -530.000
330.909;  -38.900; -434.000; -244.000
331.044;  -88.600; -714.000; -708.000
331.179; -184.775;-1217.000;-1109.000
331.315;    8.500;   77.000;   20.000
331.450;    7.725;  157.000;  285.000
331.585;  -79.200; -805.000; -706.000
331.720;  -86.475; -510.000; -460.000
331.855;    0.075;  -35.000; -102.000
331.990;  243.500;   62.000;  138.000
332.126;  130.250; -110.000;   71.000
332.261;  -19.350; -379.000; -265.000
332.396;    7.375; -135.000; -242.000
332.531; -105.025;-1074.000;-1031.000
332.666;   27.850; -519.000; -363.000
332.801; -112.600; -726.000; -807.000
332.936;  -23.225; -192.000; -122.000
333.071; -164.500; -870.000; -817.000
333.206;   23.775;  307.000;  379.000
333.341;   12.700;  344.000;  418.000
333.476;  -73.650; -627.000; -623.000
333.611;  -52.525; -251.000; -173.000
333.746;  -39.575; -381.000; -464.000
333.881; -105.175; -973.000; -935.000
334.016; -124.275; -936.000; -917.000
334.151; -125.875; -746.000; -702.000
334.286;   33.275;  152.000;  186.000
334.421;  -19.150; -125.000; -178.000
334.556;  -75.250; -611.000; -567.000
334.690;  -86.550; -631.000; -577.000
334.825;   49.125;  381.000;   83.000
334.960;  -62.725; -285.000; -413.000
335.095;   15.850;  135.000;  -91.000
335.230;  -97.500; -722.000; -738.000
335.365; -129.250;-1084.000; -990.000
335.499; -137.850;-1108.000;-1037.000
335.634;   17.375;    9.000;  534.000
335.769; -108.400; -755.000; -720.000
335.904;  -46.075; -603.000; -561.000
336.038;  -60.475; -735.000; -657.000
336.173; -109.100;-1206.000;-1194.000
336.308;   19.050; -116.000; -189.000
336.443;   31.475; -544.000; -634.000
336.577;  -73.375; -936.000; -787.000
336.712;   78.700;   -4.000;  -12.000
336.847;  -38.650; -724.000; -607.000
336.981;   80.425; -272.000; -208.000
337.116;  295.875;  615.000;  501.000
337.250;  153.725; -434.000; -421.000
337.385;  237.400; -297.000; -208.000
337.520;   85.450; -632.000; -603.000
337.654;  -41.200; -215.000; -126.000
337.789; -123.300; -989.000; -933.000
337.923;  -42.400; -104.000; -205.000
338.058;  -95.475; -673.000; -738.000
338.192;  -40.650; -611.000; -488.000
338.327;   -6.150;  -18.000; -155.000
338.461;  -62.525; -299.000; -469.000
338.596;  -82.200; -780.000; -638.000
338.730;  -98.225; -767.000; -803.000
338.865;   90.300;  -46.000; -140.000
338.999;  -48.175; -846.000; -702.000
339.134;  -22.075; -634.000; -536.000
339.268;   18.400; -741.000; -603.000
339.403;  386.325; -740.000; -775.000
339.537;  110.100; -894.000; -820.000
339.671; -107.775; -829.000; -813.000
339.806;  -69.850; -556.000; -512.000
339.940;   13.925; -261.000; -235.000
340.074; -103.950; -685.000; -510.000
340.209;  -42.900; -351.000; -230.000
340.343;  -97.950; -517.000; -573.000
340.477;  138.450;  998.000; 1036.000
340.612;  -50.300;-1033.000; -900.000
340.746;  134.675; -199.000; -243.000
340.880;  -63.925; -924.000; -785.000
341.014;  -17.400;  -45.000; -154.000
341.149; -107.675; -756.000; -718.000
341.283; -104.525; -839.000; -754.000
341.417;  -86.575;-1124.000; -938.000
341.551;  150.375; -768.000; -708.000
341.685;  -40.700; -633.000; -611.000
341.820;  -60.000; -562.000; -493.000
341.954;  -57.900; -218.000; -349.000
342.088; -142.825;-1102.000;-1019.000
342.222;   43.525;  565.000;  618.000
342.356;  -62.225; -395.000; -335.000
342.490; -103.250; -880.000; -841.000
342.624;  -43.650; -339.000; -242.000
342.758;    7.850; -364.000; -312.000
342.892;  -53.200; -710.000; -585.000
343.026;  -36.800;  -58.000; -116.000
343.160;  -56.575; -426.000; -376.000
343.294;  -72.650; -474.000; -337.000
343.428;  -32.025; -488.000; -448.000
343.562;  -20.125; -172.000;  -23.000
343.696;  -26.350; -385.000; -314.000
343.830;  -21.050; -362.000; -356.000
343.964;   13.175; -231.000; -168.000
344.098;  983.675;  199.000;   70.000
344.232;  801.275; -266.000; -127.000
344.366;  102.850; -567.000; -453.000
344.500;   64.975; -665.000; -744.000
344.634;   35.950; -324.000; -164.000
344.768;   -0.600; -531.000; -341.000
344.902;   11.850;  278.000;  256.000
345.035;  -77.150; -556.000; -496.000
345.169; -136.100; -933.000; -656.000
345.303;  -29.300; -308.000; -482.000
345.437;  -78.400; -826.000; -717.000
345.571;  -81.650; -675.000; -594.000
345.704;  -79.750; -309.000; -532.000
345.838;   -6.325; -331.000; -284.000
345.972;  -32.425; -543.000; -495.000
346.106;  171.550; -179.000; -190.000
346.239;  433.425; -312.000; -243.000
346.373;    5.600; -343.000; -302.000
346.507; -141.025; -950.000; -962.000
346.640;  143.375;  -30.000;   13.000
346.774;  -48.200; -650.000; -797.000
346.908;  -18.125; -138.000;  -11.000
347.041; -103.000; -646.000; -593.000
347.175;    6.250;  259.000;   27.000
347.309;  -75.050; -698.000; -628.000
347.442;  -97.375; -883.000; -732.000
347.576;  283.200;  670.000;  668.000
347.709;  220.075; -123.000;  -52.000
347.843;  -95.250; -933.000; -825.000
347.976;   29.225;  235.000;  294.000
348.110; -179.475;-1268.000;-1186.000
348.243;  -97.175; -679.000; -772.000
348.377;  -16.275;  -26.000;   60.000
348.510;   49.275;  403.000;  540.000
348.644;  -32.725;  -37.000; -159.000
348.777;   -7.450;  180.000;  191.000
348.911;  -61.900; -142.000; -112.000
349.044;  183.575;  471.000;  448.000
349.178;  171.475;-1069.000;-1006.000
349.311;  121.600;  141.000;  255.000
349.444;  -17.100; -927.000; -813.000
349.578;  -14.875; -347.000; -200.000
349.711; -103.025; -959.000; -862.000
349.845;    7.325; -661.000; -591.000
349.978; -155.350;-1224.000;-1137.000
350.111;  -80.425; -546.000; -612.000
350.244;  -85.250; -596.000; -700.000
350.378;   19.450; -392.000; -393.000
350.511;  -73.175; -393.000; -426.000
350.644; -100.300; -808.000; -806.000
350.778;   10.700;  168.000;  104.000
350.911;   -8.500;  134.000;  140.000
351.044;  -91.575; -685.000; -615.000
351.177;  -45.650; -321.000; -281.000
351.310;  -27.375;    3.000; -131.000
351.444;  -72.425; -888.000; -788.000
351.577;  116.025;  140.000;   90.000
351.710;   93.950;  593.000;  417.000
351.843;  -41.800; -165.000;  -77.000
351.976;    7.425;  149.000;  -79.000
352.109;  -90.550; -621.000; -612.000
352.242;  -11.775; -464.000; -419.000
352.376;  -48.850; -580.000; -636.000
352.509;  208.925; -437.000; -356.000
352.642;   17.000; -654.000; -604.000
352.775;   56.700; -141.000;  -98.000
352.908; -116.550; -933.000; -904.000
353.041;  -97.625; -814.000; -824.000
353.174;  -80.400; -551.000; -424.000
353.307;  -79.775; -753.000; -764.000
353.440;   72.775;  541.000;  453.000
353.573; -100.375; -957.000;-1008.000
353.706;  -48.775; -384.000; -558.000
353.839;   -9.200; -264.000; -220.000
353.971;  -91.900; -657.000; -512.000
354.104;  -79.275; -896.000; -835.000
354.237;  -37.350; -627.000; -662.000
354.370;  -73.625; -846.000; -879.000
354.503; -183.600;-1231.000;-1308.000
354.636;  -42.850; -529.000; -348.000
354.769; -136.750; -937.000; -860.000
354.902;    1.475; -230.000; -139.000
355.034;  -32.475; -164.000; -220.000
355.167;   -9.200; -262.000; -162.000
355.300;  -91.000;-1061.000; -880.000
355.433;  967.000;  -71.000;  -14.000
355.565; 1535.650; -402.000; -384.000
355.698;  384.225; -356.000; -296.000
355.831;   -0.950; -882.000; -801.000
355.964;   79.650; -285.000; -170.000
356.096;  -86.825; -856.000; -843.000
356.229;    2.500; -523.000; -530.000
356.362;  329.775; -373.000; -266.000
356.494;  598.400; -229.000; -162.000
356.627;  498.575;  269.000;  377.000
356.760;  670.450;  120.000;   53.000
356.892;  944.600; -286.000; -601.000
357.025;  696.025;  403.000;  389.000
357.157;  636.625; -167.000; -179.000
357.290;  661.200; -856.000; -713.000
357.423;  202.150; -667.000; -556.000
357.555;  128.225; -217.000; -228.000
357.688;  130.950; -483.000; -364.000
357.820;  483.100; -870.000; -877.000
357.953; 3873.850; -563.000; -589.000
358.085;  873.225; -632.000; -612.000
358.218; 1257.200;-1131.000; -932.000
358.350;  241.350;  -58.000;  312.000
358.483; -125.525;-1300.000;-1187.000
358.615;    7.050;-1182.000;-1078.000
358.747;  -49.225;-1187.000;-1058.000
358.880;   32.225; -810.000; -744.000
359.012;   -2.325; -376.000; -202.000
359.145;  -32.525; -480.000; -511.000
359.277;   61.100; -962.000; -913.000
359.409; 3180.850;  536.000;  231.000
359.542;  843.450; -738.000; -688.000
359.674;   74.850;   46.000;   13.000
359.806;  -63.375; -565.000; -438.000
359.939;  -32.925; -617.000; -516.000
360.071;  -10.650; -583.000; -579.000
360.203;  -24.475; -411.000; -364.000
360.335;   42.250;  164.000;  -16.000
360.468;  219.375; -249.000; -307.000
360.600; 2533.825; -547.000; -454.000
360.732; 2842.875; -546.000; -423.000
360.864;  390.400;-1216.000;-1044.000
360.996;  308.050; -516.000; -554.000
361.129;   45.575; -389.000; -598.000
361.261;   28.025;  110.000; -113.000
361.393;  -31.325; -252.000; -214.000
361.525;   39.625;   94.000;  244.000
361.657;  -42.950; -821.000; -703.000
361.789;   13.525; -139.000; -155.000
361.921;  246.350; -642.000; -593.000
362.053;  284.325;  524.000;  541.000
362.185;   57.250;  288.000;   72.000
362.318;  -89.800; -709.000; -705.000
362.450;  118.150;  294.000;  444.000
362.582;  133.775; -913.000; -870.000
362.714;  -32.850; -353.000; -332.000
362.846;  -81.350; -606.000; -490.000
362.978; -138.125; -941.000; -811.000
363.109;   55.125; -161.000; -260.000
363.241;  475.250; -739.000; -749.000
363.373;  440.050; -649.000; -564.000
363.505;  639.575; -186.000;  -91.000
363.637;  178.800; -787.000; -601.000
363.769; -122.300;-1067.000;-1080.000
363.901;  -59.250; -596.000; -654.000
364.033; -109.075;-1103.000;-1062.000
364.165;   -1.200; -283.000; -283.000
364.296;   58.950; -316.000; -177.000
364.428;   82.225;-1344.000;-1220.000
364.560;  -77.450; -679.000; -661.000
364.692;  -59.575; -738.000; -835.000
364.824;  274.350; -588.000; -456.000
364.955;  458.600; -402.000; -564.000
365.087;  892.300;-1097.000; -852.000
365.219;   34.675; -686.000; -816.000
365.351;  -59.300; -526.000; -572.000
365.482;   52.950;  300.000;  240.000
365.614;  -62.225; -402.000; -314.000
365.746;  -89.175; -729.000; -752.000
365.877; -110.325; -706.000; -672.000
366.009;  256.950;  -35.000;  -62.000
366.141;  -90.425;-1249.000;-1134.000
366.272; -106.100; -803.000; -719.000
366.404; -122.225;-1005.000; -874.000
366.535;   -0.475; -139.000;  -12.000
366.667; -113.825; -644.000; -649.000
366.799;   39.600;  353.000;  203.000
366.930; -123.500; -862.000; -996.000
367.062;  115.775; -639.000; -613.000
367.193;  147.675; -872.000; -842.000
367.325;  -51.175; -580.000; -684.000
367.456;   56.675; -246.000;   31.000
367.588;  165.200; -371.000; -318.000
367.719;   28.450;  -44.000;  -45.000
367.851;  -11.375; -222.000; -241.000
367.982;  -66.800; -875.000; -732.000
368.113;   96.150; -475.000; -358.000
368.245; -113.925; -960.000; -841.000
368.376;   -5.775; -254.000; -302.000
368.508;  -23.575; -188.000; -263.000
368.639; -126.250;-1166.000;-1034.000
368.770;   -7.900; -670.000; -589.000
368.902;  -40.750; -836.000; -926.000
369.033; -100.175; -906.000; -855.000
369.164;  -38.250; -720.000; -653.000
369.296; -111.650; -452.000; -601.000
369.427;   -0.175; -209.000; -144.000
369.558;  -50.000; -593.000; -377.000
369.689;  -83.950; -721.000; -569.000
369.821; -130.250; -951.000; -845.000
369.952;   -5.475;   42.000; -108.000
370.083;  -54.550; -229.000; -108.000
370.214;  -84.950; -735.000; -650.000
370.345;   -8.375;   65.000;   81.000
370.477;  -78.650; -810.000; -790.000
370.608;  244.450; -328.000; -264.000
370.739;  -32.625;-1233.000;-1292.000
370.870;  -42.325;-1102.000; -923.000
371.001;  101.725; -378.000; -467.000
371.132;  -74.325; -754.000; -735.000
371.263;  -10.500;  -42.000; -148.000
371.394; -136.750; -841.000; -748.000
371.525;   38.300;  345.000;  225.000
371.657;  -95.250; -808.000; -670.000
371.788;   90.200;  103.000;  199.000
371.919;  168.200; -384.000; -304.000
372.050; 3817.025;  -91.000; -156.000
372.181; 1182.975; -188.000; -294.000
372.311;  407.525;   42.000; -127.000
372.442;   43.975; -457.000; -451.000
372.573;  -11.425; -444.000; -340.000
372.704; -122.800;-1008.000; -980.000
372.835;  102.500; -228.000; -289.000
372.966;  -68.375; -646.000; -554.000
373.097;  -45.475; -575.000; -711.000
373.228;  -23.325; -717.000; -542.000
373.359;  159.775; -824.000; -536.000
373.490;  985.025; -881.000; -727.000
373.620; 1263.375;-1001.000; -803.000
373.751; 1886.600; -332.000; -396.000
373.882;  901.650; -663.000; -733.000
374.013;   81.625; -449.000; -262.000
374.143;  -40.250; -581.000; -659.000
374.274; -104.800; -987.000; -908.000
374.405;  194.100; -388.000; -276.000
374.536;  463.375; -526.000; -387.000
374.666; 1212.825; -759.000; -807.000
374.797;  264.425; -817.000; -868.000
374.928;  928.100; -710.000; -560.000
375.058;  962.650; -535.000; -500.000
375.189;   90.300;  -59.000;  -93.000
375.320;  -97.475; -928.000;-1034.000
375.450;  -42.425; -625.000; -616.000
375.581;  -47.150; -526.000; -436.000
375.712;  -27.850; -574.000; -250.000
375.842;  309.625; -438.000; -415.000
375.973;  247.750; -554.000; -513.000
376.103;  -42.000; -665.000; -648.000
376.234;  -74.825; -531.000; -552.000
376.364;  -41.325; -944.000; -867.000
376.495;  327.325;  925.000;  529.000
376.625;   -3.200; -472.000; -485.000
376.756;   74.800; -709.000; -678.000
376.886;  -62.475;-1178.000;-1026.000
377.017;   52.975;-1048.000;-1061.000
377.147;  353.125; -786.000; -782.000
377.278;   62.100;  174.000;  228.000
377.408; -127.500; -801.000; -815.000
377.538;  -99.700; -707.000; -693.000
377.669;  -81.750; -537.000; -613.000
377.799;  -86.700; -645.000; -635.000
377.929;  -61.200; -610.000; -428.000
378.060; -122.500; -781.000; -847.000
378.190;  -61.250; -726.000; -531.000
378.320;  -51.550; -401.000; -406.000
378.451;  -24.375; -131.000;  -22.000
378.581;    3.900;  -67.000; -110.000
378.711;  150.575; 1035.000;  866.000
378.841;  -12.875; -533.000; -675.000
378.972;  -73.725; -871.000; -751.000
379.102;   11.175; -652.000; -579.000
379.232;  -23.850; -126.000;  -73.000
379.362; -107.500;-1001.000; -885.000
379.492;    1.550; -373.000; -424.000
379.623;  119.250;    0.000;  111.000
379.753;  -98.175;-1107.000; -974.000
379.883;  207.200;   59.000;  156.000
380.013;   15.400;-1081.000;-1017.000
380.143;  -86.650;-1097.000;-1056.000
380.273;  -96.450; -985.000; -861.000
380.403;    4.550; -344.000; -257.000
380.533;  -29.275; -651.000; -664.000
380.663;   76.225;  173.000;  128.000
380.793;  -85.275;-1027.000;-1074.000
380.923;   -6.275; -103.000;  -34.000
381.053;  -82.825; -613.000; -623.000
381.183;  -37.475; -106.000; -248.000
381.313;   33.650; -656.000; -470.000
381.443;   52.025; -692.000; -473.000
381.573;  213.200; -402.000; -409.000
381.703;  324.225;-1249.000;-1095.000
381.833; -127.000;-1454.000;-1336.000
381.963;  111.825; -134.000;  -87.000
382.093; 1448.550; -925.000; -909.000
382.223;  487.300; -713.000; -602.000
382.353;   -2.100; -801.000; -608.000
382.482;  410.325;-1091.000; -964.000
382.612;  824.150; -872.000; -644.000
382.742;  476.575; -695.000; -622.000
382.872;  280.575; -565.000; -551.000
383.002;   83.950;  347.000; -132.000
383.131;  -29.875; -226.000; -160.000
383.261;  -23.425; -706.000; -768.000
383.391;  285.650; -552.000; -377.000
383.521; 3144.700;  451.000;  263.000
383.650;  777.300; -947.000; -904.000
383.780;   -1.425; -783.000; -656.000
383.910;   97.175;  880.000;  802.000
384.039;   33.475; -794.000; -656.000
384.169;  251.000;-1205.000;-1017.000
384.299;   -8.825; -650.000; -662.000
384.428;  -85.800; -764.000; -680.000
384.558;  -50.750; -308.000; -275.000
384.687;  -40.750; -414.000; -334.000
384.817;   20.300;   75.000;   -2.000
384.947;    6.600; -234.000; -141.000
385.076;  311.725;  982.000;  912.000
385.206;  107.700;  369.000;  480.000
385.335;  -30.350; -549.000; -417.000
385.465;  -82.925; -655.000; -663.000
385.594;  143.150;  -53.000;  -44.000
385.724;  465.125; -868.000; -838.000
385.853;  127.025; -296.000; -270.000
385.982; 1429.425; -743.000; -787.000
386.112; 2360.325;-1052.000; -871.000
386.241;  171.725; -307.000; -312.000
386.371;   33.900; -174.000;  -87.000
386.500;    7.050; -825.000; -789.000
386.629;   41.800; -874.000; -817.000
386.759;   68.750;  -43.000;   68.000
386.888;   -4.900; -170.000; -250.000
387.017;  -79.600; -648.000; -620.000
387.147;  -82.975; -771.000; -798.000
387.276;   -9.750; -410.000; -397.000
387.405;   21.075; -398.000; -342.000
387.535;  -36.400; -452.000; -361.000
387.664;  -70.875; -692.000; -620.000
387.793;   72.625; -198.000; -113.000
387.922;  539.500;  255.000;  200.000
388.052;   23.325; -576.000; -423.000
388.181;   15.875; -342.000; -472.000
388.310;    6.575; -889.000; -710.000
388.439;  -23.275; -749.000; -742.000
388.568;  201.600;  365.000;  244.000
388.697; 1126.975; -756.000; -653.000
388.826;  241.100; -768.000; -666.000
388.956;   71.075; -285.000; -307.000
389.085;  -44.525; -347.000; -287.000
389.214; -106.350; -842.000; -872.000
389.343;  -74.800; -645.000; -413.000
389.472;  381.700;  126.000;  149.000
389.601;  515.325;   91.000;    0.000
389.730;   42.475; -568.000; -687.000
389.859;   64.175;  226.000;   46.000
389.988;  206.500; -423.000; -408.000
390.117;  137.225; -168.000; -146.000
390.246;   -5.400; -331.000; -320.000
390.375;  123.100; -673.000; -626.000
390.504;  -61.600; -703.000; -621.000
390.633;  -87.125; -672.000; -726.000
390.761;  -45.425; -732.000; -645.000
390.890;   10.875;   -4.000; -130.000
391.019;  -29.675; -421.000; -441.000
391.148; -124.200; -826.000; -855.000
391.277;  -64.075; -576.000; -493.000
391.406;  -74.900; -821.000; -805.000
391.534;   29.925;  574.000; -301.000
391.663;  -49.550; -583.000; -645.000
391.792;  -85.150; -673.000; -701.000
391.921;   97.225;   -3.000;   15.000
392.050;  203.375; -287.000; -228.000
392.178;  -22.100;-1206.000;-1061.000
392.307;  156.050; -758.000; -712.000
392.436;   90.800; -427.000; -641.000
392.564;   25.000;  166.000;   -6.000
392.693;  -84.350; -860.000; -682.000
392.822;  233.350; -529.000; -534.000
392.950;  110.275; -880.000; -714.000
393.079;  359.850; -188.000; -328.000
393.208;   32.025; -488.000; -511.000
393.336;   -4.750; -170.000; -145.000
393.465;  -72.300; -317.000; -199.000
393.593;    1.850;   62.000;   79.000
393.722; -159.200;-1121.000; -916.000
393.850;  -28.425; -188.000;  -61.000
393.979; -142.450; -926.000; -805.000
394.107;  -56.875; -517.000; -537.000
394.236;  -17.150; -570.000; -507.000
394.364;  222.900;  383.000;  206.000
394.493;  391.200; -911.000; -767.000
394.621;  -15.175; -955.000; -916.000
394.750;  692.675; -873.000; -923.000
394.878; 2883.400; -247.000; -149.000
395.007; 4049.675; -721.000; -807.000
395.135;  304.300; -790.000; -721.000
395.263;  -97.150;-1038.000;-1040.000
395.392;    9.575;  -25.000; -107.000
395.520; -134.375; -818.000; -679.000
395.648;  -87.875; -865.000; -915.000
395.777;  -10.400; -366.000; -405.000
395.905;  -43.525; -449.000; -564.000
396.033;   18.250;  217.000;  172.000
396.162;  616.050; -399.000; -453.000
396.290;  558.475;  -17.000;   -2.000
396.418;  121.200; -555.000; -514.000
396.546;  -73.275; -571.000; -466.000
396.674; -104.300; -850.000; -878.000
396.803;   13.625;  -72.000;  -23.000
396.931;  106.750; -179.000; -199.000
397.059;   75.000;-1026.000; -989.000
397.187; -102.925;-1026.000; -975.000
397.315; -127.650; -884.000; -649.000
397.443;  -97.850; -592.000; -443.000
397.572; -100.750; -578.000; -424.000
397.700;   -8.425; -607.000; -614.000
397.828;   35.625;  120.000;  -90.000
397.956;  -51.650; -508.000; -478.000
398.084;  -68.625; -767.000; -626.000
398.212;   46.425;  137.000;  124.000
398.340;    6.300;  -56.000;  159.000
398.468;   39.150; -390.000; -169.000
398.596; -134.050; -993.000; -953.000
398.724; -116.325; -762.000; -767.000
398.852; -167.650;-1024.000; -976.000
398.980;  -71.125; -560.000; -560.000
399.108;  -68.175; -982.000; -735.000
399.236;   55.025;   13.000;    8.000
399.363;    4.250;  222.000;  196.000
399.491;  -62.850; -404.000; -398.000
399.619; -136.900; -829.000; -800.000
399.747;  -88.750; -859.000; -771.000
399.875;   89.125;  220.000;  234.000
400.003;  -51.925; -359.000; -284.000
400.130;  -98.925; -421.000; -341.000
400.258;  -19.825;  -83.000;   38.000
400.386;  -76.150; -352.000; -168.000
400.514;  -43.650; -526.000; -587.000
400.641;  -70.400; -928.000; -802.000
400.769; -140.425; -979.000; -888.000
400.897; -116.125; -838.000; -793.000
401.025;  -23.025; -166.000; -152.000
401.152;  -12.425;  220.000;   38.000
401.280;  -71.500; -430.000; -429.000
401.408; -126.150; -712.000; -576.000
401.535;  -99.450; -735.000; -758.000
401.663; -191.975;-1134.000;-1054.000
401.790;  -87.450; -514.000; -525.000
401.918;   42.975;  436.000;  405.000
402.046;   -5.100;  134.000;  122.000
402.173;  -40.300;  -18.000;    7.000
402.301;  -64.950; -519.000; -397.000
402.428;   30.100;  528.000;  383.000
402.556; -136.425;-1188.000; -913.000
402.683;  -36.500;  -20.000;   -1.000
402.811;  -24.000;  -37.000; -206.000
402.938;  -17.100;   20.000;   27.000
403.066;  194.475; -574.000; -558.000
403.193;  383.750;  299.000;  239.000
403.321;  284.350; -396.000; -574.000
403.448;  355.200;   83.000;   27.000
403.575;  168.650;  -90.000;  -46.000
403.703;  -95.800; -732.000; -557.000
403.830;  -71.450; -531.000; -496.000
403.957; -146.725;-1117.000;-1023.000
404.085;   11.150;  -61.000; -172.000
404.212;   98.400;  -50.000;   63.000
404.339;  252.150; -566.000; -306.000
404.467; 5657.400; -612.000; -524.000
404.594; 4005.875; -287.000; -227.000
404.721;  970.950; -869.000; -764.000
404.848;   99.000; -113.000; -202.000
404.976;  -98.675; -856.000; -783.000
405.103;   -8.950;  -14.000;  -82.000
405.230;   -4.425;  190.000;  226.000
405.357;   19.500;  117.000;   44.000
405.484;  261.025;  -49.000;    5.000
405.612;   59.275; -548.000; -563.000
405.739;  -73.950; -488.000; -243.000
405.866;   80.500;  669.000;  385.000
405.993;  -52.425; -398.000; -102.000
406.120; -140.175; -801.000; -887.000
406.247;  -58.650; -323.000; -342.000
406.374;  465.775;  540.000;  629.000
406.501;  114.225; -632.000; -702.000
406.628;  -71.475; -621.000; -589.000
406.755;  -96.550; -803.000; -620.000
406.882;  -34.475; -228.000; -277.000
407.009; -104.475; -719.000; -628.000
407.136;   46.850; -480.000; -401.000
407.263;  149.575; -939.000; -829.000
407.390;  -66.050; -692.000; -614.000
407.517; -161.125;-1139.000;-1187.000
407.644;  -45.575; -332.000; -256.000
407.771; -127.725; -249.000; -287.000
407.898;    3.225;  168.000;  328.000
408.025;  -80.750; -421.000; -313.000
408.151;  -22.400;   82.000;  153.000
408.278;  -77.300; -267.000; -216.000
408.405; -100.425; -931.000; -899.000
408.532;  -66.225; -549.000; -542.000
408.659; -105.950; -677.000; -648.000
408.785; -197.125;-1298.000;-1170.000
408.912;  -66.850; -412.000; -296.000
409.039; -113.025; -610.000; -686.000
409.166; -105.975; -591.000; -555.000
409.292; -118.775; -571.000; -534.000
409.419; -122.000; -665.000; -649.000
409.546;  -98.900; -431.000; -192.000
409.672; -114.975; -713.000; -545.000
409.799;  -38.425;  -36.000;   34.000
409.926;  -30.825; -180.000; -179.000
410.052; -181.975;-1127.000;-1091.000
410.179;  -57.750; -368.000; -392.000
410.305;  -93.250; -375.000; -493.000
410.432;  -51.275; -220.000; -333.000
410.558;  -95.900; -305.000; -380.000
410.685; -107.575; -688.000; -431.000
410.812; -108.600; -409.000; -588.000
410.938; -135.900; -964.000; -808.000
411.065;  -99.000; -671.000; -645.000
411.191;  -19.900; -189.000; -174.000
411.317; -120.550; -823.000; -742.000
411.444;  -69.725; -317.000; -246.000
411.570;  -82.875; -339.000; -294.000
411.697; -129.150; -758.000; -752.000
411.823; -177.100; -989.000; -999.000
411.949;  -28.475;  -56.000;   17.000
412.076; -119.100; -539.000; -519.000
412.202; -105.600; -758.000; -757.000
412.329; -126.150; -798.000; -752.000
412.455; -122.625; -821.000; -657.000
412.581;   -6.850;  -15.000;  172.000
412.707;  -55.000; -540.000; -457.000
412.834;   10.775;  156.000;  219.000
412.960;  -76.100; -785.000; -784.000
413.086; -104.500; -743.000; -701.000
413.212;  151.925;  604.000;  578.000
413.339;  -61.625; -685.000; -701.000
413.465;   -2.500; -364.000; -310.000
413.591;  -84.350; -757.000; -474.000
413.717;  -61.525; -358.000; -366.000
413.843; -156.750; -839.000; -861.000
413.969;  -50.275;  -47.000; -292.000
414.096; -100.875; -679.000; -679.000
414.222;   -0.400;  -33.000;   85.000
414.348;  -34.550; -652.000; -385.000
414.474;   94.525;   38.000;  -52.000
414.600;  -27.000; -126.000; -144.000
414.726;  -14.325;  -96.000;  -55.000
414.852;  -70.225; -365.000; -342.000
414.978;   27.875;  104.000;  -18.000
415.104;   46.300;   38.000;   80.000
415.230;   44.050; -329.000; -330.000
415.356;   39.175; -409.000; -514.000
415.482;  209.375;   13.000;  -35.000
415.608;  256.275; -247.000; -323.000
415.734;  950.425;   67.000;   38.000
415.860;19651.525; -875.000; -767.000
415.986;15220.075; -685.000; -607.000
416.111; 1336.600; -798.000; -652.000
416.237;  270.825; -424.000; -571.000
416.363; 1062.550; -765.000; -733.000
416.489; 4236.225; -324.000; -251.000
416.615;  494.575; -707.000; -742.000
416.741;  -18.150; -677.000; -784.000
416.866; -102.525; -673.000; -736.000
416.992; -123.225; -801.000; -818.000
417.118;  -25.850;  -41.000;  -80.000
417.244;  -69.625; -798.000; -531.000
417.369;  -77.475; -801.000; -612.000
417.495;   -4.000; -325.000; -254.000
417.621;  -84.125;-1015.000; -803.000
417.746;    5.600; -579.000; -572.000
417.872;   47.450; -254.000; -144.000
417.998;   58.650; -515.000; -530.000
418.123;  992.375;-1073.000; -845.000
418.249; 5441.450; -512.000; -601.000
418.374;  815.500; -916.000; -824.000
418.500;  126.925; -383.000; -482.000
418.626;  129.125;   70.000;  -59.000
418.751;  126.225; -549.000; -448.000
418.877;  210.300; -637.000; -643.000
419.002; 1730.925; -688.000; -560.000
419.128;12547.250; -930.000; -721.000
419.253; 3288.050; -967.000; -837.000
419.379;  420.575; -391.000; -338.000
419.504;  404.525;  325.000;  415.000
419.629;  521.625; -393.000; -212.000
419.755; 3353.625; -317.000; -254.000
419.880;20984.975;  -98.000;   67.000
420.006;11410.725; -280.000; -221.000
420.131;29892.325; -662.000; -775.000
420.256; 4592.775; -315.000; -316.000
420.382;  625.225; -665.000; -687.000
420.507;   74.750; -649.000; -778.000
420.632;  129.075; -337.000; -339.000
420.758;  265.100; -251.000; -425.000
420.883;  -72.300; -876.000; -672.000
421.008;  -99.775; -775.000; -619.000
421.133;  -91.025; -509.000; -467.000
421.259;  -50.025; -325.000; -259.000
421.384; -125.650; -834.000; -693.000
421.509;  -29.900;-1052.000; -862.000
421.634; 1214.350; -936.000; -820.000
421.759;  565.975; -359.000; -327.000
421.885;  -49.600; -717.000; -656.000
422.010;  -71.275; -673.000; -542.000
422.135; -151.375; -695.000; -727.000
422.260;   42.050;  340.000;  280.000
422.385;  -48.950;   12.000;  -98.000
422.510;   11.475;  151.000;  -26.000
422.635;   21.025;  -87.000;  -43.000
422.760;  117.925; -766.000; -791.000
422.885;   59.025;  -57.000;  -80.000
423.010;  -25.925; -112.000; -169.000
423.135;  -93.025; -481.000; -561.000
423.260;   -0.550; -150.000; -245.000
423.385;   77.025;  476.000;  222.000
423.510;   28.500;   71.000;  -22.000
423.635;   87.825;  133.000;   45.000
423.760;   59.225;  383.000;  328.000
423.885;   53.950;  336.000;  391.000
424.010;   24.650;  -68.000;  -13.000
424.135;  -15.650;    5.000;  -33.000
424.259;  -75.150; -654.000; -457.000
424.384;  -73.400; -279.000; -272.000
424.509;  -23.250; -260.000; -186.000
424.634;  -94.075; -761.000; -623.000
424.759;  -19.550; -688.000; -544.000
424.883;  -20.025; -506.000; -527.000
425.008;  173.925; -502.000; -410.000
425.133; 1965.050; -679.000; -653.000
425.258; 1003.175; -517.000; -381.000
425.382; 1024.950; -867.000; -774.000
425.507; 2812.100; -487.000; -543.000
425.632;  466.325; -802.000; -663.000
425.756;  462.875; -256.000; -146.000
425.881; 6106.075; -831.000; -857.000
426.006;17706.450; -604.000; -355.000
426.130; 2966.125; -696.000; -508.000
426.255;  374.550; -611.000; -491.000
426.379;  159.650; -189.000; -577.000
426.504;  372.175;  660.000;  544.000
426.629; 3987.525; -519.000; -466.000
426.753; 2911.700;   64.000;  -46.000
426.878;  330.200; -252.000; -288.000
427.002;  199.325; -651.000; -668.000
427.127; 1533.975;  -35.000; -158.000
427.251;11374.125;  372.000;  401.000
427.375; 3461.400; -191.000; -173.000
427.500; 2423.025; -616.000; -610.000
427.624;  853.250; -234.000; -400.000
427.749;  101.825; -216.000; -225.000
427.873;  -43.075; -499.000; -412.000
427.997;  -38.225; -222.000; -230.000
428.122;   76.850;  795.000;  703.000
428.246;   78.875;  433.000;  434.000
428.371; -133.625; -869.000; -773.000
428.495; -101.600; -624.000; -646.000
428.619;  -31.050; -186.000; -117.000
428.743;   23.350;   65.000;  132.000
428.868;   17.625; -732.000; -643.000
428.992; 1453.050; -219.000; -326.000
429.116;  619.175; -329.000; -357.000
429.240;  301.275;  419.000;  426.000
429.365;  -27.900; -454.000; -574.000
429.489;  -28.675; -638.000; -647.000
429.613;   19.800; -236.000; -177.000
429.737;   38.475; -563.000; -432.000
429.861;  264.050; -247.000; -133.000
429.985; 5408.050; -425.000; -305.000
430.109; 6376.900; -770.000; -908.000
430.234;  760.475;   76.000;  -50.000
430.358;   77.350; -250.000; -160.000
430.482;  -56.750; -672.000; -564.000
430.606;  -64.275; -655.000; -375.000
430.730;   29.900; -437.000; -388.000
430.854;  162.350; -909.000; -835.000
430.978;  -64.925; -795.000; -764.000
431.102;  -84.275; -499.000; -422.000
431.226; -109.675; -874.000; -815.000
431.350;   21.650;  345.000;  422.000
431.474;  -76.600; -661.000; -373.000
431.597; -141.700;-1060.000; -848.000
431.721;  -82.825; -276.000; -267.000
431.845; -131.450; -704.000; -472.000
431.969;  -74.525; -304.000; -349.000
432.093;  -99.225; -395.000; -317.000
432.217;  -19.525;   32.000;   82.000
432.341;  -76.800; -523.000; -518.000
432.464;   11.500;   96.000;   40.000
432.588;  207.850; -401.000; -329.000
432.712;  119.075;  -52.000;  -52.000
432.836;   45.950;  213.000;  263.000
432.959;  -20.000; -372.000; -311.000
433.083;   68.225;   11.000;    2.000
433.207;  368.175;  285.000;  930.000
433.330; 4879.475; -391.000; -200.000
433.454; 6386.275; -654.000; -638.000
433.578; 3646.125;  583.000;  278.000
433.701;  736.425; -623.000; -675.000
433.825;  155.300; -292.000; -299.000
433.949;  187.800;   28.000;  -72.000
434.072;   72.700; -410.000; -323.000
434.196;   -8.550; -309.000; -117.000
434.319; 3632.950;25482.000;25124.000
434.443;  713.100; -656.000; -603.000
434.566; 2694.325;  281.000;   62.000
434.690;  503.950; -637.000; -383.000
434.813;   68.475; -251.000; -173.000
434.937;  -77.850; -569.000; -696.000
435.060;  -33.200; -423.000; -332.000
435.184;  325.650; -492.000; -217.000
435.307;  179.950;  159.000;  102.000
435.431;    0.150;  -40.000;   24.000
435.554;  -78.575; -399.000; -240.000
435.677;  -79.875; -350.000; -258.000
435.801;  -54.675;  -25.000;   49.000
435.924;  -29.300;    1.000;  -67.000
436.048; -111.950;-1019.000; -732.000
436.171;  -81.725; -240.000;  -66.000
436.294;  -35.275; -248.000; -229.000
436.417;   97.825; -963.000; -849.000
436.541;  -81.050; -814.000; -840.000
436.664;  -55.450; -242.000; -316.000
436.787;  -30.300;   13.000;  113.000
436.910; -104.675; -792.000; -422.000
437.034;   -6.325;  142.000;  143.000
437.157;   54.925;  -11.000;    0.000
437.280;  -51.850; -392.000; -292.000
437.403;  -80.275; -982.000; -869.000
437.526;  603.650; -903.000; -865.000
437.649; 2367.350; -505.000; -332.000
437.772;  400.225; -692.000; -540.000
437.896;  122.400;  700.000;  544.000
438.019;  -95.425; -758.000; -503.000
438.142;  -77.575; -596.000; -506.000
438.265;  -29.000; -639.000; -670.000
438.388;  602.050; -520.000; -410.000
438.511;  118.750; -597.000; -394.000
438.634;  -21.150; -247.000; -125.000
438.757; -138.550; -693.000; -619.000
438.880;  -32.975;  -34.000;  -57.000
439.003;  -88.550; -417.000; -437.000
439.126;  -67.350; -287.000; -167.000
439.248;  -78.250;  -98.000; -139.000
439.371;  -42.750;    9.000;  -53.000
439.494;    9.150;  510.000;  439.000
439.617;  -41.550;   65.000;  -88.000
439.740; -172.050; -968.000; -816.000
439.863; -136.300; -755.000; -595.000
439.986; -125.800; -476.000; -431.000
440.108;  -37.925; -161.000; -112.000
440.231; -154.750; -950.000; -836.000
440.354;  -29.675;  -64.000; -150.000
440.477;   28.125; -566.000; -542.000
440.599;   17.725; -200.000; -225.000
440.722; -128.550; -709.000; -586.000
440.845;   56.125;  751.000;  928.000
440.968; -113.675; -415.000; -311.000
441.090;  -64.750; -199.000;  -33.000
441.213; -160.350;-1021.000; -825.000
441.336;  -47.725; -159.000;   -5.000
441.458;  -89.125; -549.000; -396.000
441.581;  -80.000; -628.000; -629.000
441.703;  -69.975; -152.000;   13.000
441.826; -116.025; -557.000; -400.000
441.948;  -64.750;   56.000;   51.000
442.071;   22.725;  555.000;  424.000
442.193; -121.575; -531.000; -485.000
442.316;   28.925;  152.000;   97.000
442.438;   24.025; -233.000;  -10.000
442.561;   74.825;  272.000;  262.000
442.683;  528.525; -809.000; -522.000
442.806; 1219.450;   -8.000;   74.000
442.928;   52.175; -859.000; -604.000
443.051;  -62.050; -577.000; -373.000
443.173;  -89.225; -341.000; -339.000
443.295;  -87.150; -263.000; -371.000
443.418;  -78.350; -321.000;  -29.000
443.540;    1.625; -106.000;   -4.000
443.662; -111.425; -563.000; -465.000
443.785;   -4.325;  335.000;  199.000
443.907; -106.450; -362.000; -208.000
444.029; -123.775; -767.000; -494.000
444.152; -141.300; -644.000; -554.000
444.274;  -41.275;  -18.000;  -24.000
444.396; -114.175; -461.000; -221.000
444.518; -132.175; -691.000; -454.000
444.640; -112.025; -268.000; -111.000
444.763;  -18.675;  388.000;  249.000
444.885; -128.575; -432.000; -392.000
445.007;  -37.850;   35.000;   86.000
445.129; -116.075; -610.000; -515.000
445.251;  -85.625; -372.000; -439.000
445.373; -133.225; -537.000; -386.000
445.495;   -2.900;  242.000;  350.000
445.617;   44.575;  853.000;  753.000
445.739;  -70.250; -215.000;  -97.000
445.861;  -37.500; -245.000; -112.000
445.984;  -24.100; -267.000; -101.000
446.105;  195.175; -418.000; -251.000
446.227;  657.325; -176.000;  -19.000
446.349;   11.350; -358.000; -249.000
446.471;  -91.200; -615.000; -448.000
446.593;  -75.300; -316.000;   19.000
446.715;   -6.675;  -67.000;   41.000
446.837;   51.450;  697.000;  832.000
446.959; -102.050; -457.000; -478.000
447.081; -134.275; -628.000; -518.000
447.203;   52.900;  862.000;  834.000
447.325;  -92.425; -270.000;   42.000
447.446;   -9.625;  286.000;  530.000
447.568; -146.575; -921.000; -803.000
447.690;  -74.600; -236.000; -245.000
447.812; -158.275; -798.000; -519.000
447.933;  -21.025;  155.000;  127.000
448.055;  -77.950; -306.000; -261.000
448.177;  136.550;   31.000;   79.000
448.299;  100.625; -935.000; -727.000
448.420;   26.050;  -25.000;  159.000
448.542;  -49.125;   -3.000;   33.000
448.664;  -21.350;  109.000;  322.000
448.785;  -50.900;  265.000;   83.000
448.907;  -75.650; -614.000; -353.000
449.028;  -31.625; -771.000; -471.000
449.150;   57.450;  492.000;  589.000
449.272; -185.850;-1044.000; -913.000
449.393;   23.750;  612.000;  694.000
449.515; -134.425; -634.000; -581.000
449.636;  -47.575; -264.000; -155.000
449.758;   56.275;  763.000;  622.000
449.879;  -87.675; -498.000; -396.000
450.001;  -82.450; -149.000;  -49.000
450.122;  -49.925;  -95.000;  162.000
450.244;  -32.050;   37.000;  364.000
450.365;  -82.650; -495.000; -301.000
450.486;  -43.925;   80.000;  268.000
450.608;   36.325;  393.000;  326.000
450.729;   73.875;  578.000;  645.000
450.850;   -3.500; -574.000; -466.000
450.972;  708.725; -552.000; -389.000
451.093; 4797.475;  190.000;  588.000
451.214; 2254.650; -516.000; -337.000
451.336;  390.600;  773.000;  579.000
451.457;   53.175;  264.000;  393.000
451.578;  -40.900; -118.000;  -74.000
451.699; -129.950; -546.000; -540.000
451.821;  -66.225; -284.000;  -50.000
451.942;  -16.875;  278.000;  285.000
452.063;   35.100;  228.000;  419.000
452.184;  520.550;  -54.000;  -49.000
452.305; 1118.900;  103.000;  170.000
452.427;  138.400; -549.000; -301.000
452.548;   -7.775;   23.000;   79.000
452.669;  -47.950; -257.000;  -89.000
452.790;  -35.525;    3.000;  -18.000
452.911;   -9.750;  195.000;  259.000
453.032;  -62.225; -289.000;  -60.000
453.153;  -53.325;  -29.000;   81.000
453.274;   52.100;  737.000;  868.000
453.395;  -52.400;  -51.000;  175.000
453.516;  117.600; 1317.000; 1388.000
453.637;  -70.575; -205.000; -150.000
453.758;  -54.125;   15.000;   69.000
453.879; -123.275; -462.000; -250.000
454.000;   68.300; 1086.000;  948.000
454.121; -111.425; -554.000; -326.000
454.242; -109.575; -599.000; -383.000
454.362;  -78.275;  -99.000;  114.000
454.483;  -45.975; -309.000; -229.000
454.604;   43.350;  512.000;  580.000
454.725; -113.725; -627.000; -555.000
454.846; -134.950; -474.000; -406.000
454.967;  -46.800;  230.000;  539.000
455.087;  -41.825;  179.000;  153.000
455.208;   23.150;  554.000;  856.000
455.329;  -63.475;  -22.000;   82.000
455.450;   48.400;  473.000;  633.000
455.570;  -71.100; -234.000; -211.000
455.691;  -49.650;  201.000;  407.000
455.812; -120.825; -270.000;  -92.000
455.932;  -59.525;  107.000;  -97.000
456.053;  -92.000;   36.000;   24.000
456.173; -103.950; -433.000; -355.000
456.294; -126.450; -476.000; -303.000
456.415;  -67.200;  -73.000;   70.000
456.535;  -43.000;  297.000;  273.000
456.656;  -46.700;  132.000;  240.000
456.776;  -83.225;    3.000;  298.000
456.897;  -10.575;  308.000;  513.000
457.017;  -80.900; -153.000;   -3.000
457.138; -103.525; -402.000; -249.000
457.258;  -34.750;  263.000;  224.000
457.379;  -10.475;  509.000;  521.000
457.499;  -21.950;  443.000;  432.000
457.620; -106.175; -407.000; -231.000
457.740;  -98.225; -132.000;  -11.000
457.860;  -50.675;   87.000;   44.000
457.981;  -55.550;  132.000;  124.000
458.101;  -69.500;  -89.000;   40.000
458.221;  -18.975;  336.000;  402.000
458.342;  -64.800;   -4.000;  -37.000
458.462;   19.900;  617.000;  352.000
458.582;  -25.300; -302.000; -294.000
458.703;    3.825;  303.000;  154.000
458.823;  -23.750;   22.000;  163.000
458.943;   16.700;  341.000;  467.000
459.063;   -9.475; 1124.000;  192.000
459.183;  -34.425;  328.000;  313.000
459.304;    0.675;  315.000;  517.000
459.424;  -57.100; -246.000;  -89.000
459.544;  314.150;  388.000;  764.000
459.664;  821.275;  499.000;  506.000
459.784;  332.875; 1004.000; 1175.000
459.904;   50.050;  867.000;  744.000
460.024;   68.200;  867.000;  684.000
460.144;   24.350;  449.000;  554.000
460.264;    0.750;  515.000;  327.000
460.385;  -96.475; -145.000; -119.000
460.505;   47.000;  905.000;  858.000
460.625;  -90.550;  -17.000;  -68.000
460.745;  -13.300;  396.000;  541.000
460.864;  -59.825;  153.000;  469.000
460.984;   10.475;  499.000;  573.000
461.104;  116.375; 1656.000; 1775.000
461.224;   15.550;  657.000;  650.000
461.344;  -38.950;  431.000;  360.000
461.464;  -23.725;  258.000;  513.000
461.584;  -21.525;  283.000;  466.000
461.704;  -48.825;   58.000;  108.000
461.824;  -68.800;  238.000;  259.000
461.943;  -41.750;  191.000;  130.000
462.063;  -82.900;    2.000;  324.000
462.183;   24.800;  639.000;  717.000
462.303;   97.075; 1678.000; 1230.000
462.422;   26.650;  781.000;  840.000
462.542;  -46.175;  271.000;  391.000
462.662;   25.700;  353.000;  380.000
462.782;  213.100;  833.000;  572.000
462.901;  477.675;  545.000;  717.000
463.021;  277.600; 1702.000; 1638.000
463.141;   -6.425;  337.000;  770.000
463.260;  -19.525;  614.000;  474.000
463.380;   11.100;  902.000;  884.000
463.499;  -31.250;  342.000;  332.000
463.619;  -33.550;  581.000;  559.000
463.738;  107.500; 1644.000;  903.000
463.858;    4.100;  657.000;  811.000
463.978;  -24.700;  542.000;  396.000
464.097;   48.375;  921.000; 1114.000
464.217;  101.650; 1196.000; 1143.000
464.336;  110.600; 1068.000; 1130.000
464.455;  -39.100;  328.000;  659.000
464.575;   43.400;  597.000;  602.000
464.694;  152.900; 1204.000; 1179.000
464.814;  133.075; 1190.000; 1138.000
464.933;   76.100; 1095.000; 1027.000
465.052;  100.525; 1412.000; 1054.000
465.172;   80.850;  922.000;  799.000
465.291;  144.050; 1376.000; 1320.000
465.410;    4.475;  462.000;  735.000
465.530;   89.125; 1355.000; 1310.000
465.649;   62.925; 1209.000; 1273.000
465.768;  147.200; 1673.000; 1508.000
465.888;   46.475;  941.000; 1174.000
466.007;   98.075; 1335.000; 1440.000
466.126;  -19.800;  721.000;  641.000
466.245;   36.800; 1176.000; 1187.000
466.364;   10.825;  950.000; 1060.000
466.484;   68.125; 1024.000; 1213.000
466.603;   35.375; 1101.000; 1222.000
466.722;  127.500; 1490.000; 1769.000
466.841;   74.275; 1151.000; 1401.000
466.960;   48.575; 1069.000;  972.000
467.079;  131.600; 1971.000; 1786.000
467.198;   56.825; 1238.000; 1181.000
467.317;   81.925; 1768.000; 1162.000
467.436;   70.900; 1709.000; 1261.000
467.555;  133.475; 1796.000; 1746.000
467.674;   62.900; 1227.000; 1329.000
467.793;   43.900; 1376.000; 1374.000
467.912;   81.175; 1658.000; 1539.000
468.031;  131.875; 2038.000; 1930.000
468.150;  138.050; 1842.000; 1837.000
468.269;  192.800; 2313.000; 2090.000
468.388;  197.950; 2168.000; 2339.000
468.507;  243.925; 2884.000; 2903.000
468.626;  258.425; 2555.000; 2541.000
468.744;  143.575; 2018.000; 2174.000
468.863;  197.200; 2312.000; 2523.000
468.982;   91.675; 1503.000; 1555.000
469.101;  202.750; 2788.000; 2692.000
469.220;  141.400; 2333.000; 2176.000
469.338;  262.450; 2935.000; 3051.000
469.457;  185.575; 2719.000; 2545.000
469.576;  341.125; 3953.000; 3784.000
469.695;  240.125; 2877.000; 3066.000
469.813;  419.675; 4148.000; 4192.000
469.932;  407.975; 4255.000; 4485.000
470.051;  450.675; 4075.000; 4161.000
470.169;  818.475; 4470.000; 4338.000
470.288; 1469.800; 4700.000; 4809.000
470.406;  895.225; 5059.000; 5194.000
470.525;  626.325; 6101.000; 5787.000
470.644;  627.400; 6847.000; 6794.000
470.762;  811.375; 8397.000; 7873.000
470.881;  887.950; 8651.000; 8464.000
470.999; 1032.150; 9685.000; 9151.000
471.118; 1099.950;11174.000;10711.000

