
Integration time [ms]: 100.000
Averaging Nr. [scans]: 40
Smoothing Nr. [pixels]: 0
Data measured with spectrometer [name]: 2101012U2
Wave   ;Sample   ;Dark     ;Reference
[nm]   ;[counts] ;[counts] ;[counts] 

197.733;   65.675;  516.000;  404.000
197.879;  -84.875; -610.000; -634.000
198.025;  -43.925; -475.000; -420.000
198.171;  -75.375; -602.000; -612.000
198.317;  -20.225; -401.000; -316.000
198.463;  -54.350; -655.000; -404.000
198.609;   28.425;  181.000; -137.000
198.755;  -77.325; -644.000; -410.000
198.901;  -75.950; -505.000; -424.000
199.047;  -54.075; -615.000; -488.000
199.193;  -38.325; -230.000; -468.000
199.339;  -52.575; -222.000; -369.000
199.485;   38.275;  330.000;  271.000
199.631;   28.450;  227.000;  310.000
199.777;  -52.275; -466.000; -398.000
199.923;  -48.825; -610.000; -424.000
200.069;   -5.725; -141.000;  -58.000
200.215;   60.025;  128.000;  453.000
200.361;   39.950;  243.000;  477.000
200.507;  -57.825; -600.000; -373.000
200.653;  -21.300; -371.000; -194.000
200.798;  -27.000; -215.000; -125.000
200.944;   -0.950; -146.000;  -41.000
201.090;   41.925;   61.000;  222.000
201.236;   -1.275; -116.000; -158.000
201.382;  110.000;  874.000;  903.000
201.528;   -0.525;  -58.000;  -48.000
201.674;  -30.975; -386.000; -293.000
201.819;  -52.525; -540.000; -439.000
201.965;  -83.400; -699.000; -447.000
202.111;  -26.275; -273.000; -226.000
202.257;  -26.050; -250.000; -238.000
202.402;   20.875;   13.000;  -36.000
202.548;  -41.525; -169.000; -116.000
202.694;   81.375;  410.000; -183.000
202.840;  -76.825; -603.000; -531.000
202.985;  -61.975; -681.000; -639.000
203.131; -103.950; -832.000; -666.000
203.277;  -20.550; -199.000; -262.000
203.423;  -56.350; -434.000; -520.000
203.568;  -48.200; -462.000; -237.000
203.714;  -51.550; -535.000; -542.000
203.860;  -65.750; -682.000; -641.000
204.005;   17.100;  112.000;  167.000
204.151;   72.700;  561.000;  556.000
204.296;  -40.975; -354.000; -221.000
204.442;  -58.450; -600.000; -547.000
204.588;  -72.400; -592.000; -579.000
204.733;   25.325;  178.000;  168.000
204.879; -123.750;-1018.000; -822.000
205.025;   12.800;  -99.000;  126.000
205.170;   -7.075;  -17.000;   94.000
205.316;   84.875;  438.000;  661.000
205.461;  -80.625; -698.000; -554.000
205.607;   84.900;  609.000;  665.000
205.752;  -75.100; -626.000; -551.000
205.898;  -55.250; -501.000; -391.000
206.043;  -63.350; -578.000; -506.000
206.189;  -37.125; -243.000; -285.000
206.334;   81.675;  554.000;  606.000
206.480;   83.650;  409.000;  239.000
206.625;  -83.075; -529.000; -552.000
206.771;  -46.375; -451.000; -373.000
206.916;  -30.050; -210.000; -537.000
207.062;  -76.675; -545.000; -591.000
207.207;  -53.250; -546.000; -443.000
207.353;   58.825;  185.000;  460.000
207.498;   12.175;  196.000;   85.000
207.643;  -47.375; -501.000; -370.000
207.789; -124.400;-1069.000; -910.000
207.934; -102.125; -665.000; -713.000
208.080;  -15.850; -154.000;   66.000
208.225;  -10.475;  -22.000;  -57.000
208.370;  -72.400; -727.000; -619.000
208.516;  -77.200; -741.000; -487.000
208.661;  -25.575; -127.000;  -69.000
208.806;  -27.750; -165.000; -171.000
208.952; -129.575;-1044.000; -731.000
209.097;   73.600;  378.000;  349.000
209.242;  -29.200; -307.000; -382.000
209.387;   60.600;  392.000;  350.000
209.533;  -52.325; -321.000; -350.000
209.678;   90.775;  472.000;  543.000
209.823;  -52.600; -408.000; -310.000
209.969; -100.275; -860.000; -757.000
210.114; -109.500; -907.000; -719.000
210.259; -100.625; -939.000; -889.000
210.404;  -19.925; -171.000;  103.000
210.549;   15.350;  108.000;    3.000
210.695;   -7.150;   -3.000;  -95.000
210.840;   33.100;   94.000;   67.000
210.985;  -50.425; -484.000; -303.000
211.130;   66.825;  268.000;  406.000
211.275;    6.475;  207.000;  199.000
211.420;  -43.150; -300.000; -289.000
211.566;  -65.675; -536.000; -489.000
211.711;   16.075;  218.000;  157.000
211.856;  -57.250; -545.000; -519.000
212.001;    3.975;  151.000;   44.000
212.146;   24.275;  153.000;   49.000
212.291;   -9.850; -210.000; -186.000
212.436;  -35.600; -280.000;   -6.000
212.581;  -72.600; -685.000; -653.000
212.726;  -78.325; -487.000; -538.000
212.871;  -53.750; -552.000; -217.000
213.016; -152.800;-1172.000;-1029.000
213.161;   61.075;  406.000;  291.000
213.306;  -64.275; -435.000; -577.000
213.451; -100.900; -778.000; -689.000
213.596;  -42.350; -455.000; -347.000
213.741;  -49.625; -448.000; -538.000
213.886;  -72.875; -498.000; -517.000
214.031;  -23.800; -294.000; -124.000
214.176;  -41.125; -408.000; -341.000
214.321;  -36.550; -296.000; -157.000
214.466;  -23.775; -163.000;  -43.000
214.611;   -4.950;  -61.000;  -10.000
214.756; -124.450; -948.000; -858.000
214.901;  -29.375; -388.000; -226.000
215.046; -127.350; -797.000; -825.000
215.191;   29.875;  128.000;   35.000
215.336;  -18.050; -157.000;  -19.000
215.480;  -58.975; -684.000; -505.000
215.625;  -13.225; -175.000;  -19.000
215.770;  -88.550; -757.000; -662.000
215.915;   -3.125;   -5.000;  -97.000
216.060;  -15.575; -113.000;  -21.000
216.205; -111.750; -731.000; -779.000
216.349;  -66.725; -470.000; -533.000
216.494; -137.675; -939.000; -867.000
216.639; -113.875; -823.000; -888.000
216.784;  -88.975; -577.000; -525.000
216.929;   52.175;  392.000;  281.000
217.073;  -13.225; -244.000;  -31.000
217.218;   -9.425;   78.000;  -47.000
217.363;  -89.450; -656.000; -618.000
217.507;  -76.050; -623.000; -588.000
217.652; -113.475; -845.000; -874.000
217.797;  -95.600; -708.000; -659.000
217.942; -125.550; -856.000; -720.000
218.086;   85.025;  608.000;  539.000
218.231;  -21.300; -174.000;  -26.000
218.376;  -32.250; -337.000; -229.000
218.520;   -1.725;  -41.000;   96.000
218.665;  -20.250; -338.000; -204.000
218.810;  -33.050; -275.000; -233.000
218.954;   15.975;  201.000;   35.000
219.099; -105.600; -713.000; -963.000
219.243;  -55.425; -589.000; -554.000
219.388;  -31.500; -264.000; -136.000
219.532;    0.075; -116.000; -116.000
219.677;  -83.200; -564.000; -521.000
219.822;    4.400;   33.000;   89.000
219.966;    3.500;   17.000;  -99.000
220.111;  -24.775; -328.000;  -40.000
220.255;  -92.200; -797.000; -750.000
220.400;  -19.875; -180.000; -146.000
220.544;  -65.325; -516.000; -450.000
220.689;  -50.200; -422.000; -451.000
220.833;  -24.600; -123.000;  -58.000
220.978;  -34.075; -393.000; -563.000
221.122;   17.900;  319.000;  307.000
221.267; -123.675; -906.000; -837.000
221.411;  -65.600; -478.000; -394.000
221.555;   -8.725; -104.000;  -23.000
221.700;  -45.250; -329.000; -222.000
221.844;   31.075;  255.000;  272.000
221.989;  -46.300; -328.000; -311.000
222.133;  -42.275; -289.000; -307.000
222.277;  -20.000;    5.000;   78.000
222.422;   25.650;  227.000;  113.000
222.566;  -42.175; -381.000; -214.000
222.711;  -61.700; -414.000; -479.000
222.855;  -77.325; -643.000; -586.000
222.999;  -74.325; -642.000; -717.000
223.144;  -29.275; -195.000; -194.000
223.288;   41.350;  423.000;  251.000
223.432;   34.300;  184.000;  230.000
223.576;   19.200;  152.000;  -21.000
223.721;   40.800;  364.000;  273.000
223.865;  -53.625; -472.000; -475.000
224.009;  225.075; 1673.000; 1631.000
224.153;  -74.675; -660.000; -671.000
224.298;  -67.000; -531.000; -489.000
224.442;  -16.700;  -74.000;  -33.000
224.586;  -12.675; -169.000; -106.000
224.730;  -86.050; -858.000; -670.000
224.875; -108.975; -739.000; -688.000
225.019;   10.000;  102.000;  188.000
225.163;   62.525;  208.000;  341.000
225.307;   19.500;   97.000;  -91.000
225.451;   58.175;  360.000;  481.000
225.595;   29.775;  264.000;  176.000
225.739;  -20.700; -170.000;  -94.000
225.884;    4.775;   86.000;    5.000
226.028;  -96.575; -760.000; -626.000
226.172;  -30.125; -260.000; -273.000
226.316; -105.075; -941.000; -902.000
226.460;  -73.100; -645.000; -493.000
226.604;  -52.175; -406.000; -400.000
226.748; -101.400; -836.000; -733.000
226.892;  -40.400; -227.000; -181.000
227.036;  -52.650; -537.000; -447.000
227.180;  -62.625; -551.000; -375.000
227.324;  -58.000; -561.000; -580.000
227.468; -113.125; -819.000; -717.000
227.612;   17.550;  242.000;  -28.000
227.756;  -91.650; -845.000; -698.000
227.900;   46.375;  342.000;  441.000
228.044;  -54.925; -509.000; -290.000
228.188;   55.300;  448.000;  568.000
228.332;  -82.425; -546.000; -472.000
228.476;  -32.650; -223.000; -149.000
228.620;  -36.625; -210.000; -150.000
228.764;   72.575;  431.000;  349.000
228.908;  -12.600; -155.000;   30.000
229.052;  -64.225; -615.000; -528.000
229.195;  -22.800; -172.000;   13.000
229.339;  -24.600; -235.000; -305.000
229.483;  -17.200;    5.000; -162.000
229.627;    4.400; -156.000;  139.000
229.771;  -56.800; -218.000; -294.000
229.915;   26.300;  230.000;   79.000
230.059;  -88.250; -648.000; -663.000
230.202;  -50.500; -370.000; -317.000
230.346;  -13.975; -107.000;  107.000
230.490;  -65.625; -489.000; -521.000
230.634; -106.175; -736.000; -553.000
230.777;   68.100;  478.000;  509.000
230.921;  -61.050; -450.000; -359.000
231.065;  -45.025; -246.000; -286.000
231.209;   23.775;  261.000;  265.000
231.352;   26.625;   54.000;   40.000
231.496;   20.350;  568.000;  188.000
231.640;  -76.850; -693.000; -621.000
231.783;   52.725;  546.000;  525.000
231.927;  -32.575; -294.000; -365.000
232.071; -127.700; -962.000; -736.000
232.214; -118.725; -980.000; -764.000
232.358;  -95.525; -683.000; -599.000
232.502;    4.725;  -19.000;    7.000
232.645; -132.525;-1090.000; -927.000
232.789;  -26.025; -257.000; -218.000
232.933;  -41.800; -407.000; -224.000
233.076; -135.775;-1038.000; -897.000
233.220; -105.650; -752.000; -777.000
233.363;  -72.925; -669.000; -477.000
233.507;   56.025;  371.000;  129.000
233.650;  -95.500; -764.000; -834.000
233.794;   36.475;  438.000;  461.000
233.938;  -51.750; -530.000; -362.000
234.081;  -25.325;  -93.000;   31.000
234.225;  -60.625; -631.000; -539.000
234.368; -109.975; -773.000; -723.000
234.512;  -45.700; -385.000; -299.000
234.655; -103.075; -582.000; -555.000
234.798;  -67.850; -493.000; -466.000
234.942; -121.200; -884.000;-1002.000
235.085;  -71.750; -651.000; -443.000
235.229;  -60.400; -405.000; -410.000
235.372;  -58.025; -247.000; -191.000
235.516;  -64.750; -397.000; -321.000
235.659;   28.550;   92.000;  121.000
235.802;  -16.400;  -38.000;  -22.000
235.946;   22.025;  335.000;  215.000
236.089;   32.525;  126.000;  250.000
236.233;   45.675;  275.000;  298.000
236.376;  -47.125; -235.000; -378.000
236.519;  -44.100; -297.000; -319.000
236.663;  -20.000; -215.000; -117.000
236.806; -124.225;-1029.000; -999.000
236.949;   60.300;  543.000;  431.000
237.092;   61.050;  412.000;  391.000
237.236;  -82.025; -589.000; -502.000
237.379;   61.425;  352.000;  428.000
237.522; -116.975; -879.000; -768.000
237.666;  -23.050; -271.000;   18.000
237.809; -120.800; -851.000; -823.000
237.952;   29.150;  469.000;  271.000
238.095;  -62.250; -447.000; -442.000
238.238;   74.700;  688.000;  700.000
238.382;   -2.700;  166.000;  103.000
238.525;  -65.650; -598.000; -511.000
238.668; -137.100;-1060.000; -985.000
238.811;  -91.025; -638.000; -643.000
238.954;  -61.325; -483.000; -334.000
239.097;   90.600;  617.000;  664.000
239.241;   25.075;  394.000;  326.000
239.384;  -35.500; -254.000; -214.000
239.527;  -63.900; -424.000; -224.000
239.670; -133.950; -994.000;-1091.000
239.813; -116.025; -696.000; -658.000
239.956;   79.225;  579.000;  473.000
240.099; -110.000; -778.000; -725.000
240.242;   54.575;  428.000;  432.000
240.385;   39.200;  466.000;  450.000
240.528;  -67.900; -706.000; -473.000
240.671;   15.225;  189.000;  134.000
240.814;  -36.400; -441.000; -158.000
240.957;  -95.925; -767.000; -578.000
241.100;  -83.400; -779.000; -755.000
241.243; -145.100;-1234.000; -893.000
241.386;  -61.475; -508.000; -379.000
241.529;  -88.100; -735.000; -547.000
241.672;  -60.275; -566.000; -495.000
241.815; -101.550; -832.000; -808.000
241.958;  -24.150; -125.000; -182.000
242.101;  -80.375; -545.000; -390.000
242.244;  -36.325; -270.000; -325.000
242.387;  -39.500; -304.000; -246.000
242.530;   64.600;  470.000;  134.000
242.673;  -38.600; -381.000; -309.000
242.815; -123.900; -925.000; -899.000
242.958;  -69.975; -482.000; -381.000
243.101;   16.500;  132.000;  187.000
243.244;  -87.350; -564.000; -521.000
243.387;  -48.725; -313.000; -316.000
243.530; -102.825; -657.000; -674.000
243.672;   -6.575;   43.000;  -92.000
243.815;  -55.250; -355.000; -283.000
243.958;   -8.975;   98.000;  -26.000
244.101;    0.375;   59.000;  -16.000
244.243;  -22.150;  -47.000;  101.000
244.386; -107.750; -761.000; -630.000
244.529;  -20.475; -132.000; -139.000
244.672; -159.150;-1154.000; -951.000
244.814;  -97.000; -621.000; -794.000
244.957;  -42.525; -380.000; -304.000
245.100;  -75.875; -489.000; -489.000
245.242;  -66.700; -387.000; -374.000
245.385;  -16.850;  -59.000;  -39.000
245.528; -123.400; -871.000; -705.000
245.670;   88.200;  612.000;  634.000
245.813;  -76.025; -599.000; -547.000
245.956;  -21.775; -324.000; -275.000
246.098;  -74.325; -508.000; -650.000
246.241;   14.025;  194.000;   48.000
246.383;  -10.100; -119.000;  -73.000
246.526;  -87.475; -454.000; -525.000
246.669; -110.225; -889.000; -780.000
246.811;   11.350;  172.000;   -1.000
246.954;  -63.425; -512.000; -426.000
247.096;  -33.025;  -84.000;   -6.000
247.239;  -67.600; -482.000; -445.000
247.381;  -58.375; -647.000; -488.000
247.524;   74.275;  645.000;  679.000
247.666;   -8.375;   58.000;   11.000
247.809; -107.750; -887.000; -691.000
247.951;  -17.375;  -75.000;  138.000
248.094;   27.050;  432.000;  308.000
248.236; -149.200;-1262.000;-1238.000
248.378;  -10.650; -356.000;  -81.000
248.521;  -23.900; -334.000; -337.000
248.663;  -44.125; -236.000; -267.000
248.806;  -24.525; -300.000; -266.000
248.948;  -96.425; -886.000; -763.000
249.090;  -52.650; -428.000; -398.000
249.233;  -39.325; -344.000; -381.000
249.375;  -56.125; -474.000; -451.000
249.518;  -38.675;  -83.000; -133.000
249.660;   -9.875; -103.000;    3.000
249.802; -177.750;-1303.000;-1189.000
249.945;  -76.725; -612.000; -540.000
250.087; -116.250; -834.000; -768.000
250.229;  -59.625; -362.000; -480.000
250.371;  -72.900; -494.000; -439.000
250.514;  -50.775; -310.000; -244.000
250.656;  -66.000;   69.000;  102.000
250.798; -129.200; -849.000; -800.000
250.940;  -56.975; -322.000; -322.000
251.083;  -21.325; -335.000; -111.000
251.225;   57.675;  338.000;  310.000
251.367;  -39.925; -274.000; -373.000
251.509;  -17.825; -265.000; -210.000
251.651; -107.325; -731.000; -671.000
251.794;   53.975;  538.000;  632.000
251.936; -105.150; -821.000; -747.000
252.078;  -80.675; -540.000; -461.000
252.220;  -71.150; -645.000; -477.000
252.362;   72.900;  344.000;  462.000
252.504;  -71.175; -677.000; -584.000
252.646; -113.875; -875.000; -722.000
252.788;  -12.975;   14.000; -128.000
252.931;  -42.925; -257.000; -253.000
253.073;  -50.725; -376.000; -317.000
253.215;    4.225;  141.000;  122.000
253.357;  -22.350;   82.000; -153.000
253.499;  -42.925; -374.000; -234.000
253.641;  -95.450; -749.000; -594.000
253.783;  -86.025; -609.000; -527.000
253.925;  -90.775; -586.000; -591.000
254.067; -109.900; -744.000; -667.000
254.209;  -35.750; -391.000; -259.000
254.351; -135.525; -865.000; -883.000
254.493;  -55.375; -441.000; -417.000
254.635; -123.000; -936.000; -818.000
254.777;  -92.275; -752.000; -687.000
254.918;  -54.250; -512.000; -430.000
255.060;  -64.850; -551.000; -395.000
255.202;  -60.400; -473.000; -261.000
255.344;  -77.100; -658.000; -455.000
255.486;  -65.650; -471.000; -406.000
255.628; -102.325; -780.000; -781.000
255.770;  -95.175; -676.000; -536.000
255.912;  -67.550; -559.000; -468.000
256.053;  -95.450; -730.000; -508.000
256.195;  158.125; 1008.000;  903.000
256.337; -100.250; -861.000; -595.000
256.479;   53.600;  532.000;  416.000
256.621;  -51.450; -394.000; -212.000
256.762; -101.050; -789.000; -742.000
256.904;   42.575;  485.000;  487.000
257.046;  -48.675; -381.000; -271.000
257.188;  -47.800; -351.000; -264.000
257.329;  -64.850; -525.000; -464.000
257.471; -118.100; -939.000; -807.000
257.613;  -60.700; -584.000; -498.000
257.755; -150.200;-1073.000; -982.000
257.896;   38.625;  286.000;  392.000
258.038;  -74.725; -403.000; -352.000
258.180;  -42.125; -354.000; -279.000
258.321;  -87.075; -581.000; -457.000
258.463;    2.925;  -71.000;  133.000
258.605;  -88.700; -562.000; -570.000
258.746;  -94.350; -886.000; -772.000
258.888; -156.275;-1026.000;-1020.000
259.029;   11.025;  121.000;   -8.000
259.171;  -86.475; -614.000; -550.000
259.313;   -6.575;  -49.000;  -47.000
259.454;  -70.950; -536.000; -414.000
259.596;  -44.575; -483.000; -390.000
259.737;  -71.075; -590.000; -474.000
259.879;   32.575;  217.000;  311.000
260.020;  101.675;  901.000;  636.000
260.162;  -22.400; -146.000; -253.000
260.303; -109.150; -768.000; -687.000
260.445; -100.500; -609.000; -613.000
260.586;   39.325;  392.000;  157.000
260.728;  -44.775; -360.000; -248.000
260.869; -112.400; -350.000; -343.000
261.011;   76.850;  706.000;  537.000
261.152;  -66.175; -479.000; -319.000
261.293;  -79.100; -576.000; -595.000
261.435;  -27.150; -219.000; -184.000
261.576;  -35.125; -455.000; -325.000
261.718;   52.775;  420.000;  470.000
261.859; -124.250; -940.000; -949.000
262.000; -129.100; -951.000;-1016.000
262.142;  -33.450;  -52.000;  -60.000
262.283; -116.425; -808.000; -691.000
262.424;  -90.275; -666.000; -625.000
262.566; -154.825;-1161.000; -983.000
262.707; -117.625; -840.000; -830.000
262.848; -126.900; -769.000; -726.000
262.990;  -46.100; -362.000; -345.000
263.131;   87.800;  650.000;  681.000
263.272;  -26.350;  -61.000;  -41.000
263.413;  -96.475; -589.000; -561.000
263.555;  -74.200; -669.000; -143.000
263.696;  -87.925; -550.000; -641.000
263.837;  -56.100; -449.000; -551.000
263.978;   -7.950;   -5.000;  -77.000
264.119;  -37.350; -283.000; -264.000
264.261; -115.400; -847.000; -630.000
264.402;    0.325;   33.000;   40.000
264.543;  -92.600; -509.000; -524.000
264.684;   -7.075;   61.000;  -50.000
264.825;  -90.675; -816.000; -538.000
264.966;   -9.325;  -84.000;  -67.000
265.107; -109.675; -646.000; -670.000
265.248; -117.700; -825.000; -812.000
265.390;  -25.325;  152.000;   -9.000
265.531;  -21.200; -238.000; -107.000
265.672;  -92.675; -557.000; -630.000
265.813;   52.975;  563.000;  439.000
265.954; -144.775; -959.000; -940.000
266.095;  -16.400; -372.000; -322.000
266.236; -101.925; -686.000; -548.000
266.377;  -57.225; -243.000; -297.000
266.518;  -82.875; -619.000; -547.000
266.659;   19.625;  170.000;  268.000
266.800;   -3.175;   83.000;   85.000
266.941;  -75.000; -487.000; -478.000
267.082;   -3.700;  354.000;   99.000
267.223;  -52.650; -344.000; -273.000
267.364; -122.500; -892.000; -686.000
267.504;  -21.550;    3.000;  135.000
267.645;   -9.550;  160.000;   67.000
267.786;  -34.300; -147.000;  -86.000
267.927;  -82.600; -473.000; -379.000
268.068;  -26.600; -186.000;  -61.000
268.209;  -42.450; -175.000; -413.000
268.350;  -59.000; -388.000; -532.000
268.490;  -94.600; -648.000; -521.000
268.631;   31.550;  127.000;  225.000
268.772; -105.975; -874.000; -647.000
268.913;  -50.325; -328.000; -476.000
269.054;  -23.975; -117.000;   12.000
269.194;  -43.550; -418.000; -402.000
269.335; -152.850;-1137.000;-1074.000
269.476;  -27.875;   33.000;  -35.000
269.617;  -51.275; -347.000; -392.000
269.757;  -92.125; -713.000; -646.000
269.898; -107.100; -856.000; -613.000
270.039;  -63.500; -415.000; -405.000
270.180; -137.375; -952.000; -816.000
270.320;  -39.300; -190.000; -250.000
270.461;  -37.600; -277.000; -249.000
270.602;  -19.475; -186.000; -156.000
270.742; -129.250; -868.000; -943.000
270.883;  -60.775; -442.000; -390.000
271.023;  -64.250; -358.000; -357.000
271.164;  -83.075; -607.000; -528.000
271.305; -106.750; -666.000; -654.000
271.445;  -99.125; -722.000; -683.000
271.586;  -92.300; -462.000; -283.000
271.726;  -48.725; -397.000; -322.000
271.867;  -57.725; -594.000; -534.000
272.008;  154.400; -473.000; -285.000
272.148;  124.375;  462.000;  468.000
272.289;    8.950; -113.000; -181.000
272.429;   10.575;   19.000;  185.000
272.570;  -92.475; -633.000; -737.000
272.710; -101.675; -825.000; -775.000
272.851;  -28.500;  113.000; -130.000
272.991; -163.825;-1173.000;-1077.000
273.131;  -81.150; -419.000; -459.000
273.272; -110.350; -683.000; -723.000
273.412;   18.375; -143.000;  -31.000
273.553;  -66.700; -488.000; -507.000
273.693;  126.625;  913.000;  858.000
273.834; -106.600; -894.000; -692.000
273.974;  -80.100; -664.000; -615.000
274.114;  -98.125; -772.000; -560.000
274.255;   75.950;  414.000;  373.000
274.395;   -2.075; -180.000; -125.000
274.535;   41.350;  199.000;  350.000
274.676;   10.425;  225.000;   94.000
274.816;    9.850;  110.000;   34.000
274.956;  -94.250; -624.000; -690.000
275.097;  -59.875;-1014.000; -922.000
275.237; -118.500; -913.000; -803.000
275.377;  -94.550; -778.000; -689.000
275.517; -160.575; -878.000; -937.000
275.658;  -66.975; -590.000; -555.000
275.798;  -68.575; -606.000; -413.000
275.938;   18.400;  215.000;  323.000
276.078;  -97.300; -626.000; -395.000
276.218;   -7.950;   99.000;  104.000
276.359; -142.100;-1026.000;-1024.000
276.499;  -60.125; -605.000; -446.000
276.639;  -42.700; -305.000; -151.000
276.779;  -37.300; -475.000; -357.000
276.919;  -91.575; -783.000; -624.000
277.059;  -27.425; -261.000; -212.000
277.199;  -59.150; -357.000; -259.000
277.340;   40.675;  287.000;  175.000
277.480; -122.975; -840.000; -693.000
277.620;   26.950;  192.000;   16.000
277.760; -192.475;-1533.000;-1294.000
277.900;   11.800;  113.000;   33.000
278.040;   24.350;  137.000;  159.000
278.180;   27.525;  270.000;  170.000
278.320;   -4.300;   21.000;   56.000
278.460;  -81.025; -443.000; -469.000
278.600;  -76.650; -708.000; -598.000
278.740;   37.200;  448.000;  224.000
278.880;  -80.375; -768.000; -791.000
279.020;  -12.900; -194.000; -144.000
279.160;  -90.425; -672.000; -595.000
279.300; -125.650; -926.000; -873.000
279.440;  -93.350; -709.000; -622.000
279.579;  -41.450;-1014.000; -929.000
279.719;  -50.700; -410.000; -394.000
279.859;   63.375;   -4.000;   41.000
279.999;   16.250; -208.000;  101.000
280.139;  -19.100; -435.000; -387.000
280.279;  -78.350; -708.000; -745.000
280.419;  -21.675; -229.000; -147.000
280.559;  -44.000; -259.000; -180.000
280.698;  -95.225; -790.000; -639.000
280.838; -104.450; -778.000; -800.000
280.978; -100.400; -846.000; -790.000
281.118; -110.400; -811.000; -704.000
281.257;    3.225;   24.000;    6.000
281.397; -127.950;-1094.000; -960.000
281.537;  -88.400; -599.000; -712.000
281.677;  -30.825; -150.000; -101.000
281.816;  -94.925; -700.000; -630.000
281.956;  -31.550; -193.000; -257.000
282.096;  -70.175; -539.000; -396.000
282.235; -102.325; -672.000; -638.000
282.375;  -35.300; -243.000;  -98.000
282.515; -100.550; -715.000; -707.000
282.654;    6.350;   29.000;  106.000
282.794;   25.450;  388.000;  244.000
282.934;  -63.000; -530.000; -491.000
283.073; -134.000;-1030.000; -857.000
283.213;  -57.325; -460.000; -467.000
283.353;  -50.075; -408.000; -349.000
283.492;  -25.800; -264.000; -296.000
283.632;  -53.600; -254.000; -168.000
283.771;  -92.700; -859.000; -730.000
283.911;  -65.025; -369.000; -260.000
284.050; -130.475; -794.000; -748.000
284.190; -158.625;-1229.000;-1096.000
284.329; -136.800;-1055.000; -964.000
284.469;  -81.300; -516.000; -591.000
284.608;  -63.475; -559.000; -598.000
284.748;  -96.500; -614.000; -570.000
284.887;   -0.500;  -87.000;  -20.000
285.027; -133.900; -844.000; -892.000
285.166;  -38.275; -192.000; -249.000
285.306;   -6.150; -116.000;  -33.000
285.445;  -42.875; -229.000; -343.000
285.584; -103.775; -630.000; -494.000
285.724;  -45.850; -282.000; -322.000
285.863; -111.650; -857.000; -507.000
286.002;  -54.675; -366.000; -276.000
286.142; -113.350; -715.000; -622.000
286.281;  -83.400; -525.000; -493.000
286.420;  -69.775; -554.000; -417.000
286.560;   97.475;  653.000;  623.000
286.699; -150.225; -958.000; -912.000
286.838;  -75.950; -590.000; -591.000
286.978;  -95.525; -533.000; -537.000
287.117; -140.250;-1085.000; -950.000
287.256;  -46.175; -228.000; -211.000
287.395;  -56.800; -197.000; -378.000
287.535;  -60.475; -370.000; -298.000
287.674;  -79.675; -509.000; -484.000
287.813;   36.100;  661.000;  533.000
287.952; -137.925;-1010.000; -871.000
288.091; -159.275;-1049.000; -915.000
288.231;    1.350;   13.000;   15.000
288.370; -160.750;-1217.000;-1200.000
288.509;  -83.150; -728.000; -645.000
288.648;  -86.900; -770.000; -548.000
288.787;  -34.275; -243.000;  -87.000
288.926;  -66.925; -454.000; -475.000
289.065;  117.025;  859.000;  672.000
289.204;  -64.150; -377.000; -217.000
289.344; -106.575; -791.000; -690.000
289.483;   16.150;  416.000;  304.000
289.622;  -38.250; -291.000; -149.000
289.761;  -30.725; -309.000; -166.000
289.900; -109.400; -785.000; -626.000
290.039;  -18.100;  -12.000;  -95.000
290.178;  -52.950; -274.000; -180.000
290.317; -102.675; -618.000; -479.000
290.456;  -65.450; -463.000; -451.000
290.595; -132.575; -961.000; -833.000
290.734; -148.725; -904.000; -891.000
290.873;  -82.200; -456.000; -420.000
291.011; -104.925; -833.000; -843.000
291.150; -109.250; -770.000; -682.000
291.289;  -35.475; -343.000; -110.000
291.428;  -87.475; -599.000; -480.000
291.567;  -63.800; -370.000; -442.000
291.706;  -14.900;  109.000;  154.000
291.845;  -90.750; -597.000; -505.000
291.984; -164.325;-1234.000;-1061.000
292.122;   64.050;  602.000;  582.000
292.261;   41.825;  620.000;  463.000
292.400;   -7.675; -144.000;  211.000
292.539; -130.425; -959.000; -813.000
292.678;  -42.425; -325.000; -300.000
292.816; -158.800;-1136.000; -965.000
292.955;  -85.375; -844.000; -684.000
293.094;  -47.250; -173.000; -337.000
293.233;  -45.350; -556.000; -400.000
293.371;  -35.925; -225.000;  -84.000
293.510; -116.075; -866.000; -780.000
293.649; -125.975; -959.000; -924.000
293.787;  -82.675;-1083.000;-1012.000
293.926;  -18.650; -113.000;  -32.000
294.065;  -47.875; -379.000; -290.000
294.203;   27.975;  298.000;  406.000
294.342;   12.750;   74.000;  156.000
294.481; 5759.650;51180.000; -836.000
294.619;  -41.875; -425.000; -582.000
294.758; -141.125;-1230.000;-1137.000
294.896;   66.550; -125.000;    5.000
295.035; -125.325;-1040.000;-1006.000
295.174; -121.875;-1082.000; -954.000
295.312;  -33.875; -323.000; -203.000
295.451;  -12.775; -307.000; -428.000
295.589;  -71.475; -389.000; -518.000
295.728;   11.725; -292.000; -165.000
295.866;   -8.725;  -36.000;  -51.000
296.005;  -72.775; -584.000; -341.000
296.143;  -73.775; -558.000; -596.000
296.282; -111.075; -957.000; -881.000
296.420;  -91.100; -657.000; -557.000
296.559;  -95.650; -892.000; -633.000
296.697;    4.825; -847.000; -665.000
296.835;   16.525;-1141.000;-1002.000
296.974;   29.575;  -23.000;   39.000
297.112;  -16.725; -443.000; -504.000
297.251;  -93.650; -815.000; -755.000
297.389;   63.075; -576.000; -438.000
297.527;   18.625; -145.000;  -83.000
297.666;  -75.625; -486.000; -438.000
297.804;  -55.425; -404.000; -264.000
297.942;  -20.825; -136.000; -161.000
298.081;  -13.050; -183.000;   63.000
298.219;   56.225;  -17.000;  -19.000
298.357;   21.275; -144.000;  -71.000
298.495;   -4.425; -810.000; -812.000
298.634;   40.400;  245.000;  219.000
298.772;   34.325; -220.000; -338.000
298.910;  -56.150; -309.000; -182.000
299.048;   -8.125; -130.000; -153.000
299.187;  -34.800; -350.000; -250.000
299.325;   14.925;   52.000;  122.000
299.463;   23.275; -389.000; -299.000
299.601;   76.800; -327.000; -271.000
299.739; -110.100; -908.000; -883.000
299.877;  -91.050; -791.000; -703.000
300.016;  -48.875;-1095.000; -935.000
300.154;  128.025;  -19.000; -161.000
300.292;   19.525; -428.000; -348.000
300.430;    7.625; -408.000; -291.000
300.568; -118.250; -940.000; -874.000
300.706;  -61.850; -366.000; -469.000
300.844;  -87.800;-1108.000; -979.000
300.982;  112.375;  246.000;  282.000
301.120; -120.075; -965.000; -866.000
301.258;  -86.125; -812.000; -705.000
301.396;   16.450;  104.000;  -41.000
301.534;   65.800; -218.000; -293.000
301.672;  -29.075; -664.000; -521.000
301.810;   12.425; -613.000; -545.000
301.948;   92.925;   53.000;  149.000
302.086;  524.200; -250.000;  -32.000
302.224;  789.425; -610.000; -585.000
302.362;    7.100; -558.000; -622.000
302.500;  -38.450; -923.000; -893.000
302.638;   85.075;  128.000;  245.000
302.776;  -18.825; -352.000; -408.000
302.913;   35.200;  447.000;  236.000
303.051;  -18.125;  -86.000;  -23.000
303.189;   32.300;   90.000;  118.000
303.327;  -45.675; -341.000; -256.000
303.465;  -71.325; -832.000; -588.000
303.603; -105.875; -805.000; -604.000
303.740;   96.200;  417.000;  241.000
303.878;   -6.725; -800.000; -759.000
304.016;  -95.950; -915.000; -790.000
304.154; -121.875;-1123.000;-1152.000
304.291;  -48.850; -505.000; -554.000
304.429;    8.675;  102.000;   74.000
304.567; -129.150; -908.000; -893.000
304.705;  -56.200; -408.000; -515.000
304.842;   61.100; -616.000; -540.000
304.980;   43.525;  215.000;   35.000
305.118;   32.050; -367.000; -365.000
305.255;  -93.850; -945.000; -927.000
305.393;   43.600;  178.000;  239.000
305.531; -121.550;-1173.000; -956.000
305.668;  -66.125; -663.000; -582.000
305.806;   79.325; -358.000; -439.000
305.943;   80.875; -629.000; -637.000
306.081;   50.250; -378.000; -267.000
306.219;  -91.800; -863.000; -748.000
306.356;  -11.275;  158.000;   27.000
306.494;  103.675;  981.000;  761.000
306.631;   -9.525;  -11.000;  -55.000
306.769;    3.500; -613.000; -485.000
306.906;  -26.700; -284.000; -258.000
307.044;  -74.350; -473.000; -488.000
307.181;  -69.275; -410.000; -332.000
307.319;    1.600;  112.000;   87.000
307.456; -174.525;-1191.000;-1153.000
307.594; -105.850; -980.000; -727.000
307.731;  -25.800; -371.000; -164.000
307.868;  -15.650;  -15.000;   20.000
308.006; -142.825; -961.000; -847.000
308.143;  -68.675; -618.000; -330.000
308.281;  124.700;  -37.000; -254.000
308.418;  -23.600; -748.000; -640.000
308.555;  -68.700; -400.000; -250.000
308.693;  -80.600; -577.000; -573.000
308.830; -105.775; -712.000; -657.000
308.967;  -29.000; -215.000;  -95.000
309.105;  -57.625; -507.000; -396.000
309.242;   18.300; -468.000; -367.000
309.379;  251.450; -577.000; -655.000
309.517;  -79.900; -936.000; -948.000
309.654; -114.575; -910.000; -734.000
309.791;  -76.450; -662.000; -580.000
309.928; -124.875; -977.000; -914.000
310.065;  166.250;  819.000;  697.000
310.203;  -25.575; -825.000; -850.000
310.340;  -25.475; -465.000; -321.000
310.477;  -87.625; -412.000; -516.000
310.614;  -70.650; -383.000; -473.000
310.751;  -98.200; -427.000; -518.000
310.889;  -27.950;    1.000;   11.000
311.026; -148.325;-1161.000; -939.000
311.163;  -62.000; -386.000; -380.000
311.300;  -72.400; -512.000; -479.000
311.437;  -70.700; -658.000; -619.000
311.574; -154.225;-1226.000; -985.000
311.711;  -72.575; -595.000; -433.000
311.848;  -56.275; -380.000; -388.000
311.985;    3.475;  270.000;   93.000
312.122; -119.175; -932.000; -762.000
312.259; -131.750; -941.000; -994.000
312.396;  -81.950; -508.000; -551.000
312.533; -104.950; -812.000; -790.000
312.670; -138.475;-1070.000; -898.000
312.807;  -38.575; -352.000; -367.000
312.944;  -79.075; -513.000; -611.000
313.081;  -31.400; -150.000; -415.000
313.218; -114.425;-1111.000; -867.000
313.355;   -9.275; -531.000; -449.000
313.492;   -9.575; -455.000; -292.000
313.629;  118.950;  815.000;  735.000
313.766; -163.275;-1176.000;-1008.000
313.902;   -7.150; -186.000;   21.000
314.039;  -51.525; -372.000; -289.000
314.176;   20.525;  286.000;  192.000
314.313;  -81.200; -569.000; -473.000
314.450;  -83.150; -788.000; -684.000
314.587;  -49.825; -468.000; -480.000
314.723;   -3.400;  -78.000;  130.000
314.860;   14.675;  318.000;  332.000
314.997;   21.975;  223.000;  142.000
315.134;  -37.500; -385.000; -368.000
315.270;  -42.900; -480.000; -496.000
315.407; -140.675;-1094.000; -967.000
315.544;  -52.350; -657.000; -538.000
315.681;  -69.975; -681.000; -565.000
315.817;   12.500; -133.000; -176.000
315.954;   -9.625; -613.000; -392.000
316.091; -132.900;-1045.000;-1023.000
316.227;  -40.150;  -71.000; -179.000
316.364;  -10.925;   23.000;    6.000
316.500;  -38.325; -113.000; -300.000
316.637;  -46.350; -181.000; -302.000
316.774;  -90.050; -625.000; -358.000
316.910; -100.500; -598.000; -629.000
317.047;  -74.325; -487.000; -351.000
317.183;  -68.675; -435.000; -566.000
317.320;  -14.450; -367.000; -321.000
317.456;  -64.900; -733.000; -805.000
317.593;  -87.150; -598.000; -641.000
317.729;    5.675;  168.000;  -67.000
317.866; -199.025;-1434.000;-1285.000
318.002;  -94.825; -708.000; -948.000
318.139; -113.750; -883.000; -867.000
318.275; -112.300;-1003.000; -738.000
318.412;  -80.650; -517.000; -336.000
318.548;  -37.325; -751.000; -720.000
318.685; -113.625; -985.000; -888.000
318.821;  -98.450; -762.000; -735.000
318.957;  -28.675;   34.000;  -23.000
319.094;   30.850;  297.000;  154.000
319.230;  -80.550; -756.000; -742.000
319.367;  104.925; -471.000; -520.000
319.503;   24.225; -538.000; -436.000
319.639;  -99.525; -877.000; -793.000
319.775;  -65.625; -750.000; -685.000
319.912;  -51.100; -424.000; -519.000
320.048;  -93.875;-1184.000;-1184.000
320.184;   81.600;   59.000;   70.000
320.321;  -73.150; -497.000; -467.000
320.457;   55.950;  475.000;  662.000
320.593;  -72.125; -375.000; -382.000
320.729; -101.350; -732.000; -734.000
320.866;  -79.375; -577.000; -635.000
321.002;  -86.550; -759.000; -809.000
321.138;  -24.825; -135.000; -211.000
321.274;   73.450; -148.000; -115.000
321.410;  -37.775; -585.000; -353.000
321.546;  -53.450;-1011.000; -911.000
321.683;   40.175;  400.000;  185.000
321.819;  -12.625;  -48.000; -117.000
321.955;  -94.550; -743.000; -722.000
322.091;  -47.000; -585.000; -540.000
322.227;  -18.750; -382.000; -202.000
322.363;  -20.075; -320.000; -215.000
322.499;  -48.575; -343.000; -331.000
322.635;  148.550;  636.000;  443.000
322.771;   16.650; -139.000;   12.000
322.907;   83.600;  129.000;  327.000
323.043;  -24.850; -115.000; -206.000
323.179;  -47.700; -394.000; -363.000
323.315;   -1.700; -401.000; -371.000
323.451;   42.550; -328.000; -236.000
323.587;   48.425;  -60.000;  -77.000
323.723;    1.175; -682.000; -601.000
323.859;  -23.075; -258.000;  -76.000
323.995;  -37.350; -467.000; -409.000
324.131; -121.175; -967.000; -892.000
324.267;  -38.200; -254.000; -276.000
324.402; -140.375; -960.000; -983.000
324.538;  -29.900; -279.000; -104.000
324.674;   20.025;  164.000;   77.000
324.810;   95.125;  226.000;  308.000
324.946;  -15.600; -810.000; -658.000
325.082;  -64.100; -568.000; -475.000
325.217;  -24.875;  -62.000;   16.000
325.353;  -99.500; -764.000; -659.000
325.489; -102.725; -540.000; -506.000
325.625;  -79.425; -579.000; -525.000
325.760;   57.675;  517.000;  376.000
325.896;  -24.450; -515.000; -702.000
326.032;  -48.000; -403.000; -352.000
326.168;  -68.925; -462.000; -369.000
326.303;  -67.100; -352.000; -461.000
326.439;  -17.125; -336.000; -276.000
326.575;    0.525; -190.000;  -29.000
326.710;  -12.450; -156.000;  -30.000
326.846;   -9.575;  146.000;  103.000
326.982;  -95.900; -530.000; -548.000
327.117;  -77.900; -481.000; -442.000
327.253;  -96.100; -745.000; -742.000
327.388; -131.575;-1137.000;-1153.000
327.524;  -52.500; -811.000; -578.000
327.659;  -43.325;  -58.000;  -22.000
327.795;  -26.425;   69.000;   45.000
327.931;  -86.800; -723.000; -499.000
328.066;  -26.450; -417.000; -276.000
328.202;  -28.650;   12.000; -129.000
328.337;   88.775;  957.000;  713.000
328.473;   40.025;  -12.000;  -74.000
328.608;  -25.925; -256.000; -267.000
328.743;  -91.975; -799.000; -664.000
328.879;   14.800;  214.000;  114.000
329.014;  -56.775; -102.000; -122.000
329.150;  -80.825; -358.000; -483.000
329.285;  -77.600; -465.000; -466.000
329.421;  -53.100; -548.000; -246.000
329.556;  -20.150;  -36.000;   85.000
329.691; -112.175; -633.000; -615.000
329.827;  -82.900; -626.000; -480.000
329.962;  -53.600;  131.000; -301.000
330.097;  -95.800; -673.000; -585.000
330.233;  -68.250; -410.000; -223.000
330.368; -130.025; -839.000; -628.000
330.503;  -12.525;    3.000;   98.000
330.638;   -1.725;  -93.000; -125.000
330.774;  -53.325; -609.000; -530.000
330.909;  -48.850; -434.000; -244.000
331.044; -100.100; -714.000; -708.000
331.179; -174.275;-1217.000;-1109.000
331.315;   -4.900;   77.000;   20.000
331.450;    6.975;  157.000;  285.000
331.585;  -94.000; -805.000; -706.000
331.720;  -94.500; -510.000; -460.000
331.855;   -6.300;  -35.000; -102.000
331.990;  246.700;   62.000;  138.000
332.126;  135.925; -110.000;   71.000
332.261;  -18.500; -379.000; -265.000
332.396;    6.250; -135.000; -242.000
332.531;  -96.925;-1074.000;-1031.000
332.666;   36.850; -519.000; -363.000
332.801; -107.900; -726.000; -807.000
332.936;  -29.225; -192.000; -122.000
333.071; -157.075; -870.000; -817.000
333.206;   10.475;  307.000;  379.000
333.341;   21.125;  344.000;  418.000
333.476; -102.100; -627.000; -623.000
333.611;  -48.925; -251.000; -173.000
333.746;  -52.975; -381.000; -464.000
333.881; -125.975; -973.000; -935.000
334.016; -124.100; -936.000; -917.000
334.151; -122.000; -746.000; -702.000
334.286;   17.025;  152.000;  186.000
334.421;  -12.575; -125.000; -178.000
334.556;  -94.900; -611.000; -567.000
334.690;  -98.450; -631.000; -577.000
334.825;   34.800;  381.000;   83.000
334.960;  -74.900; -285.000; -413.000
335.095;   -0.850;  135.000;  -91.000
335.230; -108.250; -722.000; -738.000
335.365; -149.075;-1084.000; -990.000
335.499; -135.850;-1108.000;-1037.000
335.634;   12.625;    9.000;  534.000
335.769;  -92.900; -755.000; -720.000
335.904;  -75.075; -603.000; -561.000
336.038;  -73.175; -735.000; -657.000
336.173; -134.250;-1206.000;-1194.000
336.308;   -2.950; -116.000; -189.000
336.443;   22.450; -544.000; -634.000
336.577;  -80.050; -936.000; -787.000
336.712;   40.525;   -4.000;  -12.000
336.847;  -64.675; -724.000; -607.000
336.981;   51.050; -272.000; -208.000
337.116;  239.975;  615.000;  501.000
337.250;  112.625; -434.000; -421.000
337.385;  268.025; -297.000; -208.000
337.520;  103.625; -632.000; -603.000
337.654;  -33.225; -215.000; -126.000
337.789; -130.650; -989.000; -933.000
337.923;  -33.500; -104.000; -205.000
338.058;  -88.525; -673.000; -738.000
338.192;  -42.700; -611.000; -488.000
338.327;  -32.200;  -18.000; -155.000
338.461;  -74.700; -299.000; -469.000
338.596; -109.650; -780.000; -638.000
338.730;  -95.925; -767.000; -803.000
338.865;   88.200;  -46.000; -140.000
338.999;  -38.250; -846.000; -702.000
339.134;  -26.025; -634.000; -536.000
339.268;   13.075; -741.000; -603.000
339.403;  382.850; -740.000; -775.000
339.537;  122.050; -894.000; -820.000
339.671; -113.350; -829.000; -813.000
339.806;  -61.975; -556.000; -512.000
339.940;    6.525; -261.000; -235.000
340.074;  -99.300; -685.000; -510.000
340.209;  -57.075; -351.000; -230.000
340.343;  -77.575; -517.000; -573.000
340.477;  142.175;  998.000; 1036.000
340.612;  -49.300;-1033.000; -900.000
340.746;  154.350; -199.000; -243.000
340.880;  -83.775; -924.000; -785.000
341.014;  -31.875;  -45.000; -154.000
341.149; -127.700; -756.000; -718.000
341.283; -112.725; -839.000; -754.000
341.417; -105.375;-1124.000; -938.000
341.551;   79.275; -768.000; -708.000
341.685;  -51.125; -633.000; -611.000
341.820;  -56.725; -562.000; -493.000
341.954;  -58.800; -218.000; -349.000
342.088; -142.325;-1102.000;-1019.000
342.222;   48.325;  565.000;  618.000
342.356;  -67.175; -395.000; -335.000
342.490; -104.775; -880.000; -841.000
342.624;  -53.600; -339.000; -242.000
342.758;  -16.125; -364.000; -312.000
342.892;  -78.600; -710.000; -585.000
343.026;  -37.600;  -58.000; -116.000
343.160;  -55.975; -426.000; -376.000
343.294;  -88.150; -474.000; -337.000
343.428;  -49.300; -488.000; -448.000
343.562;  -30.075; -172.000;  -23.000
343.696;  -38.850; -385.000; -314.000
343.830;  -33.550; -362.000; -356.000
343.964;    6.600; -231.000; -168.000
344.098;  751.350;  199.000;   70.000
344.232;  617.625; -266.000; -127.000
344.366;   65.200; -567.000; -453.000
344.500;   28.650; -665.000; -744.000
344.634;   -5.050; -324.000; -164.000
344.768;  -29.375; -531.000; -341.000
344.902;    3.325;  278.000;  256.000
345.035;  -70.675; -556.000; -496.000
345.169; -146.450; -933.000; -656.000
345.303;  -34.850; -308.000; -482.000
345.437;  -88.700; -826.000; -717.000
345.571;  -76.700; -675.000; -594.000
345.704;  -76.200; -309.000; -532.000
345.838;  -35.900; -331.000; -284.000
345.972;  -48.200; -543.000; -495.000
346.106;  171.175; -179.000; -190.000
346.239;  402.200; -312.000; -243.000
346.373;    9.825; -343.000; -302.000
346.507; -146.050; -950.000; -962.000
346.640;  110.825;  -30.000;   13.000
346.774;  -49.800; -650.000; -797.000
346.908;  -27.500; -138.000;  -11.000
347.041; -101.300; -646.000; -593.000
347.175;   -1.600;  259.000;   27.000
347.309;  -89.300; -698.000; -628.000
347.442; -110.925; -883.000; -732.000
347.576;  226.775;  670.000;  668.000
347.709;  140.000; -123.000;  -52.000
347.843; -109.675; -933.000; -825.000
347.976;   37.600;  235.000;  294.000
348.110; -188.675;-1268.000;-1186.000
348.243; -117.800; -679.000; -772.000
348.377;   -8.875;  -26.000;   60.000
348.510;   52.075;  403.000;  540.000
348.644;  -38.900;  -37.000; -159.000
348.777;   -3.125;  180.000;  191.000
348.911;  -52.900; -142.000; -112.000
349.044;  142.150;  471.000;  448.000
349.178;  103.700;-1069.000;-1006.000
349.311;  107.900;  141.000;  255.000
349.444;   -8.925; -927.000; -813.000
349.578;  -24.600; -347.000; -200.000
349.711; -110.775; -959.000; -862.000
349.845;  -10.075; -661.000; -591.000
349.978; -147.475;-1224.000;-1137.000
350.111;  -93.675; -546.000; -612.000
350.244;  -89.450; -596.000; -700.000
350.378;  -21.850; -392.000; -393.000
350.511;  -82.725; -393.000; -426.000
350.644;  -97.475; -808.000; -806.000
350.778;    8.100;  168.000;  104.000
350.911;   -7.300;  134.000;  140.000
351.044; -104.075; -685.000; -615.000
351.177;  -25.550; -321.000; -281.000
351.310;  -39.975;    3.000; -131.000
351.444; -102.875; -888.000; -788.000
351.577;  106.500;  140.000;   90.000
351.710;   84.475;  593.000;  417.000
351.843;  -41.075; -165.000;  -77.000
351.976;   -6.775;  149.000;  -79.000
352.109;  -93.925; -621.000; -612.000
352.242;  -33.425; -464.000; -419.000
352.376;  -75.675; -580.000; -636.000
352.509;  132.525; -437.000; -356.000
352.642;  -15.025; -654.000; -604.000
352.775;   47.375; -141.000;  -98.000
352.908; -132.425; -933.000; -904.000
353.041; -115.175; -814.000; -824.000
353.174;  -83.825; -551.000; -424.000
353.307;  -85.700; -753.000; -764.000
353.440;   60.100;  541.000;  453.000
353.573; -126.000; -957.000;-1008.000
353.706;  -59.350; -384.000; -558.000
353.839;  -27.800; -264.000; -220.000
353.971;  -85.250; -657.000; -512.000
354.104;  -92.875; -896.000; -835.000
354.237;  -46.175; -627.000; -662.000
354.370;  -90.625; -846.000; -879.000
354.503; -182.800;-1231.000;-1308.000
354.636;  -48.025; -529.000; -348.000
354.769; -133.350; -937.000; -860.000
354.902;  -17.050; -230.000; -139.000
355.034;  -21.300; -164.000; -220.000
355.167;  -29.525; -262.000; -162.000
355.300;  -87.650;-1061.000; -880.000
355.433;  981.675;  -71.000;  -14.000
355.565; 1532.400; -402.000; -384.000
355.698;  401.225; -356.000; -296.000
355.831;  -12.700; -882.000; -801.000
355.964;   52.175; -285.000; -170.000
356.096;  -95.650; -856.000; -843.000
356.229;  -19.100; -523.000; -530.000
356.362;  325.975; -373.000; -266.000
356.494;  627.000; -229.000; -162.000
356.627;  421.750;  269.000;  377.000
356.760;  666.575;  120.000;   53.000
356.892; 1005.500; -286.000; -601.000
357.025;  552.600;  403.000;  389.000
357.157;  481.425; -167.000; -179.000
357.290;  742.900; -856.000; -713.000
357.423;  203.025; -667.000; -556.000
357.555;   96.325; -217.000; -228.000
357.688;  105.575; -483.000; -364.000
357.820;  393.575; -870.000; -877.000
357.953; 3305.375; -563.000; -589.000
358.085;  666.500; -632.000; -612.000
358.218;  827.300;-1131.000; -932.000
358.350;  166.500;  -58.000;  312.000
358.483; -148.225;-1300.000;-1187.000
358.615;  -40.900;-1182.000;-1078.000
358.747; -102.725;-1187.000;-1058.000
358.880;   -1.500; -810.000; -744.000
359.012;  -29.725; -376.000; -202.000
359.145;  -42.225; -480.000; -511.000
359.277;   32.350; -962.000; -913.000
359.409; 2663.625;  536.000;  231.000
359.542;  693.400; -738.000; -688.000
359.674;   62.475;   46.000;   13.000
359.806;  -70.950; -565.000; -438.000
359.939;  -34.325; -617.000; -516.000
360.071;   -6.000; -583.000; -579.000
360.203;  -25.925; -411.000; -364.000
360.335;   30.325;  164.000;  -16.000
360.468;  152.125; -249.000; -307.000
360.600; 2211.725; -547.000; -454.000
360.732; 3017.075; -546.000; -423.000
360.864;  379.550;-1216.000;-1044.000
360.996;  196.600; -516.000; -554.000
361.129;   17.725; -389.000; -598.000
361.261;   10.150;  110.000; -113.000
361.393;  -41.075; -252.000; -214.000
361.525;   21.325;   94.000;  244.000
361.657;  -66.475; -821.000; -703.000
361.789;  -17.100; -139.000; -155.000
361.921;  159.325; -642.000; -593.000
362.053;  212.425;  524.000;  541.000
362.185;   40.250;  288.000;   72.000
362.318;  -91.925; -709.000; -705.000
362.450;   92.125;  294.000;  444.000
362.582;   25.300; -913.000; -870.000
362.714;  -40.575; -353.000; -332.000
362.846;  -87.400; -606.000; -490.000
362.978; -150.525; -941.000; -811.000
363.109;   21.950; -161.000; -260.000
363.241;  325.500; -739.000; -749.000
363.373;  440.400; -649.000; -564.000
363.505;  706.600; -186.000;  -91.000
363.637;  147.925; -787.000; -601.000
363.769; -132.475;-1067.000;-1080.000
363.901;  -63.350; -596.000; -654.000
364.033; -122.100;-1103.000;-1062.000
364.165;  -28.575; -283.000; -283.000
364.296;   72.125; -316.000; -177.000
364.428;   74.425;-1344.000;-1220.000
364.560;  -74.525; -679.000; -661.000
364.692;  -64.300; -738.000; -835.000
364.824;  173.500; -588.000; -456.000
364.955;  418.575; -402.000; -564.000
365.087; 1020.650;-1097.000; -852.000
365.219;   50.975; -686.000; -816.000
365.351;  -63.650; -526.000; -572.000
365.482;   50.575;  300.000;  240.000
365.614;  -51.250; -402.000; -314.000
365.746; -101.100; -729.000; -752.000
365.877;  -93.475; -706.000; -672.000
366.009;  265.450;  -35.000;  -62.000
366.141;  -83.350;-1249.000;-1134.000
366.272; -119.450; -803.000; -719.000
366.404; -119.050;-1005.000; -874.000
366.535;  -12.950; -139.000;  -12.000
366.667; -114.925; -644.000; -649.000
366.799;   30.925;  353.000;  203.000
366.930; -127.075; -862.000; -996.000
367.062;  107.525; -639.000; -613.000
367.193;  173.725; -872.000; -842.000
367.325;  -67.400; -580.000; -684.000
367.456;   18.150; -246.000;   31.000
367.588;  158.350; -371.000; -318.000
367.719;   20.825;  -44.000;  -45.000
367.851;  -22.975; -222.000; -241.000
367.982;  -72.800; -875.000; -732.000
368.113;   52.050; -475.000; -358.000
368.245; -125.375; -960.000; -841.000
368.376;  -31.700; -254.000; -302.000
368.508;  -59.675; -188.000; -263.000
368.639; -144.775;-1166.000;-1034.000
368.770;  -40.500; -670.000; -589.000
368.902;  -79.375; -836.000; -926.000
369.033; -112.450; -906.000; -855.000
369.164;  -49.400; -720.000; -653.000
369.296; -116.350; -452.000; -601.000
369.427;   -8.775; -209.000; -144.000
369.558;  -60.625; -593.000; -377.000
369.689;  -92.250; -721.000; -569.000
369.821; -132.125; -951.000; -845.000
369.952;  -21.225;   42.000; -108.000
370.083;  -54.550; -229.000; -108.000
370.214;  -84.050; -735.000; -650.000
370.345;  -16.725;   65.000;   81.000
370.477;  -83.300; -810.000; -790.000
370.608;  170.125; -328.000; -264.000
370.739;  -67.100;-1233.000;-1292.000
370.870;  -56.850;-1102.000; -923.000
371.001;   51.150; -378.000; -467.000
371.132;  -94.300; -754.000; -735.000
371.263;  -26.225;  -42.000; -148.000
371.394; -136.925; -841.000; -748.000
371.525;   22.525;  345.000;  225.000
371.657;  -93.100; -808.000; -670.000
371.788;   59.175;  103.000;  199.000
371.919;  136.525; -384.000; -304.000
372.050; 3073.775;  -91.000; -156.000
372.181;  931.475; -188.000; -294.000
372.311;  292.350;   42.000; -127.000
372.442;   -3.775; -457.000; -451.000
372.573;  -28.625; -444.000; -340.000
372.704; -119.450;-1008.000; -980.000
372.835;   60.275; -228.000; -289.000
372.966;  -60.950; -646.000; -554.000
373.097;  -79.300; -575.000; -711.000
373.228;  -66.000; -717.000; -542.000
373.359;   68.225; -824.000; -536.000
373.490;  739.025; -881.000; -727.000
373.620;  941.650;-1001.000; -803.000
373.751; 1453.800; -332.000; -396.000
373.882;  640.800; -663.000; -733.000
374.013;   22.450; -449.000; -262.000
374.143;  -61.400; -581.000; -659.000
374.274; -116.125; -987.000; -908.000
374.405;  127.250; -388.000; -276.000
374.536;  361.575; -526.000; -387.000
374.666;  865.125; -759.000; -807.000
374.797;  157.500; -817.000; -868.000
374.928;  672.150; -710.000; -560.000
375.058;  699.850; -535.000; -500.000
375.189;   59.650;  -59.000;  -93.000
375.320; -112.350; -928.000;-1034.000
375.450;  -47.275; -625.000; -616.000
375.581;  -58.450; -526.000; -436.000
375.712;  -43.075; -574.000; -250.000
375.842;  202.225; -438.000; -415.000
375.973;  143.525; -554.000; -513.000
376.103;  -68.175; -665.000; -648.000
376.234;  -77.950; -531.000; -552.000
376.364;  -47.075; -944.000; -867.000
376.495;  255.125;  925.000;  529.000
376.625;  -28.125; -472.000; -485.000
376.756;   23.100; -709.000; -678.000
376.886;  -97.500;-1178.000;-1026.000
377.017;   62.825;-1048.000;-1061.000
377.147;  383.625; -786.000; -782.000
377.278;   44.875;  174.000;  228.000
377.408; -134.025; -801.000; -815.000
377.538; -116.925; -707.000; -693.000
377.669;  -94.750; -537.000; -613.000
377.799;  -86.400; -645.000; -635.000
377.929;  -70.525; -610.000; -428.000
378.060; -131.675; -781.000; -847.000
378.190;  -60.450; -726.000; -531.000
378.320;  -49.250; -401.000; -406.000
378.451;  -17.400; -131.000;  -22.000
378.581;  -13.150;  -67.000; -110.000
378.711;  136.500; 1035.000;  866.000
378.841;  -35.650; -533.000; -675.000
378.972;  -85.250; -871.000; -751.000
379.102;  -33.600; -652.000; -579.000
379.232;  -44.650; -126.000;  -73.000
379.362; -121.875;-1001.000; -885.000
379.492;  -20.825; -373.000; -424.000
379.623;   76.450;    0.000;  111.000
379.753; -106.125;-1107.000; -974.000
379.883;  160.125;   59.000;  156.000
380.013;  -29.925;-1081.000;-1017.000
380.143; -113.500;-1097.000;-1056.000
380.273; -104.650; -985.000; -861.000
380.403;  -20.725; -344.000; -257.000
380.533;  -49.675; -651.000; -664.000
380.663;   42.850;  173.000;  128.000
380.793; -111.300;-1027.000;-1074.000
380.923;  -23.800; -103.000;  -34.000
381.053; -103.100; -613.000; -623.000
381.183;  -42.650; -106.000; -248.000
381.313;   -0.825; -656.000; -470.000
381.443;    7.575; -692.000; -473.000
381.573;  143.250; -402.000; -409.000
381.703;  169.275;-1249.000;-1095.000
381.833; -135.950;-1454.000;-1336.000
381.963;   81.825; -134.000;  -87.000
382.093; 1192.400; -925.000; -909.000
382.223;  374.900; -713.000; -602.000
382.353;  -39.425; -801.000; -608.000
382.482;  253.225;-1091.000; -964.000
382.612;  608.950; -872.000; -644.000
382.742;  332.025; -695.000; -622.000
382.872;  176.675; -565.000; -551.000
383.002;   48.950;  347.000; -132.000
383.131;  -40.775; -226.000; -160.000
383.261;  -58.125; -706.000; -768.000
383.391;  271.875; -552.000; -377.000
383.521; 3391.775;  451.000;  263.000
383.650;  856.125; -947.000; -904.000
383.780;  -14.200; -783.000; -656.000
383.910;  104.550;  880.000;  802.000
384.039;  -22.825; -794.000; -656.000
384.169;  129.425;-1205.000;-1017.000
384.299;  -47.300; -650.000; -662.000
384.428;  -90.450; -764.000; -680.000
384.558;  -52.075; -308.000; -275.000
384.687;  -63.175; -414.000; -334.000
384.817;    6.450;   75.000;   -2.000
384.947;    0.275; -234.000; -141.000
385.076;  244.425;  982.000;  912.000
385.206;   82.000;  369.000;  480.000
385.335;  -56.250; -549.000; -417.000
385.465;  -83.450; -655.000; -663.000
385.594;  102.425;  -53.000;  -44.000
385.724;  328.800; -868.000; -838.000
385.853;   85.075; -296.000; -270.000
385.982; 1085.300; -743.000; -787.000
386.112; 1803.325;-1052.000; -871.000
386.241;  100.625; -307.000; -312.000
386.371;   -6.675; -174.000;  -87.000
386.500;  -31.200; -825.000; -789.000
386.629;    1.700; -874.000; -817.000
386.759;   50.225;  -43.000;   68.000
386.888;  -27.675; -170.000; -250.000
387.017; -101.575; -648.000; -620.000
387.147;  -87.875; -771.000; -798.000
387.276;  -15.125; -410.000; -397.000
387.405;  -14.875; -398.000; -342.000
387.535;  -58.675; -452.000; -361.000
387.664;  -71.125; -692.000; -620.000
387.793;   18.200; -198.000; -113.000
387.922;  413.975;  255.000;  200.000
388.052;   -5.800; -576.000; -423.000
388.181;  -25.050; -342.000; -472.000
388.310;  -50.525; -889.000; -710.000
388.439;  -80.950; -749.000; -742.000
388.568;  134.450;  365.000;  244.000
388.697;  811.200; -756.000; -653.000
388.826;  156.125; -768.000; -666.000
388.956;   32.300; -285.000; -307.000
389.085;  -30.100; -347.000; -287.000
389.214; -111.300; -842.000; -872.000
389.343;  -64.275; -645.000; -413.000
389.472;  416.650;  126.000;  149.000
389.601;  479.500;   91.000;    0.000
389.730;   -7.300; -568.000; -687.000
389.859;   40.425;  226.000;   46.000
389.988;  136.325; -423.000; -408.000
390.117;  109.000; -168.000; -146.000
390.246;  -24.225; -331.000; -320.000
390.375;   39.350; -673.000; -626.000
390.504;  -65.025; -703.000; -621.000
390.633; -115.425; -672.000; -726.000
390.761;  -89.475; -732.000; -645.000
390.890;   -0.975;   -4.000; -130.000
391.019;  -51.475; -421.000; -441.000
391.148; -118.550; -826.000; -855.000
391.277;  -71.625; -576.000; -493.000
391.406;  -91.550; -821.000; -805.000
391.534;   16.050;  574.000; -301.000
391.663;  -83.225; -583.000; -645.000
391.792;  -80.475; -673.000; -701.000
391.921;   53.250;   -3.000;   15.000
392.050;  123.700; -287.000; -228.000
392.178;  -75.625;-1206.000;-1061.000
392.307;   83.925; -758.000; -712.000
392.436;   41.000; -427.000; -641.000
392.564;   -0.150;  166.000;   -6.000
392.693;  -88.275; -860.000; -682.000
392.822;  147.600; -529.000; -534.000
392.950;   38.800; -880.000; -714.000
393.079;  256.175; -188.000; -328.000
393.208;   -0.275; -488.000; -511.000
393.336;  -23.150; -170.000; -145.000
393.465;  -57.750; -317.000; -199.000
393.593;  -15.600;   62.000;   79.000
393.722; -174.150;-1121.000; -916.000
393.850;  -35.975; -188.000;  -61.000
393.979; -163.725; -926.000; -805.000
394.107;  -75.375; -517.000; -537.000
394.236;  -35.025; -570.000; -507.000
394.364;  166.575;  383.000;  206.000
394.493;  274.650; -911.000; -767.000
394.621;  -26.300; -955.000; -916.000
394.750;  736.550; -873.000; -923.000
394.878; 3050.250; -247.000; -149.000
395.007; 4145.550; -721.000; -807.000
395.135;  331.450; -790.000; -721.000
395.263;  -88.250;-1038.000;-1040.000
395.392;    2.550;  -25.000; -107.000
395.520; -133.950; -818.000; -679.000
395.648; -100.475; -865.000; -915.000
395.777;  -40.450; -366.000; -405.000
395.905;  -48.325; -449.000; -564.000
396.033;   -2.325;  217.000;  172.000
396.162;  453.575; -399.000; -453.000
396.290;  406.075;  -17.000;   -2.000
396.418;   46.250; -555.000; -514.000
396.546;  -80.600; -571.000; -466.000
396.674; -110.450; -850.000; -878.000
396.803;    0.175;  -72.000;  -23.000
396.931;   40.600; -179.000; -199.000
397.059;  -18.150;-1026.000; -989.000
397.187; -121.525;-1026.000; -975.000
397.315; -146.675; -884.000; -649.000
397.443; -101.500; -592.000; -443.000
397.572;  -89.575; -578.000; -424.000
397.700;  -49.275; -607.000; -614.000
397.828;    1.750;  120.000;  -90.000
397.956;  -52.275; -508.000; -478.000
398.084;  -74.450; -767.000; -626.000
398.212;   22.325;  137.000;  124.000
398.340;   10.350;  -56.000;  159.000
398.468;  -16.150; -390.000; -169.000
398.596; -145.750; -993.000; -953.000
398.724; -118.200; -762.000; -767.000
398.852; -159.100;-1024.000; -976.000
398.980;  -74.450; -560.000; -560.000
399.108;  -82.800; -982.000; -735.000
399.236;   27.300;   13.000;    8.000
399.363;   -1.075;  222.000;  196.000
399.491;  -90.300; -404.000; -398.000
399.619; -130.425; -829.000; -800.000
399.747; -111.125; -859.000; -771.000
399.875;   52.350;  220.000;  234.000
400.003;  -49.875; -359.000; -284.000
400.130;  -97.475; -421.000; -341.000
400.258;  -35.875;  -83.000;   38.000
400.386;  -67.150; -352.000; -168.000
400.514;  -68.975; -526.000; -587.000
400.641; -107.250; -928.000; -802.000
400.769; -154.675; -979.000; -888.000
400.897; -120.325; -838.000; -793.000
401.025;  -27.150; -166.000; -152.000
401.152;  -13.525;  220.000;   38.000
401.280;  -86.525; -430.000; -429.000
401.408; -133.875; -712.000; -576.000
401.535; -112.075; -735.000; -758.000
401.663; -196.300;-1134.000;-1054.000
401.790;  -88.025; -514.000; -525.000
401.918;   29.600;  436.000;  405.000
402.046;  -22.625;  134.000;  122.000
402.173;  -46.575;  -18.000;    7.000
402.301;  -68.725; -519.000; -397.000
402.428;   17.925;  528.000;  383.000
402.556; -145.775;-1188.000; -913.000
402.683;  -40.700;  -20.000;   -1.000
402.811;  -38.425;  -37.000; -206.000
402.938;  -11.100;   20.000;   27.000
403.066;  141.900; -574.000; -558.000
403.193;  292.575;  299.000;  239.000
403.321;  203.525; -396.000; -574.000
403.448;  264.075;   83.000;   27.000
403.575;  117.950;  -90.000;  -46.000
403.703; -115.100; -732.000; -557.000
403.830;  -73.075; -531.000; -496.000
403.957; -142.150;-1117.000;-1023.000
404.085;    0.975;  -61.000; -172.000
404.212;   86.875;  -50.000;   63.000
404.339;  272.225; -566.000; -306.000
404.467; 6014.775; -612.000; -524.000
404.594; 3838.225; -287.000; -227.000
404.721;  834.125; -869.000; -764.000
404.848;   71.550; -113.000; -202.000
404.976; -116.900; -856.000; -783.000
405.103;  -11.100;  -14.000;  -82.000
405.230;  -13.300;  190.000;  226.000
405.357;   16.075;  117.000;   44.000
405.484;  251.875;  -49.000;    5.000
405.612;   29.225; -548.000; -563.000
405.739;  -70.825; -488.000; -243.000
405.866;   61.175;  669.000;  385.000
405.993;  -43.750; -398.000; -102.000
406.120; -130.400; -801.000; -887.000
406.247;  -57.075; -323.000; -342.000
406.374;  337.500;  540.000;  629.000
406.501;   49.925; -632.000; -702.000
406.628;  -88.475; -621.000; -589.000
406.755; -103.600; -803.000; -620.000
406.882;  -43.350; -228.000; -277.000
407.009; -101.850; -719.000; -628.000
407.136;   24.000; -480.000; -401.000
407.263;   53.150; -939.000; -829.000
407.390;  -78.125; -692.000; -614.000
407.517; -174.350;-1139.000;-1187.000
407.644;  -53.500; -332.000; -256.000
407.771; -149.825; -249.000; -287.000
407.898;    1.000;  168.000;  328.000
408.025;  -76.000; -421.000; -313.000
408.151;  -22.250;   82.000;  153.000
408.278;  -79.525; -267.000; -216.000
408.405; -133.950; -931.000; -899.000
408.532;  -97.450; -549.000; -542.000
408.659; -118.425; -677.000; -648.000
408.785; -198.425;-1298.000;-1170.000
408.912;  -79.800; -412.000; -296.000
409.039; -122.100; -610.000; -686.000
409.166; -105.725; -591.000; -555.000
409.292; -113.075; -571.000; -534.000
409.419; -111.875; -665.000; -649.000
409.546;  -93.800; -431.000; -192.000
409.672; -112.750; -713.000; -545.000
409.799;  -20.825;  -36.000;   34.000
409.926;  -53.375; -180.000; -179.000
410.052; -185.650;-1127.000;-1091.000
410.179;  -71.900; -368.000; -392.000
410.305;  -90.900; -375.000; -493.000
410.432;  -51.825; -220.000; -333.000
410.558;  -95.700; -305.000; -380.000
410.685; -114.275; -688.000; -431.000
410.812;  -95.450; -409.000; -588.000
410.938; -144.200; -964.000; -808.000
411.065; -111.425; -671.000; -645.000
411.191;  -26.925; -189.000; -174.000
411.317; -126.550; -823.000; -742.000
411.444;  -67.675; -317.000; -246.000
411.570;  -85.525; -339.000; -294.000
411.697; -120.825; -758.000; -752.000
411.823; -163.125; -989.000; -999.000
411.949;  -45.725;  -56.000;   17.000
412.076; -110.725; -539.000; -519.000
412.202; -120.900; -758.000; -757.000
412.329; -137.875; -798.000; -752.000
412.455; -114.150; -821.000; -657.000
412.581;  -22.600;  -15.000;  172.000
412.707;  -77.600; -540.000; -457.000
412.834;    9.750;  156.000;  219.000
412.960;  -90.400; -785.000; -784.000
413.086; -100.925; -743.000; -701.000
413.212;  119.400;  604.000;  578.000
413.339;  -85.200; -685.000; -701.000
413.465;  -16.250; -364.000; -310.000
413.591;  -96.825; -757.000; -474.000
413.717;  -57.425; -358.000; -366.000
413.843; -152.750; -839.000; -861.000
413.969;  -70.800;  -47.000; -292.000
414.096; -107.800; -679.000; -679.000
414.222;  -15.175;  -33.000;   85.000
414.348;  -49.000; -652.000; -385.000
414.474;   67.650;   38.000;  -52.000
414.600;  -16.100; -126.000; -144.000
414.726;  -21.525;  -96.000;  -55.000
414.852;  -68.100; -365.000; -342.000
414.978;   46.400;  104.000;  -18.000
415.104;   31.600;   38.000;   80.000
415.230;   26.900; -329.000; -330.000
415.356;   28.250; -409.000; -514.000
415.482;  174.950;   13.000;  -35.000
415.608;  261.300; -247.000; -323.000
415.734;  943.025;   67.000;   38.000
415.860;20173.125; -875.000; -767.000
415.986;15160.475; -685.000; -607.000
416.111; 1343.150; -798.000; -652.000
416.237;  261.900; -424.000; -571.000
416.363; 1132.375; -765.000; -733.000
416.489; 4438.550; -324.000; -251.000
416.615;  490.450; -707.000; -742.000
416.741;  -12.250; -677.000; -784.000
416.866;  -91.875; -673.000; -736.000
416.992; -120.150; -801.000; -818.000
417.118;  -11.350;  -41.000;  -80.000
417.244;  -76.475; -798.000; -531.000
417.369;  -93.275; -801.000; -612.000
417.495;  -24.050; -325.000; -254.000
417.621;  -87.700;-1015.000; -803.000
417.746;    4.125; -579.000; -572.000
417.872;   46.275; -254.000; -144.000
417.998;   53.225; -515.000; -530.000
418.123; 1053.200;-1073.000; -845.000
418.249; 5638.925; -512.000; -601.000
418.374;  835.850; -916.000; -824.000
418.500;  120.100; -383.000; -482.000
418.626;  112.425;   70.000;  -59.000
418.751;  102.950; -549.000; -448.000
418.877;  208.825; -637.000; -643.000
419.002; 1817.600; -688.000; -560.000
419.128;13163.200; -930.000; -721.000
419.253; 3351.025; -967.000; -837.000
419.379;  425.300; -391.000; -338.000
419.504;  413.350;  325.000;  415.000
419.629;  542.825; -393.000; -212.000
419.755; 3707.775; -317.000; -254.000
419.880;22540.850;  -98.000;   67.000
420.006;11902.275; -280.000; -221.000
420.131;30716.975; -662.000; -775.000
420.256; 4526.275; -315.000; -316.000
420.382;  585.625; -665.000; -687.000
420.507;   70.425; -649.000; -778.000
420.632;   86.225; -337.000; -339.000
420.758;  166.500; -251.000; -425.000
420.883; -109.775; -876.000; -672.000
421.008;  -94.875; -775.000; -619.000
421.133;  -89.675; -509.000; -467.000
421.259;  -60.325; -325.000; -259.000
421.384; -129.850; -834.000; -693.000
421.509;  -68.075;-1052.000; -862.000
421.634;  825.075; -936.000; -820.000
421.759;  381.250; -359.000; -327.000
421.885;  -71.050; -717.000; -656.000
422.010;  -87.375; -673.000; -542.000
422.135; -151.500; -695.000; -727.000
422.260;   37.825;  340.000;  280.000
422.385;  -42.350;   12.000;  -98.000
422.510;   -3.250;  151.000;  -26.000
422.635;    5.150;  -87.000;  -43.000
422.760;   68.725; -766.000; -791.000
422.885;   57.850;  -57.000;  -80.000
423.010;  -41.650; -112.000; -169.000
423.135; -115.250; -481.000; -561.000
423.260;  -20.475; -150.000; -245.000
423.385;   48.550;  476.000;  222.000
423.510;   29.050;   71.000;  -22.000
423.635;   59.450;  133.000;   45.000
423.760;   39.925;  383.000;  328.000
423.885;   33.225;  336.000;  391.000
424.010;   13.825;  -68.000;  -13.000
424.135;  -29.725;    5.000;  -33.000
424.259;  -95.925; -654.000; -457.000
424.384;  -71.300; -279.000; -272.000
424.509;  -34.375; -260.000; -186.000
424.634; -119.225; -761.000; -623.000
424.759;  -25.475; -688.000; -544.000
424.883;  -22.200; -506.000; -527.000
425.008;  146.600; -502.000; -410.000
425.133; 2044.075; -679.000; -653.000
425.258;  996.325; -517.000; -381.000
425.382;  882.375; -867.000; -774.000
425.507; 2288.550; -487.000; -543.000
425.632;  412.400; -802.000; -663.000
425.756;  470.625; -256.000; -146.000
425.881; 6933.325; -831.000; -857.000
426.006;19490.550; -604.000; -355.000
426.130; 3070.200; -696.000; -508.000
426.255;  391.225; -611.000; -491.000
426.379;  183.125; -189.000; -577.000
426.504;  387.200;  660.000;  544.000
426.629; 4023.775; -519.000; -466.000
426.753; 2902.000;   64.000;  -46.000
426.878;  342.150; -252.000; -288.000
427.002;  146.475; -651.000; -668.000
427.127; 1571.175;  -35.000; -158.000
427.251;11910.825;  372.000;  401.000
427.375; 3495.900; -191.000; -173.000
427.500; 2015.400; -616.000; -610.000
427.624;  699.375; -234.000; -400.000
427.749;   61.250; -216.000; -225.000
427.873;  -59.300; -499.000; -412.000
427.997;  -49.050; -222.000; -230.000
428.122;   74.225;  795.000;  703.000
428.246;   56.900;  433.000;  434.000
428.371; -130.025; -869.000; -773.000
428.495; -119.075; -624.000; -646.000
428.619;  -53.725; -186.000; -117.000
428.743;    6.475;   65.000;  132.000
428.868;  -17.025; -732.000; -643.000
428.992; 1199.375; -219.000; -326.000
429.116;  472.925; -329.000; -357.000
429.240;  216.375;  419.000;  426.000
429.365;  -29.250; -454.000; -574.000
429.489;  -72.000; -638.000; -647.000
429.613;   13.700; -236.000; -177.000
429.737;   34.575; -563.000; -432.000
429.861;  254.625; -247.000; -133.000
429.985; 5671.450; -425.000; -305.000
430.109; 6493.925; -770.000; -908.000
430.234;  738.150;   76.000;  -50.000
430.358;   66.350; -250.000; -160.000
430.482;  -70.925; -672.000; -564.000
430.606;  -74.800; -655.000; -375.000
430.730;  -18.000; -437.000; -388.000
430.854;   61.425; -909.000; -835.000
430.978;  -82.075; -795.000; -764.000
431.102;  -88.525; -499.000; -422.000
431.226; -133.325; -874.000; -815.000
431.350;   30.475;  345.000;  422.000
431.474;  -91.625; -661.000; -373.000
431.597; -161.350;-1060.000; -848.000
431.721;  -75.025; -276.000; -267.000
431.845; -137.000; -704.000; -472.000
431.969;  -94.775; -304.000; -349.000
432.093;  -89.525; -395.000; -317.000
432.217;  -23.400;   32.000;   82.000
432.341; -102.075; -523.000; -518.000
432.464;  -13.600;   96.000;   40.000
432.588;  120.825; -401.000; -329.000
432.712;   69.475;  -52.000;  -52.000
432.836;   37.550;  213.000;  263.000
432.959;  -21.150; -372.000; -311.000
433.083;   79.550;   11.000;    2.000
433.207;  384.025;  285.000;  930.000
433.330; 5184.700; -391.000; -200.000
433.454; 6634.825; -654.000; -638.000
433.578; 3764.450;  583.000;  278.000
433.701;  707.700; -623.000; -675.000
433.825;  112.025; -292.000; -299.000
433.949;  109.575;   28.000;  -72.000
434.072;    5.450; -410.000; -323.000
434.196;  -24.725; -309.000; -117.000
434.319; 3674.975;25482.000;25124.000
434.443;  684.575; -656.000; -603.000
434.566; 2787.575;  281.000;   62.000
434.690;  496.600; -637.000; -383.000
434.813;   45.850; -251.000; -173.000
434.937;  -78.025; -569.000; -696.000
435.060;  -70.250; -423.000; -332.000
435.184;  160.950; -492.000; -217.000
435.307;   90.575;  159.000;  102.000
435.431;  -39.125;  -40.000;   24.000
435.554;  -88.100; -399.000; -240.000
435.677;  -91.150; -350.000; -258.000
435.801;  -52.775;  -25.000;   49.000
435.924;  -11.450;    1.000;  -67.000
436.048; -135.100;-1019.000; -732.000
436.171;  -70.800; -240.000;  -66.000
436.294;  -39.025; -248.000; -229.000
436.417;  102.325; -963.000; -849.000
436.541;  -90.650; -814.000; -840.000
436.664;  -59.750; -242.000; -316.000
436.787;  -26.950;   13.000;  113.000
436.910; -128.625; -792.000; -422.000
437.034;  -15.500;  142.000;  143.000
437.157;   23.100;  -11.000;    0.000
437.280;  -80.500; -392.000; -292.000
437.403; -113.500; -982.000; -869.000
437.526;  371.525; -903.000; -865.000
437.649; 1634.475; -505.000; -332.000
437.772;  210.650; -692.000; -540.000
437.896;   92.925;  700.000;  544.000
438.019; -107.350; -758.000; -503.000
438.142; -102.300; -596.000; -506.000
438.265;  -51.600; -639.000; -670.000
438.388;  393.750; -520.000; -410.000
438.511;   49.250; -597.000; -394.000
438.634;  -47.425; -247.000; -125.000
438.757; -139.350; -693.000; -619.000
438.880;  -32.950;  -34.000;  -57.000
439.003;  -87.075; -417.000; -437.000
439.126;  -69.050; -287.000; -167.000
439.248;  -72.900;  -98.000; -139.000
439.371;  -57.700;    9.000;  -53.000
439.494;   21.975;  510.000;  439.000
439.617;  -64.700;   65.000;  -88.000
439.740; -183.600; -968.000; -816.000
439.863; -141.375; -755.000; -595.000
439.986; -130.975; -476.000; -431.000
440.108;  -50.775; -161.000; -112.000
440.231; -160.225; -950.000; -836.000
440.354;  -48.250;  -64.000; -150.000
440.477;  -31.800; -566.000; -542.000
440.599;  -38.575; -200.000; -225.000
440.722; -133.425; -709.000; -586.000
440.845;   48.725;  751.000;  928.000
440.968; -118.375; -415.000; -311.000
441.090;  -71.625; -199.000;  -33.000
441.213; -174.450;-1021.000; -825.000
441.336;  -37.700; -159.000;   -5.000
441.458;  -83.450; -549.000; -396.000
441.581;  -98.725; -628.000; -629.000
441.703;  -83.400; -152.000;   13.000
441.826; -122.975; -557.000; -400.000
441.948;  -39.550;   56.000;   51.000
442.071;    2.600;  555.000;  424.000
442.193; -112.425; -531.000; -485.000
442.316;    6.925;  152.000;   97.000
442.438;   40.050; -233.000;  -10.000
442.561;   58.625;  272.000;  262.000
442.683;  342.475; -809.000; -522.000
442.806;  854.850;   -8.000;   74.000
442.928;  -24.700; -859.000; -604.000
443.051;  -82.750; -577.000; -373.000
443.173; -104.625; -341.000; -339.000
443.295;  -74.225; -263.000; -371.000
443.418;  -75.825; -321.000;  -29.000
443.540;  -23.750; -106.000;   -4.000
443.662; -127.600; -563.000; -465.000
443.785;  -14.875;  335.000;  199.000
443.907;  -96.025; -362.000; -208.000
444.029; -129.100; -767.000; -494.000
444.152; -134.875; -644.000; -554.000
444.274;  -38.550;  -18.000;  -24.000
444.396; -109.450; -461.000; -221.000
444.518; -146.200; -691.000; -454.000
444.640; -108.625; -268.000; -111.000
444.763;  -23.175;  388.000;  249.000
444.885; -130.350; -432.000; -392.000
445.007;  -30.900;   35.000;   86.000
445.129; -122.900; -610.000; -515.000
445.251; -107.825; -372.000; -439.000
445.373; -141.000; -537.000; -386.000
445.495;   10.575;  242.000;  350.000
445.617;   25.575;  853.000;  753.000
445.739;  -72.100; -215.000;  -97.000
445.861;  -43.125; -245.000; -112.000
445.984;  -51.600; -267.000; -101.000
446.105;  107.675; -418.000; -251.000
446.227;  435.700; -176.000;  -19.000
446.349;  -28.975; -358.000; -249.000
446.471;  -97.525; -615.000; -448.000
446.593;  -75.325; -316.000;   19.000
446.715;  -26.875;  -67.000;   41.000
446.837;   45.200;  697.000;  832.000
446.959;  -97.900; -457.000; -478.000
447.081; -142.250; -628.000; -518.000
447.203;   53.100;  862.000;  834.000
447.325;  -95.425; -270.000;   42.000
447.446;  -17.100;  286.000;  530.000
447.568; -156.300; -921.000; -803.000
447.690;  -89.400; -236.000; -245.000
447.812; -153.975; -798.000; -519.000
447.933;  -45.900;  155.000;  127.000
448.055;  -66.550; -306.000; -261.000
448.177;   86.400;   31.000;   79.000
448.299;   22.050; -935.000; -727.000
448.420;    6.675;  -25.000;  159.000
448.542;  -59.650;   -3.000;   33.000
448.664;  -25.400;  109.000;  322.000
448.785;  -53.925;  265.000;   83.000
448.907; -104.150; -614.000; -353.000
449.028;  -59.775; -771.000; -471.000
449.150;   46.825;  492.000;  589.000
449.272; -180.025;-1044.000; -913.000
449.393;   24.825;  612.000;  694.000
449.515; -153.875; -634.000; -581.000
449.636;  -67.300; -264.000; -155.000
449.758;   57.275;  763.000;  622.000
449.879; -100.625; -498.000; -396.000
450.001;  -82.775; -149.000;  -49.000
450.122;  -52.125;  -95.000;  162.000
450.244;  -30.500;   37.000;  364.000
450.365; -109.600; -495.000; -301.000
450.486;  -25.325;   80.000;  268.000
450.608;   19.225;  393.000;  326.000
450.729;   60.400;  578.000;  645.000
450.850;   10.350; -574.000; -466.000
450.972;  785.300; -552.000; -389.000
451.093; 5215.450;  190.000;  588.000
451.214; 2350.100; -516.000; -337.000
451.336;  426.175;  773.000;  579.000
451.457;   67.650;  264.000;  393.000
451.578;  -37.325; -118.000;  -74.000
451.699; -120.775; -546.000; -540.000
451.821;  -75.275; -284.000;  -50.000
451.942;   -9.925;  278.000;  285.000
452.063;   41.925;  228.000;  419.000
452.184;  571.450;  -54.000;  -49.000
452.305; 1153.450;  103.000;  170.000
452.427;  151.050; -549.000; -301.000
452.548;  -28.525;   23.000;   79.000
452.669;  -62.525; -257.000;  -89.000
452.790;  -47.375;    3.000;  -18.000
452.911;  -30.125;  195.000;  259.000
453.032;  -62.650; -289.000;  -60.000
453.153;  -62.150;  -29.000;   81.000
453.274;   53.050;  737.000;  868.000
453.395;  -65.350;  -51.000;  175.000
453.516;  109.800; 1317.000; 1388.000
453.637;  -74.325; -205.000; -150.000
453.758;  -47.375;   15.000;   69.000
453.879; -131.450; -462.000; -250.000
454.000;   69.250; 1086.000;  948.000
454.121; -126.850; -554.000; -326.000
454.242; -122.950; -599.000; -383.000
454.362;  -73.700;  -99.000;  114.000
454.483;  -49.200; -309.000; -229.000
454.604;   34.300;  512.000;  580.000
454.725; -131.975; -627.000; -555.000
454.846; -139.075; -474.000; -406.000
454.967;  -34.150;  230.000;  539.000
455.087;  -53.575;  179.000;  153.000
455.208;    8.550;  554.000;  856.000
455.329;  -63.675;  -22.000;   82.000
455.450;   36.000;  473.000;  633.000
455.570;  -88.950; -234.000; -211.000
455.691;  -36.900;  201.000;  407.000
455.812; -108.225; -270.000;  -92.000
455.932;  -70.250;  107.000;  -97.000
456.053;  -72.200;   36.000;   24.000
456.173; -113.375; -433.000; -355.000
456.294; -139.275; -476.000; -303.000
456.415;  -71.850;  -73.000;   70.000
456.535;  -36.300;  297.000;  273.000
456.656;  -41.600;  132.000;  240.000
456.776;  -68.675;    3.000;  298.000
456.897;    6.275;  308.000;  513.000
457.017;  -83.150; -153.000;   -3.000
457.138; -124.625; -402.000; -249.000
457.258;  -29.050;  263.000;  224.000
457.379;  -15.950;  509.000;  521.000
457.499;  -29.525;  443.000;  432.000
457.620; -127.675; -407.000; -231.000
457.740; -103.500; -132.000;  -11.000
457.860;  -58.700;   87.000;   44.000
457.981;  -46.975;  132.000;  124.000
458.101;  -88.200;  -89.000;   40.000
458.221;  -23.450;  336.000;  402.000
458.342;  -73.900;   -4.000;  -37.000
458.462;   15.625;  617.000;  352.000
458.582;  -27.525; -302.000; -294.000
458.703;    4.850;  303.000;  154.000
458.823;  -22.025;   22.000;  163.000
458.943;   16.725;  341.000;  467.000
459.063;  -27.125; 1124.000;  192.000
459.183;  -32.375;  328.000;  313.000
459.304;   -2.650;  315.000;  517.000
459.424;  -68.925; -246.000;  -89.000
459.544;  329.550;  388.000;  764.000
459.664;  870.950;  499.000;  506.000
459.784;  318.325; 1004.000; 1175.000
459.904;   59.175;  867.000;  744.000
460.024;   57.725;  867.000;  684.000
460.144;   -4.750;  449.000;  554.000
460.264;   -9.850;  515.000;  327.000
460.385; -103.350; -145.000; -119.000
460.505;   24.550;  905.000;  858.000
460.625;  -91.100;  -17.000;  -68.000
460.745;  -35.125;  396.000;  541.000
460.864;  -61.150;  153.000;  469.000
460.984;   -1.200;  499.000;  573.000
461.104;  128.125; 1656.000; 1775.000
461.224;   24.250;  657.000;  650.000
461.344;  -25.400;  431.000;  360.000
461.464;  -47.275;  258.000;  513.000
461.584;  -34.600;  283.000;  466.000
461.704;  -58.900;   58.000;  108.000
461.824;  -57.800;  238.000;  259.000
461.943;  -51.850;  191.000;  130.000
462.063;  -64.500;    2.000;  324.000
462.183;   19.250;  639.000;  717.000
462.303;  100.800; 1678.000; 1230.000
462.422;   21.725;  781.000;  840.000
462.542;  -37.575;  271.000;  391.000
462.662;   32.100;  353.000;  380.000
462.782;  248.775;  833.000;  572.000
462.901;  487.250;  545.000;  717.000
463.021;  267.375; 1702.000; 1638.000
463.141;  -16.375;  337.000;  770.000
463.260;  -30.650;  614.000;  474.000
463.380;    3.500;  902.000;  884.000
463.499;  -23.300;  342.000;  332.000
463.619;  -40.225;  581.000;  559.000
463.738;  121.100; 1644.000;  903.000
463.858;   10.875;  657.000;  811.000
463.978;  -47.150;  542.000;  396.000
464.097;   44.375;  921.000; 1114.000
464.217;  127.300; 1196.000; 1143.000
464.336;  110.975; 1068.000; 1130.000
464.455;  -43.325;  328.000;  659.000
464.575;   35.325;  597.000;  602.000
464.694;  156.300; 1204.000; 1179.000
464.814;  134.175; 1190.000; 1138.000
464.933;   75.000; 1095.000; 1027.000
465.052;   91.400; 1412.000; 1054.000
465.172;   61.275;  922.000;  799.000
465.291;  111.675; 1376.000; 1320.000
465.410;   13.750;  462.000;  735.000
465.530;   64.750; 1355.000; 1310.000
465.649;   55.625; 1209.000; 1273.000
465.768;  125.475; 1673.000; 1508.000
465.888;   46.600;  941.000; 1174.000
466.007;   90.850; 1335.000; 1440.000
466.126;    2.325;  721.000;  641.000
466.245;   49.150; 1176.000; 1187.000
466.364;   24.150;  950.000; 1060.000
466.484;   45.750; 1024.000; 1213.000
466.603;   27.225; 1101.000; 1222.000
466.722;  112.600; 1490.000; 1769.000
466.841;   63.525; 1151.000; 1401.000
466.960;   43.900; 1069.000;  972.000
467.079;  128.900; 1971.000; 1786.000
467.198;   48.150; 1238.000; 1181.000
467.317;   78.675; 1768.000; 1162.000
467.436;   67.175; 1709.000; 1261.000
467.555;  110.225; 1796.000; 1746.000
467.674;   48.475; 1227.000; 1329.000
467.793;   46.700; 1376.000; 1374.000
467.912;   81.400; 1658.000; 1539.000
468.031;  129.200; 2038.000; 1930.000
468.150;  129.850; 1842.000; 1837.000
468.269;  170.800; 2313.000; 2090.000
468.388;  182.600; 2168.000; 2339.000
468.507;  247.150; 2884.000; 2903.000
468.626;  279.400; 2555.000; 2541.000
468.744;  133.550; 2018.000; 2174.000
468.863;  191.875; 2312.000; 2523.000
468.982;   98.050; 1503.000; 1555.000
469.101;  211.200; 2788.000; 2692.000
469.220;  156.025; 2333.000; 2176.000
469.338;  248.125; 2935.000; 3051.000
469.457;  186.425; 2719.000; 2545.000
469.576;  348.350; 3953.000; 3784.000
469.695;  241.250; 2877.000; 3066.000
469.813;  417.700; 4148.000; 4192.000
469.932;  399.025; 4255.000; 4485.000
470.051;  420.000; 4075.000; 4161.000
470.169;  859.325; 4470.000; 4338.000
470.288; 1521.325; 4700.000; 4809.000
470.406;  927.125; 5059.000; 5194.000
470.525;  652.850; 6101.000; 5787.000
470.644;  654.725; 6847.000; 6794.000
470.762;  797.825; 8397.000; 7873.000
470.881;  915.600; 8651.000; 8464.000
470.999; 1046.725; 9685.000; 9151.000
471.118; 1123.600;11174.000;10711.000

