
Integration time [ms]: 200.000
Averaging Nr. [scans]: 10
Smoothing Nr. [pixels]: 0
Data measured with spectrometer [name]: 2101012U2
Wave   ;Sample   ;Dark     ;Reference
[nm]   ;[counts] ;[counts] ;[counts] 

197.733;  122.800;  516.000;  404.000
197.879; -172.800; -610.000; -634.000
198.025; -103.200; -475.000; -420.000
198.171; -156.700; -602.000; -612.000
198.317;  -56.700; -401.000; -316.000
198.463; -160.200; -655.000; -404.000
198.609;   74.200;  181.000; -137.000
198.755; -179.500; -644.000; -410.000
198.901; -162.500; -505.000; -424.000
199.047; -130.600; -615.000; -488.000
199.193;  -59.500; -230.000; -468.000
199.339;  -79.800; -222.000; -369.000
199.485;  100.500;  330.000;  271.000
199.631;   24.200;  227.000;  310.000
199.777; -107.200; -466.000; -398.000
199.923; -138.300; -610.000; -424.000
200.069;  -22.700; -141.000;  -58.000
200.215;  134.000;  128.000;  453.000
200.361;   75.900;  243.000;  477.000
200.507; -137.400; -600.000; -373.000
200.653;  -46.100; -371.000; -194.000
200.798;  -50.200; -215.000; -125.000
200.944;  -13.100; -146.000;  -41.000
201.090;   75.100;   61.000;  222.000
201.236;   -0.100; -116.000; -158.000
201.382;  250.200;  874.000;  903.000
201.528;    3.000;  -58.000;  -48.000
201.674; -130.100; -386.000; -293.000
201.819; -115.200; -540.000; -439.000
201.965; -165.900; -699.000; -447.000
202.111;  -60.800; -273.000; -226.000
202.257;  -95.300; -250.000; -238.000
202.402;    2.300;   13.000;  -36.000
202.548;  -82.000; -169.000; -116.000
202.694;  161.800;  410.000; -183.000
202.840; -142.800; -603.000; -531.000
202.985; -182.100; -681.000; -639.000
203.131; -215.900; -832.000; -666.000
203.277;  -53.000; -199.000; -262.000
203.423; -102.700; -434.000; -520.000
203.568;  -78.500; -462.000; -237.000
203.714; -125.200; -535.000; -542.000
203.860; -175.600; -682.000; -641.000
204.005;   37.000;  112.000;  167.000
204.151;  149.600;  561.000;  556.000
204.296;  -99.500; -354.000; -221.000
204.442; -175.600; -600.000; -547.000
204.588; -148.000; -592.000; -579.000
204.733;   43.600;  178.000;  168.000
204.879; -305.100;-1018.000; -822.000
205.025;   15.300;  -99.000;  126.000
205.170;   10.600;  -17.000;   94.000
205.316;  185.400;  438.000;  661.000
205.461; -190.600; -698.000; -554.000
205.607;  211.700;  609.000;  665.000
205.752; -155.700; -626.000; -551.000
205.898; -116.800; -501.000; -391.000
206.043; -109.000; -578.000; -506.000
206.189;  -65.200; -243.000; -285.000
206.334;  182.000;  554.000;  606.000
206.480;  181.900;  409.000;  239.000
206.625; -173.100; -529.000; -552.000
206.771;  -85.900; -451.000; -373.000
206.916;  -91.300; -210.000; -537.000
207.062; -122.600; -545.000; -591.000
207.207; -111.400; -546.000; -443.000
207.353;  117.300;  185.000;  460.000
207.498;   22.800;  196.000;   85.000
207.643; -113.300; -501.000; -370.000
207.789; -269.300;-1069.000; -910.000
207.934; -185.000; -665.000; -713.000
208.080;  -40.200; -154.000;   66.000
208.225;  -34.000;  -22.000;  -57.000
208.370; -182.500; -727.000; -619.000
208.516; -161.400; -741.000; -487.000
208.661;  -59.600; -127.000;  -69.000
208.806;  -39.600; -165.000; -171.000
208.952; -253.200;-1044.000; -731.000
209.097;  127.700;  378.000;  349.000
209.242;  -82.200; -307.000; -382.000
209.387;  120.200;  392.000;  350.000
209.533;  -84.700; -321.000; -350.000
209.678;  209.000;  472.000;  543.000
209.823; -100.000; -408.000; -310.000
209.969; -209.600; -860.000; -757.000
210.114; -228.300; -907.000; -719.000
210.259; -251.800; -939.000; -889.000
210.404;  -22.400; -171.000;  103.000
210.549;   36.900;  108.000;    3.000
210.695;  -19.500;   -3.000;  -95.000
210.840;   59.800;   94.000;   67.000
210.985; -108.700; -484.000; -303.000
211.130;  158.500;  268.000;  406.000
211.275;   35.600;  207.000;  199.000
211.420;  -90.800; -300.000; -289.000
211.566; -162.600; -536.000; -489.000
211.711;   60.300;  218.000;  157.000
211.856; -140.500; -545.000; -519.000
212.001;   29.000;  151.000;   44.000
212.146;   15.500;  153.000;   49.000
212.291;  -14.000; -210.000; -186.000
212.436;  -56.300; -280.000;   -6.000
212.581; -196.900; -685.000; -653.000
212.726; -152.100; -487.000; -538.000
212.871;  -79.900; -552.000; -217.000
213.016; -322.300;-1172.000;-1029.000
213.161;  158.000;  406.000;  291.000
213.306; -157.000; -435.000; -577.000
213.451; -185.900; -778.000; -689.000
213.596;  -95.700; -455.000; -347.000
213.741; -111.100; -448.000; -538.000
213.886; -167.200; -498.000; -517.000
214.031;  -41.100; -294.000; -124.000
214.176;  -91.500; -408.000; -341.000
214.321;  -59.100; -296.000; -157.000
214.466;  -52.500; -163.000;  -43.000
214.611;    4.800;  -61.000;  -10.000
214.756; -240.800; -948.000; -858.000
214.901;   -5.800; -388.000; -226.000
215.046; -248.600; -797.000; -825.000
215.191;   47.700;  128.000;   35.000
215.336;  -20.300; -157.000;  -19.000
215.480; -117.000; -684.000; -505.000
215.625;  -10.600; -175.000;  -19.000
215.770; -156.500; -757.000; -662.000
215.915;    1.800;   -5.000;  -97.000
216.060;  -12.900; -113.000;  -21.000
216.205; -251.300; -731.000; -779.000
216.349; -135.200; -470.000; -533.000
216.494; -283.400; -939.000; -867.000
216.639; -205.100; -823.000; -888.000
216.784; -172.200; -577.000; -525.000
216.929;  149.800;  392.000;  281.000
217.073;  -41.600; -244.000;  -31.000
217.218;   45.100;   78.000;  -47.000
217.363; -179.100; -656.000; -618.000
217.507; -165.000; -623.000; -588.000
217.652; -249.500; -845.000; -874.000
217.797; -183.800; -708.000; -659.000
217.942; -234.000; -856.000; -720.000
218.086;  174.600;  608.000;  539.000
218.231;  -42.100; -174.000;  -26.000
218.376;  -73.200; -337.000; -229.000
218.520;   18.600;  -41.000;   96.000
218.665;  -44.900; -338.000; -204.000
218.810;  -67.000; -275.000; -233.000
218.954;   49.300;  201.000;   35.000
219.099; -231.500; -713.000; -963.000
219.243; -129.000; -589.000; -554.000
219.388;  -39.500; -264.000; -136.000
219.532;  -23.500; -116.000; -116.000
219.677; -146.200; -564.000; -521.000
219.822;   17.500;   33.000;   89.000
219.966;   13.500;   17.000;  -99.000
220.111;  -48.300; -328.000;  -40.000
220.255; -225.600; -797.000; -750.000
220.400;  -21.000; -180.000; -146.000
220.544; -124.800; -516.000; -450.000
220.689; -110.300; -422.000; -451.000
220.833;  -22.500; -123.000;  -58.000
220.978;  -61.400; -393.000; -563.000
221.122;   62.300;  319.000;  307.000
221.267; -244.400; -906.000; -837.000
221.411; -156.000; -478.000; -394.000
221.555;   26.500; -104.000;  -23.000
221.700;  -97.900; -329.000; -222.000
221.844;   85.100;  255.000;  272.000
221.989; -123.100; -328.000; -311.000
222.133;  -68.000; -289.000; -307.000
222.277;   23.300;    5.000;   78.000
222.422;   59.100;  227.000;  113.000
222.566;  -73.300; -381.000; -214.000
222.711; -112.700; -414.000; -479.000
222.855; -152.900; -643.000; -586.000
222.999; -179.900; -642.000; -717.000
223.144;  -46.300; -195.000; -194.000
223.288;  105.400;  423.000;  251.000
223.432;   13.000;  184.000;  230.000
223.576;   48.400;  152.000;  -21.000
223.721;  108.400;  364.000;  273.000
223.865; -136.400; -472.000; -475.000
224.009;  514.800; 1673.000; 1631.000
224.153; -176.900; -660.000; -671.000
224.298; -132.300; -531.000; -489.000
224.442;    2.200;  -74.000;  -33.000
224.586;  -15.300; -169.000; -106.000
224.730; -194.300; -858.000; -670.000
224.875; -233.200; -739.000; -688.000
225.019;   -9.200;  102.000;  188.000
225.163;  138.100;  208.000;  341.000
225.307;   55.600;   97.000;  -91.000
225.451;  107.500;  360.000;  481.000
225.595;   76.300;  264.000;  176.000
225.739;  -10.400; -170.000;  -94.000
225.884;   19.700;   86.000;    5.000
226.028; -211.500; -760.000; -626.000
226.172;  -54.900; -260.000; -273.000
226.316; -259.900; -941.000; -902.000
226.460; -112.600; -645.000; -493.000
226.604;  -99.600; -406.000; -400.000
226.748; -174.400; -836.000; -733.000
226.892;  -55.100; -227.000; -181.000
227.036;  -74.300; -537.000; -447.000
227.180; -122.100; -551.000; -375.000
227.324; -135.000; -561.000; -580.000
227.468; -203.200; -819.000; -717.000
227.612;   19.900;  242.000;  -28.000
227.756; -234.100; -845.000; -698.000
227.900;  150.900;  342.000;  441.000
228.044; -136.500; -509.000; -290.000
228.188;  167.000;  448.000;  568.000
228.332; -188.900; -546.000; -472.000
228.476;  -25.300; -223.000; -149.000
228.620;  -51.800; -210.000; -150.000
228.764;  179.300;  431.000;  349.000
228.908;  -32.700; -155.000;   30.000
229.052; -139.100; -615.000; -528.000
229.195;  -11.500; -172.000;   13.000
229.339;  -59.600; -235.000; -305.000
229.483;  -50.900;    5.000; -162.000
229.627;   11.600; -156.000;  139.000
229.771;  -91.800; -218.000; -294.000
229.915;   36.800;  230.000;   79.000
230.059; -176.600; -648.000; -663.000
230.202;  -73.000; -370.000; -317.000
230.346;   -8.000; -107.000;  107.000
230.490; -116.400; -489.000; -521.000
230.634; -218.800; -736.000; -553.000
230.777;  177.900;  478.000;  509.000
230.921; -114.200; -450.000; -359.000
231.065;  -73.200; -246.000; -286.000
231.209;   81.300;  261.000;  265.000
231.352;   37.000;   54.000;   40.000
231.496;   61.500;  568.000;  188.000
231.640; -152.500; -693.000; -621.000
231.783;  151.900;  546.000;  525.000
231.927;  -86.300; -294.000; -365.000
232.071; -242.900; -962.000; -736.000
232.214; -233.200; -980.000; -764.000
232.358; -188.300; -683.000; -599.000
232.502;   29.800;  -19.000;    7.000
232.645; -288.500;-1090.000; -927.000
232.789;  -11.600; -257.000; -218.000
232.933;  -90.900; -407.000; -224.000
233.076; -245.000;-1038.000; -897.000
233.220; -179.900; -752.000; -777.000
233.363; -181.900; -669.000; -477.000
233.507;  159.100;  371.000;  129.000
233.650; -198.100; -764.000; -834.000
233.794;  107.900;  438.000;  461.000
233.938; -122.800; -530.000; -362.000
234.081;  -25.500;  -93.000;   31.000
234.225; -116.900; -631.000; -539.000
234.368; -233.900; -773.000; -723.000
234.512;  -61.300; -385.000; -299.000
234.655; -186.600; -582.000; -555.000
234.798; -125.100; -493.000; -466.000
234.942; -258.400; -884.000;-1002.000
235.085; -141.300; -651.000; -443.000
235.229; -132.500; -405.000; -410.000
235.372;  -98.600; -247.000; -191.000
235.516; -112.900; -397.000; -321.000
235.659;   49.400;   92.000;  121.000
235.802;  -24.600;  -38.000;  -22.000
235.946;   63.800;  335.000;  215.000
236.089;   81.200;  126.000;  250.000
236.233;  109.600;  275.000;  298.000
236.376;  -85.600; -235.000; -378.000
236.519; -110.900; -297.000; -319.000
236.663;  -34.800; -215.000; -117.000
236.806; -267.500;-1029.000; -999.000
236.949;  128.500;  543.000;  431.000
237.092;  142.200;  412.000;  391.000
237.236; -181.500; -589.000; -502.000
237.379;  158.500;  352.000;  428.000
237.522; -221.800; -879.000; -768.000
237.666;  -14.300; -271.000;   18.000
237.809; -274.600; -851.000; -823.000
237.952;   97.900;  469.000;  271.000
238.095; -124.400; -447.000; -442.000
238.238;  204.000;  688.000;  700.000
238.382;   25.700;  166.000;  103.000
238.525; -131.700; -598.000; -511.000
238.668; -289.300;-1060.000; -985.000
238.811; -150.600; -638.000; -643.000
238.954; -116.100; -483.000; -334.000
239.097;  219.200;  617.000;  664.000
239.241;   26.900;  394.000;  326.000
239.384;  -22.300; -254.000; -214.000
239.527; -124.700; -424.000; -224.000
239.670; -283.400; -994.000;-1091.000
239.813; -219.100; -696.000; -658.000
239.956;  185.200;  579.000;  473.000
240.099; -227.700; -778.000; -725.000
240.242;  124.100;  428.000;  432.000
240.385;   99.300;  466.000;  450.000
240.528; -148.500; -706.000; -473.000
240.671;   43.900;  189.000;  134.000
240.814;  -52.900; -441.000; -158.000
240.957; -198.800; -767.000; -578.000
241.100; -203.400; -779.000; -755.000
241.243; -266.600;-1234.000; -893.000
241.386; -145.700; -508.000; -379.000
241.529; -166.900; -735.000; -547.000
241.672; -141.200; -566.000; -495.000
241.815; -237.800; -832.000; -808.000
241.958;  -70.200; -125.000; -182.000
242.101; -151.100; -545.000; -390.000
242.244;  -83.000; -270.000; -325.000
242.387;  -80.600; -304.000; -246.000
242.530;  131.700;  470.000;  134.000
242.673;  -81.600; -381.000; -309.000
242.815; -247.200; -925.000; -899.000
242.958; -143.500; -482.000; -381.000
243.101;   45.000;  132.000;  187.000
243.244; -188.200; -564.000; -521.000
243.387;  -70.500; -313.000; -316.000
243.530; -183.200; -657.000; -674.000
243.672;   20.300;   43.000;  -92.000
243.815;  -97.900; -355.000; -283.000
243.958;   23.700;   98.000;  -26.000
244.101;   11.200;   59.000;  -16.000
244.243;   -8.600;  -47.000;  101.000
244.386; -226.800; -761.000; -630.000
244.529;  -60.000; -132.000; -139.000
244.672; -314.400;-1154.000; -951.000
244.814; -218.100; -621.000; -794.000
244.957;  -88.800; -380.000; -304.000
245.100; -140.600; -489.000; -489.000
245.242; -125.000; -387.000; -374.000
245.385;  -14.100;  -59.000;  -39.000
245.528; -241.500; -871.000; -705.000
245.670;  195.300;  612.000;  634.000
245.813; -182.100; -599.000; -547.000
245.956;  -44.100; -324.000; -275.000
246.098; -158.100; -508.000; -650.000
246.241;   34.900;  194.000;   48.000
246.383;  -52.300; -119.000;  -73.000
246.526; -148.500; -454.000; -525.000
246.669; -224.700; -889.000; -780.000
246.811;   46.000;  172.000;   -1.000
246.954; -151.100; -512.000; -426.000
247.096;  -45.400;  -84.000;   -6.000
247.239; -139.600; -482.000; -445.000
247.381; -136.600; -647.000; -488.000
247.524;  171.200;  645.000;  679.000
247.666;    4.500;   58.000;   11.000
247.809; -263.100; -887.000; -691.000
247.951;  -14.600;  -75.000;  138.000
248.094;   70.900;  432.000;  308.000
248.236; -339.500;-1262.000;-1238.000
248.378;  -74.000; -356.000;  -81.000
248.521; -103.200; -334.000; -337.000
248.663;  -97.000; -236.000; -267.000
248.806;  -44.400; -300.000; -266.000
248.948; -263.900; -886.000; -763.000
249.090; -111.900; -428.000; -398.000
249.233; -109.100; -344.000; -381.000
249.375; -115.500; -474.000; -451.000
249.518;   -6.700;  -83.000; -133.000
249.660;  -26.900; -103.000;    3.000
249.802; -372.900;-1303.000;-1189.000
249.945; -159.000; -612.000; -540.000
250.087; -251.700; -834.000; -768.000
250.229; -103.600; -362.000; -480.000
250.371; -131.300; -494.000; -439.000
250.514;  -84.600; -310.000; -244.000
250.656;   -3.500;   69.000;  102.000
250.798; -244.000; -849.000; -800.000
250.940; -121.000; -322.000; -322.000
251.083;  -43.100; -335.000; -111.000
251.225;  150.700;  338.000;  310.000
251.367;  -91.900; -274.000; -373.000
251.509;  -54.100; -265.000; -210.000
251.651; -200.600; -731.000; -671.000
251.794;  107.000;  538.000;  632.000
251.936; -234.700; -821.000; -747.000
252.078; -137.200; -540.000; -461.000
252.220; -156.800; -645.000; -477.000
252.362;   67.000;  344.000;  462.000
252.504; -160.300; -677.000; -584.000
252.646; -226.700; -875.000; -722.000
252.788;    8.300;   14.000; -128.000
252.931;  -60.700; -257.000; -253.000
253.073;  -89.200; -376.000; -317.000
253.215;   -0.700;  141.000;  122.000
253.357;  -16.000;   82.000; -153.000
253.499;  -91.400; -374.000; -234.000
253.641; -158.200; -749.000; -594.000
253.783; -178.000; -609.000; -527.000
253.925; -182.800; -586.000; -591.000
254.067; -233.500; -744.000; -667.000
254.209;  -67.100; -391.000; -259.000
254.351; -276.600; -865.000; -883.000
254.493; -118.200; -441.000; -417.000
254.635; -263.500; -936.000; -818.000
254.777; -222.600; -752.000; -687.000
254.918; -173.800; -512.000; -430.000
255.060; -104.900; -551.000; -395.000
255.202; -114.300; -473.000; -261.000
255.344; -151.100; -658.000; -455.000
255.486; -173.600; -471.000; -406.000
255.628; -209.800; -780.000; -781.000
255.770; -198.800; -676.000; -536.000
255.912; -135.600; -559.000; -468.000
256.053; -155.700; -730.000; -508.000
256.195;  353.000; 1008.000;  903.000
256.337; -213.100; -861.000; -595.000
256.479;  147.000;  532.000;  416.000
256.621;  -68.500; -394.000; -212.000
256.762; -204.000; -789.000; -742.000
256.904;  127.300;  485.000;  487.000
257.046;  -77.700; -381.000; -271.000
257.188;  -82.000; -351.000; -264.000
257.329; -173.600; -525.000; -464.000
257.471; -249.900; -939.000; -807.000
257.613; -141.600; -584.000; -498.000
257.755; -312.300;-1073.000; -982.000
257.896;   76.700;  286.000;  392.000
258.038; -124.100; -403.000; -352.000
258.180;  -72.100; -354.000; -279.000
258.321; -159.600; -581.000; -457.000
258.463;   -9.400;  -71.000;  133.000
258.605; -159.400; -562.000; -570.000
258.746; -201.400; -886.000; -772.000
258.888; -330.800;-1026.000;-1020.000
259.029;   82.100;  121.000;   -8.000
259.171; -164.800; -614.000; -550.000
259.313;   -0.500;  -49.000;  -47.000
259.454; -134.000; -536.000; -414.000
259.596; -125.600; -483.000; -390.000
259.737; -141.000; -590.000; -474.000
259.879;  116.400;  217.000;  311.000
260.020;  209.400;  901.000;  636.000
260.162;  -57.900; -146.000; -253.000
260.303; -203.100; -768.000; -687.000
260.445; -145.400; -609.000; -613.000
260.586;  108.900;  392.000;  157.000
260.728;  -79.900; -360.000; -248.000
260.869; -147.800; -350.000; -343.000
261.011;  193.700;  706.000;  537.000
261.152; -114.600; -479.000; -319.000
261.293; -160.900; -576.000; -595.000
261.435;  -68.200; -219.000; -184.000
261.576;  -81.800; -455.000; -325.000
261.718;  109.600;  420.000;  470.000
261.859; -274.300; -940.000; -949.000
262.000; -245.900; -951.000;-1016.000
262.142;  -48.800;  -52.000;  -60.000
262.283; -241.100; -808.000; -691.000
262.424; -182.000; -666.000; -625.000
262.566; -306.000;-1161.000; -983.000
262.707; -247.700; -840.000; -830.000
262.848; -260.200; -769.000; -726.000
262.990;  -88.700; -362.000; -345.000
263.131;  193.100;  650.000;  681.000
263.272;    4.000;  -61.000;  -41.000
263.413; -186.800; -589.000; -561.000
263.555; -119.100; -669.000; -143.000
263.696; -175.900; -550.000; -641.000
263.837; -120.700; -449.000; -551.000
263.978;    1.700;   -5.000;  -77.000
264.119; -100.700; -283.000; -264.000
264.261; -241.600; -847.000; -630.000
264.402;   -6.800;   33.000;   40.000
264.543; -158.800; -509.000; -524.000
264.684;    4.300;   61.000;  -50.000
264.825; -159.600; -816.000; -538.000
264.966;   13.600;  -84.000;  -67.000
265.107; -223.200; -646.000; -670.000
265.248; -210.700; -825.000; -812.000
265.390;    9.300;  152.000;   -9.000
265.531;  -11.800; -238.000; -107.000
265.672; -175.500; -557.000; -630.000
265.813;  155.300;  563.000;  439.000
265.954; -296.900; -959.000; -940.000
266.095;  -37.200; -372.000; -322.000
266.236; -176.900; -686.000; -548.000
266.377;  -70.500; -243.000; -297.000
266.518; -143.400; -619.000; -547.000
266.659;   75.300;  170.000;  268.000
266.800;   22.400;   83.000;   85.000
266.941; -159.000; -487.000; -478.000
267.082;   20.900;  354.000;   99.000
267.223;  -99.900; -344.000; -273.000
267.364; -219.000; -892.000; -686.000
267.504;  -31.800;    3.000;  135.000
267.645;   -3.600;  160.000;   67.000
267.786;  -71.800; -147.000;  -86.000
267.927; -158.900; -473.000; -379.000
268.068;    9.900; -186.000;  -61.000
268.209; -110.400; -175.000; -413.000
268.350; -105.200; -388.000; -532.000
268.490; -188.600; -648.000; -521.000
268.631;   85.100;  127.000;  225.000
268.772; -226.900; -874.000; -647.000
268.913;  -94.300; -328.000; -476.000
269.054;  -12.600; -117.000;   12.000
269.194;  -72.000; -418.000; -402.000
269.335; -330.900;-1137.000;-1074.000
269.476;  -31.100;   33.000;  -35.000
269.617;  -90.100; -347.000; -392.000
269.757; -194.300; -713.000; -646.000
269.898; -219.600; -856.000; -613.000
270.039; -116.500; -415.000; -405.000
270.180; -280.300; -952.000; -816.000
270.320;  -37.400; -190.000; -250.000
270.461;  -47.900; -277.000; -249.000
270.602;  -18.400; -186.000; -156.000
270.742; -265.800; -868.000; -943.000
270.883; -114.500; -442.000; -390.000
271.023;  -73.600; -358.000; -357.000
271.164; -163.800; -607.000; -528.000
271.305; -226.500; -666.000; -654.000
271.445; -184.600; -722.000; -683.000
271.586; -143.800; -462.000; -283.000
271.726;  -93.800; -397.000; -322.000
271.867; -174.200; -594.000; -534.000
272.008;  -70.800; -473.000; -285.000
272.148;  106.800;  462.000;  468.000
272.289;  -10.600; -113.000; -181.000
272.429;  -14.900;   19.000;  185.000
272.570; -211.400; -633.000; -737.000
272.710; -219.400; -825.000; -775.000
272.851;  -46.500;  113.000; -130.000
272.991; -337.000;-1173.000;-1077.000
273.131; -118.500; -419.000; -459.000
273.272; -215.500; -683.000; -723.000
273.412;  -21.300; -143.000;  -31.000
273.553; -135.900; -488.000; -507.000
273.693;  283.400;  913.000;  858.000
273.834; -294.500; -894.000; -692.000
273.974; -176.700; -664.000; -615.000
274.114; -215.300; -772.000; -560.000
274.255;  126.300;  414.000;  373.000
274.395;  -91.500; -180.000; -125.000
274.535;   82.300;  199.000;  350.000
274.676;   73.900;  225.000;   94.000
274.816;   -5.400;  110.000;   34.000
274.956; -190.300; -624.000; -690.000
275.097; -267.100;-1014.000; -922.000
275.237; -260.300; -913.000; -803.000
275.377; -173.900; -778.000; -689.000
275.517; -306.600; -878.000; -937.000
275.658; -152.300; -590.000; -555.000
275.798; -167.100; -606.000; -413.000
275.938;   35.700;  215.000;  323.000
276.078; -186.300; -626.000; -395.000
276.218;   41.600;   99.000;  104.000
276.359; -300.900;-1026.000;-1024.000
276.499; -167.600; -605.000; -446.000
276.639;  -65.500; -305.000; -151.000
276.779; -106.400; -475.000; -357.000
276.919; -221.300; -783.000; -624.000
277.059;  -24.700; -261.000; -212.000
277.199; -100.000; -357.000; -259.000
277.340;  114.100;  287.000;  175.000
277.480; -236.100; -840.000; -693.000
277.620;   73.100;  192.000;   16.000
277.760; -432.500;-1533.000;-1294.000
277.900;  -11.600;  113.000;   33.000
278.040;    9.500;  137.000;  159.000
278.180;   61.900;  270.000;  170.000
278.320;  -13.200;   21.000;   56.000
278.460; -156.700; -443.000; -469.000
278.600; -172.000; -708.000; -598.000
278.740;  137.900;  448.000;  224.000
278.880; -268.900; -768.000; -791.000
279.020;  -12.400; -194.000; -144.000
279.160; -185.300; -672.000; -595.000
279.300; -259.600; -926.000; -873.000
279.440; -219.700; -709.000; -622.000
279.579; -253.800;-1014.000; -929.000
279.719; -145.600; -410.000; -394.000
279.859;   36.400;   -4.000;   41.000
279.999;  -53.600; -208.000;  101.000
280.139;  -99.500; -435.000; -387.000
280.279; -236.500; -708.000; -745.000
280.419;  -26.700; -229.000; -147.000
280.559; -109.100; -259.000; -180.000
280.698; -170.200; -790.000; -639.000
280.838; -238.700; -778.000; -800.000
280.978; -199.600; -846.000; -790.000
281.118; -230.500; -811.000; -704.000
281.257;   25.500;   24.000;    6.000
281.397; -364.700;-1094.000; -960.000
281.537; -184.900; -599.000; -712.000
281.677;  -12.000; -150.000; -101.000
281.816; -186.800; -700.000; -630.000
281.956;  -73.500; -193.000; -257.000
282.096; -112.500; -539.000; -396.000
282.235; -215.900; -672.000; -638.000
282.375;  -26.800; -243.000;  -98.000
282.515; -223.200; -715.000; -707.000
282.654;   27.800;   29.000;  106.000
282.794;   53.100;  388.000;  244.000
282.934; -142.600; -530.000; -491.000
283.073; -303.100;-1030.000; -857.000
283.213; -140.800; -460.000; -467.000
283.353;  -81.200; -408.000; -349.000
283.492;  -75.800; -264.000; -296.000
283.632;  -92.700; -254.000; -168.000
283.771; -196.400; -859.000; -730.000
283.911;  -86.100; -369.000; -260.000
284.050; -213.200; -794.000; -748.000
284.190; -342.800;-1229.000;-1096.000
284.329; -305.900;-1055.000; -964.000
284.469; -203.000; -516.000; -591.000
284.608; -114.700; -559.000; -598.000
284.748; -172.200; -614.000; -570.000
284.887;  -16.800;  -87.000;  -20.000
285.027; -248.100; -844.000; -892.000
285.166;  -48.000; -192.000; -249.000
285.306;  -82.000; -116.000;  -33.000
285.445;  -58.600; -229.000; -343.000
285.584; -197.200; -630.000; -494.000
285.724;  -59.200; -282.000; -322.000
285.863; -255.200; -857.000; -507.000
286.002;  -96.500; -366.000; -276.000
286.142; -227.200; -715.000; -622.000
286.281; -149.600; -525.000; -493.000
286.420; -137.900; -554.000; -417.000
286.560;  194.000;  653.000;  623.000
286.699; -304.600; -958.000; -912.000
286.838; -162.100; -590.000; -591.000
286.978; -190.200; -533.000; -537.000
287.117; -306.200;-1085.000; -950.000
287.256;  -65.900; -228.000; -211.000
287.395;  -88.100; -197.000; -378.000
287.535;  -97.700; -370.000; -298.000
287.674; -150.600; -509.000; -484.000
287.813;   85.200;  661.000;  533.000
287.952; -293.300;-1010.000; -871.000
288.091; -346.700;-1049.000; -915.000
288.231;   18.900;   13.000;   15.000
288.370; -361.900;-1217.000;-1200.000
288.509; -180.200; -728.000; -645.000
288.648; -164.900; -770.000; -548.000
288.787;  -60.700; -243.000;  -87.000
288.926; -144.700; -454.000; -475.000
289.065;  255.200;  859.000;  672.000
289.204; -121.100; -377.000; -217.000
289.344; -198.100; -791.000; -690.000
289.483;   61.700;  416.000;  304.000
289.622;  -43.700; -291.000; -149.000
289.761;  -45.500; -309.000; -166.000
289.900; -212.500; -785.000; -626.000
290.039;  -12.100;  -12.000;  -95.000
290.178;  -84.100; -274.000; -180.000
290.317; -222.500; -618.000; -479.000
290.456; -127.200; -463.000; -451.000
290.595; -295.800; -961.000; -833.000
290.734; -311.600; -904.000; -891.000
290.873; -144.800; -456.000; -420.000
291.011; -254.700; -833.000; -843.000
291.150; -217.000; -770.000; -682.000
291.289;  -57.600; -343.000; -110.000
291.428; -194.900; -599.000; -480.000
291.567; -105.200; -370.000; -442.000
291.706;   28.300;  109.000;  154.000
291.845; -164.300; -597.000; -505.000
291.984; -355.200;-1234.000;-1061.000
292.122;  167.200;  602.000;  582.000
292.261;  120.700;  620.000;  463.000
292.400;   45.700; -144.000;  211.000
292.539; -265.800; -959.000; -813.000
292.678;  -99.900; -325.000; -300.000
292.816; -363.100;-1136.000; -965.000
292.955; -220.500; -844.000; -684.000
293.094;  -44.700; -173.000; -337.000
293.233; -107.700; -556.000; -400.000
293.371;  -68.900; -225.000;  -84.000
293.510; -247.200; -866.000; -780.000
293.649; -316.000; -959.000; -924.000
293.787; -283.600;-1083.000;-1012.000
293.926;  -39.700; -113.000;  -32.000
294.065; -124.400; -379.000; -290.000
294.203;   95.100;  298.000;  406.000
294.342;   30.100;   74.000;  156.000
294.481;12443.900;51180.000; -836.000
294.619;  -47.500; -425.000; -582.000
294.758; -347.000;-1230.000;-1137.000
294.896;  -14.900; -125.000;    5.000
295.035; -320.100;-1040.000;-1006.000
295.174; -281.800;-1082.000; -954.000
295.312;  -80.900; -323.000; -203.000
295.451; -118.600; -307.000; -428.000
295.589; -146.300; -389.000; -518.000
295.728;   36.300; -292.000; -165.000
295.866;  -54.500;  -36.000;  -51.000
296.005; -155.800; -584.000; -341.000
296.143; -208.300; -558.000; -596.000
296.282; -243.700; -957.000; -881.000
296.420; -188.100; -657.000; -557.000
296.559; -209.200; -892.000; -633.000
296.697; -229.000; -847.000; -665.000
296.835; -304.600;-1141.000;-1002.000
296.974;   16.000;  -23.000;   39.000
297.112; -141.100; -443.000; -504.000
297.251; -228.000; -815.000; -755.000
297.389; -142.300; -576.000; -438.000
297.527;  -41.400; -145.000;  -83.000
297.666; -168.300; -486.000; -438.000
297.804; -132.400; -404.000; -264.000
297.942;  -14.700; -136.000; -161.000
298.081;  -44.700; -183.000;   63.000
298.219;    4.700;  -17.000;  -19.000
298.357;  -91.700; -144.000;  -71.000
298.495; -225.600; -810.000; -812.000
298.634;   32.400;  245.000;  219.000
298.772;  -54.700; -220.000; -338.000
298.910; -157.000; -309.000; -182.000
299.048;  -30.200; -130.000; -153.000
299.187;  -56.700; -350.000; -250.000
299.325;   10.700;   52.000;  122.000
299.463; -127.400; -389.000; -299.000
299.601;  -60.000; -327.000; -271.000
299.739; -285.400; -908.000; -883.000
299.877; -194.800; -791.000; -703.000
300.016; -335.100;-1095.000; -935.000
300.154;   -6.400;  -19.000; -161.000
300.292; -122.100; -428.000; -348.000
300.430; -100.000; -408.000; -291.000
300.568; -279.400; -940.000; -874.000
300.706; -140.200; -366.000; -469.000
300.844; -300.600;-1108.000; -979.000
300.982;  108.200;  246.000;  282.000
301.120; -291.100; -965.000; -866.000
301.258; -197.400; -812.000; -705.000
301.396;   33.700;  104.000;  -41.000
301.534;  -84.800; -218.000; -293.000
301.672; -183.600; -664.000; -521.000
301.810; -182.500; -613.000; -545.000
301.948;   32.900;   53.000;  149.000
302.086;  -32.500; -250.000;  -32.000
302.224; -172.300; -610.000; -585.000
302.362; -179.200; -558.000; -622.000
302.500; -269.500; -923.000; -893.000
302.638;   41.800;  128.000;  245.000
302.776;  -86.000; -352.000; -408.000
302.913;  112.900;  447.000;  236.000
303.051;  -50.000;  -86.000;  -23.000
303.189;   16.700;   90.000;  118.000
303.327; -109.000; -341.000; -256.000
303.465; -231.200; -832.000; -588.000
303.603; -193.900; -805.000; -604.000
303.740;   84.800;  417.000;  241.000
303.878; -230.100; -800.000; -759.000
304.016; -222.500; -915.000; -790.000
304.154; -329.200;-1123.000;-1152.000
304.291; -145.300; -505.000; -554.000
304.429;   18.200;  102.000;   74.000
304.567; -283.400; -908.000; -893.000
304.705; -137.900; -408.000; -515.000
304.842; -179.900; -616.000; -540.000
304.980;   14.000;  215.000;   35.000
305.118; -101.600; -367.000; -365.000
305.255; -287.900; -945.000; -927.000
305.393;   74.600;  178.000;  239.000
305.531; -294.500;-1173.000; -956.000
305.668; -199.000; -663.000; -582.000
305.806; -122.900; -358.000; -439.000
305.943; -181.900; -629.000; -637.000
306.081;  -97.300; -378.000; -267.000
306.219; -217.000; -863.000; -748.000
306.356;  -13.400;  158.000;   27.000
306.494;  233.900;  981.000;  761.000
306.631;  -18.300;  -11.000;  -55.000
306.769; -138.900; -613.000; -485.000
306.906; -163.400; -284.000; -258.000
307.044; -153.700; -473.000; -488.000
307.181; -166.300; -410.000; -332.000
307.319;  103.700;  112.000;   87.000
307.456; -360.400;-1191.000;-1153.000
307.594; -260.300; -980.000; -727.000
307.731;  -94.100; -371.000; -164.000
307.868;  -17.800;  -15.000;   20.000
308.006; -291.900; -961.000; -847.000
308.143; -176.200; -618.000; -330.000
308.281;  -50.100;  -37.000; -254.000
308.418; -194.900; -748.000; -640.000
308.555; -162.000; -400.000; -250.000
308.693; -156.000; -577.000; -573.000
308.830; -224.200; -712.000; -657.000
308.967;  -52.300; -215.000;  -95.000
309.105; -114.400; -507.000; -396.000
309.242; -138.600; -468.000; -367.000
309.379; -203.400; -577.000; -655.000
309.517; -257.700; -936.000; -948.000
309.654; -253.800; -910.000; -734.000
309.791; -182.600; -662.000; -580.000
309.928; -299.200; -977.000; -914.000
310.065;  179.900;  819.000;  697.000
310.203; -276.300; -825.000; -850.000
310.340; -145.800; -465.000; -321.000
310.477; -180.200; -412.000; -516.000
310.614; -128.900; -383.000; -473.000
310.751; -179.900; -427.000; -518.000
310.889;  -75.500;    1.000;   11.000
311.026; -306.300;-1161.000; -939.000
311.163; -110.200; -386.000; -380.000
311.300; -149.000; -512.000; -479.000
311.437; -163.700; -658.000; -619.000
311.574; -340.900;-1226.000; -985.000
311.711; -150.800; -595.000; -433.000
311.848;  -62.800; -380.000; -388.000
311.985;   35.600;  270.000;   93.000
312.122; -267.500; -932.000; -762.000
312.259; -233.900; -941.000; -994.000
312.396; -177.000; -508.000; -551.000
312.533; -207.400; -812.000; -790.000
312.670; -295.500;-1070.000; -898.000
312.807;  -90.100; -352.000; -367.000
312.944; -183.200; -513.000; -611.000
313.081; -134.800; -150.000; -415.000
313.218; -287.000;-1111.000; -867.000
313.355; -118.300; -531.000; -449.000
313.492;  -86.400; -455.000; -292.000
313.629;  200.100;  815.000;  735.000
313.766; -386.800;-1176.000;-1008.000
313.902;   -8.600; -186.000;   21.000
314.039; -122.500; -372.000; -289.000
314.176;   42.000;  286.000;  192.000
314.313; -168.600; -569.000; -473.000
314.450; -204.700; -788.000; -684.000
314.587; -182.000; -468.000; -480.000
314.723;   -7.300;  -78.000;  130.000
314.860;   23.800;  318.000;  332.000
314.997;   39.400;  223.000;  142.000
315.134; -145.400; -385.000; -368.000
315.270; -153.400; -480.000; -496.000
315.407; -321.900;-1094.000; -967.000
315.544; -174.400; -657.000; -538.000
315.681; -231.100; -681.000; -565.000
315.817;  -63.800; -133.000; -176.000
315.954; -184.900; -613.000; -392.000
316.091; -327.400;-1045.000;-1023.000
316.227;  -64.000;  -71.000; -179.000
316.364;   16.200;   23.000;    6.000
316.500;  -77.100; -113.000; -300.000
316.637;  -91.600; -181.000; -302.000
316.774; -170.000; -625.000; -358.000
316.910; -195.100; -598.000; -629.000
317.047; -171.100; -487.000; -351.000
317.183; -170.500; -435.000; -566.000
317.320; -137.900; -367.000; -321.000
317.456; -227.100; -733.000; -805.000
317.593; -212.700; -598.000; -641.000
317.729;   32.200;  168.000;  -67.000
317.866; -445.600;-1434.000;-1285.000
318.002; -216.300; -708.000; -948.000
318.139; -263.400; -883.000; -867.000
318.275; -249.700;-1003.000; -738.000
318.412; -170.000; -517.000; -336.000
318.548; -218.700; -751.000; -720.000
318.685; -309.800; -985.000; -888.000
318.821; -234.600; -762.000; -735.000
318.957;  -38.200;   34.000;  -23.000
319.094;   96.800;  297.000;  154.000
319.230; -240.500; -756.000; -742.000
319.367; -155.000; -471.000; -520.000
319.503; -173.800; -538.000; -436.000
319.639; -240.700; -877.000; -793.000
319.775; -230.300; -750.000; -685.000
319.912; -131.900; -424.000; -519.000
320.048; -351.600;-1184.000;-1184.000
320.184;    5.800;   59.000;   70.000
320.321; -154.300; -497.000; -467.000
320.457;  111.100;  475.000;  662.000
320.593; -148.500; -375.000; -382.000
320.729; -233.200; -732.000; -734.000
320.866; -203.800; -577.000; -635.000
321.002; -261.300; -759.000; -809.000
321.138; -120.900; -135.000; -211.000
321.274;  -56.400; -148.000; -115.000
321.410; -147.600; -585.000; -353.000
321.546; -302.200;-1011.000; -911.000
321.683;   68.600;  400.000;  185.000
321.819;  -37.100;  -48.000; -117.000
321.955; -274.800; -743.000; -722.000
322.091; -148.300; -585.000; -540.000
322.227;  -99.600; -382.000; -202.000
322.363;  -93.700; -320.000; -215.000
322.499; -103.100; -343.000; -331.000
322.635;  171.700;  636.000;  443.000
322.771;  -57.600; -139.000;   12.000
322.907;  122.600;  129.000;  327.000
323.043;  -82.600; -115.000; -206.000
323.179; -127.800; -394.000; -363.000
323.315; -123.500; -401.000; -371.000
323.451;  -95.200; -328.000; -236.000
323.587;  -52.200;  -60.000;  -77.000
323.723; -203.200; -682.000; -601.000
323.859;  -69.800; -258.000;  -76.000
323.995; -145.700; -467.000; -409.000
324.131; -292.200; -967.000; -892.000
324.267;  -96.300; -254.000; -276.000
324.402; -312.200; -960.000; -983.000
324.538;  -63.600; -279.000; -104.000
324.674;    9.500;  164.000;   77.000
324.810;   53.800;  226.000;  308.000
324.946; -163.100; -810.000; -658.000
325.082; -158.400; -568.000; -475.000
325.217;  -25.200;  -62.000;   16.000
325.353; -209.000; -764.000; -659.000
325.489; -185.900; -540.000; -506.000
325.625; -150.200; -579.000; -525.000
325.760;   48.800;  517.000;  376.000
325.896; -158.000; -515.000; -702.000
326.032; -107.600; -403.000; -352.000
326.168; -151.700; -462.000; -369.000
326.303; -124.000; -352.000; -461.000
326.439;  -84.900; -336.000; -276.000
326.575;  -82.100; -190.000;  -29.000
326.710;  -54.000; -156.000;  -30.000
326.846;   -2.900;  146.000;  103.000
326.982; -168.000; -530.000; -548.000
327.117; -177.100; -481.000; -442.000
327.253; -223.600; -745.000; -742.000
327.388; -298.600;-1137.000;-1153.000
327.524; -218.300; -811.000; -578.000
327.659;  -57.100;  -58.000;  -22.000
327.795;  -15.300;   69.000;   45.000
327.931; -194.400; -723.000; -499.000
328.066;  -88.000; -417.000; -276.000
328.202;  -72.500;   12.000; -129.000
328.337;  187.400;  957.000;  713.000
328.473;  -43.400;  -12.000;  -74.000
328.608;  -27.500; -256.000; -267.000
328.743; -250.500; -799.000; -664.000
328.879;   34.800;  214.000;  114.000
329.014; -135.100; -102.000; -122.000
329.150; -185.000; -358.000; -483.000
329.285; -188.700; -465.000; -466.000
329.421;  -77.200; -548.000; -246.000
329.556;  -20.900;  -36.000;   85.000
329.691; -176.300; -633.000; -615.000
329.827; -173.700; -626.000; -480.000
329.962;  -84.000;  131.000; -301.000
330.097; -202.200; -673.000; -585.000
330.233;  -57.400; -410.000; -223.000
330.368; -221.700; -839.000; -628.000
330.503;  -20.700;    3.000;   98.000
330.638;  -21.800;  -93.000; -125.000
330.774; -193.400; -609.000; -530.000
330.909;  -92.000; -434.000; -244.000
331.044; -181.200; -714.000; -708.000
331.179; -368.300;-1217.000;-1109.000
331.315;   33.100;   77.000;   20.000
331.450;   -0.100;  157.000;  285.000
331.585; -214.100; -805.000; -706.000
331.720; -178.200; -510.000; -460.000
331.855;  -40.500;  -35.000; -102.000
331.990;  -10.900;   62.000;  138.000
332.126;  -35.200; -110.000;   71.000
332.261; -144.400; -379.000; -265.000
332.396;  -80.200; -135.000; -242.000
332.531; -318.200;-1074.000;-1031.000
332.666; -119.700; -519.000; -363.000
332.801; -222.600; -726.000; -807.000
332.936;  -15.200; -192.000; -122.000
333.071; -298.000; -870.000; -817.000
333.206;   54.600;  307.000;  379.000
333.341;   92.600;  344.000;  418.000
333.476; -171.800; -627.000; -623.000
333.611;  -75.700; -251.000; -173.000
333.746;  -69.400; -381.000; -464.000
333.881; -309.800; -973.000; -935.000
334.016; -275.900; -936.000; -917.000
334.151; -272.200; -746.000; -702.000
334.286;    6.400;  152.000;  186.000
334.421;  -32.600; -125.000; -178.000
334.556; -186.300; -611.000; -567.000
334.690; -199.400; -631.000; -577.000
334.825;  122.900;  381.000;   83.000
334.960; -122.900; -285.000; -413.000
335.095;    3.500;  135.000;  -91.000
335.230; -247.800; -722.000; -738.000
335.365; -339.200;-1084.000; -990.000
335.499; -304.300;-1108.000;-1037.000
335.634;    6.200;    9.000;  534.000
335.769; -266.500; -755.000; -720.000
335.904; -175.500; -603.000; -561.000
336.038; -219.800; -735.000; -657.000
336.173; -331.900;-1206.000;-1194.000
336.308;  -98.700; -116.000; -189.000
336.443; -122.300; -544.000; -634.000
336.577; -273.400; -936.000; -787.000
336.712;  -32.500;   -4.000;  -12.000
336.847; -235.700; -724.000; -607.000
336.981; -134.300; -272.000; -208.000
337.116;  105.500;  615.000;  501.000
337.250; -136.300; -434.000; -421.000
337.385; -115.000; -297.000; -208.000
337.520; -194.200; -632.000; -603.000
337.654;  -99.900; -215.000; -126.000
337.789; -264.800; -989.000; -933.000
337.923;  -78.700; -104.000; -205.000
338.058; -238.400; -673.000; -738.000
338.192; -203.800; -611.000; -488.000
338.327;  -57.400;  -18.000; -155.000
338.461; -163.700; -299.000; -469.000
338.596; -223.900; -780.000; -638.000
338.730; -251.400; -767.000; -803.000
338.865;  -26.500;  -46.000; -140.000
338.999; -276.700; -846.000; -702.000
339.134; -179.500; -634.000; -536.000
339.268; -224.100; -741.000; -603.000
339.403; -233.600; -740.000; -775.000
339.537; -246.000; -894.000; -820.000
339.671; -269.900; -829.000; -813.000
339.806; -218.300; -556.000; -512.000
339.940;  -64.400; -261.000; -235.000
340.074; -220.100; -685.000; -510.000
340.209;  -66.100; -351.000; -230.000
340.343; -213.600; -517.000; -573.000
340.477;  313.600;  998.000; 1036.000
340.612; -278.300;-1033.000; -900.000
340.746; -116.300; -199.000; -243.000
340.880; -275.400; -924.000; -785.000
341.014;  -38.600;  -45.000; -154.000
341.149; -248.500; -756.000; -718.000
341.283; -241.600; -839.000; -754.000
341.417; -320.000;-1124.000; -938.000
341.551; -207.600; -768.000; -708.000
341.685; -191.300; -633.000; -611.000
341.820; -184.300; -562.000; -493.000
341.954; -156.900; -218.000; -349.000
342.088; -303.400;-1102.000;-1019.000
342.222;   75.100;  565.000;  618.000
342.356; -125.400; -395.000; -335.000
342.490; -247.000; -880.000; -841.000
342.624; -101.700; -339.000; -242.000
342.758; -126.000; -364.000; -312.000
342.892; -206.500; -710.000; -585.000
343.026;  -71.100;  -58.000; -116.000
343.160; -107.300; -426.000; -376.000
343.294; -167.300; -474.000; -337.000
343.428; -191.400; -488.000; -448.000
343.562;  -63.900; -172.000;  -23.000
343.696;  -58.600; -385.000; -314.000
343.830; -125.700; -362.000; -356.000
343.964;  -52.800; -231.000; -168.000
344.098;   -8.300;  199.000;   70.000
344.232;  -82.700; -266.000; -127.000
344.366; -205.300; -567.000; -453.000
344.500; -183.400; -665.000; -744.000
344.634;  -87.600; -324.000; -164.000
344.768; -151.200; -531.000; -341.000
344.902;   53.600;  278.000;  256.000
345.035; -137.400; -556.000; -496.000
345.169; -281.700; -933.000; -656.000
345.303; -130.400; -308.000; -482.000
345.437; -246.300; -826.000; -717.000
345.571; -217.900; -675.000; -594.000
345.704; -169.700; -309.000; -532.000
345.838;  -59.600; -331.000; -284.000
345.972; -206.900; -543.000; -495.000
346.106;    7.600; -179.000; -190.000
346.239;  -63.500; -312.000; -243.000
346.373; -118.600; -343.000; -302.000
346.507; -324.700; -950.000; -962.000
346.640;  -62.200;  -30.000;   13.000
346.774; -226.600; -650.000; -797.000
346.908;  -44.800; -138.000;  -11.000
347.041; -226.200; -646.000; -593.000
347.175;   30.900;  259.000;   27.000
347.309; -235.600; -698.000; -628.000
347.442; -219.200; -883.000; -732.000
347.576;  170.400;  670.000;  668.000
347.709;  -41.800; -123.000;  -52.000
347.843; -315.100; -933.000; -825.000
347.976;   94.100;  235.000;  294.000
348.110; -366.400;-1268.000;-1186.000
348.243; -215.900; -679.000; -772.000
348.377;   -5.400;  -26.000;   60.000
348.510;  121.300;  403.000;  540.000
348.644;  -96.800;  -37.000; -159.000
348.777;   23.200;  180.000;  191.000
348.911;  -97.300; -142.000; -112.000
349.044;   92.400;  471.000;  448.000
349.178; -335.800;-1069.000;-1006.000
349.311;   78.200;  141.000;  255.000
349.444; -279.800; -927.000; -813.000
349.578; -101.400; -347.000; -200.000
349.711; -290.500; -959.000; -862.000
349.845; -189.200; -661.000; -591.000
349.978; -379.500;-1224.000;-1137.000
350.111; -190.000; -546.000; -612.000
350.244; -202.300; -596.000; -700.000
350.378; -110.700; -392.000; -393.000
350.511; -136.400; -393.000; -426.000
350.644; -256.700; -808.000; -806.000
350.778;  -25.400;  168.000;  104.000
350.911;   24.000;  134.000;  140.000
351.044; -197.500; -685.000; -615.000
351.177;  -79.700; -321.000; -281.000
351.310;  -63.800;    3.000; -131.000
351.444; -243.400; -888.000; -788.000
351.577;   12.600;  140.000;   90.000
351.710;  172.700;  593.000;  417.000
351.843;  -44.300; -165.000;  -77.000
351.976;   11.300;  149.000;  -79.000
352.109; -237.300; -621.000; -612.000
352.242; -127.400; -464.000; -419.000
352.376; -210.900; -580.000; -636.000
352.509; -137.300; -437.000; -356.000
352.642; -319.800; -654.000; -604.000
352.775;  -64.300; -141.000;  -98.000
352.908; -294.400; -933.000; -904.000
353.041; -256.800; -814.000; -824.000
353.174; -159.800; -551.000; -424.000
353.307; -209.900; -753.000; -764.000
353.440;  112.500;  541.000;  453.000
353.573; -255.300; -957.000;-1008.000
353.706; -177.400; -384.000; -558.000
353.839;  -96.500; -264.000; -220.000
353.971; -188.100; -657.000; -512.000
354.104; -271.200; -896.000; -835.000
354.237; -242.100; -627.000; -662.000
354.370; -222.400; -846.000; -879.000
354.503; -418.200;-1231.000;-1308.000
354.636; -119.400; -529.000; -348.000
354.769; -304.600; -937.000; -860.000
354.902;  -80.400; -230.000; -139.000
355.034;  -41.500; -164.000; -220.000
355.167;  -74.400; -262.000; -162.000
355.300; -326.500;-1061.000; -880.000
355.433;  -47.100;  -71.000;  -14.000
355.565; -177.300; -402.000; -384.000
355.698; -127.700; -356.000; -296.000
355.831; -273.600; -882.000; -801.000
355.964;  -97.300; -285.000; -170.000
356.096; -292.200; -856.000; -843.000
356.229; -175.200; -523.000; -530.000
356.362;  -63.400; -373.000; -266.000
356.494;  -94.400; -229.000; -162.000
356.627;   53.400;  269.000;  377.000
356.760;   -5.100;  120.000;   53.000
356.892; -213.700; -286.000; -601.000
357.025;  105.100;  403.000;  389.000
357.157;  -51.500; -167.000; -179.000
357.290; -283.400; -856.000; -713.000
357.423; -198.700; -667.000; -556.000
357.555;  -66.600; -217.000; -228.000
357.688; -129.900; -483.000; -364.000
357.820; -280.700; -870.000; -877.000
357.953; -204.000; -563.000; -589.000
358.085; -223.900; -632.000; -612.000
358.218; -339.400;-1131.000; -932.000
358.350;  -17.900;  -58.000;  312.000
358.483; -378.800;-1300.000;-1187.000
358.615; -331.900;-1182.000;-1078.000
358.747; -359.200;-1187.000;-1058.000
358.880; -247.300; -810.000; -744.000
359.012; -139.200; -376.000; -202.000
359.145; -181.500; -480.000; -511.000
359.277; -316.400; -962.000; -913.000
359.409;  126.300;  536.000;  231.000
359.542; -246.500; -738.000; -688.000
359.674;  -23.000;   46.000;   13.000
359.806; -194.200; -565.000; -438.000
359.939; -141.200; -617.000; -516.000
360.071; -223.100; -583.000; -579.000
360.203; -116.600; -411.000; -364.000
360.335;   22.500;  164.000;  -16.000
360.468;  -82.800; -249.000; -307.000
360.600; -215.000; -547.000; -454.000
360.732; -195.500; -546.000; -423.000
360.864; -367.100;-1216.000;-1044.000
360.996; -164.900; -516.000; -554.000
361.129; -186.400; -389.000; -598.000
361.261;  -17.200;  110.000; -113.000
361.393; -125.600; -252.000; -214.000
361.525;   29.000;   94.000;  244.000
361.657; -244.800; -821.000; -703.000
361.789;  -62.200; -139.000; -155.000
361.921; -161.200; -642.000; -593.000
362.053;  120.000;  524.000;  541.000
362.185;   -9.200;  288.000;   72.000
362.318; -220.200; -709.000; -705.000
362.450;   71.700;  294.000;  444.000
362.582; -287.500; -913.000; -870.000
362.714; -127.600; -353.000; -332.000
362.846; -186.600; -606.000; -490.000
362.978; -287.000; -941.000; -811.000
363.109; -136.900; -161.000; -260.000
363.241; -247.200; -739.000; -749.000
363.373; -205.600; -649.000; -564.000
363.505;  -79.300; -186.000;  -91.000
363.637; -220.100; -787.000; -601.000
363.769; -373.600;-1067.000;-1080.000
363.901; -190.200; -596.000; -654.000
364.033; -335.400;-1103.000;-1062.000
364.165;  -73.400; -283.000; -283.000
364.296; -152.000; -316.000; -177.000
364.428; -429.100;-1344.000;-1220.000
364.560; -202.300; -679.000; -661.000
364.692; -175.700; -738.000; -835.000
364.824; -195.100; -588.000; -456.000
364.955; -125.900; -402.000; -564.000
365.087; -321.300;-1097.000; -852.000
365.219; -265.100; -686.000; -816.000
365.351; -210.400; -526.000; -572.000
365.482;   49.600;  300.000;  240.000
365.614; -121.100; -402.000; -314.000
365.746; -236.800; -729.000; -752.000
365.877; -250.600; -706.000; -672.000
366.009;  -29.200;  -35.000;  -62.000
366.141; -385.100;-1249.000;-1134.000
366.272; -258.500; -803.000; -719.000
366.404; -266.900;-1005.000; -874.000
366.535;  -19.800; -139.000;  -12.000
366.667; -200.900; -644.000; -649.000
366.799;   84.200;  353.000;  203.000
366.930; -301.600; -862.000; -996.000
367.062; -190.900; -639.000; -613.000
367.193; -302.500; -872.000; -842.000
367.325; -171.400; -580.000; -684.000
367.456;  -93.800; -246.000;   31.000
367.588;  -90.800; -371.000; -318.000
367.719;  -53.300;  -44.000;  -45.000
367.851;  -86.300; -222.000; -241.000
367.982; -265.500; -875.000; -732.000
368.113; -121.300; -475.000; -358.000
368.245; -320.600; -960.000; -841.000
368.376;  -75.200; -254.000; -302.000
368.508; -126.300; -188.000; -263.000
368.639; -347.500;-1166.000;-1034.000
368.770; -217.500; -670.000; -589.000
368.902; -241.800; -836.000; -926.000
369.033; -294.800; -906.000; -855.000
369.164; -214.400; -720.000; -653.000
369.296; -228.800; -452.000; -601.000
369.427;  -33.600; -209.000; -144.000
369.558; -161.100; -593.000; -377.000
369.689; -203.000; -721.000; -569.000
369.821; -314.500; -951.000; -845.000
369.952;  -15.500;   42.000; -108.000
370.083; -108.800; -229.000; -108.000
370.214; -219.500; -735.000; -650.000
370.345;  -25.800;   65.000;   81.000
370.477; -244.200; -810.000; -790.000
370.608; -124.200; -328.000; -264.000
370.739; -376.000;-1233.000;-1292.000
370.870; -302.600;-1102.000; -923.000
371.001; -133.900; -378.000; -467.000
371.132; -258.200; -754.000; -735.000
371.263;  -75.400;  -42.000; -148.000
371.394; -295.500; -841.000; -748.000
371.525;  114.000;  345.000;  225.000
371.657; -271.600; -808.000; -670.000
371.788;   50.400;  103.000;  199.000
371.919; -137.600; -384.000; -304.000
372.050;  -36.600;  -91.000; -156.000
372.181;  -70.300; -188.000; -294.000
372.311;  -12.900;   42.000; -127.000
372.442; -155.800; -457.000; -451.000
372.573;  -91.100; -444.000; -340.000
372.704; -313.400;-1008.000; -980.000
372.835; -110.900; -228.000; -289.000
372.966; -200.100; -646.000; -554.000
373.097; -224.300; -575.000; -711.000
373.228; -212.800; -717.000; -542.000
373.359; -218.100; -824.000; -536.000
373.490; -250.800; -881.000; -727.000
373.620; -285.700;-1001.000; -803.000
373.751; -148.300; -332.000; -396.000
373.882; -210.400; -663.000; -733.000
374.013; -107.500; -449.000; -262.000
374.143; -196.300; -581.000; -659.000
374.274; -345.300; -987.000; -908.000
374.405; -105.900; -388.000; -276.000
374.536; -144.900; -526.000; -387.000
374.666; -228.200; -759.000; -807.000
374.797; -253.900; -817.000; -868.000
374.928; -184.500; -710.000; -560.000
375.058; -198.600; -535.000; -500.000
375.189;  -53.400;  -59.000;  -93.000
375.320; -301.300; -928.000;-1034.000
375.450; -189.700; -625.000; -616.000
375.581; -159.000; -526.000; -436.000
375.712; -118.000; -574.000; -250.000
375.842; -179.100; -438.000; -415.000
375.973; -195.400; -554.000; -513.000
376.103; -215.200; -665.000; -648.000
376.234; -193.500; -531.000; -552.000
376.364; -292.000; -944.000; -867.000
376.495;  214.800;  925.000;  529.000
376.625; -190.300; -472.000; -485.000
376.756; -238.300; -709.000; -678.000
376.886; -390.700;-1178.000;-1026.000
377.017; -311.700;-1048.000;-1061.000
377.147; -297.400; -786.000; -782.000
377.278;   64.300;  174.000;  228.000
377.408; -252.900; -801.000; -815.000
377.538; -214.800; -707.000; -693.000
377.669; -202.100; -537.000; -613.000
377.799; -208.500; -645.000; -635.000
377.929; -229.100; -610.000; -428.000
378.060; -278.200; -781.000; -847.000
378.190; -224.300; -726.000; -531.000
378.320; -133.800; -401.000; -406.000
378.451;  -31.500; -131.000;  -22.000
378.581;  -36.400;  -67.000; -110.000
378.711;  177.100; 1035.000;  866.000
378.841; -217.700; -533.000; -675.000
378.972; -275.700; -871.000; -751.000
379.102; -181.100; -652.000; -579.000
379.232;  -99.300; -126.000;  -73.000
379.362; -267.900;-1001.000; -885.000
379.492; -201.900; -373.000; -424.000
379.623;   32.000;    0.000;  111.000
379.753; -293.400;-1107.000; -974.000
379.883;    6.300;   59.000;  156.000
380.013; -334.200;-1081.000;-1017.000
380.143; -332.300;-1097.000;-1056.000
380.273; -322.500; -985.000; -861.000
380.403; -103.300; -344.000; -257.000
380.533; -238.300; -651.000; -664.000
380.663;    9.100;  173.000;  128.000
380.793; -360.000;-1027.000;-1074.000
380.923;  -68.200; -103.000;  -34.000
381.053; -225.300; -613.000; -623.000
381.183;  -72.400; -106.000; -248.000
381.313; -223.600; -656.000; -470.000
381.443; -183.200; -692.000; -473.000
381.573; -184.400; -402.000; -409.000
381.703; -351.100;-1249.000;-1095.000
381.833; -439.400;-1454.000;-1336.000
381.963;   -7.900; -134.000;  -87.000
382.093; -319.300; -925.000; -909.000
382.223; -208.700; -713.000; -602.000
382.353; -257.700; -801.000; -608.000
382.482; -326.800;-1091.000; -964.000
382.612; -262.400; -872.000; -644.000
382.742; -212.700; -695.000; -622.000
382.872; -173.500; -565.000; -551.000
383.002;   12.000;  347.000; -132.000
383.131; -161.900; -226.000; -160.000
383.261; -234.800; -706.000; -768.000
383.391; -191.700; -552.000; -377.000
383.521;  105.700;  451.000;  263.000
383.650; -327.000; -947.000; -904.000
383.780; -222.800; -783.000; -656.000
383.910;  182.700;  880.000;  802.000
384.039; -268.100; -794.000; -656.000
384.169; -383.700;-1205.000;-1017.000
384.299; -182.600; -650.000; -662.000
384.428; -242.900; -764.000; -680.000
384.558; -117.600; -308.000; -275.000
384.687; -153.300; -414.000; -334.000
384.817;  -19.800;   75.000;   -2.000
384.947; -107.500; -234.000; -141.000
385.076;  257.400;  982.000;  912.000
385.206;   94.500;  369.000;  480.000
385.335; -146.400; -549.000; -417.000
385.465; -259.200; -655.000; -663.000
385.594;  -13.500;  -53.000;  -44.000
385.724; -278.400; -868.000; -838.000
385.853; -108.300; -296.000; -270.000
385.982; -277.500; -743.000; -787.000
386.112; -303.400;-1052.000; -871.000
386.241; -128.600; -307.000; -312.000
386.371;  -83.700; -174.000;  -87.000
386.500; -301.900; -825.000; -789.000
386.629; -258.000; -874.000; -817.000
386.759;  -43.700;  -43.000;   68.000
386.888;  -72.400; -170.000; -250.000
387.017; -221.600; -648.000; -620.000
387.147; -258.400; -771.000; -798.000
387.276; -193.300; -410.000; -397.000
387.405;  -96.600; -398.000; -342.000
387.535; -159.000; -452.000; -361.000
387.664; -209.400; -692.000; -620.000
387.793;  -98.800; -198.000; -113.000
387.922;   33.600;  255.000;  200.000
388.052; -177.200; -576.000; -423.000
388.181; -161.400; -342.000; -472.000
388.310; -223.900; -889.000; -710.000
388.439; -292.300; -749.000; -742.000
388.568;    3.500;  365.000;  244.000
388.697; -238.400; -756.000; -653.000
388.826; -215.100; -768.000; -666.000
388.956; -134.700; -285.000; -307.000
389.085; -146.200; -347.000; -287.000
389.214; -265.900; -842.000; -872.000
389.343; -198.800; -645.000; -413.000
389.472;   32.900;  126.000;  149.000
389.601;  -34.100;   91.000;    0.000
389.730; -172.200; -568.000; -687.000
389.859;   36.300;  226.000;   46.000
389.988; -126.400; -423.000; -408.000
390.117;  -95.400; -168.000; -146.000
390.246; -110.100; -331.000; -320.000
390.375; -226.500; -673.000; -626.000
390.504; -229.000; -703.000; -621.000
390.633; -271.300; -672.000; -726.000
390.761; -231.500; -732.000; -645.000
390.890;  -77.300;   -4.000; -130.000
391.019; -164.900; -421.000; -441.000
391.148; -316.800; -826.000; -855.000
391.277; -219.200; -576.000; -493.000
391.406; -264.000; -821.000; -805.000
391.534;   45.200;  574.000; -301.000
391.663; -195.900; -583.000; -645.000
391.792; -207.100; -673.000; -701.000
391.921;  -15.300;   -3.000;   15.000
392.050; -109.700; -287.000; -228.000
392.178; -339.800;-1206.000;-1061.000
392.307; -250.800; -758.000; -712.000
392.436; -251.300; -427.000; -641.000
392.564;   24.100;  166.000;   -6.000
392.693; -262.900; -860.000; -682.000
392.822; -192.800; -529.000; -534.000
392.950; -273.500; -880.000; -714.000
393.079; -125.500; -188.000; -328.000
393.208; -180.800; -488.000; -511.000
393.336;  -74.700; -170.000; -145.000
393.465;  -87.900; -317.000; -199.000
393.593;  -11.900;   62.000;   79.000
393.722; -352.600;-1121.000; -916.000
393.850;  -70.900; -188.000;  -61.000
393.979; -307.400; -926.000; -805.000
394.107; -178.000; -517.000; -537.000
394.236; -195.200; -570.000; -507.000
394.364;   63.100;  383.000;  206.000
394.493; -283.800; -911.000; -767.000
394.621; -264.800; -955.000; -916.000
394.750; -299.200; -873.000; -923.000
394.878;  -74.700; -247.000; -149.000
395.007; -282.800; -721.000; -807.000
395.135; -237.000; -790.000; -721.000
395.263; -317.500;-1038.000;-1040.000
395.392;  -22.400;  -25.000; -107.000
395.520; -298.600; -818.000; -679.000
395.648; -294.000; -865.000; -915.000
395.777; -171.300; -366.000; -405.000
395.905; -197.900; -449.000; -564.000
396.033;   21.500;  217.000;  172.000
396.162; -144.300; -399.000; -453.000
396.290;  -17.500;  -17.000;   -2.000
396.418; -175.200; -555.000; -514.000
396.546; -282.000; -571.000; -466.000
396.674; -280.300; -850.000; -878.000
396.803;  -53.600;  -72.000;  -23.000
396.931;  -66.300; -179.000; -199.000
397.059; -371.800;-1026.000; -989.000
397.187; -276.600;-1026.000; -975.000
397.315; -282.300; -884.000; -649.000
397.443; -198.300; -592.000; -443.000
397.572; -206.600; -578.000; -424.000
397.700; -208.600; -607.000; -614.000
397.828;  -57.100;  120.000;  -90.000
397.956; -186.100; -508.000; -478.000
398.084; -257.900; -767.000; -626.000
398.212;   -1.100;  137.000;  124.000
398.340;  -15.500;  -56.000;  159.000
398.468;  -97.000; -390.000; -169.000
398.596; -301.600; -993.000; -953.000
398.724; -268.400; -762.000; -767.000
398.852; -341.800;-1024.000; -976.000
398.980; -182.300; -560.000; -560.000
399.108; -257.500; -982.000; -735.000
399.236;  -28.000;   13.000;    8.000
399.363;   -4.400;  222.000;  196.000
399.491; -153.300; -404.000; -398.000
399.619; -275.700; -829.000; -800.000
399.747; -284.000; -859.000; -771.000
399.875;   31.800;  220.000;  234.000
400.003; -126.300; -359.000; -284.000
400.130; -171.300; -421.000; -341.000
400.258;   -9.000;  -83.000;   38.000
400.386; -133.500; -352.000; -168.000
400.514; -160.000; -526.000; -587.000
400.641; -300.100; -928.000; -802.000
400.769; -299.200; -979.000; -888.000
400.897; -266.800; -838.000; -793.000
401.025;  -58.500; -166.000; -152.000
401.152;   17.100;  220.000;   38.000
401.280; -173.200; -430.000; -429.000
401.408; -255.600; -712.000; -576.000
401.535; -237.200; -735.000; -758.000
401.663; -394.700;-1134.000;-1054.000
401.790; -168.200; -514.000; -525.000
401.918;   53.000;  436.000;  405.000
402.046;   -9.900;  134.000;  122.000
402.173;  -69.600;  -18.000;    7.000
402.301; -152.500; -519.000; -397.000
402.428;   60.200;  528.000;  383.000
402.556; -348.100;-1188.000; -913.000
402.683;  -52.200;  -20.000;   -1.000
402.811;  -44.700;  -37.000; -206.000
402.938;  -13.600;   20.000;   27.000
403.066; -201.500; -574.000; -558.000
403.193;  -42.500;  299.000;  239.000
403.321; -156.800; -396.000; -574.000
403.448;  -30.800;   83.000;   27.000
403.575;  -22.400;  -90.000;  -46.000
403.703; -285.700; -732.000; -557.000
403.830; -152.700; -531.000; -496.000
403.957; -319.800;-1117.000;-1023.000
404.085;  -87.300;  -61.000; -172.000
404.212;  -26.200;  -50.000;   63.000
404.339; -146.400; -566.000; -306.000
404.467; -178.400; -612.000; -524.000
404.594; -126.100; -287.000; -227.000
404.721; -246.500; -869.000; -764.000
404.848;  -50.700; -113.000; -202.000
404.976; -329.500; -856.000; -783.000
405.103;  -33.400;  -14.000;  -82.000
405.230;   -3.600;  190.000;  226.000
405.357;  -40.600;  117.000;   44.000
405.484;  -54.200;  -49.000;    5.000
405.612; -185.800; -548.000; -563.000
405.739; -182.800; -488.000; -243.000
405.866;  137.200;  669.000;  385.000
405.993;  -96.700; -398.000; -102.000
406.120; -285.100; -801.000; -887.000
406.247; -160.200; -323.000; -342.000
406.374;  131.200;  540.000;  629.000
406.501; -240.000; -632.000; -702.000
406.628; -170.200; -621.000; -589.000
406.755; -256.100; -803.000; -620.000
406.882;  -94.300; -228.000; -277.000
407.009; -251.800; -719.000; -628.000
407.136; -113.700; -480.000; -401.000
407.263; -314.800; -939.000; -829.000
407.390; -227.800; -692.000; -614.000
407.517; -387.000;-1139.000;-1187.000
407.644; -152.600; -332.000; -256.000
407.771; -167.500; -249.000; -287.000
407.898;   -0.200;  168.000;  328.000
408.025; -203.000; -421.000; -313.000
408.151;  -32.400;   82.000;  153.000
408.278; -117.100; -267.000; -216.000
408.405; -267.700; -931.000; -899.000
408.532; -221.500; -549.000; -542.000
408.659; -262.700; -677.000; -648.000
408.785; -382.400;-1298.000;-1170.000
408.912; -122.000; -412.000; -296.000
409.039; -233.300; -610.000; -686.000
409.166; -174.800; -591.000; -555.000
409.292; -196.600; -571.000; -534.000
409.419; -229.500; -665.000; -649.000
409.546; -154.600; -431.000; -192.000
409.672; -208.800; -713.000; -545.000
409.799;  -77.700;  -36.000;   34.000
409.926;  -69.500; -180.000; -179.000
410.052; -371.000;-1127.000;-1091.000
410.179; -156.300; -368.000; -392.000
410.305; -140.000; -375.000; -493.000
410.432; -111.900; -220.000; -333.000
410.558; -193.000; -305.000; -380.000
410.685; -177.900; -688.000; -431.000
410.812; -194.100; -409.000; -588.000
410.938; -293.000; -964.000; -808.000
411.065; -228.400; -671.000; -645.000
411.191;  -90.800; -189.000; -174.000
411.317; -291.000; -823.000; -742.000
411.444; -108.500; -317.000; -246.000
411.570; -135.000; -339.000; -294.000
411.697; -252.000; -758.000; -752.000
411.823; -339.900; -989.000; -999.000
411.949;  -61.900;  -56.000;   17.000
412.076; -208.500; -539.000; -519.000
412.202; -252.100; -758.000; -757.000
412.329; -277.500; -798.000; -752.000
412.455; -252.900; -821.000; -657.000
412.581;  -58.900;  -15.000;  172.000
412.707; -185.000; -540.000; -457.000
412.834;  -20.300;  156.000;  219.000
412.960; -245.500; -785.000; -784.000
413.086; -243.800; -743.000; -701.000
413.212;  110.600;  604.000;  578.000
413.339; -248.400; -685.000; -701.000
413.465; -166.400; -364.000; -310.000
413.591; -279.500; -757.000; -474.000
413.717; -111.900; -358.000; -366.000
413.843; -295.400; -839.000; -861.000
413.969; -143.800;  -47.000; -292.000
414.096; -269.900; -679.000; -679.000
414.222;  -46.400;  -33.000;   85.000
414.348; -219.300; -652.000; -385.000
414.474;  -67.500;   38.000;  -52.000
414.600;  -58.500; -126.000; -144.000
414.726;  -38.000;  -96.000;  -55.000
414.852; -167.600; -365.000; -342.000
414.978;  -33.500;  104.000;  -18.000
415.104;  -38.700;   38.000;   80.000
415.230; -128.300; -329.000; -330.000
415.356; -224.700; -409.000; -514.000
415.482;  -68.600;   13.000;  -35.000
415.608; -103.500; -247.000; -323.000
415.734;  -21.900;   67.000;   38.000
415.860; -290.700; -875.000; -767.000
415.986; -206.800; -685.000; -607.000
416.111; -260.000; -798.000; -652.000
416.237; -197.700; -424.000; -571.000
416.363; -294.000; -765.000; -733.000
416.489; -119.400; -324.000; -251.000
416.615; -265.700; -707.000; -742.000
416.741; -217.600; -677.000; -784.000
416.866; -250.500; -673.000; -736.000
416.992; -302.300; -801.000; -818.000
417.118; -105.000;  -41.000;  -80.000
417.244; -235.500; -798.000; -531.000
417.369; -303.200; -801.000; -612.000
417.495; -133.600; -325.000; -254.000
417.621; -326.200;-1015.000; -803.000
417.746; -175.300; -579.000; -572.000
417.872;  -68.600; -254.000; -144.000
417.998; -171.600; -515.000; -530.000
418.123; -335.300;-1073.000; -845.000
418.249; -209.200; -512.000; -601.000
418.374; -317.300; -916.000; -824.000
418.500; -152.100; -383.000; -482.000
418.626;  -31.600;   70.000;  -59.000
418.751; -168.000; -549.000; -448.000
418.877; -282.000; -637.000; -643.000
419.002; -168.100; -688.000; -560.000
419.128; -286.700; -930.000; -721.000
419.253; -276.500; -967.000; -837.000
419.379; -205.300; -391.000; -338.000
419.504;   81.900;  325.000;  415.000
419.629; -122.200; -393.000; -212.000
419.755;  -96.900; -317.000; -254.000
419.880; -113.900;  -98.000;   67.000
420.006; -107.100; -280.000; -221.000
420.131; -248.400; -662.000; -775.000
420.256; -129.500; -315.000; -316.000
420.382; -228.800; -665.000; -687.000
420.507; -247.000; -649.000; -778.000
420.632; -155.300; -337.000; -339.000
420.758; -120.100; -251.000; -425.000
420.883; -273.700; -876.000; -672.000
421.008; -249.100; -775.000; -619.000
421.133; -214.600; -509.000; -467.000
421.259;  -82.300; -325.000; -259.000
421.384; -291.100; -834.000; -693.000
421.509; -276.800;-1052.000; -862.000
421.634; -325.000; -936.000; -820.000
421.759; -140.400; -359.000; -327.000
421.885; -229.400; -717.000; -656.000
422.010; -181.800; -673.000; -542.000
422.135; -295.100; -695.000; -727.000
422.260;   47.500;  340.000;  280.000
422.385;  -64.400;   12.000;  -98.000
422.510;   28.500;  151.000;  -26.000
422.635;  -45.100;  -87.000;  -43.000
422.760; -229.600; -766.000; -791.000
422.885;  -31.200;  -57.000;  -80.000
423.010;  -97.700; -112.000; -169.000
423.135; -189.600; -481.000; -561.000
423.260; -113.300; -150.000; -245.000
423.385;   25.700;  476.000;  222.000
423.510;    9.200;   71.000;  -22.000
423.635;  -48.600;  133.000;   45.000
423.760;   54.500;  383.000;  328.000
423.885;   47.600;  336.000;  391.000
424.010;  -65.700;  -68.000;  -13.000
424.135;  -58.500;    5.000;  -33.000
424.259; -183.700; -654.000; -457.000
424.384; -179.400; -279.000; -272.000
424.509;  -87.000; -260.000; -186.000
424.634; -271.300; -761.000; -623.000
424.759; -222.900; -688.000; -544.000
424.883; -185.200; -506.000; -527.000
425.008; -187.400; -502.000; -410.000
425.133; -266.500; -679.000; -653.000
425.258; -182.300; -517.000; -381.000
425.382; -278.900; -867.000; -774.000
425.507; -174.900; -487.000; -543.000
425.632; -292.400; -802.000; -663.000
425.756; -128.700; -256.000; -146.000
425.881; -275.500; -831.000; -857.000
426.006; -140.800; -604.000; -355.000
426.130; -239.900; -696.000; -508.000
426.255; -198.300; -611.000; -491.000
426.379;  -89.800; -189.000; -577.000
426.504;  129.500;  660.000;  544.000
426.629; -235.900; -519.000; -466.000
426.753;  -42.200;   64.000;  -46.000
426.878; -120.100; -252.000; -288.000
427.002; -205.400; -651.000; -668.000
427.127; -135.200;  -35.000; -158.000
427.251;   86.200;  372.000;  401.000
427.375; -158.700; -191.000; -173.000
427.500; -203.000; -616.000; -610.000
427.624; -135.700; -234.000; -400.000
427.749;  -94.000; -216.000; -225.000
427.873; -213.500; -499.000; -412.000
427.997;  -75.400; -222.000; -230.000
428.122;  108.000;  795.000;  703.000
428.246;   81.300;  433.000;  434.000
428.371; -305.000; -869.000; -773.000
428.495; -243.300; -624.000; -646.000
428.619; -129.900; -186.000; -117.000
428.743;   23.300;   65.000;  132.000
428.868; -278.700; -732.000; -643.000
428.992; -145.700; -219.000; -326.000
429.116; -184.900; -329.000; -357.000
429.240;    4.900;  419.000;  426.000
429.365; -155.100; -454.000; -574.000
429.489; -227.700; -638.000; -647.000
429.613;  -87.500; -236.000; -177.000
429.737; -200.000; -563.000; -432.000
429.861; -168.700; -247.000; -133.000
429.985; -172.200; -425.000; -305.000
430.109; -300.000; -770.000; -908.000
430.234;  -21.300;   76.000;  -50.000
430.358; -160.400; -250.000; -160.000
430.482; -257.200; -672.000; -564.000
430.606; -204.800; -655.000; -375.000
430.730; -187.800; -437.000; -388.000
430.854; -323.300; -909.000; -835.000
430.978; -267.500; -795.000; -764.000
431.102; -219.300; -499.000; -422.000
431.226; -258.000; -874.000; -815.000
431.350;   35.100;  345.000;  422.000
431.474; -197.400; -661.000; -373.000
431.597; -338.300;-1060.000; -848.000
431.721; -116.500; -276.000; -267.000
431.845; -252.300; -704.000; -472.000
431.969; -138.300; -304.000; -349.000
432.093; -162.100; -395.000; -317.000
432.217;  -21.900;   32.000;   82.000
432.341; -216.700; -523.000; -518.000
432.464;  -69.800;   96.000;   40.000
432.588; -194.500; -401.000; -329.000
432.712;  -51.400;  -52.000;  -52.000
432.836;   27.100;  213.000;  263.000
432.959; -120.700; -372.000; -311.000
433.083;  -49.900;   11.000;    2.000
433.207;   83.900;  285.000;  930.000
433.330; -123.800; -391.000; -200.000
433.454; -228.100; -654.000; -638.000
433.578;   77.200;  583.000;  278.000
433.701; -239.200; -623.000; -675.000
433.825; -189.600; -292.000; -299.000
433.949;  -47.800;   28.000;  -72.000
434.072; -165.900; -410.000; -323.000
434.196; -129.200; -309.000; -117.000
434.319; 7745.800;25482.000;25124.000
434.443; -245.900; -656.000; -603.000
434.566;  -18.800;  281.000;   62.000
434.690; -188.300; -637.000; -383.000
434.813; -150.700; -251.000; -173.000
434.937; -224.100; -569.000; -696.000
435.060; -176.500; -423.000; -332.000
435.184; -143.800; -492.000; -217.000
435.307;  -53.300;  159.000;  102.000
435.431;  -31.400;  -40.000;   24.000
435.554; -146.600; -399.000; -240.000
435.677; -136.100; -350.000; -258.000
435.801;  -68.200;  -25.000;   49.000
435.924;  -68.700;    1.000;  -67.000
436.048; -320.000;-1019.000; -732.000
436.171; -143.700; -240.000;  -66.000
436.294; -130.800; -248.000; -229.000
436.417; -320.500; -963.000; -849.000
436.541; -321.000; -814.000; -840.000
436.664;  -67.300; -242.000; -316.000
436.787;  -20.600;   13.000;  113.000
436.910; -229.700; -792.000; -422.000
437.034;  -15.700;  142.000;  143.000
437.157;  -28.300;  -11.000;    0.000
437.280; -211.300; -392.000; -292.000
437.403; -312.200; -982.000; -869.000
437.526; -331.300; -903.000; -865.000
437.649; -166.600; -505.000; -332.000
437.772; -286.300; -692.000; -540.000
437.896;  121.200;  700.000;  544.000
438.019; -257.500; -758.000; -503.000
438.142; -194.600; -596.000; -506.000
438.265; -281.500; -639.000; -670.000
438.388; -165.100; -520.000; -410.000
438.511; -224.500; -597.000; -394.000
438.634; -124.800; -247.000; -125.000
438.757; -300.000; -693.000; -619.000
438.880;  -62.400;  -34.000;  -57.000
439.003; -221.400; -417.000; -437.000
439.126; -106.800; -287.000; -167.000
439.248; -126.600;  -98.000; -139.000
439.371;  -33.000;    9.000;  -53.000
439.494;  100.200;  510.000;  439.000
439.617;  -42.000;   65.000;  -88.000
439.740; -319.300; -968.000; -816.000
439.863; -247.600; -755.000; -595.000
439.986; -228.100; -476.000; -431.000
440.108; -118.000; -161.000; -112.000
440.231; -340.100; -950.000; -836.000
440.354; -108.200;  -64.000; -150.000
440.477; -238.000; -566.000; -542.000
440.599; -186.200; -200.000; -225.000
440.722; -229.200; -709.000; -586.000
440.845;  182.800;  751.000;  928.000
440.968; -151.000; -415.000; -311.000
441.090; -107.500; -199.000;  -33.000
441.213; -340.600;-1021.000; -825.000
441.336;  -55.200; -159.000;   -5.000
441.458; -180.600; -549.000; -396.000
441.581; -253.400; -628.000; -629.000
441.703; -109.500; -152.000;   13.000
441.826; -202.500; -557.000; -400.000
441.948;  -42.700;   56.000;   51.000
442.071;  135.100;  555.000;  424.000
442.193; -196.900; -531.000; -485.000
442.316;  -32.700;  152.000;   97.000
442.438; -131.600; -233.000;  -10.000
442.561;   32.500;  272.000;  262.000
442.683; -258.000; -809.000; -522.000
442.806;  -76.000;   -8.000;   74.000
442.928; -300.000; -859.000; -604.000
443.051; -206.200; -577.000; -373.000
443.173; -195.500; -341.000; -339.000
443.295; -163.200; -263.000; -371.000
443.418; -138.500; -321.000;  -29.000
443.540;  -54.500; -106.000;   -4.000
443.662; -269.700; -563.000; -465.000
443.785;   -0.600;  335.000;  199.000
443.907; -176.500; -362.000; -208.000
444.029; -247.100; -767.000; -494.000
444.152; -281.200; -644.000; -554.000
444.274;  -64.100;  -18.000;  -24.000
444.396; -222.600; -461.000; -221.000
444.518; -237.200; -691.000; -454.000
444.640; -169.600; -268.000; -111.000
444.763;    8.100;  388.000;  249.000
444.885; -229.500; -432.000; -392.000
445.007;  -50.900;   35.000;   86.000
445.129; -213.200; -610.000; -515.000
445.251; -165.300; -372.000; -439.000
445.373; -276.200; -537.000; -386.000
445.495;   18.100;  242.000;  350.000
445.617;  148.400;  853.000;  753.000
445.739; -102.100; -215.000;  -97.000
445.861; -121.600; -245.000; -112.000
445.984; -138.300; -267.000; -101.000
446.105; -150.600; -418.000; -251.000
446.227;  -79.700; -176.000;  -19.000
446.349; -207.200; -358.000; -249.000
446.471; -219.800; -615.000; -448.000
446.593; -176.100; -316.000;   19.000
446.715;  -53.300;  -67.000;   41.000
446.837;  148.500;  697.000;  832.000
446.959; -192.100; -457.000; -478.000
447.081; -266.200; -628.000; -518.000
447.203;  163.500;  862.000;  834.000
447.325; -124.800; -270.000;   42.000
447.446;   39.800;  286.000;  530.000
447.568; -352.200; -921.000; -803.000
447.690; -166.800; -236.000; -245.000
447.812; -290.800; -798.000; -519.000
447.933;  -45.700;  155.000;  127.000
448.055; -161.800; -306.000; -261.000
448.177;  -32.400;   31.000;   79.000
448.299; -370.400; -935.000; -727.000
448.420;  -11.400;  -25.000;  159.000
448.542;  -78.200;   -3.000;   33.000
448.664;    2.000;  109.000;  322.000
448.785;  -65.400;  265.000;   83.000
448.907; -196.000; -614.000; -353.000
449.028; -284.000; -771.000; -471.000
449.150;  103.500;  492.000;  589.000
449.272; -361.500;-1044.000; -913.000
449.393;  123.400;  612.000;  694.000
449.515; -270.400; -634.000; -581.000
449.636; -101.700; -264.000; -155.000
449.758;  118.200;  763.000;  622.000
449.879; -195.100; -498.000; -396.000
450.001; -174.200; -149.000;  -49.000
450.122;  -32.700;  -95.000;  162.000
450.244;  -35.200;   37.000;  364.000
450.365; -182.300; -495.000; -301.000
450.486;  -57.500;   80.000;  268.000
450.608;   -5.600;  393.000;  326.000
450.729;   54.700;  578.000;  645.000
450.850; -218.900; -574.000; -466.000
450.972; -290.800; -552.000; -389.000
451.093;   20.500;  190.000;  588.000
451.214; -201.300; -516.000; -337.000
451.336;   86.700;  773.000;  579.000
451.457;  -13.300;  264.000;  393.000
451.578;  -82.700; -118.000;  -74.000
451.699; -214.900; -546.000; -540.000
451.821; -139.000; -284.000;  -50.000
451.942;    2.600;  278.000;  285.000
452.063;    2.700;  228.000;  419.000
452.184; -108.000;  -54.000;  -49.000
452.305;   -2.900;  103.000;  170.000
452.427; -214.900; -549.000; -301.000
452.548;  -85.000;   23.000;   79.000
452.669; -143.400; -257.000;  -89.000
452.790; -112.200;    3.000;  -18.000
452.911;  -41.800;  195.000;  259.000
453.032; -107.800; -289.000;  -60.000
453.153; -107.300;  -29.000;   81.000
453.274;  127.900;  737.000;  868.000
453.395; -103.300;  -51.000;  175.000
453.516;  279.700; 1317.000; 1388.000
453.637; -193.500; -205.000; -150.000
453.758; -101.500;   15.000;   69.000
453.879; -195.900; -462.000; -250.000
454.000;  195.400; 1086.000;  948.000
454.121; -223.100; -554.000; -326.000
454.242; -228.100; -599.000; -383.000
454.362;  -98.900;  -99.000;  114.000
454.483; -150.600; -309.000; -229.000
454.604;   38.200;  512.000;  580.000
454.725; -254.300; -627.000; -555.000
454.846; -220.900; -474.000; -406.000
454.967;   -3.000;  230.000;  539.000
455.087;  -47.100;  179.000;  153.000
455.208;   94.100;  554.000;  856.000
455.329; -105.600;  -22.000;   82.000
455.450;   42.200;  473.000;  633.000
455.570; -164.300; -234.000; -211.000
455.691;  -36.500;  201.000;  407.000
455.812; -179.400; -270.000;  -92.000
455.932; -102.400;  107.000;  -97.000
456.053; -141.800;   36.000;   24.000
456.173; -162.900; -433.000; -355.000
456.294; -240.300; -476.000; -303.000
456.415;  -91.500;  -73.000;   70.000
456.535;  -53.700;  297.000;  273.000
456.656;  -18.400;  132.000;  240.000
456.776;  -93.700;    3.000;  298.000
456.897;   22.300;  308.000;  513.000
457.017; -123.200; -153.000;   -3.000
457.138; -213.200; -402.000; -249.000
457.258;  -22.200;  263.000;  224.000
457.379;   12.900;  509.000;  521.000
457.499;   13.800;  443.000;  432.000
457.620; -191.900; -407.000; -231.000
457.740; -169.900; -132.000;  -11.000
457.860;  -48.500;   87.000;   44.000
457.981; -108.700;  132.000;  124.000
458.101; -162.800;  -89.000;   40.000
458.221;    4.700;  336.000;  402.000
458.342;  -53.800;   -4.000;  -37.000
458.462;   67.100;  617.000;  352.000
458.582; -212.800; -302.000; -294.000
458.703;  -84.800;  303.000;  154.000
458.823; -107.400;   22.000;  163.000
458.943;  -35.000;  341.000;  467.000
459.063; -106.400; 1124.000;  192.000
459.183;  -25.300;  328.000;  313.000
459.304;   15.200;  315.000;  517.000
459.424; -164.100; -246.000;  -89.000
459.544;   65.100;  388.000;  764.000
459.664;   38.300;  499.000;  506.000
459.784;  179.800; 1004.000; 1175.000
459.904;   93.400;  867.000;  744.000
460.024;  134.800;  867.000;  684.000
460.144;   14.100;  449.000;  554.000
460.264;   33.200;  515.000;  327.000
460.385; -190.100; -145.000; -119.000
460.505;  159.600;  905.000;  858.000
460.625; -153.900;  -17.000;  -68.000
460.745;   22.200;  396.000;  541.000
460.864;  -97.900;  153.000;  469.000
460.984;   13.400;  499.000;  573.000
461.104;  303.200; 1656.000; 1775.000
461.224;   64.800;  657.000;  650.000
461.344;  -15.100;  431.000;  360.000
461.464;  -46.200;  258.000;  513.000
461.584;  -27.700;  283.000;  466.000
461.704; -108.300;   58.000;  108.000
461.824;  -97.800;  238.000;  259.000
461.943;  -52.500;  191.000;  130.000
462.063; -128.000;    2.000;  324.000
462.183;  128.500;  639.000;  717.000
462.303;  260.400; 1678.000; 1230.000
462.422;   65.600;  781.000;  840.000
462.542;  -67.200;  271.000;  391.000
462.662;  -24.800;  353.000;  380.000
462.782;   25.000;  833.000;  572.000
462.901;   35.900;  545.000;  717.000
463.021;  320.400; 1702.000; 1638.000
463.141;    1.600;  337.000;  770.000
463.260;  -25.000;  614.000;  474.000
463.380;  103.600;  902.000;  884.000
463.499;  -45.400;  342.000;  332.000
463.619;  -40.000;  581.000;  559.000
463.738;  292.300; 1644.000;  903.000
463.858;   83.000;  657.000;  811.000
463.978;  -34.600;  542.000;  396.000
464.097;  130.300;  921.000; 1114.000
464.217;  138.600; 1196.000; 1143.000
464.336;  190.500; 1068.000; 1130.000
464.455;  -42.500;  328.000;  659.000
464.575;   23.300;  597.000;  602.000
464.694;  179.400; 1204.000; 1179.000
464.814;  120.200; 1190.000; 1138.000
464.933;  109.400; 1095.000; 1027.000
465.052;  192.300; 1412.000; 1054.000
465.172;   72.600;  922.000;  799.000
465.291;  245.500; 1376.000; 1320.000
465.410;   46.300;  462.000;  735.000
465.530;  222.600; 1355.000; 1310.000
465.649;  142.900; 1209.000; 1273.000
465.768;  297.100; 1673.000; 1508.000
465.888;  134.000;  941.000; 1174.000
466.007;  254.100; 1335.000; 1440.000
466.126;   31.700;  721.000;  641.000
466.245;  141.700; 1176.000; 1187.000
466.364;   68.000;  950.000; 1060.000
466.484;  125.500; 1024.000; 1213.000
466.603;  118.900; 1101.000; 1222.000
466.722;  263.100; 1490.000; 1769.000
466.841;  194.100; 1151.000; 1401.000
466.960;  143.600; 1069.000;  972.000
467.079;  324.700; 1971.000; 1786.000
467.198;  122.600; 1238.000; 1181.000
467.317;  225.800; 1768.000; 1162.000
467.436;  215.600; 1709.000; 1261.000
467.555;  313.800; 1796.000; 1746.000
467.674;  193.600; 1227.000; 1329.000
467.793;  116.900; 1376.000; 1374.000
467.912;  209.200; 1658.000; 1539.000
468.031;  291.300; 2038.000; 1930.000
468.150;  296.100; 1842.000; 1837.000
468.269;  425.700; 2313.000; 2090.000
468.388;  425.500; 2168.000; 2339.000
468.507;  626.300; 2884.000; 2903.000
468.626;  615.900; 2555.000; 2541.000
468.744;  322.700; 2018.000; 2174.000
468.863;  440.600; 2312.000; 2523.000
468.982;  250.200; 1503.000; 1555.000
469.101;  541.500; 2788.000; 2692.000
469.220;  361.700; 2333.000; 2176.000
469.338;  535.600; 2935.000; 3051.000
469.457;  399.500; 2719.000; 2545.000
469.576;  719.800; 3953.000; 3784.000
469.695;  522.100; 2877.000; 3066.000
469.813;  905.400; 4148.000; 4192.000
469.932;  805.900; 4255.000; 4485.000
470.051;  777.600; 4075.000; 4161.000
470.169;  860.100; 4470.000; 4338.000
470.288;  937.300; 4700.000; 4809.000
470.406; 1010.200; 5059.000; 5194.000
470.525; 1199.700; 6101.000; 5787.000
470.644; 1372.000; 6847.000; 6794.000
470.762; 1683.500; 8397.000; 7873.000
470.881; 1794.000; 8651.000; 8464.000
470.999; 1985.900; 9685.000; 9151.000
471.118; 2191.100;11174.000;10711.000

