
Integration time [ms]: 100.000
Averaging Nr. [scans]: 40
Smoothing Nr. [pixels]: 0
Data measured with spectrometer [name]: 2101012U2
Wave   ;Sample   ;Dark     ;Reference
[nm]   ;[counts] ;[counts] ;[counts] 

197.733;   52.925;  516.000;  404.000
197.879;  -82.550; -610.000; -634.000
198.025;  -35.050; -475.000; -420.000
198.171;  -70.800; -602.000; -612.000
198.317;  -25.300; -401.000; -316.000
198.463;  -47.800; -655.000; -404.000
198.609;   33.900;  181.000; -137.000
198.755;  -84.250; -644.000; -410.000
198.901;  -60.250; -505.000; -424.000
199.047;  -66.800; -615.000; -488.000
199.193;  -37.575; -230.000; -468.000
199.339;  -35.125; -222.000; -369.000
199.485;   38.100;  330.000;  271.000
199.631;   21.050;  227.000;  310.000
199.777;  -38.650; -466.000; -398.000
199.923;  -63.950; -610.000; -424.000
200.069;   -4.875; -141.000;  -58.000
200.215;   48.100;  128.000;  453.000
200.361;   48.675;  243.000;  477.000
200.507;  -64.475; -600.000; -373.000
200.653;  -18.375; -371.000; -194.000
200.798;  -35.400; -215.000; -125.000
200.944;    2.525; -146.000;  -41.000
201.090;   24.850;   61.000;  222.000
201.236;  -10.225; -116.000; -158.000
201.382;  145.275;  874.000;  903.000
201.528;  -15.250;  -58.000;  -48.000
201.674;  -49.200; -386.000; -293.000
201.819;  -69.700; -540.000; -439.000
201.965;  -82.250; -699.000; -447.000
202.111;  -27.750; -273.000; -226.000
202.257;  -48.550; -250.000; -238.000
202.402;   -2.175;   13.000;  -36.000
202.548;  -25.525; -169.000; -116.000
202.694;   94.450;  410.000; -183.000
202.840;  -73.475; -603.000; -531.000
202.985;  -61.925; -681.000; -639.000
203.131; -113.300; -832.000; -666.000
203.277;  -31.825; -199.000; -262.000
203.423;  -45.850; -434.000; -520.000
203.568;  -46.825; -462.000; -237.000
203.714;  -59.050; -535.000; -542.000
203.860;  -86.275; -682.000; -641.000
204.005;    9.075;  112.000;  167.000
204.151;   79.600;  561.000;  556.000
204.296;  -52.525; -354.000; -221.000
204.442;  -67.675; -600.000; -547.000
204.588;  -70.100; -592.000; -579.000
204.733;   27.150;  178.000;  168.000
204.879; -120.675;-1018.000; -822.000
205.025;   -2.675;  -99.000;  126.000
205.170;    2.600;  -17.000;   94.000
205.316;   87.450;  438.000;  661.000
205.461;  -90.850; -698.000; -554.000
205.607;   81.025;  609.000;  665.000
205.752;  -76.425; -626.000; -551.000
205.898;  -44.700; -501.000; -391.000
206.043;  -66.900; -578.000; -506.000
206.189;  -44.250; -243.000; -285.000
206.334;   75.550;  554.000;  606.000
206.480;   84.800;  409.000;  239.000
206.625;  -85.475; -529.000; -552.000
206.771;  -46.675; -451.000; -373.000
206.916;  -35.625; -210.000; -537.000
207.062;  -76.125; -545.000; -591.000
207.207;  -66.950; -546.000; -443.000
207.353;   50.200;  185.000;  460.000
207.498;    7.650;  196.000;   85.000
207.643;  -50.650; -501.000; -370.000
207.789; -125.650;-1069.000; -910.000
207.934;  -82.125; -665.000; -713.000
208.080;  -38.450; -154.000;   66.000
208.225;   -9.075;  -22.000;  -57.000
208.370;  -85.400; -727.000; -619.000
208.516;  -64.875; -741.000; -487.000
208.661;  -30.825; -127.000;  -69.000
208.806;  -26.725; -165.000; -171.000
208.952; -132.325;-1044.000; -731.000
209.097;   68.650;  378.000;  349.000
209.242;  -41.375; -307.000; -382.000
209.387;   76.175;  392.000;  350.000
209.533;  -63.650; -321.000; -350.000
209.678;   97.250;  472.000;  543.000
209.823;  -49.825; -408.000; -310.000
209.969; -104.625; -860.000; -757.000
210.114; -103.975; -907.000; -719.000
210.259; -123.650; -939.000; -889.000
210.404;  -15.125; -171.000;  103.000
210.549;    7.825;  108.000;    3.000
210.695;  -17.775;   -3.000;  -95.000
210.840;   34.450;   94.000;   67.000
210.985;  -72.700; -484.000; -303.000
211.130;   69.775;  268.000;  406.000
211.275;    4.800;  207.000;  199.000
211.420;  -41.325; -300.000; -289.000
211.566;  -80.275; -536.000; -489.000
211.711;   25.075;  218.000;  157.000
211.856;  -75.100; -545.000; -519.000
212.001;    7.725;  151.000;   44.000
212.146;   17.950;  153.000;   49.000
212.291;  -14.525; -210.000; -186.000
212.436;  -35.600; -280.000;   -6.000
212.581;  -89.450; -685.000; -653.000
212.726;  -79.000; -487.000; -538.000
212.871;  -49.175; -552.000; -217.000
213.016; -151.900;-1172.000;-1029.000
213.161;   72.575;  406.000;  291.000
213.306;  -81.625; -435.000; -577.000
213.451;  -95.175; -778.000; -689.000
213.596;  -45.250; -455.000; -347.000
213.741;  -63.700; -448.000; -538.000
213.886;  -85.425; -498.000; -517.000
214.031;  -18.725; -294.000; -124.000
214.176;  -43.375; -408.000; -341.000
214.321;  -13.750; -296.000; -157.000
214.466;  -26.550; -163.000;  -43.000
214.611;   -2.475;  -61.000;  -10.000
214.756; -113.950; -948.000; -858.000
214.901;  -20.175; -388.000; -226.000
215.046; -119.725; -797.000; -825.000
215.191;   13.350;  128.000;   35.000
215.336;  -14.075; -157.000;  -19.000
215.480;  -62.775; -684.000; -505.000
215.625;  -19.625; -175.000;  -19.000
215.770;  -83.300; -757.000; -662.000
215.915;  -11.225;   -5.000;  -97.000
216.060;    5.225; -113.000;  -21.000
216.205; -113.600; -731.000; -779.000
216.349;  -70.025; -470.000; -533.000
216.494; -141.500; -939.000; -867.000
216.639; -117.525; -823.000; -888.000
216.784;  -84.575; -577.000; -525.000
216.929;   55.425;  392.000;  281.000
217.073;   -5.400; -244.000;  -31.000
217.218;    1.525;   78.000;  -47.000
217.363;  -87.275; -656.000; -618.000
217.507;  -70.075; -623.000; -588.000
217.652; -137.875; -845.000; -874.000
217.797;  -84.500; -708.000; -659.000
217.942; -108.050; -856.000; -720.000
218.086;   65.125;  608.000;  539.000
218.231;  -29.250; -174.000;  -26.000
218.376;  -28.150; -337.000; -229.000
218.520;    0.850;  -41.000;   96.000
218.665;  -28.750; -338.000; -204.000
218.810;  -48.525; -275.000; -233.000
218.954;   12.725;  201.000;   35.000
219.099; -109.650; -713.000; -963.000
219.243;  -81.200; -589.000; -554.000
219.388;  -50.700; -264.000; -136.000
219.532;  -16.450; -116.000; -116.000
219.677;  -74.375; -564.000; -521.000
219.822;    7.525;   33.000;   89.000
219.966;   10.600;   17.000;  -99.000
220.111;  -42.925; -328.000;  -40.000
220.255;  -93.325; -797.000; -750.000
220.400;  -24.400; -180.000; -146.000
220.544;  -65.750; -516.000; -450.000
220.689;  -48.475; -422.000; -451.000
220.833;  -19.850; -123.000;  -58.000
220.978;  -41.575; -393.000; -563.000
221.122;   24.975;  319.000;  307.000
221.267; -115.450; -906.000; -837.000
221.411;  -64.600; -478.000; -394.000
221.555;   -2.550; -104.000;  -23.000
221.700;  -55.875; -329.000; -222.000
221.844;   35.800;  255.000;  272.000
221.989;  -46.325; -328.000; -311.000
222.133;  -35.025; -289.000; -307.000
222.277;  -21.300;    5.000;   78.000
222.422;   21.525;  227.000;  113.000
222.566;  -45.275; -381.000; -214.000
222.711;  -58.050; -414.000; -479.000
222.855;  -76.525; -643.000; -586.000
222.999;  -72.225; -642.000; -717.000
223.144;  -25.250; -195.000; -194.000
223.288;   42.500;  423.000;  251.000
223.432;   33.450;  184.000;  230.000
223.576;   20.400;  152.000;  -21.000
223.721;   39.975;  364.000;  273.000
223.865;  -45.650; -472.000; -475.000
224.009;  260.700; 1673.000; 1631.000
224.153;  -76.975; -660.000; -671.000
224.298;  -69.050; -531.000; -489.000
224.442;   -9.500;  -74.000;  -33.000
224.586;   -2.975; -169.000; -106.000
224.730;  -98.475; -858.000; -670.000
224.875; -112.375; -739.000; -688.000
225.019;   -0.950;  102.000;  188.000
225.163;   67.125;  208.000;  341.000
225.307;   18.250;   97.000;  -91.000
225.451;   36.650;  360.000;  481.000
225.595;   32.800;  264.000;  176.000
225.739;  -16.850; -170.000;  -94.000
225.884;   -6.800;   86.000;    5.000
226.028;  -95.500; -760.000; -626.000
226.172;  -36.450; -260.000; -273.000
226.316; -111.200; -941.000; -902.000
226.460;  -65.875; -645.000; -493.000
226.604;  -54.325; -406.000; -400.000
226.748;  -88.650; -836.000; -733.000
226.892;  -34.925; -227.000; -181.000
227.036;  -43.650; -537.000; -447.000
227.180;  -50.600; -551.000; -375.000
227.324;  -53.900; -561.000; -580.000
227.468; -110.700; -819.000; -717.000
227.612;   17.350;  242.000;  -28.000
227.756; -107.550; -845.000; -698.000
227.900;   36.775;  342.000;  441.000
228.044;  -52.125; -509.000; -290.000
228.188;   52.475;  448.000;  568.000
228.332;  -76.200; -546.000; -472.000
228.476;  -34.525; -223.000; -149.000
228.620;  -19.800; -210.000; -150.000
228.764;   83.175;  431.000;  349.000
228.908;  -18.350; -155.000;   30.000
229.052;  -57.400; -615.000; -528.000
229.195;  -18.850; -172.000;   13.000
229.339;  -21.050; -235.000; -305.000
229.483;  -34.200;    5.000; -162.000
229.627;   -5.125; -156.000;  139.000
229.771;  -45.025; -218.000; -294.000
229.915;    8.000;  230.000;   79.000
230.059;  -90.400; -648.000; -663.000
230.202;  -50.425; -370.000; -317.000
230.346;  -11.450; -107.000;  107.000
230.490;  -60.075; -489.000; -521.000
230.634; -104.150; -736.000; -553.000
230.777;   75.650;  478.000;  509.000
230.921;  -68.000; -450.000; -359.000
231.065;  -32.275; -246.000; -286.000
231.209;   21.075;  261.000;  265.000
231.352;    6.825;   54.000;   40.000
231.496;   25.925;  568.000;  188.000
231.640;  -90.000; -693.000; -621.000
231.783;   66.725;  546.000;  525.000
231.927;  -51.225; -294.000; -365.000
232.071; -111.775; -962.000; -736.000
232.214; -118.300; -980.000; -764.000
232.358; -103.125; -683.000; -599.000
232.502;    0.900;  -19.000;    7.000
232.645; -137.200;-1090.000; -927.000
232.789;  -16.575; -257.000; -218.000
232.933;  -36.475; -407.000; -224.000
233.076; -122.250;-1038.000; -897.000
233.220; -109.925; -752.000; -777.000
233.363;  -81.750; -669.000; -477.000
233.507;   66.200;  371.000;  129.000
233.650;  -93.125; -764.000; -834.000
233.794;   39.925;  438.000;  461.000
233.938;  -64.350; -530.000; -362.000
234.081;  -23.075;  -93.000;   31.000
234.225;  -72.025; -631.000; -539.000
234.368; -116.975; -773.000; -723.000
234.512;  -54.075; -385.000; -299.000
234.655; -101.800; -582.000; -555.000
234.798;  -66.025; -493.000; -466.000
234.942; -144.000; -884.000;-1002.000
235.085;  -69.200; -651.000; -443.000
235.229;  -75.925; -405.000; -410.000
235.372;  -47.775; -247.000; -191.000
235.516;  -63.950; -397.000; -321.000
235.659;    6.725;   92.000;  121.000
235.802;  -17.900;  -38.000;  -22.000
235.946;   20.700;  335.000;  215.000
236.089;   13.175;  126.000;  250.000
236.233;   50.100;  275.000;  298.000
236.376;  -54.850; -235.000; -378.000
236.519;  -45.375; -297.000; -319.000
236.663;  -36.400; -215.000; -117.000
236.806; -135.400;-1029.000; -999.000
236.949;   60.775;  543.000;  431.000
237.092;   44.950;  412.000;  391.000
237.236;  -91.850; -589.000; -502.000
237.379;   64.150;  352.000;  428.000
237.522; -118.225; -879.000; -768.000
237.666;  -15.800; -271.000;   18.000
237.809; -141.525; -851.000; -823.000
237.952;   31.300;  469.000;  271.000
238.095;  -66.825; -447.000; -442.000
238.238;  103.200;  688.000;  700.000
238.382;    2.700;  166.000;  103.000
238.525;  -59.175; -598.000; -511.000
238.668; -140.350;-1060.000; -985.000
238.811;  -81.600; -638.000; -643.000
238.954;  -58.325; -483.000; -334.000
239.097;   90.650;  617.000;  664.000
239.241;   22.400;  394.000;  326.000
239.384;  -44.350; -254.000; -214.000
239.527;  -57.750; -424.000; -224.000
239.670; -144.800; -994.000;-1091.000
239.813; -104.850; -696.000; -658.000
239.956;   76.700;  579.000;  473.000
240.099; -109.150; -778.000; -725.000
240.242;   57.550;  428.000;  432.000
240.385;   45.050;  466.000;  450.000
240.528;  -61.925; -706.000; -473.000
240.671;    8.425;  189.000;  134.000
240.814;  -40.400; -441.000; -158.000
240.957; -103.225; -767.000; -578.000
241.100;  -92.125; -779.000; -755.000
241.243; -142.975;-1234.000; -893.000
241.386;  -55.825; -508.000; -379.000
241.529;  -84.250; -735.000; -547.000
241.672;  -71.700; -566.000; -495.000
241.815; -121.900; -832.000; -808.000
241.958;  -19.150; -125.000; -182.000
242.101;  -82.550; -545.000; -390.000
242.244;  -49.200; -270.000; -325.000
242.387;  -36.250; -304.000; -246.000
242.530;   54.025;  470.000;  134.000
242.673;  -42.900; -381.000; -309.000
242.815; -120.950; -925.000; -899.000
242.958;  -56.200; -482.000; -381.000
243.101;    8.300;  132.000;  187.000
243.244;  -81.600; -564.000; -521.000
243.387;  -46.300; -313.000; -316.000
243.530;  -96.050; -657.000; -674.000
243.672;    2.025;   43.000;  -92.000
243.815;  -62.775; -355.000; -283.000
243.958;    6.450;   98.000;  -26.000
244.101;   -7.250;   59.000;  -16.000
244.243;   -5.400;  -47.000;  101.000
244.386; -113.925; -761.000; -630.000
244.529;  -25.050; -132.000; -139.000
244.672; -168.025;-1154.000; -951.000
244.814;  -88.525; -621.000; -794.000
244.957;  -36.275; -380.000; -304.000
245.100;  -81.700; -489.000; -489.000
245.242;  -55.950; -387.000; -374.000
245.385;   -6.800;  -59.000;  -39.000
245.528; -127.700; -871.000; -705.000
245.670;   95.175;  612.000;  634.000
245.813;  -86.300; -599.000; -547.000
245.956;  -34.650; -324.000; -275.000
246.098;  -70.075; -508.000; -650.000
246.241;    4.600;  194.000;   48.000
246.383;  -23.550; -119.000;  -73.000
246.526;  -86.800; -454.000; -525.000
246.669; -109.150; -889.000; -780.000
246.811;   -2.775;  172.000;   -1.000
246.954;  -56.675; -512.000; -426.000
247.096;  -20.550;  -84.000;   -6.000
247.239;  -78.275; -482.000; -445.000
247.381;  -69.325; -647.000; -488.000
247.524;   69.275;  645.000;  679.000
247.666;   -1.100;   58.000;   11.000
247.809; -113.325; -887.000; -691.000
247.951;   -0.500;  -75.000;  138.000
248.094;   29.225;  432.000;  308.000
248.236; -156.775;-1262.000;-1238.000
248.378;    5.275; -356.000;  -81.000
248.521;  -28.125; -334.000; -337.000
248.663;  -46.900; -236.000; -267.000
248.806;  -27.225; -300.000; -266.000
248.948;  -93.100; -886.000; -763.000
249.090;  -38.000; -428.000; -398.000
249.233;  -40.600; -344.000; -381.000
249.375;  -53.550; -474.000; -451.000
249.518;  -33.400;  -83.000; -133.000
249.660;   -2.875; -103.000;    3.000
249.802; -158.200;-1303.000;-1189.000
249.945;  -65.575; -612.000; -540.000
250.087; -114.775; -834.000; -768.000
250.229;  -45.800; -362.000; -480.000
250.371;  -70.900; -494.000; -439.000
250.514;  -45.750; -310.000; -244.000
250.656;   -5.275;   69.000;  102.000
250.798; -117.325; -849.000; -800.000
250.940;  -65.050; -322.000; -322.000
251.083;  -28.225; -335.000; -111.000
251.225;   55.975;  338.000;  310.000
251.367;  -45.850; -274.000; -373.000
251.509;  -43.925; -265.000; -210.000
251.651; -100.400; -731.000; -671.000
251.794;   55.475;  538.000;  632.000
251.936; -101.350; -821.000; -747.000
252.078;  -65.575; -540.000; -461.000
252.220;  -74.950; -645.000; -477.000
252.362;   82.075;  344.000;  462.000
252.504;  -51.900; -677.000; -584.000
252.646; -112.450; -875.000; -722.000
252.788;    2.475;   14.000; -128.000
252.931;  -40.800; -257.000; -253.000
253.073;  -40.275; -376.000; -317.000
253.215;   -8.800;  141.000;  122.000
253.357;  -28.800;   82.000; -153.000
253.499;  -49.825; -374.000; -234.000
253.641;  -95.225; -749.000; -594.000
253.783;  -89.575; -609.000; -527.000
253.925;  -88.325; -586.000; -591.000
254.067; -106.300; -744.000; -667.000
254.209;  -21.700; -391.000; -259.000
254.351; -144.150; -865.000; -883.000
254.493;  -73.500; -441.000; -417.000
254.635; -119.800; -936.000; -818.000
254.777;  -81.125; -752.000; -687.000
254.918;  -59.625; -512.000; -430.000
255.060;  -64.525; -551.000; -395.000
255.202;  -63.425; -473.000; -261.000
255.344;  -85.975; -658.000; -455.000
255.486;  -79.875; -471.000; -406.000
255.628; -111.625; -780.000; -781.000
255.770;  -90.250; -676.000; -536.000
255.912;  -64.550; -559.000; -468.000
256.053;  -98.500; -730.000; -508.000
256.195;  140.425; 1008.000;  903.000
256.337;  -83.225; -861.000; -595.000
256.479;   74.300;  532.000;  416.000
256.621;  -60.250; -394.000; -212.000
256.762;  -91.525; -789.000; -742.000
256.904;   59.275;  485.000;  487.000
257.046;  -43.100; -381.000; -271.000
257.188;  -44.925; -351.000; -264.000
257.329;  -58.925; -525.000; -464.000
257.471; -125.575; -939.000; -807.000
257.613;  -60.900; -584.000; -498.000
257.755; -145.500;-1073.000; -982.000
257.896;   35.975;  286.000;  392.000
258.038;  -69.725; -403.000; -352.000
258.180;  -44.625; -354.000; -279.000
258.321;  -87.850; -581.000; -457.000
258.463;   -6.500;  -71.000;  133.000
258.605;  -88.000; -562.000; -570.000
258.746; -107.250; -886.000; -772.000
258.888; -149.675;-1026.000;-1020.000
259.029;   24.425;  121.000;   -8.000
259.171;  -81.975; -614.000; -550.000
259.313;   11.125;  -49.000;  -47.000
259.454;  -84.425; -536.000; -414.000
259.596;  -61.000; -483.000; -390.000
259.737;  -71.825; -590.000; -474.000
259.879;   35.850;  217.000;  311.000
260.020;   94.475;  901.000;  636.000
260.162;  -34.200; -146.000; -253.000
260.303; -109.600; -768.000; -687.000
260.445;  -82.050; -609.000; -613.000
260.586;   28.375;  392.000;  157.000
260.728;  -43.575; -360.000; -248.000
260.869; -122.075; -350.000; -343.000
261.011;   82.200;  706.000;  537.000
261.152;  -66.275; -479.000; -319.000
261.293;  -77.075; -576.000; -595.000
261.435;  -34.425; -219.000; -184.000
261.576;  -59.875; -455.000; -325.000
261.718;   45.375;  420.000;  470.000
261.859; -116.900; -940.000; -949.000
262.000; -134.525; -951.000;-1016.000
262.142;  -32.725;  -52.000;  -60.000
262.283; -104.675; -808.000; -691.000
262.424;  -72.600; -666.000; -625.000
262.566; -155.700;-1161.000; -983.000
262.707; -108.625; -840.000; -830.000
262.848; -118.900; -769.000; -726.000
262.990;  -45.075; -362.000; -345.000
263.131;   82.025;  650.000;  681.000
263.272;   -7.175;  -61.000;  -41.000
263.413;  -93.450; -589.000; -561.000
263.555;  -75.225; -669.000; -143.000
263.696;  -91.475; -550.000; -641.000
263.837;  -55.975; -449.000; -551.000
263.978;    0.575;   -5.000;  -77.000
264.119;  -40.925; -283.000; -264.000
264.261; -100.550; -847.000; -630.000
264.402;   -4.500;   33.000;   40.000
264.543;  -84.975; -509.000; -524.000
264.684;  -14.400;   61.000;  -50.000
264.825;  -73.400; -816.000; -538.000
264.966;   -5.425;  -84.000;  -67.000
265.107; -118.150; -646.000; -670.000
265.248; -118.000; -825.000; -812.000
265.390;   -4.075;  152.000;   -9.000
265.531;   -7.175; -238.000; -107.000
265.672;  -97.725; -557.000; -630.000
265.813;   54.250;  563.000;  439.000
265.954; -132.700; -959.000; -940.000
266.095;  -15.075; -372.000; -322.000
266.236;  -95.200; -686.000; -548.000
266.377;  -37.025; -243.000; -297.000
266.518;  -64.775; -619.000; -547.000
266.659;   31.500;  170.000;  268.000
266.800;    9.300;   83.000;   85.000
266.941;  -82.425; -487.000; -478.000
267.082;    5.300;  354.000;   99.000
267.223;  -40.550; -344.000; -273.000
267.364; -113.725; -892.000; -686.000
267.504;   -6.625;    3.000;  135.000
267.645;   -5.900;  160.000;   67.000
267.786;  -28.500; -147.000;  -86.000
267.927;  -68.450; -473.000; -379.000
268.068;  -13.500; -186.000;  -61.000
268.209;  -30.800; -175.000; -413.000
268.350;  -59.800; -388.000; -532.000
268.490;  -78.100; -648.000; -521.000
268.631;   37.625;  127.000;  225.000
268.772; -111.825; -874.000; -647.000
268.913;  -47.075; -328.000; -476.000
269.054;   -9.425; -117.000;   12.000
269.194;  -43.700; -418.000; -402.000
269.335; -152.650;-1137.000;-1074.000
269.476;  -23.625;   33.000;  -35.000
269.617;  -36.600; -347.000; -392.000
269.757;  -93.650; -713.000; -646.000
269.898; -109.575; -856.000; -613.000
270.039;  -62.600; -415.000; -405.000
270.180; -135.800; -952.000; -816.000
270.320;  -19.450; -190.000; -250.000
270.461;  -28.750; -277.000; -249.000
270.602;  -13.875; -186.000; -156.000
270.742; -128.900; -868.000; -943.000
270.883;  -53.875; -442.000; -390.000
271.023;  -59.925; -358.000; -357.000
271.164;  -72.250; -607.000; -528.000
271.305; -114.350; -666.000; -654.000
271.445;  -89.050; -722.000; -683.000
271.586;  -74.550; -462.000; -283.000
271.726;  -41.775; -397.000; -322.000
271.867;  -60.575; -594.000; -534.000
272.008;  217.075; -473.000; -285.000
272.148;  151.600;  462.000;  468.000
272.289;   31.025; -113.000; -181.000
272.429;    9.625;   19.000;  185.000
272.570;  -85.650; -633.000; -737.000
272.710;  -98.600; -825.000; -775.000
272.851;  -18.300;  113.000; -130.000
272.991; -161.600;-1173.000;-1077.000
273.131;  -57.100; -419.000; -459.000
273.272;  -92.600; -683.000; -723.000
273.412;   23.725; -143.000;  -31.000
273.553;  -50.800; -488.000; -507.000
273.693;  138.675;  913.000;  858.000
273.834;  -78.150; -894.000; -692.000
273.974;  -63.325; -664.000; -615.000
274.114;  -82.950; -772.000; -560.000
274.255;   92.200;  414.000;  373.000
274.395;   22.325; -180.000; -125.000
274.535;   43.075;  199.000;  350.000
274.676;   25.700;  225.000;   94.000
274.816;    0.525;  110.000;   34.000
274.956;  -89.875; -624.000; -690.000
275.097;  -42.775;-1014.000; -922.000
275.237; -108.675; -913.000; -803.000
275.377;  -95.000; -778.000; -689.000
275.517; -141.500; -878.000; -937.000
275.658;  -48.800; -590.000; -555.000
275.798;  -67.325; -606.000; -413.000
275.938;   12.975;  215.000;  323.000
276.078; -111.350; -626.000; -395.000
276.218;    9.250;   99.000;  104.000
276.359; -117.750;-1026.000;-1024.000
276.499;  -63.525; -605.000; -446.000
276.639;  -31.150; -305.000; -151.000
276.779;  -43.625; -475.000; -357.000
276.919; -110.975; -783.000; -624.000
277.059;   -5.875; -261.000; -212.000
277.199;  -45.925; -357.000; -259.000
277.340;   46.500;  287.000;  175.000
277.480; -121.150; -840.000; -693.000
277.620;   31.225;  192.000;   16.000
277.760; -192.750;-1533.000;-1294.000
277.900;   16.400;  113.000;   33.000
278.040;   34.450;  137.000;  159.000
278.180;   36.275;  270.000;  170.000
278.320;   -0.350;   21.000;   56.000
278.460;  -58.925; -443.000; -469.000
278.600;  -92.575; -708.000; -598.000
278.740;   57.175;  448.000;  224.000
278.880;  -14.175; -768.000; -791.000
279.020;   17.975; -194.000; -144.000
279.160;  -98.900; -672.000; -595.000
279.300; -109.625; -926.000; -873.000
279.440;  -92.825; -709.000; -622.000
279.579;   -0.375;-1014.000; -929.000
279.719;  -36.650; -410.000; -394.000
279.859;   83.275;   -4.000;   41.000
279.999;   28.550; -208.000;  101.000
280.139;   -7.325; -435.000; -387.000
280.279;  -92.450; -708.000; -745.000
280.419;  -11.025; -229.000; -147.000
280.559;  -16.475; -259.000; -180.000
280.698;  -76.100; -790.000; -639.000
280.838;  -76.900; -778.000; -800.000
280.978; -100.850; -846.000; -790.000
281.118; -114.925; -811.000; -704.000
281.257;    4.675;   24.000;    6.000
281.397;  -96.050;-1094.000; -960.000
281.537;  -66.025; -599.000; -712.000
281.677;  -33.000; -150.000; -101.000
281.816;  -90.525; -700.000; -630.000
281.956;  -21.100; -193.000; -257.000
282.096;  -64.050; -539.000; -396.000
282.235; -105.275; -672.000; -638.000
282.375;  -19.450; -243.000;  -98.000
282.515;  -85.300; -715.000; -707.000
282.654;   44.475;   29.000;  106.000
282.794;   32.875;  388.000;  244.000
282.934;  -53.900; -530.000; -491.000
283.073; -136.975;-1030.000; -857.000
283.213;  -43.875; -460.000; -467.000
283.353;  -29.125; -408.000; -349.000
283.492;  -17.125; -264.000; -296.000
283.632;  -39.100; -254.000; -168.000
283.771; -106.150; -859.000; -730.000
283.911;  -49.375; -369.000; -260.000
284.050;  -97.075; -794.000; -748.000
284.190; -152.875;-1229.000;-1096.000
284.329; -141.625;-1055.000; -964.000
284.469;  -51.950; -516.000; -591.000
284.608;  -63.050; -559.000; -598.000
284.748;  -90.625; -614.000; -570.000
284.887;   -5.825;  -87.000;  -20.000
285.027; -106.275; -844.000; -892.000
285.166;  -27.150; -192.000; -249.000
285.306;   23.600; -116.000;  -33.000
285.445;  -40.950; -229.000; -343.000
285.584;  -89.350; -630.000; -494.000
285.724;  -37.550; -282.000; -322.000
285.863; -109.925; -857.000; -507.000
286.002;  -50.000; -366.000; -276.000
286.142; -107.050; -715.000; -622.000
286.281;  -62.400; -525.000; -493.000
286.420;  -79.225; -554.000; -417.000
286.560;  106.750;  653.000;  623.000
286.699; -142.825; -958.000; -912.000
286.838;  -81.925; -590.000; -591.000
286.978;  -98.350; -533.000; -537.000
287.117; -128.775;-1085.000; -950.000
287.256;  -40.925; -228.000; -211.000
287.395;  -48.950; -197.000; -378.000
287.535;  -47.775; -370.000; -298.000
287.674;  -67.675; -509.000; -484.000
287.813;   56.050;  661.000;  533.000
287.952; -121.825;-1010.000; -871.000
288.091; -133.225;-1049.000; -915.000
288.231;   22.125;   13.000;   15.000
288.370; -163.375;-1217.000;-1200.000
288.509;  -88.775; -728.000; -645.000
288.648;  -87.350; -770.000; -548.000
288.787;  -28.800; -243.000;  -87.000
288.926;  -52.525; -454.000; -475.000
289.065;  126.550;  859.000;  672.000
289.204;  -43.250; -377.000; -217.000
289.344;  -81.725; -791.000; -690.000
289.483;   29.925;  416.000;  304.000
289.622;  -17.550; -291.000; -149.000
289.761;   -7.025; -309.000; -166.000
289.900;  -91.750; -785.000; -626.000
290.039;   -6.850;  -12.000;  -95.000
290.178;  -32.650; -274.000; -180.000
290.317;  -72.250; -618.000; -479.000
290.456;  -69.800; -463.000; -451.000
290.595; -139.200; -961.000; -833.000
290.734; -135.950; -904.000; -891.000
290.873;  -71.900; -456.000; -420.000
291.011; -103.050; -833.000; -843.000
291.150;  -95.450; -770.000; -682.000
291.289;  -15.525; -343.000; -110.000
291.428;  -89.150; -599.000; -480.000
291.567;  -65.800; -370.000; -442.000
291.706;    7.725;  109.000;  154.000
291.845;  -87.225; -597.000; -505.000
291.984; -164.600;-1234.000;-1061.000
292.122;   78.150;  602.000;  582.000
292.261;   43.450;  620.000;  463.000
292.400;   10.300; -144.000;  211.000
292.539; -113.925; -959.000; -813.000
292.678;  -32.200; -325.000; -300.000
292.816; -166.600;-1136.000; -965.000
292.955;  -88.175; -844.000; -684.000
293.094;  -26.400; -173.000; -337.000
293.233;  -47.775; -556.000; -400.000
293.371;  -29.700; -225.000;  -84.000
293.510; -103.400; -866.000; -780.000
293.649; -121.150; -959.000; -924.000
293.787;  -30.150;-1083.000;-1012.000
293.926;   14.600; -113.000;  -32.000
294.065;  -40.000; -379.000; -290.000
294.203;   55.750;  298.000;  406.000
294.342;   38.525;   74.000;  156.000
294.481; 6155.250;51180.000; -836.000
294.619;  -28.750; -425.000; -582.000
294.758; -127.900;-1230.000;-1137.000
294.896;  103.975; -125.000;    5.000
295.035; -102.850;-1040.000;-1006.000
295.174; -110.825;-1082.000; -954.000
295.312;  -38.625; -323.000; -203.000
295.451;    2.000; -307.000; -428.000
295.589;  -34.425; -389.000; -518.000
295.728;   15.500; -292.000; -165.000
295.866;   15.850;  -36.000;  -51.000
296.005;  -60.600; -584.000; -341.000
296.143;  -58.000; -558.000; -596.000
296.282;  -84.175; -957.000; -881.000
296.420;  -93.175; -657.000; -557.000
296.559;  -73.900; -892.000; -633.000
296.697;   74.025; -847.000; -665.000
296.835;  142.100;-1141.000;-1002.000
296.974;   53.900;  -23.000;   39.000
297.112;   37.250; -443.000; -504.000
297.251;  -60.550; -815.000; -755.000
297.389;  157.475; -576.000; -438.000
297.527;   55.350; -145.000;  -83.000
297.666;  -46.950; -486.000; -438.000
297.804;  -37.425; -404.000; -264.000
297.942;    0.375; -136.000; -161.000
298.081;   -0.150; -183.000;   63.000
298.219;   92.975;  -17.000;  -19.000
298.357;   78.800; -144.000;  -71.000
298.495;   78.500; -810.000; -812.000
298.634;  111.050;  245.000;  219.000
298.772;   97.375; -220.000; -338.000
298.910;  -21.900; -309.000; -182.000
299.048;   15.225; -130.000; -153.000
299.187;   -8.500; -350.000; -250.000
299.325;   37.825;   52.000;  122.000
299.463;   97.225; -389.000; -299.000
299.601;  177.750; -327.000; -271.000
299.739;  -78.800; -908.000; -883.000
299.877;  -75.625; -791.000; -703.000
300.016;  -16.350;-1095.000; -935.000
300.154;  216.475;  -19.000; -161.000
300.292;  111.950; -428.000; -348.000
300.430;   67.275; -408.000; -291.000
300.568;  -91.100; -940.000; -874.000
300.706;  -40.000; -366.000; -469.000
300.844;  -45.700;-1108.000; -979.000
300.982;  156.075;  246.000;  282.000
301.120;  -99.950; -965.000; -866.000
301.258;  -42.100; -812.000; -705.000
301.396;   53.475;  104.000;  -41.000
301.534;  150.100; -218.000; -293.000
301.672;   58.475; -664.000; -521.000
301.810;   75.325; -613.000; -545.000
301.948;  177.100;   53.000;  149.000
302.086;  800.575; -250.000;  -32.000
302.224; 1263.775; -610.000; -585.000
302.362;   82.475; -558.000; -622.000
302.500;   28.450; -923.000; -893.000
302.638;  148.250;  128.000;  245.000
302.776;   11.925; -352.000; -408.000
302.913;   49.500;  447.000;  236.000
303.051;   21.800;  -86.000;  -23.000
303.189;   83.375;   90.000;  118.000
303.327;  -16.275; -341.000; -256.000
303.465;  -62.075; -832.000; -588.000
303.603;  -85.875; -805.000; -604.000
303.740;  129.150;  417.000;  241.000
303.878;   73.425; -800.000; -759.000
304.016;  -85.425; -915.000; -790.000
304.154; -119.750;-1123.000;-1152.000
304.291;  -18.650; -505.000; -554.000
304.429;   11.200;  102.000;   74.000
304.567; -108.850; -908.000; -893.000
304.705;  -41.775; -408.000; -515.000
304.842;  146.400; -616.000; -540.000
304.980;   74.800;  215.000;   35.000
305.118;   84.450; -367.000; -365.000
305.255;  -47.400; -945.000; -927.000
305.393;   61.875;  178.000;  239.000
305.531;  -87.825;-1173.000; -956.000
305.668;  -58.125; -663.000; -582.000
305.806;  127.450; -358.000; -439.000
305.943;  153.800; -629.000; -637.000
306.081;   88.150; -378.000; -267.000
306.219; -100.650; -863.000; -748.000
306.356;   20.325;  158.000;   27.000
306.494;  117.625;  981.000;  761.000
306.631;    6.450;  -11.000;  -55.000
306.769;   12.475; -613.000; -485.000
306.906;  -10.900; -284.000; -258.000
307.044;  -57.250; -473.000; -488.000
307.181;  -42.350; -410.000; -332.000
307.319;   17.375;  112.000;   87.000
307.456; -172.125;-1191.000;-1153.000
307.594;  -89.300; -980.000; -727.000
307.731;    8.625; -371.000; -164.000
307.868;    2.200;  -15.000;   20.000
308.006; -126.700; -961.000; -847.000
308.143;  -58.075; -618.000; -330.000
308.281;  193.000;  -37.000; -254.000
308.418;    9.875; -748.000; -640.000
308.555;  -60.725; -400.000; -250.000
308.693;  -75.475; -577.000; -573.000
308.830;  -97.725; -712.000; -657.000
308.967;  -13.225; -215.000;  -95.000
309.105;  -44.725; -507.000; -396.000
309.242;   58.100; -468.000; -367.000
309.379;  394.125; -577.000; -655.000
309.517;  -36.675; -936.000; -948.000
309.654; -100.000; -910.000; -734.000
309.791;  -63.500; -662.000; -580.000
309.928; -102.025; -977.000; -914.000
310.065;  199.300;  819.000;  697.000
310.203;   47.375; -825.000; -850.000
310.340;   19.175; -465.000; -321.000
310.477;  -77.375; -412.000; -516.000
310.614;  -62.400; -383.000; -473.000
310.751;  -81.500; -427.000; -518.000
310.889;   -7.925;    1.000;   11.000
311.026; -146.800;-1161.000; -939.000
311.163;  -56.300; -386.000; -380.000
311.300;  -70.200; -512.000; -479.000
311.437;  -68.975; -658.000; -619.000
311.574; -151.850;-1226.000; -985.000
311.711;  -56.175; -595.000; -433.000
311.848;  -39.000; -380.000; -388.000
311.985;   28.600;  270.000;   93.000
312.122; -101.950; -932.000; -762.000
312.259; -104.975; -941.000; -994.000
312.396;  -79.750; -508.000; -551.000
312.533;  -69.300; -812.000; -790.000
312.670; -115.400;-1070.000; -898.000
312.807;  -39.625; -352.000; -367.000
312.944;  -77.350; -513.000; -611.000
313.081;  -28.900; -150.000; -415.000
313.218;  -93.475;-1111.000; -867.000
313.355;   19.050; -531.000; -449.000
313.492;   24.925; -455.000; -292.000
313.629;  139.675;  815.000;  735.000
313.766; -151.525;-1176.000;-1008.000
313.902;  -14.150; -186.000;   21.000
314.039;  -45.200; -372.000; -289.000
314.176;   41.550;  286.000;  192.000
314.313;  -58.125; -569.000; -473.000
314.450;  -77.125; -788.000; -684.000
314.587;  -41.100; -468.000; -480.000
314.723;   14.125;  -78.000;  130.000
314.860;   32.725;  318.000;  332.000
314.997;   32.650;  223.000;  142.000
315.134;  -39.025; -385.000; -368.000
315.270;   -5.975; -480.000; -496.000
315.407; -122.150;-1094.000; -967.000
315.544;  -34.350; -657.000; -538.000
315.681;  -54.375; -681.000; -565.000
315.817;   50.125; -133.000; -176.000
315.954;   36.450; -613.000; -392.000
316.091; -115.400;-1045.000;-1023.000
316.227;  -17.050;  -71.000; -179.000
316.364;    0.950;   23.000;    6.000
316.500;  -34.475; -113.000; -300.000
316.637;  -42.200; -181.000; -302.000
316.774;  -72.575; -625.000; -358.000
316.910;  -82.325; -598.000; -629.000
317.047;  -63.525; -487.000; -351.000
317.183;  -46.475; -435.000; -566.000
317.320;  -28.675; -367.000; -321.000
317.456;  -67.475; -733.000; -805.000
317.593;  -76.950; -598.000; -641.000
317.729;  -10.650;  168.000;  -67.000
317.866; -190.650;-1434.000;-1285.000
318.002;  -78.000; -708.000; -948.000
318.139;  -84.250; -883.000; -867.000
318.275;  -96.550;-1003.000; -738.000
318.412;  -67.500; -517.000; -336.000
318.548;   -5.825; -751.000; -720.000
318.685;  -78.900; -985.000; -888.000
318.821;  -99.075; -762.000; -735.000
318.957;  -17.000;   34.000;  -23.000
319.094;   48.225;  297.000;  154.000
319.230;  -41.275; -756.000; -742.000
319.367;  172.150; -471.000; -520.000
319.503;   78.275; -538.000; -436.000
319.639;  -97.650; -877.000; -793.000
319.775;  -31.325; -750.000; -685.000
319.912;  -45.150; -424.000; -519.000
320.048;  -75.225;-1184.000;-1184.000
320.184;   89.000;   59.000;   70.000
320.321;  -65.500; -497.000; -467.000
320.457;   57.450;  475.000;  662.000
320.593;  -67.275; -375.000; -382.000
320.729; -100.175; -732.000; -734.000
320.866;  -69.525; -577.000; -635.000
321.002;  -63.850; -759.000; -809.000
321.138;  -19.400; -135.000; -211.000
321.274;   95.750; -148.000; -115.000
321.410;   -5.550; -585.000; -353.000
321.546;   11.275;-1011.000; -911.000
321.683;   58.550;  400.000;  185.000
321.819;    5.625;  -48.000; -117.000
321.955;  -94.575; -743.000; -722.000
322.091;  -37.625; -585.000; -540.000
322.227;    3.400; -382.000; -202.000
322.363;    2.750; -320.000; -215.000
322.499;  -30.700; -343.000; -331.000
322.635;  187.325;  636.000;  443.000
322.771;   39.125; -139.000;   12.000
322.907;  105.575;  129.000;  327.000
323.043;    3.575; -115.000; -206.000
323.179;  -25.725; -394.000; -363.000
323.315;   70.150; -401.000; -371.000
323.451;  160.925; -328.000; -236.000
323.587;   75.525;  -60.000;  -77.000
323.723;   54.275; -682.000; -601.000
323.859;    1.375; -258.000;  -76.000
323.995;  -19.075; -467.000; -409.000
324.131; -112.275; -967.000; -892.000
324.267;  -36.575; -254.000; -276.000
324.402; -113.650; -960.000; -983.000
324.538;    2.725; -279.000; -104.000
324.674;   42.550;  164.000;   77.000
324.810;  180.775;  226.000;  308.000
324.946;   50.400; -810.000; -658.000
325.082;  -65.825; -568.000; -475.000
325.217;   -7.925;  -62.000;   16.000
325.353;  -90.625; -764.000; -659.000
325.489;  -80.775; -540.000; -506.000
325.625;  -60.225; -579.000; -525.000
325.760;   54.225;  517.000;  376.000
325.896;  -44.475; -515.000; -702.000
326.032;  -51.800; -403.000; -352.000
326.168;  -58.550; -462.000; -369.000
326.303;  -39.525; -352.000; -461.000
326.439;  -21.400; -336.000; -276.000
326.575;   19.200; -190.000;  -29.000
326.710;    7.325; -156.000;  -30.000
326.846;    3.950;  146.000;  103.000
326.982;  -86.800; -530.000; -548.000
327.117;  -57.950; -481.000; -442.000
327.253;  -95.000; -745.000; -742.000
327.388; -138.925;-1137.000;-1153.000
327.524;  -25.000; -811.000; -578.000
327.659;  -22.875;  -58.000;  -22.000
327.795;  -12.325;   69.000;   45.000
327.931;  -92.775; -723.000; -499.000
328.066;  -23.175; -417.000; -276.000
328.202;  -21.250;   12.000; -129.000
328.337;   97.825;  957.000;  713.000
328.473;   43.150;  -12.000;  -74.000
328.608;  -20.000; -256.000; -267.000
328.743;  -77.200; -799.000; -664.000
328.879;   18.400;  214.000;  114.000
329.014;  -30.075; -102.000; -122.000
329.150;  -77.475; -358.000; -483.000
329.285;  -74.350; -465.000; -466.000
329.421;  -30.100; -548.000; -246.000
329.556;  -26.550;  -36.000;   85.000
329.691;  -97.150; -633.000; -615.000
329.827;  -73.400; -626.000; -480.000
329.962;  -37.500;  131.000; -301.000
330.097;  -90.275; -673.000; -585.000
330.233;  -49.750; -410.000; -223.000
330.368; -113.825; -839.000; -628.000
330.503;    5.400;    3.000;   98.000
330.638;   15.525;  -93.000; -125.000
330.774;  -45.600; -609.000; -530.000
330.909;  -37.925; -434.000; -244.000
331.044;  -96.200; -714.000; -708.000
331.179; -158.575;-1217.000;-1109.000
331.315;   12.000;   77.000;   20.000
331.450;   10.775;  157.000;  285.000
331.585;  -80.100; -805.000; -706.000
331.720;  -83.925; -510.000; -460.000
331.855;   -8.050;  -35.000; -102.000
331.990;  207.275;   62.000;  138.000
332.126;  105.625; -110.000;   71.000
332.261;   -4.000; -379.000; -265.000
332.396;   -0.175; -135.000; -242.000
332.531; -118.475;-1074.000;-1031.000
332.666;   15.750; -519.000; -363.000
332.801;  -93.150; -726.000; -807.000
332.936;  -14.300; -192.000; -122.000
333.071; -137.625; -870.000; -817.000
333.206;   25.950;  307.000;  379.000
333.341;   27.575;  344.000;  418.000
333.476;  -67.525; -627.000; -623.000
333.611;  -35.875; -251.000; -173.000
333.746;  -27.175; -381.000; -464.000
333.881; -103.975; -973.000; -935.000
334.016; -116.775; -936.000; -917.000
334.151; -101.725; -746.000; -702.000
334.286;   33.575;  152.000;  186.000
334.421;   -5.175; -125.000; -178.000
334.556;  -72.025; -611.000; -567.000
334.690;  -55.125; -631.000; -577.000
334.825;   62.275;  381.000;   83.000
334.960;  -33.125; -285.000; -413.000
335.095;   39.000;  135.000;  -91.000
335.230;  -91.050; -722.000; -738.000
335.365; -113.050;-1084.000; -990.000
335.499; -104.250;-1108.000;-1037.000
335.634;   44.400;    9.000;  534.000
335.769;  -85.075; -755.000; -720.000
335.904;  -43.725; -603.000; -561.000
336.038;  -36.925; -735.000; -657.000
336.173;  -84.500;-1206.000;-1194.000
336.308;   33.475; -116.000; -189.000
336.443;   29.750; -544.000; -634.000
336.577;  -51.225; -936.000; -787.000
336.712;   95.450;   -4.000;  -12.000
336.847;   -1.200; -724.000; -607.000
336.981;  124.500; -272.000; -208.000
337.116;  358.400;  615.000;  501.000
337.250;  229.100; -434.000; -421.000
337.385;  194.450; -297.000; -208.000
337.520;   38.700; -632.000; -603.000
337.654;  -47.050; -215.000; -126.000
337.789; -128.500; -989.000; -933.000
337.923;  -20.450; -104.000; -205.000
338.058;  -72.225; -673.000; -738.000
338.192;  -13.625; -611.000; -488.000
338.327;    5.825;  -18.000; -155.000
338.461;  -54.250; -299.000; -469.000
338.596;  -83.150; -780.000; -638.000
338.730;  -87.875; -767.000; -803.000
338.865;   61.225;  -46.000; -140.000
338.999;  -71.075; -846.000; -702.000
339.134;  -39.875; -634.000; -536.000
339.268;    5.000; -741.000; -603.000
339.403;  305.625; -740.000; -775.000
339.537;   59.225; -894.000; -820.000
339.671; -125.325; -829.000; -813.000
339.806;  -66.800; -556.000; -512.000
339.940;    8.725; -261.000; -235.000
340.074;  -84.200; -685.000; -510.000
340.209;  -38.250; -351.000; -230.000
340.343;  -75.850; -517.000; -573.000
340.477;  155.450;  998.000; 1036.000
340.612;  -75.650;-1033.000; -900.000
340.746;   93.350; -199.000; -243.000
340.880;  -44.650; -924.000; -785.000
341.014;  -13.925;  -45.000; -154.000
341.149; -102.475; -756.000; -718.000
341.283;  -92.825; -839.000; -754.000
341.417;  -70.125;-1124.000; -938.000
341.551;  240.625; -768.000; -708.000
341.685;  -11.500; -633.000; -611.000
341.820;  -38.975; -562.000; -493.000
341.954;  -68.525; -218.000; -349.000
342.088; -145.850;-1102.000;-1019.000
342.222;   49.125;  565.000;  618.000
342.356;  -42.900; -395.000; -335.000
342.490;  -68.900; -880.000; -841.000
342.624;  -26.325; -339.000; -242.000
342.758;   30.175; -364.000; -312.000
342.892;  -44.450; -710.000; -585.000
343.026;  -31.025;  -58.000; -116.000
343.160;  -60.950; -426.000; -376.000
343.294;  -76.425; -474.000; -337.000
343.428;    9.400; -488.000; -448.000
343.562;  -12.800; -172.000;  -23.000
343.696;   -5.500; -385.000; -314.000
343.830;   -1.900; -362.000; -356.000
343.964;   25.375; -231.000; -168.000
344.098; 1260.125;  199.000;   70.000
344.232; 1062.525; -266.000; -127.000
344.366;  112.900; -567.000; -453.000
344.500;  130.750; -665.000; -744.000
344.634;   72.325; -324.000; -164.000
344.768;   28.250; -531.000; -341.000
344.902;   39.850;  278.000;  256.000
345.035;  -63.600; -556.000; -496.000
345.169; -137.950; -933.000; -656.000
345.303;  -12.125; -308.000; -482.000
345.437;  -38.550; -826.000; -717.000
345.571;  -69.300; -675.000; -594.000
345.704;  -63.125; -309.000; -532.000
345.838;    5.150; -331.000; -284.000
345.972;  -24.700; -543.000; -495.000
346.106;  147.975; -179.000; -190.000
346.239;  456.675; -312.000; -243.000
346.373;   30.525; -343.000; -302.000
346.507; -122.500; -950.000; -962.000
346.640;  213.775;  -30.000;   13.000
346.774;   -6.000; -650.000; -797.000
346.908;   -0.525; -138.000;  -11.000
347.041;  -81.575; -646.000; -593.000
347.175;    8.625;  259.000;   27.000
347.309;  -52.925; -698.000; -628.000
347.442;  -76.325; -883.000; -732.000
347.576;  368.200;  670.000;  668.000
347.709;  300.450; -123.000;  -52.000
347.843;  -76.050; -933.000; -825.000
347.976;   42.625;  235.000;  294.000
348.110; -173.800;-1268.000;-1186.000
348.243;  -91.175; -679.000; -772.000
348.377;    6.900;  -26.000;   60.000
348.510;   65.400;  403.000;  540.000
348.644;  -30.300;  -37.000; -159.000
348.777;    7.200;  180.000;  191.000
348.911;  -36.000; -142.000; -112.000
349.044;  214.900;  471.000;  448.000
349.178;  269.375;-1069.000;-1006.000
349.311;  118.375;  141.000;  255.000
349.444;  -24.525; -927.000; -813.000
349.578;   -3.000; -347.000; -200.000
349.711;  -73.575; -959.000; -862.000
349.845;   39.375; -661.000; -591.000
349.978; -123.900;-1224.000;-1137.000
350.111;  -72.675; -546.000; -612.000
350.244;  -61.150; -596.000; -700.000
350.378;   48.000; -392.000; -393.000
350.511;  -59.925; -393.000; -426.000
350.644; -101.675; -808.000; -806.000
350.778;    7.125;  168.000;  104.000
350.911;   17.275;  134.000;  140.000
351.044;  -69.100; -685.000; -615.000
351.177;  -26.075; -321.000; -281.000
351.310;  -14.975;    3.000; -131.000
351.444;  -38.850; -888.000; -788.000
351.577;  171.125;  140.000;   90.000
351.710;  124.550;  593.000;  417.000
351.843;  -45.150; -165.000;  -77.000
351.976;   -0.950;  149.000;  -79.000
352.109;  -71.575; -621.000; -612.000
352.242;   -7.325; -464.000; -419.000
352.376;  -32.275; -580.000; -636.000
352.509;  280.375; -437.000; -356.000
352.642;   97.150; -654.000; -604.000
352.775;  102.850; -141.000;  -98.000
352.908; -106.200; -933.000; -904.000
353.041;  -96.500; -814.000; -824.000
353.174;  -40.975; -551.000; -424.000
353.307;  -72.650; -753.000; -764.000
353.440;   96.250;  541.000;  453.000
353.573;  -92.625; -957.000;-1008.000
353.706;  -47.625; -384.000; -558.000
353.839;   -5.150; -264.000; -220.000
353.971;  -91.975; -657.000; -512.000
354.104;  -72.850; -896.000; -835.000
354.237;   -2.750; -627.000; -662.000
354.370;  -73.050; -846.000; -879.000
354.503; -165.900;-1231.000;-1308.000
354.636;  -24.775; -529.000; -348.000
354.769; -115.800; -937.000; -860.000
354.902;    8.525; -230.000; -139.000
355.034;   -8.575; -164.000; -220.000
355.167;   -1.675; -262.000; -162.000
355.300;  -83.075;-1061.000; -880.000
355.433;  817.800;  -71.000;  -14.000
355.565; 1248.575; -402.000; -384.000
355.698;  313.475; -356.000; -296.000
355.831;   30.225; -882.000; -801.000
355.964;  151.100; -285.000; -170.000
356.096;  -61.925; -856.000; -843.000
356.229;   35.450; -523.000; -530.000
356.362;  267.500; -373.000; -266.000
356.494;  493.100; -229.000; -162.000
356.627;  617.925;  269.000;  377.000
356.760;  596.250;  120.000;   53.000
356.892;  763.350; -286.000; -601.000
357.025;  858.975;  403.000;  389.000
357.157;  823.750; -167.000; -179.000
357.290;  501.125; -856.000; -713.000
357.423;  177.450; -667.000; -556.000
357.555;  156.025; -217.000; -228.000
357.688;  188.350; -483.000; -364.000
357.820;  593.225; -870.000; -877.000
357.953; 4521.300; -563.000; -589.000
358.085; 1086.675; -632.000; -612.000
358.218; 1834.500;-1131.000; -932.000
358.350;  335.175;  -58.000;  312.000
358.483;  -98.000;-1300.000;-1187.000
358.615;   61.700;-1182.000;-1078.000
358.747;   -1.575;-1187.000;-1058.000
358.880;   77.025; -810.000; -744.000
359.012;    4.150; -376.000; -202.000
359.145;  -27.325; -480.000; -511.000
359.277;  107.850; -962.000; -913.000
359.409; 3776.925;  536.000;  231.000
359.542; 1035.725; -738.000; -688.000
359.674;   88.050;   46.000;   13.000
359.806;  -54.100; -565.000; -438.000
359.939;  -39.100; -617.000; -516.000
360.071;  -38.050; -583.000; -579.000
360.203;  -16.075; -411.000; -364.000
360.335;   66.325;  164.000;  -16.000
360.468;  253.075; -249.000; -307.000
360.600; 2919.775; -547.000; -454.000
360.732; 2305.425; -546.000; -423.000
360.864;  342.075;-1216.000;-1044.000
360.996;  443.275; -516.000; -554.000
361.129;   87.225; -389.000; -598.000
361.261;   44.025;  110.000; -113.000
361.393;  -31.125; -252.000; -214.000
361.525;   42.550;   94.000;  244.000
361.657;  -21.100; -821.000; -703.000
361.789;   40.125; -139.000; -155.000
361.921;  376.950; -642.000; -593.000
362.053;  363.800;  524.000;  541.000
362.185;   73.125;  288.000;   72.000
362.318;  -35.425; -709.000; -705.000
362.450;  184.250;  294.000;  444.000
362.582;  295.700; -913.000; -870.000
362.714;  -19.125; -353.000; -332.000
362.846;  -83.475; -606.000; -490.000
362.978; -138.550; -941.000; -811.000
363.109;   90.575; -161.000; -260.000
363.241;  654.625; -739.000; -749.000
363.373;  378.325; -649.000; -564.000
363.505;  522.300; -186.000;  -91.000
363.637;  144.000; -787.000; -601.000
363.769; -119.700;-1067.000;-1080.000
363.901;  -52.500; -596.000; -654.000
364.033;  -80.100;-1103.000;-1062.000
364.165;   25.200; -283.000; -283.000
364.296;   70.100; -316.000; -177.000
364.428;   45.825;-1344.000;-1220.000
364.560;  -55.925; -679.000; -661.000
364.692;  -55.650; -738.000; -835.000
364.824;  445.450; -588.000; -456.000
364.955;  448.050; -402.000; -564.000
365.087;  614.400;-1097.000; -852.000
365.219;   18.775; -686.000; -816.000
365.351;  -45.350; -526.000; -572.000
365.482;   66.725;  300.000;  240.000
365.614;  -39.450; -402.000; -314.000
365.746;  -94.275; -729.000; -752.000
365.877;  -97.950; -706.000; -672.000
366.009;  201.650;  -35.000;  -62.000
366.141; -114.050;-1249.000;-1134.000
366.272;  -94.825; -803.000; -719.000
366.404; -105.775;-1005.000; -874.000
366.535;   -8.175; -139.000;  -12.000
366.667;  -99.875; -644.000; -649.000
366.799;   42.250;  353.000;  203.000
366.930; -104.650; -862.000; -996.000
367.062;  123.500; -639.000; -613.000
367.193;   79.900; -872.000; -842.000
367.325;  -66.975; -580.000; -684.000
367.456;  114.675; -246.000;   31.000
367.588;  146.250; -371.000; -318.000
367.719;   31.625;  -44.000;  -45.000
367.851;  -12.375; -222.000; -241.000
367.982;  -12.600; -875.000; -732.000
368.113;  163.175; -475.000; -358.000
368.245;  -94.750; -960.000; -841.000
368.376;   -9.325; -254.000; -302.000
368.508;  -14.425; -188.000; -263.000
368.639; -124.975;-1166.000;-1034.000
368.770;   23.425; -670.000; -589.000
368.902;  -26.350; -836.000; -926.000
369.033;  -88.225; -906.000; -855.000
369.164;  -44.875; -720.000; -653.000
369.296;  -93.575; -452.000; -601.000
369.427;   16.375; -209.000; -144.000
369.558;  -33.850; -593.000; -377.000
369.689;  -77.625; -721.000; -569.000
369.821; -129.575; -951.000; -845.000
369.952;  -13.725;   42.000; -108.000
370.083;  -45.500; -229.000; -108.000
370.214;  -66.925; -735.000; -650.000
370.345;   -3.975;   65.000;   81.000
370.477;  -54.750; -810.000; -790.000
370.608;  362.450; -328.000; -264.000
370.739;    9.300;-1233.000;-1292.000
370.870;    4.800;-1102.000; -923.000
371.001;  166.450; -378.000; -467.000
371.132;  -58.275; -754.000; -735.000
371.263;  -13.675;  -42.000; -148.000
371.394; -129.100; -841.000; -748.000
371.525;   35.275;  345.000;  225.000
371.657;  -75.900; -808.000; -670.000
371.788;   94.575;  103.000;  199.000
371.919;  244.250; -384.000; -304.000
372.050; 4836.650;  -91.000; -156.000
372.181; 1463.525; -188.000; -294.000
372.311;  550.450;   42.000; -127.000
372.442;   98.025; -457.000; -451.000
372.573;   15.750; -444.000; -340.000
372.704; -105.850;-1008.000; -980.000
372.835;  142.025; -228.000; -289.000
372.966;  -36.425; -646.000; -554.000
373.097;  -44.150; -575.000; -711.000
373.228;   -6.050; -717.000; -542.000
373.359;  243.650; -824.000; -536.000
373.490; 1357.975; -881.000; -727.000
373.620; 1671.875;-1001.000; -803.000
373.751; 2514.700; -332.000; -396.000
373.882; 1175.600; -663.000; -733.000
374.013;  131.925; -449.000; -262.000
374.143;  -15.925; -581.000; -659.000
374.274;  -78.250; -987.000; -908.000
374.405;  254.000; -388.000; -276.000
374.536;  644.625; -526.000; -387.000
374.666; 1621.075; -759.000; -807.000
374.797;  376.125; -817.000; -868.000
374.928; 1286.800; -710.000; -560.000
375.058; 1285.650; -535.000; -500.000
375.189;  112.900;  -59.000;  -93.000
375.320;  -77.075; -928.000;-1034.000
375.450;  -15.775; -625.000; -616.000
375.581;  -38.150; -526.000; -436.000
375.712;  -29.350; -574.000; -250.000
375.842;  470.625; -438.000; -415.000
375.973;  357.600; -554.000; -513.000
376.103;   15.275; -665.000; -648.000
376.234;  -72.525; -531.000; -552.000
376.364;    8.425; -944.000; -867.000
376.495;  416.275;  925.000;  529.000
376.625;   52.250; -472.000; -485.000
376.756;  134.825; -709.000; -678.000
376.886;  -26.400;-1178.000;-1026.000
377.017;   17.375;-1048.000;-1061.000
377.147;  246.700; -786.000; -782.000
377.278;   58.575;  174.000;  228.000
377.408; -122.250; -801.000; -815.000
377.538;  -95.925; -707.000; -693.000
377.669;  -67.325; -537.000; -613.000
377.799;  -64.625; -645.000; -635.000
377.929;  -34.225; -610.000; -428.000
378.060; -116.425; -781.000; -847.000
378.190;  -64.175; -726.000; -531.000
378.320;  -34.275; -401.000; -406.000
378.451;   10.350; -131.000;  -22.000
378.581;   10.775;  -67.000; -110.000
378.711;  182.250; 1035.000;  866.000
378.841;   14.850; -533.000; -675.000
378.972;  -55.925; -871.000; -751.000
379.102;   49.300; -652.000; -579.000
379.232;   18.525; -126.000;  -73.000
379.362;  -62.400;-1001.000; -885.000
379.492;   54.075; -373.000; -424.000
379.623;  159.450;    0.000;  111.000
379.753;  -64.375;-1107.000; -974.000
379.883;  270.325;   59.000;  156.000
380.013;   68.525;-1081.000;-1017.000
380.143;  -78.625;-1097.000;-1056.000
380.273;  -74.125; -985.000; -861.000
380.403;   16.475; -344.000; -257.000
380.533;   18.150; -651.000; -664.000
380.663;  121.325;  173.000;  128.000
380.793;  -55.450;-1027.000;-1074.000
380.923;   -9.550; -103.000;  -34.000
381.053;  -62.900; -613.000; -623.000
381.183;  -14.900; -106.000; -248.000
381.313;   94.975; -656.000; -470.000
381.443;   89.150; -692.000; -473.000
381.573;  333.225; -402.000; -409.000
381.703;  486.000;-1249.000;-1095.000
381.833;  -83.100;-1454.000;-1336.000
381.963;  167.800; -134.000;  -87.000
382.093; 1820.225; -925.000; -909.000
382.223;  601.925; -713.000; -602.000
382.353;   20.075; -801.000; -608.000
382.482;  614.525;-1091.000; -964.000
382.612; 1058.525; -872.000; -644.000
382.742;  603.950; -695.000; -622.000
382.872;  417.125; -565.000; -551.000
383.002;   96.600;  347.000; -132.000
383.131;   10.250; -226.000; -160.000
383.261;  -33.950; -706.000; -768.000
383.391;  313.875; -552.000; -377.000
383.521; 2501.700;  451.000;  263.000
383.650;  539.375; -947.000; -904.000
383.780;  -28.250; -783.000; -656.000
383.910;  129.325;  880.000;  802.000
384.039;   73.050; -794.000; -656.000
384.169;  359.675;-1205.000;-1017.000
384.299;   20.700; -650.000; -662.000
384.428;  -74.175; -764.000; -680.000
384.558;  -27.225; -308.000; -275.000
384.687;  -12.250; -414.000; -334.000
384.817;   43.925;   75.000;   -2.000
384.947;   52.975; -234.000; -141.000
385.076;  371.575;  982.000;  912.000
385.206;  135.675;  369.000;  480.000
385.335;   -9.550; -549.000; -417.000
385.465;  -49.550; -655.000; -663.000
385.594;  212.425;  -53.000;  -44.000
385.724;  679.850; -868.000; -838.000
385.853;  206.625; -296.000; -270.000
385.982; 1917.900; -743.000; -787.000
386.112; 3027.925;-1052.000; -871.000
386.241;  238.525; -307.000; -312.000
386.371;   47.450; -174.000;  -87.000
386.500;   37.425; -825.000; -789.000
386.629;   57.175; -874.000; -817.000
386.759;   78.025;  -43.000;   68.000
386.888;   18.125; -170.000; -250.000
387.017;  -55.625; -648.000; -620.000
387.147;  -64.925; -771.000; -798.000
387.276;   36.425; -410.000; -397.000
387.405;   51.700; -398.000; -342.000
387.535;  -13.700; -452.000; -361.000
387.664;  -48.600; -692.000; -620.000
387.793;   99.200; -198.000; -113.000
387.922;  750.125;  255.000;  200.000
388.052;   85.250; -576.000; -423.000
388.181;   59.075; -342.000; -472.000
388.310;   78.875; -889.000; -710.000
388.439;    0.800; -749.000; -742.000
388.568;  267.700;  365.000;  244.000
388.697; 1543.475; -756.000; -653.000
388.826;  343.675; -768.000; -666.000
388.956;  118.325; -285.000; -307.000
389.085;   -9.400; -347.000; -287.000
389.214; -113.800; -842.000; -872.000
389.343;  -42.700; -645.000; -413.000
389.472;  344.600;  126.000;  149.000
389.601;  520.775;   91.000;    0.000
389.730;   58.750; -568.000; -687.000
389.859;  106.350;  226.000;   46.000
389.988;  289.000; -423.000; -408.000
390.117;  212.600; -168.000; -146.000
390.246;   24.075; -331.000; -320.000
390.375;  210.525; -673.000; -626.000
390.504;  -38.825; -703.000; -621.000
390.633;  -73.900; -672.000; -726.000
390.761;  -42.125; -732.000; -645.000
390.890;   66.450;   -4.000; -130.000
391.019;    0.625; -421.000; -441.000
391.148; -108.400; -826.000; -855.000
391.277;  -40.900; -576.000; -493.000
391.406;  -50.075; -821.000; -805.000
391.534;   41.300;  574.000; -301.000
391.663;  -33.375; -583.000; -645.000
391.792;  -63.075; -673.000; -701.000
391.921;  184.575;   -3.000;   15.000
392.050;  319.525; -287.000; -228.000
392.178;   25.875;-1206.000;-1061.000
392.307;  260.100; -758.000; -712.000
392.436;  151.375; -427.000; -641.000
392.564;   39.200;  166.000;   -6.000
392.693;  -57.150; -860.000; -682.000
392.822;  339.275; -529.000; -534.000
392.950;  194.200; -880.000; -714.000
393.079;  508.725; -188.000; -328.000
393.208;   81.025; -488.000; -511.000
393.336;    8.325; -170.000; -145.000
393.465;  -55.625; -317.000; -199.000
393.593;   23.800;   62.000;   79.000
393.722; -150.575;-1121.000; -916.000
393.850;  -37.275; -188.000;  -61.000
393.979; -153.275; -926.000; -805.000
394.107;  -49.400; -517.000; -537.000
394.236;   -3.650; -570.000; -507.000
394.364;  233.100;  383.000;  206.000
394.493;  432.975; -911.000; -767.000
394.621;    0.650; -955.000; -916.000
394.750;  575.175; -873.000; -923.000
394.878; 2416.050; -247.000; -149.000
395.007; 3307.700; -721.000; -807.000
395.135;  239.775; -790.000; -721.000
395.263;  -69.950;-1038.000;-1040.000
395.392;   12.225;  -25.000; -107.000
395.520; -133.450; -818.000; -679.000
395.648;  -55.150; -865.000; -915.000
395.777;   -3.200; -366.000; -405.000
395.905;  -19.625; -449.000; -564.000
396.033;   11.850;  217.000;  172.000
396.162;  701.875; -399.000; -453.000
396.290;  627.900;  -17.000;   -2.000
396.418;  169.325; -555.000; -514.000
396.546;  -54.950; -571.000; -466.000
396.674;  -69.400; -850.000; -878.000
396.803;   29.075;  -72.000;  -23.000
396.931;  160.925; -179.000; -199.000
397.059;  154.925;-1026.000; -989.000
397.187;  -75.625;-1026.000; -975.000
397.315; -121.775; -884.000; -649.000
397.443;  -91.600; -592.000; -443.000
397.572;  -87.625; -578.000; -424.000
397.700;   54.375; -607.000; -614.000
397.828;   46.800;  120.000;  -90.000
397.956;  -45.200; -508.000; -478.000
398.084;  -69.950; -767.000; -626.000
398.212;   59.675;  137.000;  124.000
398.340;   36.475;  -56.000;  159.000
398.468;   72.000; -390.000; -169.000
398.596; -121.525; -993.000; -953.000
398.724;  -99.275; -762.000; -767.000
398.852; -156.050;-1024.000; -976.000
398.980;  -51.525; -560.000; -560.000
399.108;   -8.525; -982.000; -735.000
399.236;   56.025;   13.000;    8.000
399.363;   21.325;  222.000;  196.000
399.491;  -60.350; -404.000; -398.000
399.619; -116.300; -829.000; -800.000
399.747;  -83.875; -859.000; -771.000
399.875;  104.075;  220.000;  234.000
400.003;  -44.950; -359.000; -284.000
400.130; -102.150; -421.000; -341.000
400.258;  -21.125;  -83.000;   38.000
400.386;  -53.900; -352.000; -168.000
400.514;  -15.550; -526.000; -587.000
400.641;  -45.100; -928.000; -802.000
400.769; -136.425; -979.000; -888.000
400.897;  -83.425; -838.000; -793.000
401.025;  -10.775; -166.000; -152.000
401.152;    9.425;  220.000;   38.000
401.280;  -90.000; -430.000; -429.000
401.408; -111.950; -712.000; -576.000
401.535; -101.150; -735.000; -758.000
401.663; -184.900;-1134.000;-1054.000
401.790;  -77.750; -514.000; -525.000
401.918;   57.950;  436.000;  405.000
402.046;   -9.175;  134.000;  122.000
402.173;  -23.500;  -18.000;    7.000
402.301;  -48.675; -519.000; -397.000
402.428;   40.025;  528.000;  383.000
402.556; -138.750;-1188.000; -913.000
402.683;  -15.575;  -20.000;   -1.000
402.811;  -21.850;  -37.000; -206.000
402.938;    1.075;   20.000;   27.000
403.066;  272.650; -574.000; -558.000
403.193;  473.000;  299.000;  239.000
403.321;  394.850; -396.000; -574.000
403.448;  459.575;   83.000;   27.000
403.575;  206.875;  -90.000;  -46.000
403.703;  -91.375; -732.000; -557.000
403.830;  -49.225; -531.000; -496.000
403.957; -129.400;-1117.000;-1023.000
404.085;   17.175;  -61.000; -172.000
404.212;  112.975;  -50.000;   63.000
404.339;  224.675; -566.000; -306.000
404.467; 4693.450; -612.000; -524.000
404.594; 3607.150; -287.000; -227.000
404.721; 1034.550; -869.000; -764.000
404.848;   97.675; -113.000; -202.000
404.976;  -90.250; -856.000; -783.000
405.103;    5.575;  -14.000;  -82.000
405.230;    3.850;  190.000;  226.000
405.357;   26.900;  117.000;   44.000
405.484;  203.250;  -49.000;    5.000
405.612;   32.675; -548.000; -563.000
405.739;  -52.125; -488.000; -243.000
405.866;   84.225;  669.000;  385.000
405.993;  -36.200; -398.000; -102.000
406.120; -132.325; -801.000; -887.000
406.247;  -51.775; -323.000; -342.000
406.374;  615.775;  540.000;  629.000
406.501;  210.525; -632.000; -702.000
406.628;  -73.200; -621.000; -589.000
406.755;  -85.525; -803.000; -620.000
406.882;  -30.300; -228.000; -277.000
407.009; -105.800; -719.000; -628.000
407.136;  104.725; -480.000; -401.000
407.263;  272.375; -939.000; -829.000
407.390;  -42.225; -692.000; -614.000
407.517; -151.575;-1139.000;-1187.000
407.644;  -50.025; -332.000; -256.000
407.771; -136.600; -249.000; -287.000
407.898;    6.275;  168.000;  328.000
408.025;  -47.525; -421.000; -313.000
408.151;    3.550;   82.000;  153.000
408.278;  -68.525; -267.000; -216.000
408.405; -108.475; -931.000; -899.000
408.532;  -68.375; -549.000; -542.000
408.659; -110.625; -677.000; -648.000
408.785; -200.175;-1298.000;-1170.000
408.912;  -53.900; -412.000; -296.000
409.039; -113.600; -610.000; -686.000
409.166;  -85.125; -591.000; -555.000
409.292; -119.600; -571.000; -534.000
409.419; -119.175; -665.000; -649.000
409.546;  -73.800; -431.000; -192.000
409.672; -116.975; -713.000; -545.000
409.799;  -27.350;  -36.000;   34.000
409.926;  -45.650; -180.000; -179.000
410.052; -170.875;-1127.000;-1091.000
410.179;  -48.875; -368.000; -392.000
410.305;  -80.500; -375.000; -493.000
410.432;  -43.100; -220.000; -333.000
410.558;  -83.325; -305.000; -380.000
410.685;  -94.850; -688.000; -431.000
410.812; -104.100; -409.000; -588.000
410.938; -136.700; -964.000; -808.000
411.065;  -72.500; -671.000; -645.000
411.191;  -25.300; -189.000; -174.000
411.317; -114.575; -823.000; -742.000
411.444;  -75.350; -317.000; -246.000
411.570;  -67.900; -339.000; -294.000
411.697; -115.125; -758.000; -752.000
411.823; -163.475; -989.000; -999.000
411.949;   -7.000;  -56.000;   17.000
412.076; -105.600; -539.000; -519.000
412.202; -113.625; -758.000; -757.000
412.329; -123.775; -798.000; -752.000
412.455; -106.925; -821.000; -657.000
412.581;  -37.975;  -15.000;  172.000
412.707;  -48.750; -540.000; -457.000
412.834;   24.350;  156.000;  219.000
412.960;  -77.325; -785.000; -784.000
413.086;  -89.400; -743.000; -701.000
413.212;  193.825;  604.000;  578.000
413.339;  -50.700; -685.000; -701.000
413.465;   43.000; -364.000; -310.000
413.591;  -84.900; -757.000; -474.000
413.717;  -50.925; -358.000; -366.000
413.843; -136.700; -839.000; -861.000
413.969;  -53.300;  -47.000; -292.000
414.096;  -96.475; -679.000; -679.000
414.222;   -6.200;  -33.000;   85.000
414.348;    2.750; -652.000; -385.000
414.474;  148.600;   38.000;  -52.000
414.600;   -2.875; -126.000; -144.000
414.726;   -6.300;  -96.000;  -55.000
414.852;  -60.175; -365.000; -342.000
414.978;   20.350;  104.000;  -18.000
415.104;   30.725;   38.000;   80.000
415.230;   28.125; -329.000; -330.000
415.356;   33.300; -409.000; -514.000
415.482;  211.575;   13.000;  -35.000
415.608;  239.625; -247.000; -323.000
415.734;  849.250;   67.000;   38.000
415.860;17433.950; -875.000; -767.000
415.986;12851.125; -685.000; -607.000
416.111; 1108.525; -798.000; -652.000
416.237;  203.150; -424.000; -571.000
416.363;  907.825; -765.000; -733.000
416.489; 3438.325; -324.000; -251.000
416.615;  362.700; -707.000; -742.000
416.741;  -27.000; -677.000; -784.000
416.866;  -98.500; -673.000; -736.000
416.992; -128.400; -801.000; -818.000
417.118;  -32.150;  -41.000;  -80.000
417.244;  -52.025; -798.000; -531.000
417.369;  -78.975; -801.000; -612.000
417.495;    2.100; -325.000; -254.000
417.621;  -78.975;-1015.000; -803.000
417.746;    8.475; -579.000; -572.000
417.872;   32.125; -254.000; -144.000
417.998;   28.550; -515.000; -530.000
418.123;  829.750;-1073.000; -845.000
418.249; 4495.500; -512.000; -601.000
418.374;  609.600; -916.000; -824.000
418.500;   84.350; -383.000; -482.000
418.626;  103.825;   70.000;  -59.000
418.751;  122.200; -549.000; -448.000
418.877;  159.925; -637.000; -643.000
419.002; 1488.650; -688.000; -560.000
419.128;10423.700; -930.000; -721.000
419.253; 2559.550; -967.000; -837.000
419.379;  319.400; -391.000; -338.000
419.504;  336.375;  325.000;  415.000
419.629;  411.475; -393.000; -212.000
419.755; 2776.300; -317.000; -254.000
419.880;16536.350;  -98.000;   67.000
420.006; 9510.425; -280.000; -221.000
420.131;25151.125; -662.000; -775.000
420.256; 3749.950; -315.000; -316.000
420.382;  492.950; -665.000; -687.000
420.507;   52.300; -649.000; -778.000
420.632;  200.125; -337.000; -339.000
420.758;  420.875; -251.000; -425.000
420.883;  -57.725; -876.000; -672.000
421.008;  -85.025; -775.000; -619.000
421.133;  -80.350; -509.000; -467.000
421.259;  -42.100; -325.000; -259.000
421.384; -105.475; -834.000; -693.000
421.509;    5.900;-1052.000; -862.000
421.634; 1851.475; -936.000; -820.000
421.759;  843.575; -359.000; -327.000
421.885;  -22.450; -717.000; -656.000
422.010;  -65.025; -673.000; -542.000
422.135; -134.800; -695.000; -727.000
422.260;   45.175;  340.000;  280.000
422.385;  -36.375;   12.000;  -98.000
422.510;   12.650;  151.000;  -26.000
422.635;   28.125;  -87.000;  -43.000
422.760;  142.350; -766.000; -791.000
422.885;   68.275;  -57.000;  -80.000
423.010;  -36.200; -112.000; -169.000
423.135;  -82.075; -481.000; -561.000
423.260;   -3.925; -150.000; -245.000
423.385;   93.275;  476.000;  222.000
423.510;   42.825;   71.000;  -22.000
423.635;  123.125;  133.000;   45.000
423.760;   69.750;  383.000;  328.000
423.885;   40.975;  336.000;  391.000
424.010;   17.425;  -68.000;  -13.000
424.135;  -10.550;    5.000;  -33.000
424.259;  -82.050; -654.000; -457.000
424.384;  -53.725; -279.000; -272.000
424.509;  -21.400; -260.000; -186.000
424.634;  -96.950; -761.000; -623.000
424.759;  -17.400; -688.000; -544.000
424.883;  -18.325; -506.000; -527.000
425.008;  138.225; -502.000; -410.000
425.133; 1684.700; -679.000; -653.000
425.258;  812.550; -517.000; -381.000
425.382; 1311.750; -867.000; -774.000
425.507; 3451.925; -487.000; -543.000
425.632;  501.975; -802.000; -663.000
425.756;  372.925; -256.000; -146.000
425.881; 4850.925; -831.000; -857.000
426.006;13196.950; -604.000; -355.000
426.130; 2223.125; -696.000; -508.000
426.255;  268.150; -611.000; -491.000
426.379;  124.750; -189.000; -577.000
426.504;  335.725;  660.000;  544.000
426.629; 3530.600; -519.000; -466.000
426.753; 2489.800;   64.000;  -46.000
426.878;  279.600; -252.000; -288.000
427.002;  121.925; -651.000; -668.000
427.127; 1378.350;  -35.000; -158.000
427.251; 9506.850;  372.000;  401.000
427.375; 2802.300; -191.000; -173.000
427.500; 2930.225; -616.000; -610.000
427.624; 1038.625; -234.000; -400.000
427.749;  147.875; -216.000; -225.000
427.873;  -17.000; -499.000; -412.000
427.997;  -24.625; -222.000; -230.000
428.122;   79.375;  795.000;  703.000
428.246;   96.075;  433.000;  434.000
428.371; -119.725; -869.000; -773.000
428.495;  -92.975; -624.000; -646.000
428.619;  -31.200; -186.000; -117.000
428.743;   38.275;   65.000;  132.000
428.868;   67.950; -732.000; -643.000
428.992; 1920.725; -219.000; -326.000
429.116;  834.500; -329.000; -357.000
429.240;  401.650;  419.000;  426.000
429.365;    3.350; -454.000; -574.000
429.489;  -19.000; -638.000; -647.000
429.613;   27.075; -236.000; -177.000
429.737;   41.625; -563.000; -432.000
429.861;  246.300; -247.000; -133.000
429.985; 4659.050; -425.000; -305.000
430.109; 5203.025; -770.000; -908.000
430.234;  604.025;   76.000;  -50.000
430.358;   64.775; -250.000; -160.000
430.482;  -63.125; -672.000; -564.000
430.606;  -55.325; -655.000; -375.000
430.730;   58.350; -437.000; -388.000
430.854;  256.200; -909.000; -835.000
430.978;  -38.775; -795.000; -764.000
431.102;  -85.650; -499.000; -422.000
431.226; -104.050; -874.000; -815.000
431.350;   44.225;  345.000;  422.000
431.474;  -56.700; -661.000; -373.000
431.597; -132.025;-1060.000; -848.000
431.721;  -87.275; -276.000; -267.000
431.845; -135.825; -704.000; -472.000
431.969;  -79.150; -304.000; -349.000
432.093;  -89.275; -395.000; -317.000
432.217;   -4.550;   32.000;   82.000
432.341; -101.125; -523.000; -518.000
432.464;   25.025;   96.000;   40.000
432.588;  325.500; -401.000; -329.000
432.712;  178.325;  -52.000;  -52.000
432.836;   36.250;  213.000;  263.000
432.959;  -28.125; -372.000; -311.000
433.083;   64.975;   11.000;    2.000
433.207;  319.100;  285.000;  930.000
433.330; 4088.900; -391.000; -200.000
433.454; 5092.825; -654.000; -638.000
433.578; 2968.875;  583.000;  278.000
433.701;  593.900; -623.000; -675.000
433.825;  218.250; -292.000; -299.000
433.949;  330.450;   28.000;  -72.000
434.072;  156.500; -410.000; -323.000
434.196;   -7.750; -309.000; -117.000
434.319; 3648.875;25482.000;25124.000
434.443;  717.500; -656.000; -603.000
434.566; 2274.075;  281.000;   62.000
434.690;  381.075; -637.000; -383.000
434.813;   55.800; -251.000; -173.000
434.937;  -73.475; -569.000; -696.000
435.060;   -1.775; -423.000; -332.000
435.184;  594.000; -492.000; -217.000
435.307;  315.400;  159.000;  102.000
435.431;    9.050;  -40.000;   24.000
435.554;  -66.975; -399.000; -240.000
435.677;  -84.325; -350.000; -258.000
435.801;  -30.350;  -25.000;   49.000
435.924;   18.900;    1.000;  -67.000
436.048;  -83.325;-1019.000; -732.000
436.171;  -76.100; -240.000;  -66.000
436.294;  -34.025; -248.000; -229.000
436.417;   57.600; -963.000; -849.000
436.541; -105.025; -814.000; -840.000
436.664;  -50.275; -242.000; -316.000
436.787;  -10.850;   13.000;  113.000
436.910; -110.650; -792.000; -422.000
437.034;   31.725;  142.000;  143.000
437.157;  122.150;  -11.000;    0.000
437.280;  -17.575; -392.000; -292.000
437.403;  -48.100; -982.000; -869.000
437.526; 1064.300; -903.000; -865.000
437.649; 3735.600; -505.000; -332.000
437.772;  639.050; -692.000; -540.000
437.896;  176.100;  700.000;  544.000
438.019;  -97.925; -758.000; -503.000
438.142;  -69.725; -596.000; -506.000
438.265;   39.525; -639.000; -670.000
438.388;  894.575; -520.000; -410.000
438.511;  225.850; -597.000; -394.000
438.634;  -13.775; -247.000; -125.000
438.757; -119.800; -693.000; -619.000
438.880;   -2.400;  -34.000;  -57.000
439.003;  -66.675; -417.000; -437.000
439.126;  -61.275; -287.000; -167.000
439.248;  -58.975;  -98.000; -139.000
439.371;  -47.150;    9.000;  -53.000
439.494;   18.200;  510.000;  439.000
439.617;  -50.225;   65.000;  -88.000
439.740; -193.650; -968.000; -816.000
439.863; -146.500; -755.000; -595.000
439.986; -124.825; -476.000; -431.000
440.108;  -41.675; -161.000; -112.000
440.231; -160.850; -950.000; -836.000
440.354;  -23.525;  -64.000; -150.000
440.477;  116.850; -566.000; -542.000
440.599;   59.700; -200.000; -225.000
440.722; -107.975; -709.000; -586.000
440.845;   70.475;  751.000;  928.000
440.968; -129.525; -415.000; -311.000
441.090;  -73.250; -199.000;  -33.000
441.213; -163.475;-1021.000; -825.000
441.336;  -40.900; -159.000;   -5.000
441.458;  -71.075; -549.000; -396.000
441.581;  -45.250; -628.000; -629.000
441.703;  -73.800; -152.000;   13.000
441.826; -109.375; -557.000; -400.000
441.948;  -49.475;   56.000;   51.000
442.071;   25.775;  555.000;  424.000
442.193; -104.325; -531.000; -485.000
442.316;   45.300;  152.000;   97.000
442.438;   44.350; -233.000;  -10.000
442.561;   95.950;  272.000;  262.000
442.683;  878.750; -809.000; -522.000
442.806; 1853.075;   -8.000;   74.000
442.928;  142.350; -859.000; -604.000
443.051;  -47.350; -577.000; -373.000
443.173; -101.725; -341.000; -339.000
443.295;  -85.000; -263.000; -371.000
443.418;  -70.500; -321.000;  -29.000
443.540;   16.425; -106.000;   -4.000
443.662; -108.725; -563.000; -465.000
443.785;  -12.175;  335.000;  199.000
443.907; -121.300; -362.000; -208.000
444.029; -132.075; -767.000; -494.000
444.152; -146.825; -644.000; -554.000
444.274;  -24.525;  -18.000;  -24.000
444.396; -104.700; -461.000; -221.000
444.518; -123.450; -691.000; -454.000
444.640; -107.875; -268.000; -111.000
444.763;  -21.825;  388.000;  249.000
444.885; -116.700; -432.000; -392.000
445.007;  -44.475;   35.000;   86.000
445.129; -108.625; -610.000; -515.000
445.251;  -99.925; -372.000; -439.000
445.373; -139.800; -537.000; -386.000
445.495;   -5.875;  242.000;  350.000
445.617;   49.400;  853.000;  753.000
445.739;  -75.950; -215.000;  -97.000
445.861;  -39.100; -245.000; -112.000
445.984;  -38.800; -267.000; -101.000
446.105;  331.500; -418.000; -251.000
446.227;  897.700; -176.000;  -19.000
446.349;   70.625; -358.000; -249.000
446.471;  -75.625; -615.000; -448.000
446.593;  -51.925; -316.000;   19.000
446.715;   21.100;  -67.000;   41.000
446.837;   77.300;  697.000;  832.000
446.959;  -93.725; -457.000; -478.000
447.081; -130.425; -628.000; -518.000
447.203;   45.975;  862.000;  834.000
447.325;  -80.050; -270.000;   42.000
447.446;    5.075;  286.000;  530.000
447.568; -147.700; -921.000; -803.000
447.690;  -66.850; -236.000; -245.000
447.812; -143.050; -798.000; -519.000
447.933;  -29.525;  155.000;  127.000
448.055;  -81.475; -306.000; -261.000
448.177;  199.850;   31.000;   79.000
448.299;  179.525; -935.000; -727.000
448.420;   38.250;  -25.000;  159.000
448.542;  -34.875;   -3.000;   33.000
448.664;  -22.700;  109.000;  322.000
448.785;  -50.850;  265.000;   83.000
448.907;  -70.650; -614.000; -353.000
449.028;    5.675; -771.000; -471.000
449.150;   71.075;  492.000;  589.000
449.272; -173.525;-1044.000; -913.000
449.393;   20.475;  612.000;  694.000
449.515; -149.025; -634.000; -581.000
449.636;  -40.950; -264.000; -155.000
449.758;   97.225;  763.000;  622.000
449.879;  -84.225; -498.000; -396.000
450.001;  -77.725; -149.000;  -49.000
450.122;  -46.950;  -95.000;  162.000
450.244;  -25.175;   37.000;  364.000
450.365; -105.700; -495.000; -301.000
450.486;  -50.175;   80.000;  268.000
450.608;    8.725;  393.000;  326.000
450.729;   58.425;  578.000;  645.000
450.850;  -36.450; -574.000; -466.000
450.972;  535.850; -552.000; -389.000
451.093; 3821.275;  190.000;  588.000
451.214; 1677.975; -516.000; -337.000
451.336;  307.425;  773.000;  579.000
451.457;   39.050;  264.000;  393.000
451.578;  -44.625; -118.000;  -74.000
451.699; -128.525; -546.000; -540.000
451.821;  -66.725; -284.000;  -50.000
451.942;   -7.175;  278.000;  285.000
452.063;   17.850;  228.000;  419.000
452.184;  433.700;  -54.000;  -49.000
452.305;  913.325;  103.000;  170.000
452.427;   84.450; -549.000; -301.000
452.548;  -11.050;   23.000;   79.000
452.669;  -42.075; -257.000;  -89.000
452.790;  -36.625;    3.000;  -18.000
452.911;   -0.350;  195.000;  259.000
453.032;  -65.775; -289.000;  -60.000
453.153;  -31.475;  -29.000;   81.000
453.274;   59.750;  737.000;  868.000
453.395;  -46.275;  -51.000;  175.000
453.516;  138.375; 1317.000; 1388.000
453.637;  -52.675; -205.000; -150.000
453.758;  -40.750;   15.000;   69.000
453.879; -127.725; -462.000; -250.000
454.000;   84.975; 1086.000;  948.000
454.121; -110.125; -554.000; -326.000
454.242; -104.450; -599.000; -383.000
454.362;  -53.500;  -99.000;  114.000
454.483;  -34.925; -309.000; -229.000
454.604;   92.350;  512.000;  580.000
454.725; -119.025; -627.000; -555.000
454.846; -111.275; -474.000; -406.000
454.967;  -23.850;  230.000;  539.000
455.087;  -38.800;  179.000;  153.000
455.208;   18.750;  554.000;  856.000
455.329;  -62.150;  -22.000;   82.000
455.450;   29.375;  473.000;  633.000
455.570;  -88.400; -234.000; -211.000
455.691;  -47.450;  201.000;  407.000
455.812; -115.150; -270.000;  -92.000
455.932;  -59.550;  107.000;  -97.000
456.053;  -76.900;   36.000;   24.000
456.173; -116.850; -433.000; -355.000
456.294; -129.075; -476.000; -303.000
456.415;  -62.475;  -73.000;   70.000
456.535;  -33.300;  297.000;  273.000
456.656;  -52.250;  132.000;  240.000
456.776;  -79.375;    3.000;  298.000
456.897;   -8.875;  308.000;  513.000
457.017;  -78.275; -153.000;   -3.000
457.138;  -95.350; -402.000; -249.000
457.258;  -29.450;  263.000;  224.000
457.379;  -13.425;  509.000;  521.000
457.499;  -26.800;  443.000;  432.000
457.620; -127.700; -407.000; -231.000
457.740;  -94.025; -132.000;  -11.000
457.860;  -67.525;   87.000;   44.000
457.981;  -53.350;  132.000;  124.000
458.101;  -64.675;  -89.000;   40.000
458.221;   -8.250;  336.000;  402.000
458.342;  -54.900;   -4.000;  -37.000
458.462;   20.725;  617.000;  352.000
458.582;  -51.150; -302.000; -294.000
458.703;  -21.900;  303.000;  154.000
458.823;  -21.600;   22.000;  163.000
458.943;   23.625;  341.000;  467.000
459.063;   -8.925; 1124.000;  192.000
459.183;  -20.000;  328.000;  313.000
459.304;   10.925;  315.000;  517.000
459.424;  -68.050; -246.000;  -89.000
459.544;  267.975;  388.000;  764.000
459.664;  686.375;  499.000;  506.000
459.784;  256.925; 1004.000; 1175.000
459.904;   58.125;  867.000;  744.000
460.024;   75.100;  867.000;  684.000
460.144;   15.000;  449.000;  554.000
460.264;   -6.400;  515.000;  327.000
460.385;  -87.900; -145.000; -119.000
460.505;   22.775;  905.000;  858.000
460.625;  -95.450;  -17.000;  -68.000
460.745;  -24.500;  396.000;  541.000
460.864;  -48.975;  153.000;  469.000
460.984;   28.800;  499.000;  573.000
461.104;  152.050; 1656.000; 1775.000
461.224;   19.350;  657.000;  650.000
461.344;  -33.000;  431.000;  360.000
461.464;  -32.925;  258.000;  513.000
461.584;  -10.475;  283.000;  466.000
461.704;  -34.675;   58.000;  108.000
461.824;  -52.900;  238.000;  259.000
461.943;  -39.700;  191.000;  130.000
462.063;  -63.925;    2.000;  324.000
462.183;   46.525;  639.000;  717.000
462.303;  105.550; 1678.000; 1230.000
462.422;   37.875;  781.000;  840.000
462.542;  -34.850;  271.000;  391.000
462.662;   45.925;  353.000;  380.000
462.782;  212.725;  833.000;  572.000
462.901;  405.875;  545.000;  717.000
463.021;  265.250; 1702.000; 1638.000
463.141;  -34.475;  337.000;  770.000
463.260;  -22.650;  614.000;  474.000
463.380;   24.100;  902.000;  884.000
463.499;  -45.550;  342.000;  332.000
463.619;  -46.400;  581.000;  559.000
463.738;   99.750; 1644.000;  903.000
463.858;   18.925;  657.000;  811.000
463.978;  -28.850;  542.000;  396.000
464.097;   42.725;  921.000; 1114.000
464.217;   89.475; 1196.000; 1143.000
464.336;  107.025; 1068.000; 1130.000
464.455;  -30.075;  328.000;  659.000
464.575;   67.725;  597.000;  602.000
464.694;  185.850; 1204.000; 1179.000
464.814;  120.675; 1190.000; 1138.000
464.933;   82.800; 1095.000; 1027.000
465.052;   97.100; 1412.000; 1054.000
465.172;  100.875;  922.000;  799.000
465.291;  175.125; 1376.000; 1320.000
465.410;   18.300;  462.000;  735.000
465.530;   79.975; 1355.000; 1310.000
465.649;   77.975; 1209.000; 1273.000
465.768;  148.650; 1673.000; 1508.000
465.888;   49.625;  941.000; 1174.000
466.007;   82.800; 1335.000; 1440.000
466.126;   -0.025;  721.000;  641.000
466.245;   38.350; 1176.000; 1187.000
466.364;   27.750;  950.000; 1060.000
466.484;   69.275; 1024.000; 1213.000
466.603;   42.700; 1101.000; 1222.000
466.722;  124.475; 1490.000; 1769.000
466.841;   84.200; 1151.000; 1401.000
466.960;   44.775; 1069.000;  972.000
467.079;  136.600; 1971.000; 1786.000
467.198;   45.450; 1238.000; 1181.000
467.317;   80.025; 1768.000; 1162.000
467.436;   78.150; 1709.000; 1261.000
467.555;  117.975; 1796.000; 1746.000
467.674;   59.250; 1227.000; 1329.000
467.793;   39.250; 1376.000; 1374.000
467.912;   82.275; 1658.000; 1539.000
468.031;  129.850; 2038.000; 1930.000
468.150;  142.350; 1842.000; 1837.000
468.269;  210.450; 2313.000; 2090.000
468.388;  188.300; 2168.000; 2339.000
468.507;  257.900; 2884.000; 2903.000
468.626;  219.375; 2555.000; 2541.000
468.744;  147.575; 2018.000; 2174.000
468.863;  206.675; 2312.000; 2523.000
468.982;   77.950; 1503.000; 1555.000
469.101;  215.600; 2788.000; 2692.000
469.220;  149.850; 2333.000; 2176.000
469.338;  249.525; 2935.000; 3051.000
469.457;  198.725; 2719.000; 2545.000
469.576;  346.525; 3953.000; 3784.000
469.695;  240.825; 2877.000; 3066.000
469.813;  431.800; 4148.000; 4192.000
469.932;  410.300; 4255.000; 4485.000
470.051;  420.500; 4075.000; 4161.000
470.169;  766.075; 4470.000; 4338.000
470.288; 1297.525; 4700.000; 4809.000
470.406;  819.800; 5059.000; 5194.000
470.525;  603.950; 6101.000; 5787.000
470.644;  648.000; 6847.000; 6794.000
470.762;  808.400; 8397.000; 7873.000
470.881;  901.675; 8651.000; 8464.000
470.999; 1038.500; 9685.000; 9151.000
471.118; 1092.700;11174.000;10711.000

