
Integration time [ms]: 100.000
Averaging Nr. [scans]: 40
Smoothing Nr. [pixels]: 0
Data measured with spectrometer [name]: 2101012U2
Wave   ;Sample   ;Dark     ;Reference
[nm]   ;[counts] ;[counts] ;[counts] 

197.733;   63.125;  516.000;  404.000
197.879;  -87.200; -610.000; -634.000
198.025;  -51.300; -475.000; -420.000
198.171;  -81.775; -602.000; -612.000
198.317;  -26.650; -401.000; -316.000
198.463;  -59.250; -655.000; -404.000
198.609;   26.825;  181.000; -137.000
198.755;  -83.800; -644.000; -410.000
198.901;  -70.000; -505.000; -424.000
199.047;  -48.375; -615.000; -488.000
199.193;  -42.400; -230.000; -468.000
199.339;  -38.650; -222.000; -369.000
199.485;   40.950;  330.000;  271.000
199.631;   11.975;  227.000;  310.000
199.777;  -52.550; -466.000; -398.000
199.923;  -53.200; -610.000; -424.000
200.069;  -11.650; -141.000;  -58.000
200.215;   44.500;  128.000;  453.000
200.361;   43.050;  243.000;  477.000
200.507;  -80.075; -600.000; -373.000
200.653;  -24.125; -371.000; -194.000
200.798;  -40.150; -215.000; -125.000
200.944;  -16.125; -146.000;  -41.000
201.090;   50.475;   61.000;  222.000
201.236;    9.525; -116.000; -158.000
201.382;  133.350;  874.000;  903.000
201.528;   -0.075;  -58.000;  -48.000
201.674;  -20.950; -386.000; -293.000
201.819;  -59.625; -540.000; -439.000
201.965;  -79.100; -699.000; -447.000
202.111;  -29.725; -273.000; -226.000
202.257;  -41.350; -250.000; -238.000
202.402;    6.925;   13.000;  -36.000
202.548;  -30.050; -169.000; -116.000
202.694;   83.250;  410.000; -183.000
202.840;  -67.125; -603.000; -531.000
202.985;  -71.825; -681.000; -639.000
203.131; -107.100; -832.000; -666.000
203.277;  -23.100; -199.000; -262.000
203.423;  -44.500; -434.000; -520.000
203.568;  -36.275; -462.000; -237.000
203.714;  -64.975; -535.000; -542.000
203.860;  -83.750; -682.000; -641.000
204.005;   20.650;  112.000;  167.000
204.151;   70.275;  561.000;  556.000
204.296;  -52.900; -354.000; -221.000
204.442;  -66.300; -600.000; -547.000
204.588;  -72.825; -592.000; -579.000
204.733;   26.175;  178.000;  168.000
204.879; -123.675;-1018.000; -822.000
205.025;   12.300;  -99.000;  126.000
205.170;  -11.425;  -17.000;   94.000
205.316;   73.650;  438.000;  661.000
205.461;  -74.525; -698.000; -554.000
205.607;   74.200;  609.000;  665.000
205.752;  -77.825; -626.000; -551.000
205.898;  -50.275; -501.000; -391.000
206.043;  -58.850; -578.000; -506.000
206.189;  -42.750; -243.000; -285.000
206.334;   71.300;  554.000;  606.000
206.480;   67.450;  409.000;  239.000
206.625;  -83.625; -529.000; -552.000
206.771;  -57.100; -451.000; -373.000
206.916;  -32.275; -210.000; -537.000
207.062;  -62.725; -545.000; -591.000
207.207;  -45.725; -546.000; -443.000
207.353;   46.875;  185.000;  460.000
207.498;   13.250;  196.000;   85.000
207.643;  -59.425; -501.000; -370.000
207.789; -123.300;-1069.000; -910.000
207.934;  -92.100; -665.000; -713.000
208.080;  -23.475; -154.000;   66.000
208.225;   -7.400;  -22.000;  -57.000
208.370;  -65.650; -727.000; -619.000
208.516;  -77.150; -741.000; -487.000
208.661;  -15.675; -127.000;  -69.000
208.806;  -21.000; -165.000; -171.000
208.952; -115.225;-1044.000; -731.000
209.097;   73.225;  378.000;  349.000
209.242;  -57.750; -307.000; -382.000
209.387;   58.750;  392.000;  350.000
209.533;  -55.175; -321.000; -350.000
209.678;   65.525;  472.000;  543.000
209.823;  -46.675; -408.000; -310.000
209.969;  -99.375; -860.000; -757.000
210.114; -103.825; -907.000; -719.000
210.259; -119.175; -939.000; -889.000
210.404;  -12.025; -171.000;  103.000
210.549;    5.225;  108.000;    3.000
210.695;  -21.025;   -3.000;  -95.000
210.840;   29.125;   94.000;   67.000
210.985;  -62.925; -484.000; -303.000
211.130;   57.175;  268.000;  406.000
211.275;   17.800;  207.000;  199.000
211.420;  -53.075; -300.000; -289.000
211.566;  -75.650; -536.000; -489.000
211.711;    8.750;  218.000;  157.000
211.856;  -53.025; -545.000; -519.000
212.001;   22.475;  151.000;   44.000
212.146;   25.825;  153.000;   49.000
212.291;  -17.625; -210.000; -186.000
212.436;  -31.600; -280.000;   -6.000
212.581;  -94.250; -685.000; -653.000
212.726;  -76.350; -487.000; -538.000
212.871;  -47.500; -552.000; -217.000
213.016; -142.175;-1172.000;-1029.000
213.161;   60.875;  406.000;  291.000
213.306;  -65.850; -435.000; -577.000
213.451; -100.975; -778.000; -689.000
213.596;  -35.450; -455.000; -347.000
213.741;  -67.025; -448.000; -538.000
213.886;  -68.650; -498.000; -517.000
214.031;  -23.975; -294.000; -124.000
214.176;  -51.250; -408.000; -341.000
214.321;  -23.225; -296.000; -157.000
214.466;  -22.875; -163.000;  -43.000
214.611;   -3.875;  -61.000;  -10.000
214.756; -107.575; -948.000; -858.000
214.901;  -32.325; -388.000; -226.000
215.046; -109.450; -797.000; -825.000
215.191;    3.900;  128.000;   35.000
215.336;  -17.025; -157.000;  -19.000
215.480;  -82.025; -684.000; -505.000
215.625;  -23.525; -175.000;  -19.000
215.770;  -88.050; -757.000; -662.000
215.915;  -12.425;   -5.000;  -97.000
216.060;    4.475; -113.000;  -21.000
216.205; -101.925; -731.000; -779.000
216.349;  -79.550; -470.000; -533.000
216.494; -126.600; -939.000; -867.000
216.639; -106.825; -823.000; -888.000
216.784;  -90.325; -577.000; -525.000
216.929;   37.050;  392.000;  281.000
217.073;   -8.925; -244.000;  -31.000
217.218;    1.550;   78.000;  -47.000
217.363;  -87.925; -656.000; -618.000
217.507;  -69.400; -623.000; -588.000
217.652; -111.200; -845.000; -874.000
217.797;  -88.000; -708.000; -659.000
217.942; -110.850; -856.000; -720.000
218.086;   58.375;  608.000;  539.000
218.231;  -20.975; -174.000;  -26.000
218.376;  -31.500; -337.000; -229.000
218.520;   -3.000;  -41.000;   96.000
218.665;  -34.700; -338.000; -204.000
218.810;  -54.525; -275.000; -233.000
218.954;   16.400;  201.000;   35.000
219.099; -105.250; -713.000; -963.000
219.243;  -61.725; -589.000; -554.000
219.388;  -29.425; -264.000; -136.000
219.532;   -3.200; -116.000; -116.000
219.677;  -85.325; -564.000; -521.000
219.822;    0.425;   33.000;   89.000
219.966;    2.225;   17.000;  -99.000
220.111;  -28.625; -328.000;  -40.000
220.255;  -88.900; -797.000; -750.000
220.400;  -25.100; -180.000; -146.000
220.544;  -71.175; -516.000; -450.000
220.689;  -42.600; -422.000; -451.000
220.833;  -35.150; -123.000;  -58.000
220.978;  -40.150; -393.000; -563.000
221.122;   24.850;  319.000;  307.000
221.267; -108.850; -906.000; -837.000
221.411;  -65.025; -478.000; -394.000
221.555;  -15.825; -104.000;  -23.000
221.700;  -43.075; -329.000; -222.000
221.844;   38.550;  255.000;  272.000
221.989;  -54.025; -328.000; -311.000
222.133;  -42.775; -289.000; -307.000
222.277;  -12.400;    5.000;   78.000
222.422;   16.925;  227.000;  113.000
222.566;  -49.625; -381.000; -214.000
222.711;  -58.475; -414.000; -479.000
222.855;  -80.000; -643.000; -586.000
222.999;  -87.575; -642.000; -717.000
223.144;  -16.125; -195.000; -194.000
223.288;   46.775;  423.000;  251.000
223.432;   15.175;  184.000;  230.000
223.576;   17.550;  152.000;  -21.000
223.721;   29.350;  364.000;  273.000
223.865;  -61.975; -472.000; -475.000
224.009;  253.550; 1673.000; 1631.000
224.153;  -80.600; -660.000; -671.000
224.298;  -53.900; -531.000; -489.000
224.442;  -15.625;  -74.000;  -33.000
224.586;   -8.475; -169.000; -106.000
224.730;  -84.150; -858.000; -670.000
224.875; -103.825; -739.000; -688.000
225.019;   16.750;  102.000;  188.000
225.163;   43.450;  208.000;  341.000
225.307;   15.225;   97.000;  -91.000
225.451;   52.500;  360.000;  481.000
225.595;   19.325;  264.000;  176.000
225.739;  -11.550; -170.000;  -94.000
225.884;    4.100;   86.000;    5.000
226.028;  -96.775; -760.000; -626.000
226.172;  -40.275; -260.000; -273.000
226.316; -119.300; -941.000; -902.000
226.460;  -71.150; -645.000; -493.000
226.604;  -40.000; -406.000; -400.000
226.748;  -99.700; -836.000; -733.000
226.892;  -38.875; -227.000; -181.000
227.036;  -66.125; -537.000; -447.000
227.180;  -54.350; -551.000; -375.000
227.324;  -53.625; -561.000; -580.000
227.468; -105.575; -819.000; -717.000
227.612;   12.950;  242.000;  -28.000
227.756; -108.575; -845.000; -698.000
227.900;   43.725;  342.000;  441.000
228.044;  -67.500; -509.000; -290.000
228.188;   47.400;  448.000;  568.000
228.332;  -95.400; -546.000; -472.000
228.476;  -13.675; -223.000; -149.000
228.620;  -34.700; -210.000; -150.000
228.764;   41.650;  431.000;  349.000
228.908;  -11.875; -155.000;   30.000
229.052;  -74.475; -615.000; -528.000
229.195;  -19.650; -172.000;   13.000
229.339;  -36.000; -235.000; -305.000
229.483;  -14.550;    5.000; -162.000
229.627;   -3.800; -156.000;  139.000
229.771;  -47.975; -218.000; -294.000
229.915;   16.025;  230.000;   79.000
230.059;  -85.775; -648.000; -663.000
230.202;  -27.950; -370.000; -317.000
230.346;   -2.750; -107.000;  107.000
230.490;  -53.875; -489.000; -521.000
230.634;  -99.900; -736.000; -553.000
230.777;   73.775;  478.000;  509.000
230.921;  -62.800; -450.000; -359.000
231.065;  -31.125; -246.000; -286.000
231.209;   17.300;  261.000;  265.000
231.352;   22.250;   54.000;   40.000
231.496;    6.025;  568.000;  188.000
231.640;  -82.500; -693.000; -621.000
231.783;   51.450;  546.000;  525.000
231.927;  -45.925; -294.000; -365.000
232.071; -114.950; -962.000; -736.000
232.214; -109.100; -980.000; -764.000
232.358;  -94.500; -683.000; -599.000
232.502;    3.450;  -19.000;    7.000
232.645; -126.475;-1090.000; -927.000
232.789;  -36.925; -257.000; -218.000
232.933;  -31.675; -407.000; -224.000
233.076; -133.100;-1038.000; -897.000
233.220; -106.875; -752.000; -777.000
233.363;  -78.950; -669.000; -477.000
233.507;   63.975;  371.000;  129.000
233.650;  -92.525; -764.000; -834.000
233.794;   37.750;  438.000;  461.000
233.938;  -59.400; -530.000; -362.000
234.081;  -25.425;  -93.000;   31.000
234.225;  -72.250; -631.000; -539.000
234.368; -115.075; -773.000; -723.000
234.512;  -40.425; -385.000; -299.000
234.655;  -81.050; -582.000; -555.000
234.798;  -65.675; -493.000; -466.000
234.942; -127.050; -884.000;-1002.000
235.085;  -75.675; -651.000; -443.000
235.229;  -66.150; -405.000; -410.000
235.372;  -54.725; -247.000; -191.000
235.516;  -54.925; -397.000; -321.000
235.659;   16.125;   92.000;  121.000
235.802;  -13.075;  -38.000;  -22.000
235.946;   35.450;  335.000;  215.000
236.089;   11.875;  126.000;  250.000
236.233;   51.400;  275.000;  298.000
236.376;  -46.600; -235.000; -378.000
236.519;  -42.200; -297.000; -319.000
236.663;  -19.375; -215.000; -117.000
236.806; -139.725;-1029.000; -999.000
236.949;   52.400;  543.000;  431.000
237.092;   44.000;  412.000;  391.000
237.236;  -87.650; -589.000; -502.000
237.379;   64.075;  352.000;  428.000
237.522; -110.625; -879.000; -768.000
237.666;  -14.225; -271.000;   18.000
237.809; -123.600; -851.000; -823.000
237.952;   22.525;  469.000;  271.000
238.095;  -66.775; -447.000; -442.000
238.238;   72.900;  688.000;  700.000
238.382;   -2.525;  166.000;  103.000
238.525;  -67.200; -598.000; -511.000
238.668; -136.550;-1060.000; -985.000
238.811;  -78.900; -638.000; -643.000
238.954;  -48.050; -483.000; -334.000
239.097;   79.900;  617.000;  664.000
239.241;   19.750;  394.000;  326.000
239.384;  -43.650; -254.000; -214.000
239.527;  -56.700; -424.000; -224.000
239.670; -131.500; -994.000;-1091.000
239.813; -112.375; -696.000; -658.000
239.956;   73.250;  579.000;  473.000
240.099; -108.650; -778.000; -725.000
240.242;   51.250;  428.000;  432.000
240.385;   42.925;  466.000;  450.000
240.528;  -65.400; -706.000; -473.000
240.671;   18.075;  189.000;  134.000
240.814;  -48.250; -441.000; -158.000
240.957;  -99.425; -767.000; -578.000
241.100;  -88.375; -779.000; -755.000
241.243; -132.650;-1234.000; -893.000
241.386;  -74.875; -508.000; -379.000
241.529;  -91.350; -735.000; -547.000
241.672;  -67.850; -566.000; -495.000
241.815; -109.100; -832.000; -808.000
241.958;  -33.400; -125.000; -182.000
242.101;  -64.800; -545.000; -390.000
242.244;  -46.625; -270.000; -325.000
242.387;  -42.050; -304.000; -246.000
242.530;   54.425;  470.000;  134.000
242.673;  -44.450; -381.000; -309.000
242.815; -122.525; -925.000; -899.000
242.958;  -67.675; -482.000; -381.000
243.101;   11.725;  132.000;  187.000
243.244;  -71.750; -564.000; -521.000
243.387;  -51.450; -313.000; -316.000
243.530;  -97.675; -657.000; -674.000
243.672;   -0.125;   43.000;  -92.000
243.815;  -65.075; -355.000; -283.000
243.958;    3.900;   98.000;  -26.000
244.101;   -1.475;   59.000;  -16.000
244.243;   -9.275;  -47.000;  101.000
244.386; -106.350; -761.000; -630.000
244.529;  -26.575; -132.000; -139.000
244.672; -152.825;-1154.000; -951.000
244.814;  -90.925; -621.000; -794.000
244.957;  -34.775; -380.000; -304.000
245.100;  -58.975; -489.000; -489.000
245.242;  -62.000; -387.000; -374.000
245.385;  -10.950;  -59.000;  -39.000
245.528; -105.500; -871.000; -705.000
245.670;   80.450;  612.000;  634.000
245.813;  -93.175; -599.000; -547.000
245.956;  -24.350; -324.000; -275.000
246.098;  -65.700; -508.000; -650.000
246.241;   -3.500;  194.000;   48.000
246.383;  -20.875; -119.000;  -73.000
246.526;  -63.800; -454.000; -525.000
246.669; -103.100; -889.000; -780.000
246.811;   18.550;  172.000;   -1.000
246.954;  -61.425; -512.000; -426.000
247.096;  -17.700;  -84.000;   -6.000
247.239;  -71.400; -482.000; -445.000
247.381;  -70.175; -647.000; -488.000
247.524;   77.200;  645.000;  679.000
247.666;  -16.675;   58.000;   11.000
247.809; -116.450; -887.000; -691.000
247.951;  -11.850;  -75.000;  138.000
248.094;   40.900;  432.000;  308.000
248.236; -161.475;-1262.000;-1238.000
248.378;   17.525; -356.000;  -81.000
248.521;  -15.900; -334.000; -337.000
248.663;  -43.725; -236.000; -267.000
248.806;  -29.925; -300.000; -266.000
248.948;  -91.925; -886.000; -763.000
249.090;  -43.925; -428.000; -398.000
249.233;  -48.500; -344.000; -381.000
249.375;  -65.200; -474.000; -451.000
249.518;  -29.275;  -83.000; -133.000
249.660;   -7.075; -103.000;    3.000
249.802; -172.700;-1303.000;-1189.000
249.945;  -79.300; -612.000; -540.000
250.087; -112.775; -834.000; -768.000
250.229;  -51.625; -362.000; -480.000
250.371;  -65.450; -494.000; -439.000
250.514;  -44.025; -310.000; -244.000
250.656;  -62.750;   69.000;  102.000
250.798; -119.250; -849.000; -800.000
250.940;  -67.525; -322.000; -322.000
251.083;  -25.725; -335.000; -111.000
251.225;   54.575;  338.000;  310.000
251.367;  -52.200; -274.000; -373.000
251.509;  -34.775; -265.000; -210.000
251.651;  -96.375; -731.000; -671.000
251.794;   38.800;  538.000;  632.000
251.936;  -92.925; -821.000; -747.000
252.078;  -77.775; -540.000; -461.000
252.220;  -93.225; -645.000; -477.000
252.362;   85.675;  344.000;  462.000
252.504;  -62.600; -677.000; -584.000
252.646;  -99.550; -875.000; -722.000
252.788;    0.700;   14.000; -128.000
252.931;  -36.200; -257.000; -253.000
253.073;  -41.950; -376.000; -317.000
253.215;  -11.100;  141.000;  122.000
253.357;  -17.800;   82.000; -153.000
253.499;  -56.950; -374.000; -234.000
253.641;  -82.675; -749.000; -594.000
253.783;  -76.625; -609.000; -527.000
253.925;  -83.425; -586.000; -591.000
254.067; -104.250; -744.000; -667.000
254.209;  -33.950; -391.000; -259.000
254.351; -118.725; -865.000; -883.000
254.493;  -55.500; -441.000; -417.000
254.635; -126.700; -936.000; -818.000
254.777;  -86.775; -752.000; -687.000
254.918;  -70.600; -512.000; -430.000
255.060;  -63.625; -551.000; -395.000
255.202;  -43.550; -473.000; -261.000
255.344;  -68.600; -658.000; -455.000
255.486;  -70.600; -471.000; -406.000
255.628;  -91.850; -780.000; -781.000
255.770;  -81.425; -676.000; -536.000
255.912;  -50.750; -559.000; -468.000
256.053;  -85.000; -730.000; -508.000
256.195;  157.325; 1008.000;  903.000
256.337;  -91.200; -861.000; -595.000
256.479;   66.475;  532.000;  416.000
256.621;  -43.200; -394.000; -212.000
256.762;  -97.600; -789.000; -742.000
256.904;   50.725;  485.000;  487.000
257.046;  -42.000; -381.000; -271.000
257.188;  -56.375; -351.000; -264.000
257.329;  -70.750; -525.000; -464.000
257.471; -104.350; -939.000; -807.000
257.613;  -60.775; -584.000; -498.000
257.755; -151.150;-1073.000; -982.000
257.896;   33.975;  286.000;  392.000
258.038;  -63.700; -403.000; -352.000
258.180;  -43.400; -354.000; -279.000
258.321;  -93.875; -581.000; -457.000
258.463;   -9.725;  -71.000;  133.000
258.605;  -78.925; -562.000; -570.000
258.746; -102.925; -886.000; -772.000
258.888; -153.675;-1026.000;-1020.000
259.029;    6.775;  121.000;   -8.000
259.171;  -82.800; -614.000; -550.000
259.313;  -20.325;  -49.000;  -47.000
259.454;  -68.350; -536.000; -414.000
259.596;  -60.200; -483.000; -390.000
259.737;  -76.275; -590.000; -474.000
259.879;   23.825;  217.000;  311.000
260.020;   93.200;  901.000;  636.000
260.162;  -17.375; -146.000; -253.000
260.303; -117.225; -768.000; -687.000
260.445;  -90.100; -609.000; -613.000
260.586;   28.700;  392.000;  157.000
260.728;  -42.525; -360.000; -248.000
260.869;  -69.150; -350.000; -343.000
261.011;   69.350;  706.000;  537.000
261.152;  -62.875; -479.000; -319.000
261.293;  -81.975; -576.000; -595.000
261.435;  -39.950; -219.000; -184.000
261.576;  -43.300; -455.000; -325.000
261.718;   46.775;  420.000;  470.000
261.859; -118.925; -940.000; -949.000
262.000; -127.150; -951.000;-1016.000
262.142;  -39.175;  -52.000;  -60.000
262.283; -121.525; -808.000; -691.000
262.424;  -92.325; -666.000; -625.000
262.566; -135.475;-1161.000; -983.000
262.707; -106.975; -840.000; -830.000
262.848; -129.750; -769.000; -726.000
262.990;  -47.800; -362.000; -345.000
263.131;   68.100;  650.000;  681.000
263.272;  -12.025;  -61.000;  -41.000
263.413; -100.500; -589.000; -561.000
263.555;  -72.675; -669.000; -143.000
263.696;  -71.575; -550.000; -641.000
263.837;  -68.225; -449.000; -551.000
263.978;  -12.400;   -5.000;  -77.000
264.119;  -47.375; -283.000; -264.000
264.261; -110.800; -847.000; -630.000
264.402;   -9.050;   33.000;   40.000
264.543;  -70.650; -509.000; -524.000
264.684;   -9.350;   61.000;  -50.000
264.825;  -73.350; -816.000; -538.000
264.966;  -15.200;  -84.000;  -67.000
265.107; -111.250; -646.000; -670.000
265.248; -110.425; -825.000; -812.000
265.390;  -17.550;  152.000;   -9.000
265.531;  -21.350; -238.000; -107.000
265.672;  -90.650; -557.000; -630.000
265.813;   48.975;  563.000;  439.000
265.954; -131.875; -959.000; -940.000
266.095;  -29.800; -372.000; -322.000
266.236;  -96.975; -686.000; -548.000
266.377;  -37.700; -243.000; -297.000
266.518;  -76.500; -619.000; -547.000
266.659;   16.050;  170.000;  268.000
266.800;   14.850;   83.000;   85.000
266.941;  -87.550; -487.000; -478.000
267.082;   10.025;  354.000;   99.000
267.223;  -59.275; -344.000; -273.000
267.364; -118.925; -892.000; -686.000
267.504;  -25.175;    3.000;  135.000
267.645;   -5.825;  160.000;   67.000
267.786;  -26.275; -147.000;  -86.000
267.927;  -61.200; -473.000; -379.000
268.068;  -26.375; -186.000;  -61.000
268.209;  -57.450; -175.000; -413.000
268.350;  -46.800; -388.000; -532.000
268.490;  -86.550; -648.000; -521.000
268.631;   30.125;  127.000;  225.000
268.772; -103.225; -874.000; -647.000
268.913;  -43.550; -328.000; -476.000
269.054;   -9.375; -117.000;   12.000
269.194;  -50.775; -418.000; -402.000
269.335; -168.600;-1137.000;-1074.000
269.476;  -24.450;   33.000;  -35.000
269.617;  -51.000; -347.000; -392.000
269.757;  -87.200; -713.000; -646.000
269.898;  -94.700; -856.000; -613.000
270.039;  -58.125; -415.000; -405.000
270.180; -134.275; -952.000; -816.000
270.320;  -15.750; -190.000; -250.000
270.461;  -52.725; -277.000; -249.000
270.602;  -19.925; -186.000; -156.000
270.742; -123.100; -868.000; -943.000
270.883;  -58.675; -442.000; -390.000
271.023;  -58.625; -358.000; -357.000
271.164;  -86.475; -607.000; -528.000
271.305;  -96.425; -666.000; -654.000
271.445;  -99.075; -722.000; -683.000
271.586;  -69.925; -462.000; -283.000
271.726;  -46.350; -397.000; -322.000
271.867;  -33.375; -594.000; -534.000
272.008;  206.825; -473.000; -285.000
272.148;  137.600;  462.000;  468.000
272.289;   28.675; -113.000; -181.000
272.429;   11.450;   19.000;  185.000
272.570;  -91.750; -633.000; -737.000
272.710;  -96.775; -825.000; -775.000
272.851;   -9.625;  113.000; -130.000
272.991; -150.150;-1173.000;-1077.000
273.131;  -62.200; -419.000; -459.000
273.272; -102.875; -683.000; -723.000
273.412;   10.375; -143.000;  -31.000
273.553;  -31.100; -488.000; -507.000
273.693;  134.375;  913.000;  858.000
273.834;  -82.100; -894.000; -692.000
273.974;  -77.175; -664.000; -615.000
274.114;  -87.500; -772.000; -560.000
274.255;   59.300;  414.000;  373.000
274.395;   17.250; -180.000; -125.000
274.535;   46.425;  199.000;  350.000
274.676;   31.750;  225.000;   94.000
274.816;    6.000;  110.000;   34.000
274.956;  -76.450; -624.000; -690.000
275.097;  -52.725;-1014.000; -922.000
275.237;  -98.800; -913.000; -803.000
275.377; -103.325; -778.000; -689.000
275.517; -142.025; -878.000; -937.000
275.658;  -59.875; -590.000; -555.000
275.798;  -48.700; -606.000; -413.000
275.938;   22.550;  215.000;  323.000
276.078;  -82.000; -626.000; -395.000
276.218;   13.650;   99.000;  104.000
276.359;  -75.450;-1026.000;-1024.000
276.499;  -60.550; -605.000; -446.000
276.639;  -31.950; -305.000; -151.000
276.779;  -38.525; -475.000; -357.000
276.919;  -98.325; -783.000; -624.000
277.059;  -16.900; -261.000; -212.000
277.199;  -34.575; -357.000; -259.000
277.340;   37.875;  287.000;  175.000
277.480; -111.575; -840.000; -693.000
277.620;   17.700;  192.000;   16.000
277.760; -189.100;-1533.000;-1294.000
277.900;   20.625;  113.000;   33.000
278.040;   27.525;  137.000;  159.000
278.180;   48.850;  270.000;  170.000
278.320;  -12.150;   21.000;   56.000
278.460;  -66.700; -443.000; -469.000
278.600;  -77.000; -708.000; -598.000
278.740;   49.700;  448.000;  224.000
278.880;  -16.175; -768.000; -791.000
279.020;    1.350; -194.000; -144.000
279.160;  -82.675; -672.000; -595.000
279.300; -120.175; -926.000; -873.000
279.440;  -74.050; -709.000; -622.000
279.579;   -5.225;-1014.000; -929.000
279.719;  -47.600; -410.000; -394.000
279.859;   87.150;   -4.000;   41.000
279.999;   30.925; -208.000;  101.000
280.139;  -19.525; -435.000; -387.000
280.279;  -68.750; -708.000; -745.000
280.419;   -9.525; -229.000; -147.000
280.559;  -35.775; -259.000; -180.000
280.698;  -81.400; -790.000; -639.000
280.838;  -74.675; -778.000; -800.000
280.978; -111.775; -846.000; -790.000
281.118;  -94.025; -811.000; -704.000
281.257;    6.625;   24.000;    6.000
281.397;  -78.125;-1094.000; -960.000
281.537;  -70.250; -599.000; -712.000
281.677;  -23.000; -150.000; -101.000
281.816;  -86.125; -700.000; -630.000
281.956;  -37.625; -193.000; -257.000
282.096;  -71.175; -539.000; -396.000
282.235; -101.675; -672.000; -638.000
282.375;   -5.125; -243.000;  -98.000
282.515;  -81.850; -715.000; -707.000
282.654;   32.625;   29.000;  106.000
282.794;   26.975;  388.000;  244.000
282.934;  -52.025; -530.000; -491.000
283.073; -120.800;-1030.000; -857.000
283.213;  -53.750; -460.000; -467.000
283.353;  -20.700; -408.000; -349.000
283.492;  -28.075; -264.000; -296.000
283.632;  -42.650; -254.000; -168.000
283.771;  -96.525; -859.000; -730.000
283.911;  -52.950; -369.000; -260.000
284.050;  -96.975; -794.000; -748.000
284.190; -146.125;-1229.000;-1096.000
284.329; -132.225;-1055.000; -964.000
284.469;  -40.800; -516.000; -591.000
284.608;  -47.300; -559.000; -598.000
284.748;  -70.925; -614.000; -570.000
284.887;  -17.825;  -87.000;  -20.000
285.027; -116.675; -844.000; -892.000
285.166;  -31.600; -192.000; -249.000
285.306;   19.350; -116.000;  -33.000
285.445;  -27.175; -229.000; -343.000
285.584; -101.875; -630.000; -494.000
285.724;  -38.075; -282.000; -322.000
285.863; -105.800; -857.000; -507.000
286.002;  -47.000; -366.000; -276.000
286.142; -110.225; -715.000; -622.000
286.281;  -57.250; -525.000; -493.000
286.420;  -72.225; -554.000; -417.000
286.560;   89.550;  653.000;  623.000
286.699; -121.900; -958.000; -912.000
286.838;  -78.900; -590.000; -591.000
286.978;  -84.325; -533.000; -537.000
287.117; -125.800;-1085.000; -950.000
287.256;  -31.700; -228.000; -211.000
287.395;  -41.650; -197.000; -378.000
287.535;  -50.725; -370.000; -298.000
287.674;  -73.650; -509.000; -484.000
287.813;   57.450;  661.000;  533.000
287.952; -124.400;-1010.000; -871.000
288.091; -137.675;-1049.000; -915.000
288.231;   18.450;   13.000;   15.000
288.370; -153.325;-1217.000;-1200.000
288.509;  -85.925; -728.000; -645.000
288.648;  -84.475; -770.000; -548.000
288.787;  -36.450; -243.000;  -87.000
288.926;  -52.475; -454.000; -475.000
289.065;  121.850;  859.000;  672.000
289.204;  -57.550; -377.000; -217.000
289.344;  -88.975; -791.000; -690.000
289.483;   24.725;  416.000;  304.000
289.622;  -29.300; -291.000; -149.000
289.761;  -19.550; -309.000; -166.000
289.900; -110.350; -785.000; -626.000
290.039;  -12.575;  -12.000;  -95.000
290.178;  -33.725; -274.000; -180.000
290.317;  -89.250; -618.000; -479.000
290.456;  -66.400; -463.000; -451.000
290.595; -121.075; -961.000; -833.000
290.734; -132.675; -904.000; -891.000
290.873;  -70.600; -456.000; -420.000
291.011; -105.600; -833.000; -843.000
291.150;  -94.275; -770.000; -682.000
291.289;   -9.125; -343.000; -110.000
291.428; -100.225; -599.000; -480.000
291.567;  -35.375; -370.000; -442.000
291.706;   -0.925;  109.000;  154.000
291.845;  -87.850; -597.000; -505.000
291.984; -154.350;-1234.000;-1061.000
292.122;   75.850;  602.000;  582.000
292.261;   60.000;  620.000;  463.000
292.400;    3.175; -144.000;  211.000
292.539; -116.875; -959.000; -813.000
292.678;  -27.925; -325.000; -300.000
292.816; -142.075;-1136.000; -965.000
292.955;  -79.650; -844.000; -684.000
293.094;  -19.075; -173.000; -337.000
293.233;  -48.550; -556.000; -400.000
293.371;  -41.200; -225.000;  -84.000
293.510; -108.550; -866.000; -780.000
293.649;  -99.450; -959.000; -924.000
293.787;  -24.450;-1083.000;-1012.000
293.926;    9.050; -113.000;  -32.000
294.065;  -43.900; -379.000; -290.000
294.203;   49.650;  298.000;  406.000
294.342;   28.050;   74.000;  156.000
294.481; 5731.225;51180.000; -836.000
294.619;   -3.975; -425.000; -582.000
294.758; -122.650;-1230.000;-1137.000
294.896;   99.900; -125.000;    5.000
295.035; -115.525;-1040.000;-1006.000
295.174; -116.400;-1082.000; -954.000
295.312;  -25.900; -323.000; -203.000
295.451;    5.350; -307.000; -428.000
295.589;  -43.625; -389.000; -518.000
295.728;   24.400; -292.000; -165.000
295.866;   -1.600;  -36.000;  -51.000
296.005;  -41.350; -584.000; -341.000
296.143;  -58.650; -558.000; -596.000
296.282; -109.000; -957.000; -881.000
296.420;  -79.250; -657.000; -557.000
296.559;  -74.900; -892.000; -633.000
296.697;   76.050; -847.000; -665.000
296.835;  120.025;-1141.000;-1002.000
296.974;   65.300;  -23.000;   39.000
297.112;   43.175; -443.000; -504.000
297.251;  -62.850; -815.000; -755.000
297.389;  145.075; -576.000; -438.000
297.527;   55.225; -145.000;  -83.000
297.666;  -40.150; -486.000; -438.000
297.804;  -49.750; -404.000; -264.000
297.942;    0.550; -136.000; -161.000
298.081;   12.000; -183.000;   63.000
298.219;  101.875;  -17.000;  -19.000
298.357;   70.550; -144.000;  -71.000
298.495;   84.750; -810.000; -812.000
298.634;  123.325;  245.000;  219.000
298.772;  101.725; -220.000; -338.000
298.910;  -23.500; -309.000; -182.000
299.048;   -5.900; -130.000; -153.000
299.187;  -19.400; -350.000; -250.000
299.325;   29.625;   52.000;  122.000
299.463;  115.900; -389.000; -299.000
299.601;  140.825; -327.000; -271.000
299.739;  -80.700; -908.000; -883.000
299.877;  -80.350; -791.000; -703.000
300.016;  -31.600;-1095.000; -935.000
300.154;  217.250;  -19.000; -161.000
300.292;   86.825; -428.000; -348.000
300.430;   50.750; -408.000; -291.000
300.568;  -74.000; -940.000; -874.000
300.706;  -27.825; -366.000; -469.000
300.844;  -48.025;-1108.000; -979.000
300.982;  133.950;  246.000;  282.000
301.120;  -89.400; -965.000; -866.000
301.258;  -55.250; -812.000; -705.000
301.396;   50.300;  104.000;  -41.000
301.534;  136.925; -218.000; -293.000
301.672;   46.000; -664.000; -521.000
301.810;   83.750; -613.000; -545.000
301.948;  154.300;   53.000;  149.000
302.086;  808.900; -250.000;  -32.000
302.224; 1228.575; -610.000; -585.000
302.362;   76.250; -558.000; -622.000
302.500;   28.650; -923.000; -893.000
302.638;  152.250;  128.000;  245.000
302.776;    7.625; -352.000; -408.000
302.913;   49.225;  447.000;  236.000
303.051;    9.025;  -86.000;  -23.000
303.189;   66.925;   90.000;  118.000
303.327;  -19.575; -341.000; -256.000
303.465;  -73.825; -832.000; -588.000
303.603;  -80.000; -805.000; -604.000
303.740;  114.375;  417.000;  241.000
303.878;   61.875; -800.000; -759.000
304.016;  -78.875; -915.000; -790.000
304.154; -104.775;-1123.000;-1152.000
304.291;  -27.300; -505.000; -554.000
304.429;   21.600;  102.000;   74.000
304.567; -111.400; -908.000; -893.000
304.705;  -38.600; -408.000; -515.000
304.842;  147.425; -616.000; -540.000
304.980;   76.575;  215.000;   35.000
305.118;   94.075; -367.000; -365.000
305.255;  -36.175; -945.000; -927.000
305.393;   65.225;  178.000;  239.000
305.531;  -66.150;-1173.000; -956.000
305.668;  -59.850; -663.000; -582.000
305.806;  127.575; -358.000; -439.000
305.943;  134.800; -629.000; -637.000
306.081;  102.525; -378.000; -267.000
306.219;  -99.075; -863.000; -748.000
306.356;   11.150;  158.000;   27.000
306.494;  122.475;  981.000;  761.000
306.631;    5.975;  -11.000;  -55.000
306.769;   23.925; -613.000; -485.000
306.906;    9.600; -284.000; -258.000
307.044;  -55.400; -473.000; -488.000
307.181;  -58.300; -410.000; -332.000
307.319;   16.800;  112.000;   87.000
307.456; -150.525;-1191.000;-1153.000
307.594;  -85.550; -980.000; -727.000
307.731;   -4.150; -371.000; -164.000
307.868;   11.300;  -15.000;   20.000
308.006; -126.425; -961.000; -847.000
308.143;  -39.600; -618.000; -330.000
308.281;  251.400;  -37.000; -254.000
308.418;   26.725; -748.000; -640.000
308.555;  -54.925; -400.000; -250.000
308.693;  -53.950; -577.000; -573.000
308.830;  -98.000; -712.000; -657.000
308.967;   -6.325; -215.000;  -95.000
309.105;  -41.525; -507.000; -396.000
309.242;   82.275; -468.000; -367.000
309.379;  472.550; -577.000; -655.000
309.517;  -55.275; -936.000; -948.000
309.654;  -92.250; -910.000; -734.000
309.791;  -66.050; -662.000; -580.000
309.928;  -97.325; -977.000; -914.000
310.065;  199.450;  819.000;  697.000
310.203;   34.125; -825.000; -850.000
310.340;   31.575; -465.000; -321.000
310.477;  -74.775; -412.000; -516.000
310.614;  -61.225; -383.000; -473.000
310.751;  -68.700; -427.000; -518.000
310.889;  -14.600;    1.000;   11.000
311.026; -135.975;-1161.000; -939.000
311.163;  -50.625; -386.000; -380.000
311.300;  -61.950; -512.000; -479.000
311.437;  -65.225; -658.000; -619.000
311.574; -141.325;-1226.000; -985.000
311.711;  -59.775; -595.000; -433.000
311.848;  -39.475; -380.000; -388.000
311.985;   18.275;  270.000;   93.000
312.122; -104.225; -932.000; -762.000
312.259; -108.050; -941.000; -994.000
312.396;  -87.025; -508.000; -551.000
312.533;  -67.825; -812.000; -790.000
312.670; -131.925;-1070.000; -898.000
312.807;  -30.625; -352.000; -367.000
312.944;  -77.950; -513.000; -611.000
313.081;  -30.125; -150.000; -415.000
313.218;  -92.725;-1111.000; -867.000
313.355;   26.375; -531.000; -449.000
313.492;   34.825; -455.000; -292.000
313.629;  149.125;  815.000;  735.000
313.766; -146.875;-1176.000;-1008.000
313.902;   -3.700; -186.000;   21.000
314.039;  -35.250; -372.000; -289.000
314.176;   17.800;  286.000;  192.000
314.313;  -70.650; -569.000; -473.000
314.450;  -68.425; -788.000; -684.000
314.587;  -48.600; -468.000; -480.000
314.723;   13.850;  -78.000;  130.000
314.860;   43.500;  318.000;  332.000
314.997;   25.475;  223.000;  142.000
315.134;  -34.900; -385.000; -368.000
315.270;  -17.000; -480.000; -496.000
315.407;  -99.050;-1094.000; -967.000
315.544;  -35.675; -657.000; -538.000
315.681;  -67.625; -681.000; -565.000
315.817;   33.725; -133.000; -176.000
315.954;   28.525; -613.000; -392.000
316.091; -114.925;-1045.000;-1023.000
316.227;  -23.350;  -71.000; -179.000
316.364;   18.850;   23.000;    6.000
316.500;  -38.850; -113.000; -300.000
316.637;  -35.425; -181.000; -302.000
316.774;  -72.050; -625.000; -358.000
316.910;  -93.550; -598.000; -629.000
317.047;  -59.525; -487.000; -351.000
317.183;  -38.600; -435.000; -566.000
317.320;   -1.750; -367.000; -321.000
317.456;  -67.750; -733.000; -805.000
317.593;  -84.900; -598.000; -641.000
317.729;    8.125;  168.000;  -67.000
317.866; -178.275;-1434.000;-1285.000
318.002;  -75.050; -708.000; -948.000
318.139;  -79.850; -883.000; -867.000
318.275;  -99.325;-1003.000; -738.000
318.412;  -53.875; -517.000; -336.000
318.548;  -16.100; -751.000; -720.000
318.685;  -74.425; -985.000; -888.000
318.821;  -84.550; -762.000; -735.000
318.957;  -15.250;   34.000;  -23.000
319.094;   30.025;  297.000;  154.000
319.230;  -33.475; -756.000; -742.000
319.367;  182.000; -471.000; -520.000
319.503;   84.025; -538.000; -436.000
319.639;  -95.550; -877.000; -793.000
319.775;  -30.550; -750.000; -685.000
319.912;  -33.875; -424.000; -519.000
320.048;  -75.750;-1184.000;-1184.000
320.184;   74.575;   59.000;   70.000
320.321;  -56.350; -497.000; -467.000
320.457;   58.750;  475.000;  662.000
320.593;  -65.700; -375.000; -382.000
320.729; -103.550; -732.000; -734.000
320.866;  -73.375; -577.000; -635.000
321.002;  -69.025; -759.000; -809.000
321.138;   -7.125; -135.000; -211.000
321.274;   78.075; -148.000; -115.000
321.410;   -2.875; -585.000; -353.000
321.546;   10.525;-1011.000; -911.000
321.683;   62.950;  400.000;  185.000
321.819;   18.600;  -48.000; -117.000
321.955;  -91.100; -743.000; -722.000
322.091;  -35.325; -585.000; -540.000
322.227;   -6.575; -382.000; -202.000
322.363;    1.475; -320.000; -215.000
322.499;  -30.700; -343.000; -331.000
322.635;  192.750;  636.000;  443.000
322.771;   38.950; -139.000;   12.000
322.907;  113.425;  129.000;  327.000
323.043;   -7.700; -115.000; -206.000
323.179;  -18.550; -394.000; -363.000
323.315;   80.775; -401.000; -371.000
323.451;  145.875; -328.000; -236.000
323.587;   82.275;  -60.000;  -77.000
323.723;   55.375; -682.000; -601.000
323.859;   -5.425; -258.000;  -76.000
323.995;  -18.150; -467.000; -409.000
324.131; -115.225; -967.000; -892.000
324.267;  -43.975; -254.000; -276.000
324.402; -102.350; -960.000; -983.000
324.538;   -5.725; -279.000; -104.000
324.674;   40.625;  164.000;   77.000
324.810;  182.950;  226.000;  308.000
324.946;   41.525; -810.000; -658.000
325.082;  -67.000; -568.000; -475.000
325.217;   -8.825;  -62.000;   16.000
325.353;  -95.600; -764.000; -659.000
325.489;  -76.325; -540.000; -506.000
325.625;  -70.850; -579.000; -525.000
325.760;   50.525;  517.000;  376.000
325.896;  -41.900; -515.000; -702.000
326.032;  -42.850; -403.000; -352.000
326.168;  -62.375; -462.000; -369.000
326.303;  -47.800; -352.000; -461.000
326.439;  -26.200; -336.000; -276.000
326.575;    9.975; -190.000;  -29.000
326.710;    8.325; -156.000;  -30.000
326.846;  -18.800;  146.000;  103.000
326.982;  -89.300; -530.000; -548.000
327.117;  -74.200; -481.000; -442.000
327.253;  -94.075; -745.000; -742.000
327.388; -145.500;-1137.000;-1153.000
327.524;  -12.575; -811.000; -578.000
327.659;  -20.850;  -58.000;  -22.000
327.795;   -3.425;   69.000;   45.000
327.931;  -81.650; -723.000; -499.000
328.066;  -15.400; -417.000; -276.000
328.202;    5.975;   12.000; -129.000
328.337;  102.200;  957.000;  713.000
328.473;   41.825;  -12.000;  -74.000
328.608;   -6.550; -256.000; -267.000
328.743;  -65.375; -799.000; -664.000
328.879;   15.100;  214.000;  114.000
329.014;  -25.400; -102.000; -122.000
329.150;  -81.675; -358.000; -483.000
329.285;  -56.900; -465.000; -466.000
329.421;  -47.175; -548.000; -246.000
329.556;  -19.450;  -36.000;   85.000
329.691;  -87.750; -633.000; -615.000
329.827;  -79.650; -626.000; -480.000
329.962;  -44.150;  131.000; -301.000
330.097;  -99.525; -673.000; -585.000
330.233;  -36.000; -410.000; -223.000
330.368; -125.650; -839.000; -628.000
330.503;  -13.900;    3.000;   98.000
330.638;   39.725;  -93.000; -125.000
330.774;  -31.500; -609.000; -530.000
330.909;  -29.575; -434.000; -244.000
331.044;  -92.125; -714.000; -708.000
331.179; -164.650;-1217.000;-1109.000
331.315;   11.475;   77.000;   20.000
331.450;    5.775;  157.000;  285.000
331.585;  -74.900; -805.000; -706.000
331.720;  -71.175; -510.000; -460.000
331.855;  -16.900;  -35.000; -102.000
331.990;  209.600;   62.000;  138.000
332.126;  103.575; -110.000;   71.000
332.261;  -19.100; -379.000; -265.000
332.396;  -10.450; -135.000; -242.000
332.531;  -99.825;-1074.000;-1031.000
332.666;    6.775; -519.000; -363.000
332.801; -101.125; -726.000; -807.000
332.936;  -15.725; -192.000; -122.000
333.071; -137.425; -870.000; -817.000
333.206;   14.625;  307.000;  379.000
333.341;   28.700;  344.000;  418.000
333.476;  -89.950; -627.000; -623.000
333.611;  -38.575; -251.000; -173.000
333.746;  -39.275; -381.000; -464.000
333.881; -101.675; -973.000; -935.000
334.016; -127.275; -936.000; -917.000
334.151; -103.800; -746.000; -702.000
334.286;   30.225;  152.000;  186.000
334.421;   -4.900; -125.000; -178.000
334.556;  -56.625; -611.000; -567.000
334.690;  -70.350; -631.000; -577.000
334.825;   73.450;  381.000;   83.000
334.960;  -42.150; -285.000; -413.000
335.095;   10.525;  135.000;  -91.000
335.230;  -88.450; -722.000; -738.000
335.365; -119.375;-1084.000; -990.000
335.499; -105.000;-1108.000;-1037.000
335.634;   33.600;    9.000;  534.000
335.769;  -93.475; -755.000; -720.000
335.904;  -37.175; -603.000; -561.000
336.038;  -32.300; -735.000; -657.000
336.173; -103.225;-1206.000;-1194.000
336.308;   13.375; -116.000; -189.000
336.443;   36.150; -544.000; -634.000
336.577;  -50.350; -936.000; -787.000
336.712;   80.700;   -4.000;  -12.000
336.847;  -20.125; -724.000; -607.000
336.981;  113.675; -272.000; -208.000
337.116;  351.725;  615.000;  501.000
337.250;  222.575; -434.000; -421.000
337.385;  195.575; -297.000; -208.000
337.520;   53.700; -632.000; -603.000
337.654;  -40.175; -215.000; -126.000
337.789; -123.425; -989.000; -933.000
337.923;  -23.275; -104.000; -205.000
338.058;  -70.000; -673.000; -738.000
338.192;   -4.450; -611.000; -488.000
338.327;   11.500;  -18.000; -155.000
338.461;  -37.525; -299.000; -469.000
338.596;  -88.375; -780.000; -638.000
338.730;  -96.500; -767.000; -803.000
338.865;   73.850;  -46.000; -140.000
338.999;  -52.650; -846.000; -702.000
339.134;  -25.225; -634.000; -536.000
339.268;   22.000; -741.000; -603.000
339.403;  326.125; -740.000; -775.000
339.537;   82.825; -894.000; -820.000
339.671; -114.650; -829.000; -813.000
339.806;  -63.925; -556.000; -512.000
339.940;   13.950; -261.000; -235.000
340.074;  -79.125; -685.000; -510.000
340.209;  -43.525; -351.000; -230.000
340.343;  -90.350; -517.000; -573.000
340.477;  155.900;  998.000; 1036.000
340.612;  -64.850;-1033.000; -900.000
340.746;  127.325; -199.000; -243.000
340.880;  -42.825; -924.000; -785.000
341.014;  -16.100;  -45.000; -154.000
341.149; -105.025; -756.000; -718.000
341.283; -106.150; -839.000; -754.000
341.417;  -72.575;-1124.000; -938.000
341.551;  232.700; -768.000; -708.000
341.685;   -9.300; -633.000; -611.000
341.820;  -40.400; -562.000; -493.000
341.954;  -51.575; -218.000; -349.000
342.088; -136.450;-1102.000;-1019.000
342.222;   45.400;  565.000;  618.000
342.356;  -40.200; -395.000; -335.000
342.490;  -72.000; -880.000; -841.000
342.624;  -51.625; -339.000; -242.000
342.758;   30.100; -364.000; -312.000
342.892;  -38.650; -710.000; -585.000
343.026;  -16.975;  -58.000; -116.000
343.160;  -55.075; -426.000; -376.000
343.294;  -64.750; -474.000; -337.000
343.428;   10.200; -488.000; -448.000
343.562;   -4.525; -172.000;  -23.000
343.696;   -9.250; -385.000; -314.000
343.830;    3.375; -362.000; -356.000
343.964;   26.625; -231.000; -168.000
344.098; 1223.500;  199.000;   70.000
344.232;  982.750; -266.000; -127.000
344.366;  132.475; -567.000; -453.000
344.500;  133.700; -665.000; -744.000
344.634;   66.700; -324.000; -164.000
344.768;   17.200; -531.000; -341.000
344.902;   34.725;  278.000;  256.000
345.035;  -62.075; -556.000; -496.000
345.169; -119.950; -933.000; -656.000
345.303;  -21.600; -308.000; -482.000
345.437;  -46.450; -826.000; -717.000
345.571;  -68.700; -675.000; -594.000
345.704;  -56.950; -309.000; -532.000
345.838;  -17.675; -331.000; -284.000
345.972;   -9.750; -543.000; -495.000
346.106;  152.000; -179.000; -190.000
346.239;  476.950; -312.000; -243.000
346.373;   33.400; -343.000; -302.000
346.507; -130.250; -950.000; -962.000
346.640;  194.025;  -30.000;   13.000
346.774;   -6.875; -650.000; -797.000
346.908;  -12.225; -138.000;  -11.000
347.041;  -92.100; -646.000; -593.000
347.175;    3.350;  259.000;   27.000
347.309;  -44.500; -698.000; -628.000
347.442;  -91.025; -883.000; -732.000
347.576;  350.700;  670.000;  668.000
347.709;  272.150; -123.000;  -52.000
347.843;  -64.375; -933.000; -825.000
347.976;   41.300;  235.000;  294.000
348.110; -169.050;-1268.000;-1186.000
348.243;  -94.600; -679.000; -772.000
348.377;    1.125;  -26.000;   60.000
348.510;   35.275;  403.000;  540.000
348.644;  -16.050;  -37.000; -159.000
348.777;    9.950;  180.000;  191.000
348.911;  -37.950; -142.000; -112.000
349.044;  209.275;  471.000;  448.000
349.178;  251.425;-1069.000;-1006.000
349.311;  134.175;  141.000;  255.000
349.444;  -12.400; -927.000; -813.000
349.578;   -9.450; -347.000; -200.000
349.711;  -70.875; -959.000; -862.000
349.845;   26.400; -661.000; -591.000
349.978; -140.025;-1224.000;-1137.000
350.111;  -75.600; -546.000; -612.000
350.244;  -58.175; -596.000; -700.000
350.378;   29.600; -392.000; -393.000
350.511;  -51.250; -393.000; -426.000
350.644; -100.475; -808.000; -806.000
350.778;   15.650;  168.000;  104.000
350.911;   12.275;  134.000;  140.000
351.044;  -74.750; -685.000; -615.000
351.177;  -19.450; -321.000; -281.000
351.310;   -2.825;    3.000; -131.000
351.444;  -47.700; -888.000; -788.000
351.577;  168.050;  140.000;   90.000
351.710;  103.200;  593.000;  417.000
351.843;  -36.525; -165.000;  -77.000
351.976;   -7.250;  149.000;  -79.000
352.109;  -74.175; -621.000; -612.000
352.242;    2.250; -464.000; -419.000
352.376;  -36.225; -580.000; -636.000
352.509;  267.300; -437.000; -356.000
352.642;   66.550; -654.000; -604.000
352.775;  100.325; -141.000;  -98.000
352.908;  -99.275; -933.000; -904.000
353.041;  -88.650; -814.000; -824.000
353.174;  -40.375; -551.000; -424.000
353.307;  -63.600; -753.000; -764.000
353.440;   71.050;  541.000;  453.000
353.573; -105.825; -957.000;-1008.000
353.706;  -17.850; -384.000; -558.000
353.839;  -10.350; -264.000; -220.000
353.971;  -85.825; -657.000; -512.000
354.104;  -72.725; -896.000; -835.000
354.237;  -13.150; -627.000; -662.000
354.370;  -73.325; -846.000; -879.000
354.503; -158.400;-1231.000;-1308.000
354.636;  -15.900; -529.000; -348.000
354.769; -110.925; -937.000; -860.000
354.902;    4.625; -230.000; -139.000
355.034;    0.525; -164.000; -220.000
355.167;   -5.600; -262.000; -162.000
355.300;  -67.125;-1061.000; -880.000
355.433;  879.300;  -71.000;  -14.000
355.565; 1367.350; -402.000; -384.000
355.698;  354.125; -356.000; -296.000
355.831;   18.725; -882.000; -801.000
355.964;  127.125; -285.000; -170.000
356.096;  -59.400; -856.000; -843.000
356.229;   33.450; -523.000; -530.000
356.362;  279.450; -373.000; -266.000
356.494;  530.925; -229.000; -162.000
356.627;  587.300;  269.000;  377.000
356.760;  623.625;  120.000;   53.000
356.892;  854.700; -286.000; -601.000
357.025;  841.650;  403.000;  389.000
357.157;  831.500; -167.000; -179.000
357.290;  539.775; -856.000; -713.000
357.423;  181.725; -667.000; -556.000
357.555;  154.175; -217.000; -228.000
357.688;  168.900; -483.000; -364.000
357.820;  566.850; -870.000; -877.000
357.953; 4362.825; -563.000; -589.000
358.085; 1080.350; -632.000; -612.000
358.218; 1714.050;-1131.000; -932.000
358.350;  317.650;  -58.000;  312.000
358.483;  -79.100;-1300.000;-1187.000
358.615;   52.475;-1182.000;-1078.000
358.747;   -5.675;-1187.000;-1058.000
358.880;   87.750; -810.000; -744.000
359.012;   17.225; -376.000; -202.000
359.145;  -22.000; -480.000; -511.000
359.277;  111.225; -962.000; -913.000
359.409; 3674.750;  536.000;  231.000
359.542; 1009.950; -738.000; -688.000
359.674;   94.150;   46.000;   13.000
359.806;  -42.425; -565.000; -438.000
359.939;  -49.475; -617.000; -516.000
360.071;  -11.225; -583.000; -579.000
360.203;  -10.850; -411.000; -364.000
360.335;   58.725;  164.000;  -16.000
360.468;  231.950; -249.000; -307.000
360.600; 2822.675; -547.000; -454.000
360.732; 2486.600; -546.000; -423.000
360.864;  391.700;-1216.000;-1044.000
360.996;  417.425; -516.000; -554.000
361.129;   92.350; -389.000; -598.000
361.261;   37.500;  110.000; -113.000
361.393;  -22.450; -252.000; -214.000
361.525;   46.250;   94.000;  244.000
361.657;  -24.175; -821.000; -703.000
361.789;   35.475; -139.000; -155.000
361.921;  369.550; -642.000; -593.000
362.053;  342.950;  524.000;  541.000
362.185;   84.025;  288.000;   72.000
362.318;  -47.150; -709.000; -705.000
362.450;  174.050;  294.000;  444.000
362.582;  264.900; -913.000; -870.000
362.714;   -4.925; -353.000; -332.000
362.846;  -76.300; -606.000; -490.000
362.978; -122.725; -941.000; -811.000
363.109;   90.500; -161.000; -260.000
363.241;  617.050; -739.000; -749.000
363.373;  418.750; -649.000; -564.000
363.505;  574.775; -186.000;  -91.000
363.637;  164.450; -787.000; -601.000
363.769; -103.200;-1067.000;-1080.000
363.901;  -55.625; -596.000; -654.000
364.033;  -95.000;-1103.000;-1062.000
364.165;   12.675; -283.000; -283.000
364.296;   76.525; -316.000; -177.000
364.428;   71.575;-1344.000;-1220.000
364.560;  -61.575; -679.000; -661.000
364.692;  -55.650; -738.000; -835.000
364.824;  413.250; -588.000; -456.000
364.955;  458.350; -402.000; -564.000
365.087;  717.650;-1097.000; -852.000
365.219;   36.275; -686.000; -816.000
365.351;  -53.150; -526.000; -572.000
365.482;   58.450;  300.000;  240.000
365.614;  -45.325; -402.000; -314.000
365.746;  -91.375; -729.000; -752.000
365.877;  -90.825; -706.000; -672.000
366.009;  223.450;  -35.000;  -62.000
366.141;  -78.350;-1249.000;-1134.000
366.272;  -94.900; -803.000; -719.000
366.404; -107.425;-1005.000; -874.000
366.535;  -19.775; -139.000;  -12.000
366.667;  -96.900; -644.000; -649.000
366.799;   45.575;  353.000;  203.000
366.930;  -88.100; -862.000; -996.000
367.062;  122.250; -639.000; -613.000
367.193;  109.050; -872.000; -842.000
367.325;  -53.400; -580.000; -684.000
367.456;  122.900; -246.000;   31.000
367.588;  162.450; -371.000; -318.000
367.719;   28.325;  -44.000;  -45.000
367.851;  -11.950; -222.000; -241.000
367.982;   -4.900; -875.000; -732.000
368.113;  165.650; -475.000; -358.000
368.245; -103.350; -960.000; -841.000
368.376;  -11.825; -254.000; -302.000
368.508;  -20.650; -188.000; -263.000
368.639; -120.100;-1166.000;-1034.000
368.770;   14.975; -670.000; -589.000
368.902;  -24.550; -836.000; -926.000
369.033; -101.925; -906.000; -855.000
369.164;  -50.700; -720.000; -653.000
369.296; -105.075; -452.000; -601.000
369.427;    9.500; -209.000; -144.000
369.558;  -20.500; -593.000; -377.000
369.689;  -91.875; -721.000; -569.000
369.821; -121.825; -951.000; -845.000
369.952;   -7.725;   42.000; -108.000
370.083;  -42.475; -229.000; -108.000
370.214;  -70.425; -735.000; -650.000
370.345;    6.700;   65.000;   81.000
370.477;  -69.675; -810.000; -790.000
370.608;  329.125; -328.000; -264.000
370.739;  -11.225;-1233.000;-1292.000
370.870;    0.500;-1102.000; -923.000
371.001;  146.350; -378.000; -467.000
371.132;  -61.600; -754.000; -735.000
371.263;  -21.800;  -42.000; -148.000
371.394; -128.550; -841.000; -748.000
371.525;   23.825;  345.000;  225.000
371.657;  -87.700; -808.000; -670.000
371.788;   82.225;  103.000;  199.000
371.919;  236.125; -384.000; -304.000
372.050; 4568.850;  -91.000; -156.000
372.181; 1434.775; -188.000; -294.000
372.311;  495.350;   42.000; -127.000
372.442;   90.150; -457.000; -451.000
372.573;   -7.075; -444.000; -340.000
372.704;  -99.625;-1008.000; -980.000
372.835;  130.250; -228.000; -289.000
372.966;  -41.100; -646.000; -554.000
373.097;  -43.975; -575.000; -711.000
373.228;  -11.775; -717.000; -542.000
373.359;  230.225; -824.000; -536.000
373.490; 1269.000; -881.000; -727.000
373.620; 1619.200;-1001.000; -803.000
373.751; 2344.875; -332.000; -396.000
373.882; 1158.150; -663.000; -733.000
374.013;  128.175; -449.000; -262.000
374.143;  -11.625; -581.000; -659.000
374.274;  -67.250; -987.000; -908.000
374.405;  243.900; -388.000; -276.000
374.536;  600.350; -526.000; -387.000
374.666; 1584.400; -759.000; -807.000
374.797;  350.450; -817.000; -868.000
374.928; 1209.825; -710.000; -560.000
375.058; 1231.050; -535.000; -500.000
375.189;  118.000;  -59.000;  -93.000
375.320;  -72.650; -928.000;-1034.000
375.450;  -28.075; -625.000; -616.000
375.581;  -34.825; -526.000; -436.000
375.712;  -13.175; -574.000; -250.000
375.842;  450.275; -438.000; -415.000
375.973;  352.125; -554.000; -513.000
376.103;    1.725; -665.000; -648.000
376.234;  -66.800; -531.000; -552.000
376.364;    1.925; -944.000; -867.000
376.495;  411.500;  925.000;  529.000
376.625;   52.400; -472.000; -485.000
376.756;  139.275; -709.000; -678.000
376.886;  -22.725;-1178.000;-1026.000
377.017;   32.075;-1048.000;-1061.000
377.147;  294.250; -786.000; -782.000
377.278;   51.400;  174.000;  228.000
377.408; -125.025; -801.000; -815.000
377.538;  -95.125; -707.000; -693.000
377.669;  -58.800; -537.000; -613.000
377.799;  -64.100; -645.000; -635.000
377.929;  -40.200; -610.000; -428.000
378.060; -120.075; -781.000; -847.000
378.190;  -53.125; -726.000; -531.000
378.320;  -35.800; -401.000; -406.000
378.451;   10.875; -131.000;  -22.000
378.581;   21.100;  -67.000; -110.000
378.711;  176.600; 1035.000;  866.000
378.841;   17.075; -533.000; -675.000
378.972;  -47.000; -871.000; -751.000
379.102;   37.000; -652.000; -579.000
379.232;    3.600; -126.000;  -73.000
379.362;  -78.500;-1001.000; -885.000
379.492;   42.050; -373.000; -424.000
379.623;  148.575;    0.000;  111.000
379.753;  -50.425;-1107.000; -974.000
379.883;  260.750;   59.000;  156.000
380.013;   75.375;-1081.000;-1017.000
380.143;  -76.400;-1097.000;-1056.000
380.273;  -72.750; -985.000; -861.000
380.403;    5.250; -344.000; -257.000
380.533;   -0.450; -651.000; -664.000
380.663;  105.950;  173.000;  128.000
380.793;  -49.675;-1027.000;-1074.000
380.923;  -12.650; -103.000;  -34.000
381.053;  -86.225; -613.000; -623.000
381.183;  -14.225; -106.000; -248.000
381.313;   79.600; -656.000; -470.000
381.443;   92.400; -692.000; -473.000
381.573;  311.900; -402.000; -409.000
381.703;  471.125;-1249.000;-1095.000
381.833;  -79.450;-1454.000;-1336.000
381.963;  150.275; -134.000;  -87.000
382.093; 1720.725; -925.000; -909.000
382.223;  615.975; -713.000; -602.000
382.353;   28.350; -801.000; -608.000
382.482;  563.050;-1091.000; -964.000
382.612; 1009.775; -872.000; -644.000
382.742;  598.125; -695.000; -622.000
382.872;  416.300; -565.000; -551.000
383.002;   96.300;  347.000; -132.000
383.131;   -4.650; -226.000; -160.000
383.261;  -22.700; -706.000; -768.000
383.391;  292.900; -552.000; -377.000
383.521; 2697.875;  451.000;  263.000
383.650;  651.575; -947.000; -904.000
383.780;   -9.925; -783.000; -656.000
383.910;  114.825;  880.000;  802.000
384.039;   68.025; -794.000; -656.000
384.169;  376.300;-1205.000;-1017.000
384.299;   34.550; -650.000; -662.000
384.428;  -54.925; -764.000; -680.000
384.558;  -35.450; -308.000; -275.000
384.687;  -21.750; -414.000; -334.000
384.817;   36.750;   75.000;   -2.000
384.947;   44.500; -234.000; -141.000
385.076;  345.150;  982.000;  912.000
385.206;  134.825;  369.000;  480.000
385.335;  -19.350; -549.000; -417.000
385.465;  -48.050; -655.000; -663.000
385.594;  184.050;  -53.000;  -44.000
385.724;  641.750; -868.000; -838.000
385.853;  194.350; -296.000; -270.000
385.982; 1767.575; -743.000; -787.000
386.112; 2925.325;-1052.000; -871.000
386.241;  234.100; -307.000; -312.000
386.371;   39.450; -174.000;  -87.000
386.500;   44.125; -825.000; -789.000
386.629;   59.200; -874.000; -817.000
386.759;   74.950;  -43.000;   68.000
386.888;   25.225; -170.000; -250.000
387.017;  -49.925; -648.000; -620.000
387.147;  -64.250; -771.000; -798.000
387.276;   35.350; -410.000; -397.000
387.405;   49.925; -398.000; -342.000
387.535;  -20.350; -452.000; -361.000
387.664;  -44.150; -692.000; -620.000
387.793;  104.700; -198.000; -113.000
387.922;  726.225;  255.000;  200.000
388.052;   85.225; -576.000; -423.000
388.181;   74.625; -342.000; -472.000
388.310;   90.200; -889.000; -710.000
388.439;   16.750; -749.000; -742.000
388.568;  249.100;  365.000;  244.000
388.697; 1471.625; -756.000; -653.000
388.826;  350.975; -768.000; -666.000
388.956;  120.500; -285.000; -307.000
389.085;  -11.200; -347.000; -287.000
389.214;  -86.900; -842.000; -872.000
389.343;  -49.350; -645.000; -413.000
389.472;  363.875;  126.000;  149.000
389.601;  542.850;   91.000;    0.000
389.730;   57.475; -568.000; -687.000
389.859;   87.825;  226.000;   46.000
389.988;  244.025; -423.000; -408.000
390.117;  220.275; -168.000; -146.000
390.246;   25.125; -331.000; -320.000
390.375;  182.050; -673.000; -626.000
390.504;  -40.025; -703.000; -621.000
390.633;  -74.825; -672.000; -726.000
390.761;  -48.000; -732.000; -645.000
390.890;   51.175;   -4.000; -130.000
391.019;    4.300; -421.000; -441.000
391.148; -103.025; -826.000; -855.000
391.277;  -36.950; -576.000; -493.000
391.406;  -41.275; -821.000; -805.000
391.534;   25.350;  574.000; -301.000
391.663;  -48.075; -583.000; -645.000
391.792;  -74.925; -673.000; -701.000
391.921;  164.675;   -3.000;   15.000
392.050;  291.500; -287.000; -228.000
392.178;   22.250;-1206.000;-1061.000
392.307;  230.450; -758.000; -712.000
392.436;  154.750; -427.000; -641.000
392.564;   41.150;  166.000;   -6.000
392.693;  -64.150; -860.000; -682.000
392.822;  295.450; -529.000; -534.000
392.950;  188.000; -880.000; -714.000
393.079;  452.475; -188.000; -328.000
393.208;   98.425; -488.000; -511.000
393.336;    3.675; -170.000; -145.000
393.465;  -43.050; -317.000; -199.000
393.593;   -0.575;   62.000;   79.000
393.722; -138.000;-1121.000; -916.000
393.850;  -37.550; -188.000;  -61.000
393.979; -145.925; -926.000; -805.000
394.107;  -53.600; -517.000; -537.000
394.236;   -1.275; -570.000; -507.000
394.364;  266.650;  383.000;  206.000
394.493;  533.125; -911.000; -767.000
394.621;   11.675; -955.000; -916.000
394.750;  606.825; -873.000; -923.000
394.878; 2607.050; -247.000; -149.000
395.007; 3695.125; -721.000; -807.000
395.135;  303.100; -790.000; -721.000
395.263;  -78.800;-1038.000;-1040.000
395.392;    3.825;  -25.000; -107.000
395.520; -126.450; -818.000; -679.000
395.648;  -63.175; -865.000; -915.000
395.777;   14.250; -366.000; -405.000
395.905;  -41.400; -449.000; -564.000
396.033;   38.925;  217.000;  172.000
396.162;  782.350; -399.000; -453.000
396.290;  745.175;  -17.000;   -2.000
396.418;  175.525; -555.000; -514.000
396.546;  -29.275; -571.000; -466.000
396.674;  -77.625; -850.000; -878.000
396.803;   19.750;  -72.000;  -23.000
396.931;  142.875; -179.000; -199.000
397.059;  163.625;-1026.000; -989.000
397.187;  -92.500;-1026.000; -975.000
397.315; -125.625; -884.000; -649.000
397.443;  -83.025; -592.000; -443.000
397.572;  -93.375; -578.000; -424.000
397.700;   32.950; -607.000; -614.000
397.828;   31.600;  120.000;  -90.000
397.956;  -44.900; -508.000; -478.000
398.084;  -52.350; -767.000; -626.000
398.212;   58.525;  137.000;  124.000
398.340;   48.550;  -56.000;  159.000
398.468;   72.800; -390.000; -169.000
398.596; -123.025; -993.000; -953.000
398.724; -114.675; -762.000; -767.000
398.852; -154.250;-1024.000; -976.000
398.980;  -57.275; -560.000; -560.000
399.108;  -24.325; -982.000; -735.000
399.236;   39.425;   13.000;    8.000
399.363;   20.825;  222.000;  196.000
399.491;  -56.975; -404.000; -398.000
399.619; -122.425; -829.000; -800.000
399.747;  -80.425; -859.000; -771.000
399.875;  105.450;  220.000;  234.000
400.003;  -37.225; -359.000; -284.000
400.130;  -90.150; -421.000; -341.000
400.258;  -21.375;  -83.000;   38.000
400.386;  -68.825; -352.000; -168.000
400.514;  -17.100; -526.000; -587.000
400.641;  -49.225; -928.000; -802.000
400.769; -133.100; -979.000; -888.000
400.897;  -75.550; -838.000; -793.000
401.025;    5.200; -166.000; -152.000
401.152;    0.800;  220.000;   38.000
401.280;  -84.375; -430.000; -429.000
401.408; -110.900; -712.000; -576.000
401.535;  -78.550; -735.000; -758.000
401.663; -176.850;-1134.000;-1054.000
401.790;  -74.125; -514.000; -525.000
401.918;   52.150;  436.000;  405.000
402.046;  -23.900;  134.000;  122.000
402.173;  -32.000;  -18.000;    7.000
402.301;  -67.975; -519.000; -397.000
402.428;   32.950;  528.000;  383.000
402.556; -134.175;-1188.000; -913.000
402.683;  -25.125;  -20.000;   -1.000
402.811;  -18.675;  -37.000; -206.000
402.938;    5.025;   20.000;   27.000
403.066;  269.150; -574.000; -558.000
403.193;  459.850;  299.000;  239.000
403.321;  346.075; -396.000; -574.000
403.448;  440.150;   83.000;   27.000
403.575;  206.700;  -90.000;  -46.000
403.703;  -78.750; -732.000; -557.000
403.830;  -70.150; -531.000; -496.000
403.957; -121.850;-1117.000;-1023.000
404.085;   21.200;  -61.000; -172.000
404.212;  127.500;  -50.000;   63.000
404.339;  223.975; -566.000; -306.000
404.467; 4959.625; -612.000; -524.000
404.594; 3887.450; -287.000; -227.000
404.721; 1118.350; -869.000; -764.000
404.848;  105.175; -113.000; -202.000
404.976;  -83.775; -856.000; -783.000
405.103;   -4.700;  -14.000;  -82.000
405.230;    1.050;  190.000;  226.000
405.357;   27.300;  117.000;   44.000
405.484;  235.050;  -49.000;    5.000
405.612;   50.000; -548.000; -563.000
405.739;  -38.900; -488.000; -243.000
405.866;   95.250;  669.000;  385.000
405.993;  -26.425; -398.000; -102.000
406.120; -137.425; -801.000; -887.000
406.247;  -35.000; -323.000; -342.000
406.374;  587.325;  540.000;  629.000
406.501;  225.025; -632.000; -702.000
406.628;  -64.375; -621.000; -589.000
406.755;  -88.250; -803.000; -620.000
406.882;  -33.025; -228.000; -277.000
407.009;  -91.200; -719.000; -628.000
407.136;   88.600; -480.000; -401.000
407.263;  265.075; -939.000; -829.000
407.390;  -50.275; -692.000; -614.000
407.517; -137.075;-1139.000;-1187.000
407.644;  -39.625; -332.000; -256.000
407.771;  -50.275; -249.000; -287.000
407.898;   18.775;  168.000;  328.000
408.025;  -62.075; -421.000; -313.000
408.151;   -4.350;   82.000;  153.000
408.278;  -55.100; -267.000; -216.000
408.405; -108.125; -931.000; -899.000
408.532;  -51.350; -549.000; -542.000
408.659; -115.525; -677.000; -648.000
408.785; -187.875;-1298.000;-1170.000
408.912;  -65.550; -412.000; -296.000
409.039;  -96.750; -610.000; -686.000
409.166; -110.325; -591.000; -555.000
409.292;  -96.750; -571.000; -534.000
409.419; -124.500; -665.000; -649.000
409.546;  -78.325; -431.000; -192.000
409.672; -118.075; -713.000; -545.000
409.799;  -14.525;  -36.000;   34.000
409.926;  -35.675; -180.000; -179.000
410.052; -164.550;-1127.000;-1091.000
410.179;  -50.950; -368.000; -392.000
410.305;  -74.275; -375.000; -493.000
410.432;  -52.275; -220.000; -333.000
410.558;  -73.600; -305.000; -380.000
410.685; -100.275; -688.000; -431.000
410.812;  -96.000; -409.000; -588.000
410.938; -124.100; -964.000; -808.000
411.065;  -85.775; -671.000; -645.000
411.191;  -17.575; -189.000; -174.000
411.317;  -97.750; -823.000; -742.000
411.444;  -80.800; -317.000; -246.000
411.570;  -72.050; -339.000; -294.000
411.697; -130.075; -758.000; -752.000
411.823; -164.125; -989.000; -999.000
411.949;  -38.075;  -56.000;   17.000
412.076; -100.250; -539.000; -519.000
412.202; -119.625; -758.000; -757.000
412.329; -108.600; -798.000; -752.000
412.455; -115.050; -821.000; -657.000
412.581;   -9.425;  -15.000;  172.000
412.707;  -39.725; -540.000; -457.000
412.834;   17.825;  156.000;  219.000
412.960;  -71.900; -785.000; -784.000
413.086;  -97.100; -743.000; -701.000
413.212;  193.500;  604.000;  578.000
413.339;  -42.350; -685.000; -701.000
413.465;   31.175; -364.000; -310.000
413.591;  -61.125; -757.000; -474.000
413.717;  -53.525; -358.000; -366.000
413.843; -124.900; -839.000; -861.000
413.969;  -49.200;  -47.000; -292.000
414.096;  -96.200; -679.000; -679.000
414.222;   -8.850;  -33.000;   85.000
414.348;    9.125; -652.000; -385.000
414.474;  154.400;   38.000;  -52.000
414.600;   -2.175; -126.000; -144.000
414.726;   -9.250;  -96.000;  -55.000
414.852;  -53.675; -365.000; -342.000
414.978;   45.425;  104.000;  -18.000
415.104;   45.325;   38.000;   80.000
415.230;   22.375; -329.000; -330.000
415.356;   42.700; -409.000; -514.000
415.482;  227.150;   13.000;  -35.000
415.608;  257.175; -247.000; -323.000
415.734;  873.450;   67.000;   38.000
415.860;18182.375; -875.000; -767.000
415.986;14499.350; -685.000; -607.000
416.111; 1303.150; -798.000; -652.000
416.237;  260.250; -424.000; -571.000
416.363;  899.125; -765.000; -733.000
416.489; 3741.500; -324.000; -251.000
416.615;  453.175; -707.000; -742.000
416.741;  -27.600; -677.000; -784.000
416.866;  -84.875; -673.000; -736.000
416.992; -123.775; -801.000; -818.000
417.118;  -20.125;  -41.000;  -80.000
417.244;  -63.425; -798.000; -531.000
417.369;  -72.025; -801.000; -612.000
417.495;    5.100; -325.000; -254.000
417.621;  -54.125;-1015.000; -803.000
417.746;    6.175; -579.000; -572.000
417.872;   51.125; -254.000; -144.000
417.998;   45.825; -515.000; -530.000
418.123;  866.275;-1073.000; -845.000
418.249; 4889.900; -512.000; -601.000
418.374;  747.000; -916.000; -824.000
418.500;  101.075; -383.000; -482.000
418.626;  105.425;   70.000;  -59.000
418.751;  128.450; -549.000; -448.000
418.877;  186.400; -637.000; -643.000
419.002; 1506.400; -688.000; -560.000
419.128;11224.125; -930.000; -721.000
419.253; 3038.575; -967.000; -837.000
419.379;  391.775; -391.000; -338.000
419.504;  373.250;  325.000;  415.000
419.629;  461.425; -393.000; -212.000
419.755; 2842.525; -317.000; -254.000
419.880;17983.725;  -98.000;   67.000
420.006;10140.225; -280.000; -221.000
420.131;27489.850; -662.000; -775.000
420.256; 4385.300; -315.000; -316.000
420.382;  590.450; -665.000; -687.000
420.507;   65.925; -649.000; -778.000
420.632;  191.875; -337.000; -339.000
420.758;  388.575; -251.000; -425.000
420.883;  -46.750; -876.000; -672.000
421.008; -101.850; -775.000; -619.000
421.133;  -59.575; -509.000; -467.000
421.259;  -45.875; -325.000; -259.000
421.384;  -96.125; -834.000; -693.000
421.509;   -9.975;-1052.000; -862.000
421.634; 1658.675; -936.000; -820.000
421.759;  807.000; -359.000; -327.000
421.885;   -5.275; -717.000; -656.000
422.010;  -72.150; -673.000; -542.000
422.135; -125.325; -695.000; -727.000
422.260;   43.800;  340.000;  280.000
422.385;  -48.000;   12.000;  -98.000
422.510;    7.225;  151.000;  -26.000
422.635;   31.625;  -87.000;  -43.000
422.760;  131.625; -766.000; -791.000
422.885;   63.425;  -57.000;  -80.000
423.010;  -29.700; -112.000; -169.000
423.135;  -81.825; -481.000; -561.000
423.260;    2.150; -150.000; -245.000
423.385;   83.025;  476.000;  222.000
423.510;   35.200;   71.000;  -22.000
423.635;   97.325;  133.000;   45.000
423.760;   73.450;  383.000;  328.000
423.885;   57.750;  336.000;  391.000
424.010;   24.050;  -68.000;  -13.000
424.135;   -8.875;    5.000;  -33.000
424.259;  -87.325; -654.000; -457.000
424.384;  -70.950; -279.000; -272.000
424.509;  -17.800; -260.000; -186.000
424.634;  -86.050; -761.000; -623.000
424.759;  -27.900; -688.000; -544.000
424.883;  -19.325; -506.000; -527.000
425.008;  158.300; -502.000; -410.000
425.133; 1800.050; -679.000; -653.000
425.258;  933.425; -517.000; -381.000
425.382; 1185.325; -867.000; -774.000
425.507; 3358.900; -487.000; -543.000
425.632;  553.350; -802.000; -663.000
425.756;  403.700; -256.000; -146.000
425.881; 5069.500; -831.000; -857.000
426.006;14807.150; -604.000; -355.000
426.130; 2650.225; -696.000; -508.000
426.255;  328.700; -611.000; -491.000
426.379;  148.475; -189.000; -577.000
426.504;  353.950;  660.000;  544.000
426.629; 3678.050; -519.000; -466.000
426.753; 2806.500;   64.000;  -46.000
426.878;  319.375; -252.000; -288.000
427.002;  187.850; -651.000; -668.000
427.127; 1402.300;  -35.000; -158.000
427.251;10111.150;  372.000;  401.000
427.375; 3307.825; -191.000; -173.000
427.500; 2773.725; -616.000; -610.000
427.624; 1079.525; -234.000; -400.000
427.749;  151.975; -216.000; -225.000
427.873;  -15.100; -499.000; -412.000
427.997;  -29.375; -222.000; -230.000
428.122;   83.825;  795.000;  703.000
428.246;   70.125;  433.000;  434.000
428.371; -106.775; -869.000; -773.000
428.495;  -93.600; -624.000; -646.000
428.619;  -33.500; -186.000; -117.000
428.743;   33.825;   65.000;  132.000
428.868;   45.875; -732.000; -643.000
428.992; 1752.625; -219.000; -326.000
429.116;  805.575; -329.000; -357.000
429.240;  376.750;  419.000;  426.000
429.365;    1.650; -454.000; -574.000
429.489;  -19.000; -638.000; -647.000
429.613;   29.025; -236.000; -177.000
429.737;   58.825; -563.000; -432.000
429.861;  248.200; -247.000; -133.000
429.985; 4835.950; -425.000; -305.000
430.109; 5892.525; -770.000; -908.000
430.234;  733.850;   76.000;  -50.000
430.358;   90.775; -250.000; -160.000
430.482;  -49.475; -672.000; -564.000
430.606;  -44.725; -655.000; -375.000
430.730;   49.125; -437.000; -388.000
430.854;  258.600; -909.000; -835.000
430.978;  -21.800; -795.000; -764.000
431.102;  -65.000; -499.000; -422.000
431.226;  -89.550; -874.000; -815.000
431.350;   45.375;  345.000;  422.000
431.474;  -51.425; -661.000; -373.000
431.597; -131.675;-1060.000; -848.000
431.721;  -80.800; -276.000; -267.000
431.845; -136.450; -704.000; -472.000
431.969;  -79.300; -304.000; -349.000
432.093;  -89.675; -395.000; -317.000
432.217;  -11.400;   32.000;   82.000
432.341;  -80.425; -523.000; -518.000
432.464;    6.550;   96.000;   40.000
432.588;  289.750; -401.000; -329.000
432.712;  160.700;  -52.000;  -52.000
432.836;   51.450;  213.000;  263.000
432.959;  -28.075; -372.000; -311.000
433.083;   60.675;   11.000;    2.000
433.207;  318.675;  285.000;  930.000
433.330; 4251.075; -391.000; -200.000
433.454; 5769.825; -654.000; -638.000
433.578; 3265.275;  583.000;  278.000
433.701;  680.300; -623.000; -675.000
433.825;  236.825; -292.000; -299.000
433.949;  283.925;   28.000;  -72.000
434.072;  137.225; -410.000; -323.000
434.196;    2.650; -309.000; -117.000
434.319; 3521.625;25482.000;25124.000
434.443;  701.500; -656.000; -603.000
434.566; 2464.725;  281.000;   62.000
434.690;  493.200; -637.000; -383.000
434.813;   69.225; -251.000; -173.000
434.937;  -69.925; -569.000; -696.000
435.060;  -14.075; -423.000; -332.000
435.184;  519.850; -492.000; -217.000
435.307;  320.550;  159.000;  102.000
435.431;   -7.000;  -40.000;   24.000
435.554;  -67.750; -399.000; -240.000
435.677;  -85.200; -350.000; -258.000
435.801;  -47.975;  -25.000;   49.000
435.924;   -4.300;    1.000;  -67.000
436.048;  -64.800;-1019.000; -732.000
436.171;  -57.125; -240.000;  -66.000
436.294;  -18.300; -248.000; -229.000
436.417;   73.700; -963.000; -849.000
436.541;  -75.700; -814.000; -840.000
436.664;  -52.675; -242.000; -316.000
436.787;  -31.925;   13.000;  113.000
436.910;  -96.850; -792.000; -422.000
437.034;    5.400;  142.000;  143.000
437.157;   95.800;  -11.000;    0.000
437.280;   -9.375; -392.000; -292.000
437.403;  -37.450; -982.000; -869.000
437.526;  908.175; -903.000; -865.000
437.649; 3394.325; -505.000; -332.000
437.772;  633.625; -692.000; -540.000
437.896;  149.050;  700.000;  544.000
438.019;  -80.525; -758.000; -503.000
438.142;  -69.550; -596.000; -506.000
438.265;   17.850; -639.000; -670.000
438.388;  825.375; -520.000; -410.000
438.511;  238.875; -597.000; -394.000
438.634;  -18.675; -247.000; -125.000
438.757; -127.600; -693.000; -619.000
438.880;  -19.425;  -34.000;  -57.000
439.003;  -64.600; -417.000; -437.000
439.126;  -72.025; -287.000; -167.000
439.248;  -53.275;  -98.000; -139.000
439.371;  -42.900;    9.000;  -53.000
439.494;   19.075;  510.000;  439.000
439.617;  -46.975;   65.000;  -88.000
439.740; -166.075; -968.000; -816.000
439.863; -142.900; -755.000; -595.000
439.986; -112.525; -476.000; -431.000
440.108;  -46.425; -161.000; -112.000
440.231; -146.075; -950.000; -836.000
440.354;  -28.325;  -64.000; -150.000
440.477;   85.375; -566.000; -542.000
440.599;   61.500; -200.000; -225.000
440.722; -101.300; -709.000; -586.000
440.845;   62.050;  751.000;  928.000
440.968; -103.050; -415.000; -311.000
441.090;  -72.975; -199.000;  -33.000
441.213; -151.125;-1021.000; -825.000
441.336;  -57.700; -159.000;   -5.000
441.458;  -68.825; -549.000; -396.000
441.581;  -64.675; -628.000; -629.000
441.703;  -48.825; -152.000;   13.000
441.826; -111.350; -557.000; -400.000
441.948;  -49.500;   56.000;   51.000
442.071;   30.875;  555.000;  424.000
442.193; -106.600; -531.000; -485.000
442.316;    5.625;  152.000;   97.000
442.438;   51.575; -233.000;  -10.000
442.561;   72.000;  272.000;  262.000
442.683;  765.500; -809.000; -522.000
442.806; 1733.925;   -8.000;   74.000
442.928;  153.175; -859.000; -604.000
443.051;  -42.525; -577.000; -373.000
443.173;  -79.500; -341.000; -339.000
443.295;  -83.000; -263.000; -371.000
443.418;  -65.725; -321.000;  -29.000
443.540;  -15.250; -106.000;   -4.000
443.662; -113.150; -563.000; -465.000
443.785;  -28.500;  335.000;  199.000
443.907; -106.775; -362.000; -208.000
444.029; -137.925; -767.000; -494.000
444.152; -141.150; -644.000; -554.000
444.274;  -35.675;  -18.000;  -24.000
444.396; -107.075; -461.000; -221.000
444.518; -129.950; -691.000; -454.000
444.640; -102.975; -268.000; -111.000
444.763;  -24.525;  388.000;  249.000
444.885; -125.200; -432.000; -392.000
445.007;  -33.150;   35.000;   86.000
445.129; -115.400; -610.000; -515.000
445.251;  -93.575; -372.000; -439.000
445.373; -133.525; -537.000; -386.000
445.495;    2.175;  242.000;  350.000
445.617;   48.475;  853.000;  753.000
445.739;  -53.100; -215.000;  -97.000
445.861;  -22.725; -245.000; -112.000
445.984;  -26.150; -267.000; -101.000
446.105;  276.450; -418.000; -251.000
446.227;  856.625; -176.000;  -19.000
446.349;   74.400; -358.000; -249.000
446.471;  -82.500; -615.000; -448.000
446.593;  -63.675; -316.000;   19.000
446.715;   12.900;  -67.000;   41.000
446.837;   54.800;  697.000;  832.000
446.959;  -98.975; -457.000; -478.000
447.081; -120.750; -628.000; -518.000
447.203;   64.725;  862.000;  834.000
447.325;  -86.400; -270.000;   42.000
447.446;   -8.275;  286.000;  530.000
447.568; -143.100; -921.000; -803.000
447.690;  -73.450; -236.000; -245.000
447.812; -152.875; -798.000; -519.000
447.933;  -29.050;  155.000;  127.000
448.055;  -55.275; -306.000; -261.000
448.177;  185.750;   31.000;   79.000
448.299;  193.250; -935.000; -727.000
448.420;   35.650;  -25.000;  159.000
448.542;  -45.950;   -3.000;   33.000
448.664;  -21.350;  109.000;  322.000
448.785;  -28.600;  265.000;   83.000
448.907;  -86.525; -614.000; -353.000
449.028;    3.450; -771.000; -471.000
449.150;   64.575;  492.000;  589.000
449.272; -174.550;-1044.000; -913.000
449.393;   17.875;  612.000;  694.000
449.515; -141.950; -634.000; -581.000
449.636;  -45.925; -264.000; -155.000
449.758;   90.500;  763.000;  622.000
449.879;  -98.000; -498.000; -396.000
450.001;  -74.475; -149.000;  -49.000
450.122;  -28.550;  -95.000;  162.000
450.244;  -18.025;   37.000;  364.000
450.365;  -98.425; -495.000; -301.000
450.486;  -37.700;   80.000;  268.000
450.608;   10.975;  393.000;  326.000
450.729;   60.925;  578.000;  645.000
450.850;  -28.600; -574.000; -466.000
450.972;  568.100; -552.000; -389.000
451.093; 4069.400;  190.000;  588.000
451.214; 1986.050; -516.000; -337.000
451.336;  372.925;  773.000;  579.000
451.457;   56.050;  264.000;  393.000
451.578;  -46.650; -118.000;  -74.000
451.699; -120.850; -546.000; -540.000
451.821;  -61.550; -284.000;  -50.000
451.942;   -7.025;  278.000;  285.000
452.063;   24.000;  228.000;  419.000
452.184;  446.975;  -54.000;  -49.000
452.305;  997.550;  103.000;  170.000
452.427;  147.125; -549.000; -301.000
452.548;  -14.125;   23.000;   79.000
452.669;  -47.550; -257.000;  -89.000
452.790;  -42.025;    3.000;  -18.000
452.911;    0.275;  195.000;  259.000
453.032;  -71.075; -289.000;  -60.000
453.153;  -21.450;  -29.000;   81.000
453.274;   69.725;  737.000;  868.000
453.395;  -35.350;  -51.000;  175.000
453.516;   38.925; 1317.000; 1388.000
453.637;  -49.175; -205.000; -150.000
453.758;  -39.500;   15.000;   69.000
453.879; -115.750; -462.000; -250.000
454.000;   75.150; 1086.000;  948.000
454.121;  -94.400; -554.000; -326.000
454.242; -113.475; -599.000; -383.000
454.362;  -51.025;  -99.000;  114.000
454.483;  -31.875; -309.000; -229.000
454.604;   64.725;  512.000;  580.000
454.725; -122.275; -627.000; -555.000
454.846; -110.775; -474.000; -406.000
454.967;  -20.600;  230.000;  539.000
455.087;  -48.925;  179.000;  153.000
455.208;   10.675;  554.000;  856.000
455.329;  -65.850;  -22.000;   82.000
455.450;   38.225;  473.000;  633.000
455.570;  -90.950; -234.000; -211.000
455.691;  -29.650;  201.000;  407.000
455.812; -108.575; -270.000;  -92.000
455.932;  -55.325;  107.000;  -97.000
456.053;  -85.425;   36.000;   24.000
456.173; -107.800; -433.000; -355.000
456.294; -131.200; -476.000; -303.000
456.415;  -67.125;  -73.000;   70.000
456.535;  -42.925;  297.000;  273.000
456.656;  -34.050;  132.000;  240.000
456.776;  -68.800;    3.000;  298.000
456.897;  -21.400;  308.000;  513.000
457.017;  -82.925; -153.000;   -3.000
457.138; -104.000; -402.000; -249.000
457.258;  -19.300;  263.000;  224.000
457.379;  -16.075;  509.000;  521.000
457.499;  -18.150;  443.000;  432.000
457.620; -116.750; -407.000; -231.000
457.740;  -92.450; -132.000;  -11.000
457.860;  -75.075;   87.000;   44.000
457.981;  -39.650;  132.000;  124.000
458.101;  -71.725;  -89.000;   40.000
458.221;  -30.725;  336.000;  402.000
458.342;  -64.675;   -4.000;  -37.000
458.462;    4.050;  617.000;  352.000
458.582;  -48.750; -302.000; -294.000
458.703;   -3.225;  303.000;  154.000
458.823;  -27.100;   22.000;  163.000
458.943;   18.175;  341.000;  467.000
459.063;  -20.325; 1124.000;  192.000
459.183;  -20.025;  328.000;  313.000
459.304;   -3.725;  315.000;  517.000
459.424;  -67.775; -246.000;  -89.000
459.544;  281.950;  388.000;  764.000
459.664;  728.625;  499.000;  506.000
459.784;  304.625; 1004.000; 1175.000
459.904;   61.100;  867.000;  744.000
460.024;   81.475;  867.000;  684.000
460.144;   25.700;  449.000;  554.000
460.264;  -16.025;  515.000;  327.000
460.385;  -81.725; -145.000; -119.000
460.505;   35.450;  905.000;  858.000
460.625;  -79.250;  -17.000;  -68.000
460.745;  -27.050;  396.000;  541.000
460.864;  -44.000;  153.000;  469.000
460.984;   13.650;  499.000;  573.000
461.104;  150.625; 1656.000; 1775.000
461.224;   20.900;  657.000;  650.000
461.344;  -23.100;  431.000;  360.000
461.464;  -28.525;  258.000;  513.000
461.584;  -18.625;  283.000;  466.000
461.704;  -29.075;   58.000;  108.000
461.824;  -50.175;  238.000;  259.000
461.943;  -41.425;  191.000;  130.000
462.063;  -78.600;    2.000;  324.000
462.183;   31.000;  639.000;  717.000
462.303;  115.600; 1678.000; 1230.000
462.422;   23.675;  781.000;  840.000
462.542;  -35.350;  271.000;  391.000
462.662;   45.425;  353.000;  380.000
462.782;  208.825;  833.000;  572.000
462.901;  443.250;  545.000;  717.000
463.021;  276.550; 1702.000; 1638.000
463.141;  -12.275;  337.000;  770.000
463.260;  -23.875;  614.000;  474.000
463.380;   12.050;  902.000;  884.000
463.499;  -46.750;  342.000;  332.000
463.619;  -42.325;  581.000;  559.000
463.738;   96.975; 1644.000;  903.000
463.858;   12.525;  657.000;  811.000
463.978;  -13.900;  542.000;  396.000
464.097;   47.875;  921.000; 1114.000
464.217;   91.025; 1196.000; 1143.000
464.336;   98.100; 1068.000; 1130.000
464.455;  -19.400;  328.000;  659.000
464.575;   63.325;  597.000;  602.000
464.694;  193.675; 1204.000; 1179.000
464.814;  112.800; 1190.000; 1138.000
464.933;   85.075; 1095.000; 1027.000
465.052;  110.300; 1412.000; 1054.000
465.172;   88.750;  922.000;  799.000
465.291;  148.050; 1376.000; 1320.000
465.410;   33.200;  462.000;  735.000
465.530;   76.575; 1355.000; 1310.000
465.649;   65.575; 1209.000; 1273.000
465.768;  136.775; 1673.000; 1508.000
465.888;   61.875;  941.000; 1174.000
466.007;   90.725; 1335.000; 1440.000
466.126;   -6.275;  721.000;  641.000
466.245;   38.325; 1176.000; 1187.000
466.364;   17.325;  950.000; 1060.000
466.484;   41.350; 1024.000; 1213.000
466.603;   54.975; 1101.000; 1222.000
466.722;  109.475; 1490.000; 1769.000
466.841;   94.250; 1151.000; 1401.000
466.960;   52.575; 1069.000;  972.000
467.079;  119.425; 1971.000; 1786.000
467.198;   32.175; 1238.000; 1181.000
467.317;   85.625; 1768.000; 1162.000
467.436;   80.075; 1709.000; 1261.000
467.555;  109.950; 1796.000; 1746.000
467.674;   64.400; 1227.000; 1329.000
467.793;   51.800; 1376.000; 1374.000
467.912;   87.700; 1658.000; 1539.000
468.031;  127.750; 2038.000; 1930.000
468.150;  155.950; 1842.000; 1837.000
468.269;  193.625; 2313.000; 2090.000
468.388;  199.800; 2168.000; 2339.000
468.507;  246.800; 2884.000; 2903.000
468.626;  247.725; 2555.000; 2541.000
468.744;  128.150; 2018.000; 2174.000
468.863;  203.025; 2312.000; 2523.000
468.982;   93.250; 1503.000; 1555.000
469.101;  211.850; 2788.000; 2692.000
469.220;  161.650; 2333.000; 2176.000
469.338;  250.425; 2935.000; 3051.000
469.457;  191.200; 2719.000; 2545.000
469.576;  328.925; 3953.000; 3784.000
469.695;  255.700; 2877.000; 3066.000
469.813;  430.700; 4148.000; 4192.000
469.932;  401.350; 4255.000; 4485.000
470.051;  422.175; 4075.000; 4161.000
470.169;  764.375; 4470.000; 4338.000
470.288; 1348.400; 4700.000; 4809.000
470.406;  869.875; 5059.000; 5194.000
470.525;  620.675; 6101.000; 5787.000
470.644;  628.000; 6847.000; 6794.000
470.762;  808.425; 8397.000; 7873.000
470.881;  904.125; 8651.000; 8464.000
470.999; 1021.675; 9685.000; 9151.000
471.118; 1095.200;11174.000;10711.000

