
Integration time [ms]: 100.000
Averaging Nr. [scans]: 40
Smoothing Nr. [pixels]: 0
Data measured with spectrometer [name]: 2101012U2
Wave   ;Sample   ;Dark     ;Reference
[nm]   ;[counts] ;[counts] ;[counts] 

197.733;   48.975;  516.000;  404.000
197.879;  -81.700; -610.000; -634.000
198.025;  -52.775; -475.000; -420.000
198.171;  -82.925; -602.000; -612.000
198.317;  -21.775; -401.000; -316.000
198.463;  -83.475; -655.000; -404.000
198.609;   30.950;  181.000; -137.000
198.755;  -92.725; -644.000; -410.000
198.901;  -76.500; -505.000; -424.000
199.047;  -77.875; -615.000; -488.000
199.193;  -41.750; -230.000; -468.000
199.339;  -50.675; -222.000; -369.000
199.485;   36.225;  330.000;  271.000
199.631;    3.825;  227.000;  310.000
199.777;  -54.275; -466.000; -398.000
199.923;  -79.925; -610.000; -424.000
200.069;   -3.175; -141.000;  -58.000
200.215;   50.375;  128.000;  453.000
200.361;   53.400;  243.000;  477.000
200.507;  -67.100; -600.000; -373.000
200.653;  -28.425; -371.000; -194.000
200.798;  -38.225; -215.000; -125.000
200.944;    0.350; -146.000;  -41.000
201.090;   28.225;   61.000;  222.000
201.236;   -6.100; -116.000; -158.000
201.382;  116.125;  874.000;  903.000
201.528;   -9.325;  -58.000;  -48.000
201.674;  -63.375; -386.000; -293.000
201.819;  -63.125; -540.000; -439.000
201.965;  -92.425; -699.000; -447.000
202.111;  -33.225; -273.000; -226.000
202.257;  -36.250; -250.000; -238.000
202.402;   13.475;   13.000;  -36.000
202.548;  -33.200; -169.000; -116.000
202.694;   91.050;  410.000; -183.000
202.840;  -92.350; -603.000; -531.000
202.985;  -69.250; -681.000; -639.000
203.131; -120.775; -832.000; -666.000
203.277;  -28.800; -199.000; -262.000
203.423;  -63.225; -434.000; -520.000
203.568;  -37.175; -462.000; -237.000
203.714;  -69.600; -535.000; -542.000
203.860;  -81.000; -682.000; -641.000
204.005;   14.450;  112.000;  167.000
204.151;   74.250;  561.000;  556.000
204.296;  -54.425; -354.000; -221.000
204.442;  -76.825; -600.000; -547.000
204.588;  -84.900; -592.000; -579.000
204.733;   12.400;  178.000;  168.000
204.879; -138.450;-1018.000; -822.000
205.025;    1.350;  -99.000;  126.000
205.170;  -14.325;  -17.000;   94.000
205.316;   64.350;  438.000;  661.000
205.461;  -88.750; -698.000; -554.000
205.607;   97.750;  609.000;  665.000
205.752;  -78.050; -626.000; -551.000
205.898;  -56.150; -501.000; -391.000
206.043;  -73.850; -578.000; -506.000
206.189;  -43.650; -243.000; -285.000
206.334;   60.900;  554.000;  606.000
206.480;   76.200;  409.000;  239.000
206.625;  -90.000; -529.000; -552.000
206.771;  -40.400; -451.000; -373.000
206.916;  -44.525; -210.000; -537.000
207.062;  -78.375; -545.000; -591.000
207.207;  -76.650; -546.000; -443.000
207.353;   51.050;  185.000;  460.000
207.498;   12.350;  196.000;   85.000
207.643;  -54.725; -501.000; -370.000
207.789; -145.425;-1069.000; -910.000
207.934;  -97.525; -665.000; -713.000
208.080;  -34.700; -154.000;   66.000
208.225;  -18.850;  -22.000;  -57.000
208.370;  -91.350; -727.000; -619.000
208.516;  -84.300; -741.000; -487.000
208.661;  -43.225; -127.000;  -69.000
208.806;  -27.225; -165.000; -171.000
208.952; -135.875;-1044.000; -731.000
209.097;   71.600;  378.000;  349.000
209.242;  -56.775; -307.000; -382.000
209.387;   79.100;  392.000;  350.000
209.533;  -59.825; -321.000; -350.000
209.678;   75.800;  472.000;  543.000
209.823;  -65.975; -408.000; -310.000
209.969; -104.350; -860.000; -757.000
210.114; -109.500; -907.000; -719.000
210.259; -119.375; -939.000; -889.000
210.404;   -6.725; -171.000;  103.000
210.549;   -0.675;  108.000;    3.000
210.695;  -18.350;   -3.000;  -95.000
210.840;   25.475;   94.000;   67.000
210.985;  -73.950; -484.000; -303.000
211.130;   67.875;  268.000;  406.000
211.275;    8.700;  207.000;  199.000
211.420;  -53.375; -300.000; -289.000
211.566;  -86.450; -536.000; -489.000
211.711;   27.450;  218.000;  157.000
211.856;  -68.650; -545.000; -519.000
212.001;   13.975;  151.000;   44.000
212.146;    7.700;  153.000;   49.000
212.291;  -30.875; -210.000; -186.000
212.436;  -31.275; -280.000;   -6.000
212.581;  -92.975; -685.000; -653.000
212.726;  -85.450; -487.000; -538.000
212.871;  -57.475; -552.000; -217.000
213.016; -151.900;-1172.000;-1029.000
213.161;   57.675;  406.000;  291.000
213.306;  -81.775; -435.000; -577.000
213.451; -106.100; -778.000; -689.000
213.596;  -48.300; -455.000; -347.000
213.741;  -61.225; -448.000; -538.000
213.886;  -87.600; -498.000; -517.000
214.031;  -35.650; -294.000; -124.000
214.176;  -49.900; -408.000; -341.000
214.321;  -14.725; -296.000; -157.000
214.466;  -34.550; -163.000;  -43.000
214.611;   -2.825;  -61.000;  -10.000
214.756; -128.100; -948.000; -858.000
214.901;  -24.000; -388.000; -226.000
215.046; -130.600; -797.000; -825.000
215.191;    3.825;  128.000;   35.000
215.336;  -25.075; -157.000;  -19.000
215.480;  -70.325; -684.000; -505.000
215.625;  -25.575; -175.000;  -19.000
215.770;  -86.275; -757.000; -662.000
215.915;   -6.450;   -5.000;  -97.000
216.060;   -2.550; -113.000;  -21.000
216.205; -129.600; -731.000; -779.000
216.349;  -88.125; -470.000; -533.000
216.494; -149.875; -939.000; -867.000
216.639; -120.100; -823.000; -888.000
216.784;  -99.550; -577.000; -525.000
216.929;   51.000;  392.000;  281.000
217.073;  -21.325; -244.000;  -31.000
217.218;    1.050;   78.000;  -47.000
217.363;  -98.900; -656.000; -618.000
217.507;  -83.325; -623.000; -588.000
217.652; -134.325; -845.000; -874.000
217.797;  -94.675; -708.000; -659.000
217.942; -118.550; -856.000; -720.000
218.086;   71.600;  608.000;  539.000
218.231;  -31.700; -174.000;  -26.000
218.376;  -44.175; -337.000; -229.000
218.520;   -2.250;  -41.000;   96.000
218.665;  -25.975; -338.000; -204.000
218.810;  -47.325; -275.000; -233.000
218.954;   17.500;  201.000;   35.000
219.099; -116.700; -713.000; -963.000
219.243;  -78.725; -589.000; -554.000
219.388;  -42.600; -264.000; -136.000
219.532;  -15.625; -116.000; -116.000
219.677;  -88.150; -564.000; -521.000
219.822;   -5.600;   33.000;   89.000
219.966;    3.350;   17.000;  -99.000
220.111;  -38.525; -328.000;  -40.000
220.255; -116.750; -797.000; -750.000
220.400;  -26.650; -180.000; -146.000
220.544;  -72.925; -516.000; -450.000
220.689;  -62.700; -422.000; -451.000
220.833;  -26.250; -123.000;  -58.000
220.978;  -36.575; -393.000; -563.000
221.122;   13.300;  319.000;  307.000
221.267; -119.875; -906.000; -837.000
221.411;  -69.200; -478.000; -394.000
221.555;  -18.775; -104.000;  -23.000
221.700;  -50.575; -329.000; -222.000
221.844;   32.675;  255.000;  272.000
221.989;  -63.975; -328.000; -311.000
222.133;  -35.950; -289.000; -307.000
222.277;  -18.300;    5.000;   78.000
222.422;   16.700;  227.000;  113.000
222.566;  -35.475; -381.000; -214.000
222.711;  -62.775; -414.000; -479.000
222.855;  -88.650; -643.000; -586.000
222.999;  -85.350; -642.000; -717.000
223.144;  -36.000; -195.000; -194.000
223.288;   51.275;  423.000;  251.000
223.432;   17.775;  184.000;  230.000
223.576;   22.850;  152.000;  -21.000
223.721;   17.575;  364.000;  273.000
223.865;  -64.350; -472.000; -475.000
224.009;  245.875; 1673.000; 1631.000
224.153;  -72.900; -660.000; -671.000
224.298;  -78.325; -531.000; -489.000
224.442;  -18.525;  -74.000;  -33.000
224.586;  -15.900; -169.000; -106.000
224.730; -103.825; -858.000; -670.000
224.875; -113.475; -739.000; -688.000
225.019;   21.875;  102.000;  188.000
225.163;   53.675;  208.000;  341.000
225.307;    9.375;   97.000;  -91.000
225.451;   35.700;  360.000;  481.000
225.595;   28.775;  264.000;  176.000
225.739;  -29.300; -170.000;  -94.000
225.884;  -10.975;   86.000;    5.000
226.028; -108.775; -760.000; -626.000
226.172;  -39.925; -260.000; -273.000
226.316; -131.600; -941.000; -902.000
226.460;  -64.025; -645.000; -493.000
226.604;  -68.500; -406.000; -400.000
226.748; -107.750; -836.000; -733.000
226.892;  -39.775; -227.000; -181.000
227.036;  -53.725; -537.000; -447.000
227.180;  -59.300; -551.000; -375.000
227.324;  -70.475; -561.000; -580.000
227.468; -121.450; -819.000; -717.000
227.612;    9.350;  242.000;  -28.000
227.756;  -99.225; -845.000; -698.000
227.900;   61.500;  342.000;  441.000
228.044;  -62.625; -509.000; -290.000
228.188;   71.625;  448.000;  568.000
228.332;  -92.625; -546.000; -472.000
228.476;  -47.500; -223.000; -149.000
228.620;  -39.050; -210.000; -150.000
228.764;   57.900;  431.000;  349.000
228.908;  -26.750; -155.000;   30.000
229.052;  -58.525; -615.000; -528.000
229.195;  -19.225; -172.000;   13.000
229.339;  -35.825; -235.000; -305.000
229.483;  -31.100;    5.000; -162.000
229.627;    1.600; -156.000;  139.000
229.771;  -56.200; -218.000; -294.000
229.915;   15.600;  230.000;   79.000
230.059;  -93.175; -648.000; -663.000
230.202;  -45.475; -370.000; -317.000
230.346;  -25.375; -107.000;  107.000
230.490;  -61.850; -489.000; -521.000
230.634; -114.400; -736.000; -553.000
230.777;   73.700;  478.000;  509.000
230.921;  -60.125; -450.000; -359.000
231.065;  -47.400; -246.000; -286.000
231.209;   24.050;  261.000;  265.000
231.352;   18.000;   54.000;   40.000
231.496;   19.750;  568.000;  188.000
231.640;  -81.275; -693.000; -621.000
231.783;   61.750;  546.000;  525.000
231.927;  -47.175; -294.000; -365.000
232.071; -131.575; -962.000; -736.000
232.214; -119.625; -980.000; -764.000
232.358; -108.400; -683.000; -599.000
232.502;    2.875;  -19.000;    7.000
232.645; -160.300;-1090.000; -927.000
232.789;  -30.325; -257.000; -218.000
232.933;  -51.850; -407.000; -224.000
233.076; -131.350;-1038.000; -897.000
233.220; -109.750; -752.000; -777.000
233.363;  -79.875; -669.000; -477.000
233.507;   47.300;  371.000;  129.000
233.650; -100.925; -764.000; -834.000
233.794;   42.700;  438.000;  461.000
233.938;  -55.725; -530.000; -362.000
234.081;  -27.400;  -93.000;   31.000
234.225;  -70.200; -631.000; -539.000
234.368; -122.975; -773.000; -723.000
234.512;  -30.875; -385.000; -299.000
234.655;  -93.175; -582.000; -555.000
234.798;  -75.775; -493.000; -466.000
234.942; -132.725; -884.000;-1002.000
235.085;  -78.725; -651.000; -443.000
235.229;  -84.425; -405.000; -410.000
235.372;  -51.225; -247.000; -191.000
235.516;  -75.400; -397.000; -321.000
235.659;   22.450;   92.000;  121.000
235.802;  -20.550;  -38.000;  -22.000
235.946;   22.125;  335.000;  215.000
236.089;   21.150;  126.000;  250.000
236.233;   44.450;  275.000;  298.000
236.376;  -52.400; -235.000; -378.000
236.519;  -55.525; -297.000; -319.000
236.663;  -26.875; -215.000; -117.000
236.806; -146.975;-1029.000; -999.000
236.949;   39.100;  543.000;  431.000
237.092;   45.825;  412.000;  391.000
237.236;  -96.800; -589.000; -502.000
237.379;   61.550;  352.000;  428.000
237.522; -117.425; -879.000; -768.000
237.666;  -19.075; -271.000;   18.000
237.809; -123.300; -851.000; -823.000
237.952;   31.850;  469.000;  271.000
238.095;  -85.425; -447.000; -442.000
238.238;   72.000;  688.000;  700.000
238.382;    3.575;  166.000;  103.000
238.525;  -62.900; -598.000; -511.000
238.668; -157.600;-1060.000; -985.000
238.811;  -86.725; -638.000; -643.000
238.954;  -74.400; -483.000; -334.000
239.097;   87.625;  617.000;  664.000
239.241;   19.225;  394.000;  326.000
239.384;  -54.050; -254.000; -214.000
239.527;  -61.650; -424.000; -224.000
239.670; -158.275; -994.000;-1091.000
239.813; -122.350; -696.000; -658.000
239.956;   78.875;  579.000;  473.000
240.099; -122.550; -778.000; -725.000
240.242;   60.300;  428.000;  432.000
240.385;   52.150;  466.000;  450.000
240.528;  -74.450; -706.000; -473.000
240.671;    6.225;  189.000;  134.000
240.814;  -53.275; -441.000; -158.000
240.957; -113.675; -767.000; -578.000
241.100;  -94.275; -779.000; -755.000
241.243; -150.475;-1234.000; -893.000
241.386;  -73.100; -508.000; -379.000
241.529;  -96.250; -735.000; -547.000
241.672;  -60.375; -566.000; -495.000
241.815; -144.875; -832.000; -808.000
241.958;  -30.900; -125.000; -182.000
242.101;  -93.325; -545.000; -390.000
242.244;  -49.775; -270.000; -325.000
242.387;  -54.575; -304.000; -246.000
242.530;   43.650;  470.000;  134.000
242.673;  -55.500; -381.000; -309.000
242.815; -121.850; -925.000; -899.000
242.958;  -84.675; -482.000; -381.000
243.101;    6.525;  132.000;  187.000
243.244;  -85.250; -564.000; -521.000
243.387;  -40.300; -313.000; -316.000
243.530; -110.450; -657.000; -674.000
243.672;   -2.500;   43.000;  -92.000
243.815;  -64.150; -355.000; -283.000
243.958;  -11.475;   98.000;  -26.000
244.101;   -5.700;   59.000;  -16.000
244.243;  -10.600;  -47.000;  101.000
244.386; -123.775; -761.000; -630.000
244.529;  -26.025; -132.000; -139.000
244.672; -167.250;-1154.000; -951.000
244.814; -104.550; -621.000; -794.000
244.957;  -71.650; -380.000; -304.000
245.100;  -83.700; -489.000; -489.000
245.242;  -64.075; -387.000; -374.000
245.385;   -3.600;  -59.000;  -39.000
245.528; -115.650; -871.000; -705.000
245.670;   88.125;  612.000;  634.000
245.813;  -97.100; -599.000; -547.000
245.956;  -30.225; -324.000; -275.000
246.098;  -86.250; -508.000; -650.000
246.241;    9.675;  194.000;   48.000
246.383;  -18.625; -119.000;  -73.000
246.526;  -80.925; -454.000; -525.000
246.669; -127.100; -889.000; -780.000
246.811;   22.200;  172.000;   -1.000
246.954;  -71.725; -512.000; -426.000
247.096;  -37.225;  -84.000;   -6.000
247.239;  -90.175; -482.000; -445.000
247.381;  -69.250; -647.000; -488.000
247.524;   67.925;  645.000;  679.000
247.666;  -10.925;   58.000;   11.000
247.809; -123.575; -887.000; -691.000
247.951;  -10.375;  -75.000;  138.000
248.094;   30.300;  432.000;  308.000
248.236; -163.500;-1262.000;-1238.000
248.378;   -6.500; -356.000;  -81.000
248.521;  -24.350; -334.000; -337.000
248.663;  -50.825; -236.000; -267.000
248.806;  -23.000; -300.000; -266.000
248.948;  -99.225; -886.000; -763.000
249.090;  -51.125; -428.000; -398.000
249.233;  -50.550; -344.000; -381.000
249.375;  -69.075; -474.000; -451.000
249.518;  -37.975;  -83.000; -133.000
249.660;  -10.025; -103.000;    3.000
249.802; -184.700;-1303.000;-1189.000
249.945;  -80.425; -612.000; -540.000
250.087; -125.175; -834.000; -768.000
250.229;  -55.575; -362.000; -480.000
250.371;  -87.650; -494.000; -439.000
250.514;  -55.875; -310.000; -244.000
250.656;  -72.625;   69.000;  102.000
250.798; -121.450; -849.000; -800.000
250.940;  -69.100; -322.000; -322.000
251.083;  -34.700; -335.000; -111.000
251.225;   46.600;  338.000;  310.000
251.367;  -51.525; -274.000; -373.000
251.509;  -39.050; -265.000; -210.000
251.651; -116.450; -731.000; -671.000
251.794;   48.400;  538.000;  632.000
251.936; -120.950; -821.000; -747.000
252.078;  -87.500; -540.000; -461.000
252.220;  -72.700; -645.000; -477.000
252.362;   66.175;  344.000;  462.000
252.504;  -79.000; -677.000; -584.000
252.646; -136.675; -875.000; -722.000
252.788;   -4.775;   14.000; -128.000
252.931;  -48.650; -257.000; -253.000
253.073;  -45.700; -376.000; -317.000
253.215;  -25.275;  141.000;  122.000
253.357;  -13.125;   82.000; -153.000
253.499;  -68.500; -374.000; -234.000
253.641;  -86.100; -749.000; -594.000
253.783; -114.575; -609.000; -527.000
253.925;  -89.950; -586.000; -591.000
254.067; -123.550; -744.000; -667.000
254.209;  -28.075; -391.000; -259.000
254.351; -139.625; -865.000; -883.000
254.493;  -73.125; -441.000; -417.000
254.635; -136.125; -936.000; -818.000
254.777;  -94.750; -752.000; -687.000
254.918;  -71.900; -512.000; -430.000
255.060;  -56.350; -551.000; -395.000
255.202;  -69.325; -473.000; -261.000
255.344;  -86.600; -658.000; -455.000
255.486;  -80.450; -471.000; -406.000
255.628; -103.350; -780.000; -781.000
255.770;  -96.650; -676.000; -536.000
255.912;  -69.900; -559.000; -468.000
256.053;  -98.575; -730.000; -508.000
256.195;  143.475; 1008.000;  903.000
256.337; -104.925; -861.000; -595.000
256.479;   61.625;  532.000;  416.000
256.621;  -49.875; -394.000; -212.000
256.762; -106.025; -789.000; -742.000
256.904;   31.525;  485.000;  487.000
257.046;  -56.350; -381.000; -271.000
257.188;  -47.475; -351.000; -264.000
257.329;  -73.900; -525.000; -464.000
257.471; -119.450; -939.000; -807.000
257.613;  -75.575; -584.000; -498.000
257.755; -149.825;-1073.000; -982.000
257.896;   33.275;  286.000;  392.000
258.038;  -73.000; -403.000; -352.000
258.180;  -46.075; -354.000; -279.000
258.321;  -88.300; -581.000; -457.000
258.463;  -19.850;  -71.000;  133.000
258.605; -101.375; -562.000; -570.000
258.746; -106.725; -886.000; -772.000
258.888; -158.025;-1026.000;-1020.000
259.029;   16.350;  121.000;   -8.000
259.171;  -96.300; -614.000; -550.000
259.313;  -13.775;  -49.000;  -47.000
259.454;  -76.000; -536.000; -414.000
259.596;  -53.550; -483.000; -390.000
259.737;  -90.825; -590.000; -474.000
259.879;   38.300;  217.000;  311.000
260.020;   75.525;  901.000;  636.000
260.162;  -42.375; -146.000; -253.000
260.303; -124.775; -768.000; -687.000
260.445;  -84.175; -609.000; -613.000
260.586;   23.775;  392.000;  157.000
260.728;  -42.300; -360.000; -248.000
260.869; -122.200; -350.000; -343.000
261.011;   79.725;  706.000;  537.000
261.152;  -63.950; -479.000; -319.000
261.293;  -84.650; -576.000; -595.000
261.435;  -41.000; -219.000; -184.000
261.576;  -65.300; -455.000; -325.000
261.718;   37.975;  420.000;  470.000
261.859; -140.675; -940.000; -949.000
262.000; -146.000; -951.000;-1016.000
262.142;  -35.625;  -52.000;  -60.000
262.283; -125.250; -808.000; -691.000
262.424;  -97.000; -666.000; -625.000
262.566; -160.175;-1161.000; -983.000
262.707; -123.350; -840.000; -830.000
262.848; -127.725; -769.000; -726.000
262.990;  -49.600; -362.000; -345.000
263.131;   66.300;  650.000;  681.000
263.272;   -8.000;  -61.000;  -41.000
263.413; -110.450; -589.000; -561.000
263.555;  -68.300; -669.000; -143.000
263.696;  -87.725; -550.000; -641.000
263.837;  -72.425; -449.000; -551.000
263.978;   -1.150;   -5.000;  -77.000
264.119;  -57.800; -283.000; -264.000
264.261; -131.925; -847.000; -630.000
264.402;    4.000;   33.000;   40.000
264.543;  -89.400; -509.000; -524.000
264.684;   -9.850;   61.000;  -50.000
264.825;  -88.650; -816.000; -538.000
264.966;  -17.025;  -84.000;  -67.000
265.107; -123.825; -646.000; -670.000
265.248; -123.100; -825.000; -812.000
265.390;  -19.200;  152.000;   -9.000
265.531;  -21.800; -238.000; -107.000
265.672;  -86.325; -557.000; -630.000
265.813;   52.950;  563.000;  439.000
265.954; -158.300; -959.000; -940.000
266.095;  -13.475; -372.000; -322.000
266.236; -112.425; -686.000; -548.000
266.377;  -51.225; -243.000; -297.000
266.518;  -75.175; -619.000; -547.000
266.659;   23.600;  170.000;  268.000
266.800;  -13.750;   83.000;   85.000
266.941;  -65.975; -487.000; -478.000
267.082;    8.925;  354.000;   99.000
267.223;  -51.425; -344.000; -273.000
267.364; -123.375; -892.000; -686.000
267.504;  -12.100;    3.000;  135.000
267.645;  -14.425;  160.000;   67.000
267.786;  -29.025; -147.000;  -86.000
267.927;  -87.875; -473.000; -379.000
268.068;  -24.175; -186.000;  -61.000
268.209;  -58.400; -175.000; -413.000
268.350;  -55.800; -388.000; -532.000
268.490;  -96.350; -648.000; -521.000
268.631;   27.825;  127.000;  225.000
268.772; -111.350; -874.000; -647.000
268.913;  -52.450; -328.000; -476.000
269.054;  -18.125; -117.000;   12.000
269.194;  -66.050; -418.000; -402.000
269.335; -158.050;-1137.000;-1074.000
269.476;  -35.075;   33.000;  -35.000
269.617;  -58.575; -347.000; -392.000
269.757;  -94.525; -713.000; -646.000
269.898; -121.950; -856.000; -613.000
270.039;  -65.400; -415.000; -405.000
270.180; -143.150; -952.000; -816.000
270.320;  -24.475; -190.000; -250.000
270.461;  -40.625; -277.000; -249.000
270.602;  -26.975; -186.000; -156.000
270.742; -117.175; -868.000; -943.000
270.883;  -64.950; -442.000; -390.000
271.023;  -70.200; -358.000; -357.000
271.164;  -80.000; -607.000; -528.000
271.305; -111.250; -666.000; -654.000
271.445; -107.825; -722.000; -683.000
271.586;  -76.650; -462.000; -283.000
271.726;  -40.025; -397.000; -322.000
271.867;  -77.925; -594.000; -534.000
272.008;  148.000; -473.000; -285.000
272.148;  126.475;  462.000;  468.000
272.289;    3.000; -113.000; -181.000
272.429;    8.175;   19.000;  185.000
272.570; -102.050; -633.000; -737.000
272.710; -110.850; -825.000; -775.000
272.851;  -24.175;  113.000; -130.000
272.991; -177.700;-1173.000;-1077.000
273.131;  -84.825; -419.000; -459.000
273.272; -111.200; -683.000; -723.000
273.412;   -3.425; -143.000;  -31.000
273.553;  -64.600; -488.000; -507.000
273.693;  129.925;  913.000;  858.000
273.834; -107.175; -894.000; -692.000
273.974;  -73.475; -664.000; -615.000
274.114; -119.350; -772.000; -560.000
274.255;   67.475;  414.000;  373.000
274.395;   -4.775; -180.000; -125.000
274.535;   38.125;  199.000;  350.000
274.676;   23.975;  225.000;   94.000
274.816;   -7.475;  110.000;   34.000
274.956; -100.375; -624.000; -690.000
275.097;  -70.550;-1014.000; -922.000
275.237; -118.675; -913.000; -803.000
275.377;  -97.075; -778.000; -689.000
275.517; -163.500; -878.000; -937.000
275.658;  -61.875; -590.000; -555.000
275.798;  -75.425; -606.000; -413.000
275.938;   38.600;  215.000;  323.000
276.078; -115.725; -626.000; -395.000
276.218;    3.375;   99.000;  104.000
276.359; -129.300;-1026.000;-1024.000
276.499;  -77.225; -605.000; -446.000
276.639;  -45.000; -305.000; -151.000
276.779;  -47.325; -475.000; -357.000
276.919; -113.275; -783.000; -624.000
277.059;  -26.275; -261.000; -212.000
277.199;  -58.150; -357.000; -259.000
277.340;   31.250;  287.000;  175.000
277.480; -117.425; -840.000; -693.000
277.620;   24.825;  192.000;   16.000
277.760; -216.075;-1533.000;-1294.000
277.900;    7.800;  113.000;   33.000
278.040;   16.775;  137.000;  159.000
278.180;   29.725;  270.000;  170.000
278.320;  -11.275;   21.000;   56.000
278.460;  -77.700; -443.000; -469.000
278.600;  -82.525; -708.000; -598.000
278.740;   43.950;  448.000;  224.000
278.880;  -63.375; -768.000; -791.000
279.020;   -5.300; -194.000; -144.000
279.160;  -97.275; -672.000; -595.000
279.300; -118.200; -926.000; -873.000
279.440; -107.825; -709.000; -622.000
279.579;  -17.500;-1014.000; -929.000
279.719;  -57.150; -410.000; -394.000
279.859;   65.675;   -4.000;   41.000
279.999;   24.075; -208.000;  101.000
280.139;  -28.375; -435.000; -387.000
280.279;  -76.350; -708.000; -745.000
280.419;   -9.575; -229.000; -147.000
280.559;  -45.675; -259.000; -180.000
280.698;  -82.425; -790.000; -639.000
280.838; -113.700; -778.000; -800.000
280.978;  -99.925; -846.000; -790.000
281.118; -122.375; -811.000; -704.000
281.257;    2.700;   24.000;    6.000
281.397; -136.750;-1094.000; -960.000
281.537;  -95.375; -599.000; -712.000
281.677;  -28.475; -150.000; -101.000
281.816;  -89.575; -700.000; -630.000
281.956;  -44.150; -193.000; -257.000
282.096;  -71.225; -539.000; -396.000
282.235; -107.050; -672.000; -638.000
282.375;  -21.625; -243.000;  -98.000
282.515; -118.350; -715.000; -707.000
282.654;   16.025;   29.000;  106.000
282.794;   22.775;  388.000;  244.000
282.934;  -61.600; -530.000; -491.000
283.073; -146.800;-1030.000; -857.000
283.213;  -53.625; -460.000; -467.000
283.353;  -59.500; -408.000; -349.000
283.492;  -29.250; -264.000; -296.000
283.632;  -46.525; -254.000; -168.000
283.771; -106.025; -859.000; -730.000
283.911;  -66.800; -369.000; -260.000
284.050; -118.900; -794.000; -748.000
284.190; -158.275;-1229.000;-1096.000
284.329; -149.450;-1055.000; -964.000
284.469;  -87.800; -516.000; -591.000
284.608;  -73.400; -559.000; -598.000
284.748;  -92.050; -614.000; -570.000
284.887;   -9.025;  -87.000;  -20.000
285.027; -143.700; -844.000; -892.000
285.166;  -48.700; -192.000; -249.000
285.306;   -8.100; -116.000;  -33.000
285.445;  -49.625; -229.000; -343.000
285.584; -112.400; -630.000; -494.000
285.724;  -48.125; -282.000; -322.000
285.863; -115.975; -857.000; -507.000
286.002;  -68.400; -366.000; -276.000
286.142; -107.400; -715.000; -622.000
286.281;  -81.500; -525.000; -493.000
286.420;  -70.025; -554.000; -417.000
286.560;   97.450;  653.000;  623.000
286.699; -152.875; -958.000; -912.000
286.838;  -92.475; -590.000; -591.000
286.978;  -86.825; -533.000; -537.000
287.117; -128.975;-1085.000; -950.000
287.256;  -38.225; -228.000; -211.000
287.395;  -63.500; -197.000; -378.000
287.535;  -61.725; -370.000; -298.000
287.674;  -84.975; -509.000; -484.000
287.813;   60.625;  661.000;  533.000
287.952; -139.725;-1010.000; -871.000
288.091; -151.575;-1049.000; -915.000
288.231;   20.000;   13.000;   15.000
288.370; -186.000;-1217.000;-1200.000
288.509;  -98.075; -728.000; -645.000
288.648; -104.875; -770.000; -548.000
288.787;  -36.725; -243.000;  -87.000
288.926;  -70.775; -454.000; -475.000
289.065;  121.600;  859.000;  672.000
289.204;  -59.050; -377.000; -217.000
289.344; -103.825; -791.000; -690.000
289.483;    4.450;  416.000;  304.000
289.622;  -13.050; -291.000; -149.000
289.761;  -21.650; -309.000; -166.000
289.900; -114.650; -785.000; -626.000
290.039;  -35.050;  -12.000;  -95.000
290.178;  -53.850; -274.000; -180.000
290.317; -103.175; -618.000; -479.000
290.456;  -83.925; -463.000; -451.000
290.595; -158.375; -961.000; -833.000
290.734; -153.150; -904.000; -891.000
290.873;  -76.850; -456.000; -420.000
291.011; -118.100; -833.000; -843.000
291.150; -117.075; -770.000; -682.000
291.289;  -45.325; -343.000; -110.000
291.428; -108.300; -599.000; -480.000
291.567;  -49.650; -370.000; -442.000
291.706;   -8.700;  109.000;  154.000
291.845;  -98.825; -597.000; -505.000
291.984; -167.775;-1234.000;-1061.000
292.122;   78.175;  602.000;  582.000
292.261;   49.300;  620.000;  463.000
292.400;   12.300; -144.000;  211.000
292.539; -127.325; -959.000; -813.000
292.678;  -31.050; -325.000; -300.000
292.816; -171.850;-1136.000; -965.000
292.955; -108.850; -844.000; -684.000
293.094;  -39.825; -173.000; -337.000
293.233;  -60.450; -556.000; -400.000
293.371;  -47.350; -225.000;  -84.000
293.510; -119.875; -866.000; -780.000
293.649; -138.500; -959.000; -924.000
293.787;  -94.425;-1083.000;-1012.000
293.926;   -9.250; -113.000;  -32.000
294.065;  -41.425; -379.000; -290.000
294.203;   40.050;  298.000;  406.000
294.342;   21.425;   74.000;  156.000
294.481; 6068.425;51180.000; -836.000
294.619;  -31.575; -425.000; -582.000
294.758; -167.500;-1230.000;-1137.000
294.896;   59.175; -125.000;    5.000
295.035; -129.850;-1040.000;-1006.000
295.174; -128.975;-1082.000; -954.000
295.312;  -49.650; -323.000; -203.000
295.451;   -9.325; -307.000; -428.000
295.589;  -57.375; -389.000; -518.000
295.728;    7.900; -292.000; -165.000
295.866;  -12.975;  -36.000;  -51.000
296.005;  -70.925; -584.000; -341.000
296.143;  -85.900; -558.000; -596.000
296.282; -113.000; -957.000; -881.000
296.420;  -98.675; -657.000; -557.000
296.559;  -88.650; -892.000; -633.000
296.697;    1.125; -847.000; -665.000
296.835;   42.275;-1141.000;-1002.000
296.974;   42.850;  -23.000;   39.000
297.112;    7.775; -443.000; -504.000
297.251;  -95.050; -815.000; -755.000
297.389;   70.075; -576.000; -438.000
297.527;   27.975; -145.000;  -83.000
297.666;  -63.575; -486.000; -438.000
297.804;  -73.000; -404.000; -264.000
297.942;  -14.350; -136.000; -161.000
298.081;   -9.950; -183.000;   63.000
298.219;   52.425;  -17.000;  -19.000
298.357;   27.050; -144.000;  -71.000
298.495;   19.975; -810.000; -812.000
298.634;   67.025;  245.000;  219.000
298.772;   35.000; -220.000; -338.000
298.910;  -44.425; -309.000; -182.000
299.048;   -5.700; -130.000; -153.000
299.187;  -37.775; -350.000; -250.000
299.325;   16.325;   52.000;  122.000
299.463;   35.325; -389.000; -299.000
299.601;  106.650; -327.000; -271.000
299.739; -124.100; -908.000; -883.000
299.877;  -85.000; -791.000; -703.000
300.016;  -62.425;-1095.000; -935.000
300.154;  152.450;  -19.000; -161.000
300.292;   31.400; -428.000; -348.000
300.430;   25.125; -408.000; -291.000
300.568; -109.275; -940.000; -874.000
300.706;  -57.875; -366.000; -469.000
300.844;  -91.350;-1108.000; -979.000
300.982;   98.025;  246.000;  282.000
301.120; -116.600; -965.000; -866.000
301.258;  -59.825; -812.000; -705.000
301.396;   12.425;  104.000;  -41.000
301.534;   47.425; -218.000; -293.000
301.672;  -21.725; -664.000; -521.000
301.810;   20.700; -613.000; -545.000
301.948;   94.675;   53.000;  149.000
302.086;  580.175; -250.000;  -32.000
302.224;  890.100; -610.000; -585.000
302.362;   15.900; -558.000; -622.000
302.500;  -38.500; -923.000; -893.000
302.638;   93.225;  128.000;  245.000
302.776;   -8.750; -352.000; -408.000
302.913;   46.825;  447.000;  236.000
303.051;  -23.000;  -86.000;  -23.000
303.189;   58.450;   90.000;  118.000
303.327;  -48.075; -341.000; -256.000
303.465;  -94.050; -832.000; -588.000
303.603; -108.650; -805.000; -604.000
303.740;   93.275;  417.000;  241.000
303.878;   13.500; -800.000; -759.000
304.016; -100.550; -915.000; -790.000
304.154; -149.400;-1123.000;-1152.000
304.291;  -40.025; -505.000; -554.000
304.429;  -11.075;  102.000;   74.000
304.567; -117.075; -908.000; -893.000
304.705;  -63.275; -408.000; -515.000
304.842;   76.225; -616.000; -540.000
304.980;   26.775;  215.000;   35.000
305.118;   24.250; -367.000; -365.000
305.255;  -72.575; -945.000; -927.000
305.393;   51.225;  178.000;  239.000
305.531; -118.350;-1173.000; -956.000
305.668;  -91.275; -663.000; -582.000
305.806;   69.325; -358.000; -439.000
305.943;   90.925; -629.000; -637.000
306.081;   43.050; -378.000; -267.000
306.219;  -99.650; -863.000; -748.000
306.356;   -5.975;  158.000;   27.000
306.494;  112.900;  981.000;  761.000
306.631;   -6.975;  -11.000;  -55.000
306.769;   12.000; -613.000; -485.000
306.906;  -30.225; -284.000; -258.000
307.044;  -73.400; -473.000; -488.000
307.181;  -76.850; -410.000; -332.000
307.319;   18.325;  112.000;   87.000
307.456; -179.900;-1191.000;-1153.000
307.594; -108.675; -980.000; -727.000
307.731;   -5.275; -371.000; -164.000
307.868;   -5.600;  -15.000;   20.000
308.006; -145.925; -961.000; -847.000
308.143;  -72.975; -618.000; -330.000
308.281;   95.725;  -37.000; -254.000
308.418;  -32.300; -748.000; -640.000
308.555;  -81.125; -400.000; -250.000
308.693;  -80.550; -577.000; -573.000
308.830; -122.925; -712.000; -657.000
308.967;  -11.925; -215.000;  -95.000
309.105;  -58.400; -507.000; -396.000
309.242;   -8.025; -468.000; -367.000
309.379;  199.025; -577.000; -655.000
309.517;  -84.700; -936.000; -948.000
309.654; -127.850; -910.000; -734.000
309.791;  -83.075; -662.000; -580.000
309.928; -137.500; -977.000; -914.000
310.065;  160.475;  819.000;  697.000
310.203;  -21.225; -825.000; -850.000
310.340;  -14.250; -465.000; -321.000
310.477;  -81.375; -412.000; -516.000
310.614;  -80.775; -383.000; -473.000
310.751;  -86.875; -427.000; -518.000
310.889;  -13.300;    1.000;   11.000
311.026; -168.525;-1161.000; -939.000
311.163;  -45.400; -386.000; -380.000
311.300;  -85.600; -512.000; -479.000
311.437;  -87.025; -658.000; -619.000
311.574; -165.675;-1226.000; -985.000
311.711;  -65.925; -595.000; -433.000
311.848;  -50.350; -380.000; -388.000
311.985;    8.250;  270.000;   93.000
312.122; -128.175; -932.000; -762.000
312.259; -124.900; -941.000; -994.000
312.396;  -93.675; -508.000; -551.000
312.533; -105.200; -812.000; -790.000
312.670; -150.600;-1070.000; -898.000
312.807;  -41.850; -352.000; -367.000
312.944;  -88.025; -513.000; -611.000
313.081;  -36.575; -150.000; -415.000
313.218; -112.525;-1111.000; -867.000
313.355;    2.750; -531.000; -449.000
313.492;  -10.675; -455.000; -292.000
313.629;  139.300;  815.000;  735.000
313.766; -173.400;-1176.000;-1008.000
313.902;   -9.125; -186.000;   21.000
314.039;  -60.575; -372.000; -289.000
314.176;   17.375;  286.000;  192.000
314.313;  -78.125; -569.000; -473.000
314.450;  -85.550; -788.000; -684.000
314.587;  -64.100; -468.000; -480.000
314.723;    4.675;  -78.000;  130.000
314.860;   29.450;  318.000;  332.000
314.997;   39.275;  223.000;  142.000
315.134;  -44.675; -385.000; -368.000
315.270;  -38.600; -480.000; -496.000
315.407; -132.150;-1094.000; -967.000
315.544;  -47.775; -657.000; -538.000
315.681;  -79.525; -681.000; -565.000
315.817;   34.275; -133.000; -176.000
315.954;  -11.750; -613.000; -392.000
316.091; -128.775;-1045.000;-1023.000
316.227;  -18.800;  -71.000; -179.000
316.364;    2.425;   23.000;    6.000
316.500;  -37.175; -113.000; -300.000
316.637;  -48.275; -181.000; -302.000
316.774;  -95.525; -625.000; -358.000
316.910; -101.450; -598.000; -629.000
317.047;  -76.950; -487.000; -351.000
317.183;  -46.375; -435.000; -566.000
317.320;   -6.675; -367.000; -321.000
317.456;  -79.325; -733.000; -805.000
317.593; -106.400; -598.000; -641.000
317.729;    0.100;  168.000;  -67.000
317.866; -215.225;-1434.000;-1285.000
318.002;  -86.625; -708.000; -948.000
318.139; -106.925; -883.000; -867.000
318.275; -119.250;-1003.000; -738.000
318.412;  -68.100; -517.000; -336.000
318.548;  -51.400; -751.000; -720.000
318.685; -105.000; -985.000; -888.000
318.821; -106.575; -762.000; -735.000
318.957;  -29.850;   34.000;  -23.000
319.094;   42.650;  297.000;  154.000
319.230;  -83.900; -756.000; -742.000
319.367;  103.025; -471.000; -520.000
319.503;   43.325; -538.000; -436.000
319.639; -102.025; -877.000; -793.000
319.775;  -74.825; -750.000; -685.000
319.912;  -51.925; -424.000; -519.000
320.048;  -95.800;-1184.000;-1184.000
320.184;   66.150;   59.000;   70.000
320.321;  -71.350; -497.000; -467.000
320.457;   73.625;  475.000;  662.000
320.593;  -72.700; -375.000; -382.000
320.729; -111.825; -732.000; -734.000
320.866;  -88.675; -577.000; -635.000
321.002;  -98.375; -759.000; -809.000
321.138;  -12.850; -135.000; -211.000
321.274;   64.775; -148.000; -115.000
321.410;  -47.350; -585.000; -353.000
321.546;  -28.075;-1011.000; -911.000
321.683;   41.975;  400.000;  185.000
321.819;   -3.525;  -48.000; -117.000
321.955; -120.125; -743.000; -722.000
322.091;  -54.200; -585.000; -540.000
322.227;  -19.850; -382.000; -202.000
322.363;  -16.075; -320.000; -215.000
322.499;  -65.750; -343.000; -331.000
322.635;  149.425;  636.000;  443.000
322.771;   10.425; -139.000;   12.000
322.907;   80.900;  129.000;  327.000
323.043;  -25.500; -115.000; -206.000
323.179;  -46.275; -394.000; -363.000
323.315;    4.850; -401.000; -371.000
323.451;   74.625; -328.000; -236.000
323.587;   50.275;  -60.000;  -77.000
323.723;    4.075; -682.000; -601.000
323.859;  -27.275; -258.000;  -76.000
323.995;  -45.925; -467.000; -409.000
324.131; -129.750; -967.000; -892.000
324.267;  -41.650; -254.000; -276.000
324.402; -146.250; -960.000; -983.000
324.538;  -16.875; -279.000; -104.000
324.674;   20.275;  164.000;   77.000
324.810;  110.425;  226.000;  308.000
324.946;   -1.425; -810.000; -658.000
325.082;  -80.125; -568.000; -475.000
325.217;  -29.500;  -62.000;   16.000
325.353; -105.050; -764.000; -659.000
325.489;  -95.825; -540.000; -506.000
325.625;  -75.325; -579.000; -525.000
325.760;   57.375;  517.000;  376.000
325.896;  -27.750; -515.000; -702.000
326.032;  -66.600; -403.000; -352.000
326.168;  -59.900; -462.000; -369.000
326.303;  -67.925; -352.000; -461.000
326.439;  -19.275; -336.000; -276.000
326.575;   -7.375; -190.000;  -29.000
326.710;  -10.375; -156.000;  -30.000
326.846;  -32.125;  146.000;  103.000
326.982;  -99.900; -530.000; -548.000
327.117;  -79.650; -481.000; -442.000
327.253;  -97.525; -745.000; -742.000
327.388; -135.900;-1137.000;-1153.000
327.524;  -62.625; -811.000; -578.000
327.659;  -36.950;  -58.000;  -22.000
327.795;  -14.975;   69.000;   45.000
327.931; -100.575; -723.000; -499.000
328.066;  -41.900; -417.000; -276.000
328.202;  -26.150;   12.000; -129.000
328.337;   91.625;  957.000;  713.000
328.473;   43.075;  -12.000;  -74.000
328.608;  -35.475; -256.000; -267.000
328.743;  -94.100; -799.000; -664.000
328.879;   20.225;  214.000;  114.000
329.014;  -56.700; -102.000; -122.000
329.150;  -80.425; -358.000; -483.000
329.285;  -87.400; -465.000; -466.000
329.421;  -60.225; -548.000; -246.000
329.556;  -31.950;  -36.000;   85.000
329.691; -108.600; -633.000; -615.000
329.827;  -96.425; -626.000; -480.000
329.962;  -50.125;  131.000; -301.000
330.097;  -99.550; -673.000; -585.000
330.233;  -60.300; -410.000; -223.000
330.368; -153.525; -839.000; -628.000
330.503;  -23.575;    3.000;   98.000
330.638;    1.850;  -93.000; -125.000
330.774;  -64.575; -609.000; -530.000
330.909;  -56.375; -434.000; -244.000
331.044; -106.900; -714.000; -708.000
331.179; -175.000;-1217.000;-1109.000
331.315;    2.250;   77.000;   20.000
331.450;    7.450;  157.000;  285.000
331.585;  -91.675; -805.000; -706.000
331.720;  -97.100; -510.000; -460.000
331.855;  -12.750;  -35.000; -102.000
331.990;  247.050;   62.000;  138.000
332.126;  126.375; -110.000;   71.000
332.261;  -34.300; -379.000; -265.000
332.396;    2.775; -135.000; -242.000
332.531; -113.150;-1074.000;-1031.000
332.666;   22.550; -519.000; -363.000
332.801; -118.575; -726.000; -807.000
332.936;  -24.625; -192.000; -122.000
333.071; -141.425; -870.000; -817.000
333.206;    4.425;  307.000;  379.000
333.341;   13.425;  344.000;  418.000
333.476;  -96.825; -627.000; -623.000
333.611;  -53.525; -251.000; -173.000
333.746;  -51.800; -381.000; -464.000
333.881; -130.125; -973.000; -935.000
334.016; -127.950; -936.000; -917.000
334.151; -143.100; -746.000; -702.000
334.286;   28.525;  152.000;  186.000
334.421;  -39.825; -125.000; -178.000
334.556;  -86.375; -611.000; -567.000
334.690;  -94.125; -631.000; -577.000
334.825;   37.750;  381.000;   83.000
334.960;  -65.350; -285.000; -413.000
335.095;   -5.775;  135.000;  -91.000
335.230; -119.825; -722.000; -738.000
335.365; -129.075;-1084.000; -990.000
335.499; -144.700;-1108.000;-1037.000
335.634;   15.400;    9.000;  534.000
335.769; -105.175; -755.000; -720.000
335.904;  -64.025; -603.000; -561.000
336.038;  -68.000; -735.000; -657.000
336.173; -114.700;-1206.000;-1194.000
336.308;   -1.575; -116.000; -189.000
336.443;   18.150; -544.000; -634.000
336.577;  -84.725; -936.000; -787.000
336.712;   53.975;   -4.000;  -12.000
336.847;  -37.075; -724.000; -607.000
336.981;   62.125; -272.000; -208.000
337.116;  271.775;  615.000;  501.000
337.250;  138.250; -434.000; -421.000
337.385;  237.850; -297.000; -208.000
337.520;   83.925; -632.000; -603.000
337.654;  -54.225; -215.000; -126.000
337.789; -137.425; -989.000; -933.000
337.923;  -42.550; -104.000; -205.000
338.058; -106.550; -673.000; -738.000
338.192;  -44.900; -611.000; -488.000
338.327;  -14.575;  -18.000; -155.000
338.461;  -71.900; -299.000; -469.000
338.596;  -94.175; -780.000; -638.000
338.730; -118.425; -767.000; -803.000
338.865;   95.625;  -46.000; -140.000
338.999;  -65.425; -846.000; -702.000
339.134;  -32.475; -634.000; -536.000
339.268;   -6.675; -741.000; -603.000
339.403;  362.100; -740.000; -775.000
339.537;  111.000; -894.000; -820.000
339.671; -120.800; -829.000; -813.000
339.806;  -67.650; -556.000; -512.000
339.940;   11.500; -261.000; -235.000
340.074; -103.925; -685.000; -510.000
340.209;  -52.875; -351.000; -230.000
340.343; -108.050; -517.000; -573.000
340.477;  152.650;  998.000; 1036.000
340.612;  -65.400;-1033.000; -900.000
340.746;  143.225; -199.000; -243.000
340.880;  -92.600; -924.000; -785.000
341.014;  -30.175;  -45.000; -154.000
341.149; -114.650; -756.000; -718.000
341.283; -113.525; -839.000; -754.000
341.417; -101.975;-1124.000; -938.000
341.551;  119.225; -768.000; -708.000
341.685;  -33.775; -633.000; -611.000
341.820;  -52.575; -562.000; -493.000
341.954;  -54.825; -218.000; -349.000
342.088; -150.350;-1102.000;-1019.000
342.222;   47.625;  565.000;  618.000
342.356;  -75.525; -395.000; -335.000
342.490; -104.350; -880.000; -841.000
342.624;  -44.975; -339.000; -242.000
342.758;  -13.125; -364.000; -312.000
342.892;  -75.150; -710.000; -585.000
343.026;  -44.450;  -58.000; -116.000
343.160;  -61.575; -426.000; -376.000
343.294;  -76.525; -474.000; -337.000
343.428;  -42.125; -488.000; -448.000
343.562;  -13.250; -172.000;  -23.000
343.696;  -43.025; -385.000; -314.000
343.830;  -37.475; -362.000; -356.000
343.964;   10.525; -231.000; -168.000
344.098;  833.150;  199.000;   70.000
344.232;  707.075; -266.000; -127.000
344.366;   67.425; -567.000; -453.000
344.500;   36.975; -665.000; -744.000
344.634;   25.425; -324.000; -164.000
344.768;  -13.800; -531.000; -341.000
344.902;   15.425;  278.000;  256.000
345.035;  -74.175; -556.000; -496.000
345.169; -157.675; -933.000; -656.000
345.303;  -30.650; -308.000; -482.000
345.437;  -89.175; -826.000; -717.000
345.571;  -68.600; -675.000; -594.000
345.704;  -54.525; -309.000; -532.000
345.838;  -27.450; -331.000; -284.000
345.972;  -56.400; -543.000; -495.000
346.106;  161.350; -179.000; -190.000
346.239;  386.300; -312.000; -243.000
346.373;    6.325; -343.000; -302.000
346.507; -152.050; -950.000; -962.000
346.640;  130.400;  -30.000;   13.000
346.774;  -58.825; -650.000; -797.000
346.908;  -28.125; -138.000;  -11.000
347.041; -106.700; -646.000; -593.000
347.175;    6.750;  259.000;   27.000
347.309;  -86.325; -698.000; -628.000
347.442; -111.275; -883.000; -732.000
347.576;  252.525;  670.000;  668.000
347.709;  173.925; -123.000;  -52.000
347.843; -104.375; -933.000; -825.000
347.976;   35.450;  235.000;  294.000
348.110; -203.300;-1268.000;-1186.000
348.243; -101.425; -679.000; -772.000
348.377;   -2.775;  -26.000;   60.000
348.510;   52.375;  403.000;  540.000
348.644;  -54.050;  -37.000; -159.000
348.777;  -11.925;  180.000;  191.000
348.911;  -70.525; -142.000; -112.000
349.044;  170.275;  471.000;  448.000
349.178;  125.325;-1069.000;-1006.000
349.311;  108.675;  141.000;  255.000
349.444;  -20.625; -927.000; -813.000
349.578;  -17.400; -347.000; -200.000
349.711; -125.375; -959.000; -862.000
349.845;  -20.675; -661.000; -591.000
349.978; -163.125;-1224.000;-1137.000
350.111;  -76.925; -546.000; -612.000
350.244;  -96.425; -596.000; -700.000
350.378;   -7.225; -392.000; -393.000
350.511;  -74.800; -393.000; -426.000
350.644; -102.000; -808.000; -806.000
350.778;    5.625;  168.000;  104.000
350.911;    4.725;  134.000;  140.000
351.044; -105.250; -685.000; -615.000
351.177;  -42.300; -321.000; -281.000
351.310;  -20.900;    3.000; -131.000
351.444;  -88.375; -888.000; -788.000
351.577;  118.350;  140.000;   90.000
351.710;  104.550;  593.000;  417.000
351.843;  -37.975; -165.000;  -77.000
351.976;   -6.575;  149.000;  -79.000
352.109; -104.275; -621.000; -612.000
352.242;  -26.000; -464.000; -419.000
352.376;  -82.375; -580.000; -636.000
352.509;  147.125; -437.000; -356.000
352.642;   -6.775; -654.000; -604.000
352.775;   54.000; -141.000;  -98.000
352.908; -125.450; -933.000; -904.000
353.041; -122.500; -814.000; -824.000
353.174;  -73.825; -551.000; -424.000
353.307;  -98.250; -753.000; -764.000
353.440;   69.250;  541.000;  453.000
353.573; -115.175; -957.000;-1008.000
353.706;  -53.375; -384.000; -558.000
353.839;  -22.475; -264.000; -220.000
353.971;  -96.725; -657.000; -512.000
354.104;  -96.725; -896.000; -835.000
354.237;  -42.750; -627.000; -662.000
354.370;  -90.475; -846.000; -879.000
354.503; -198.175;-1231.000;-1308.000
354.636;  -42.800; -529.000; -348.000
354.769; -143.575; -937.000; -860.000
354.902;   -9.125; -230.000; -139.000
355.034;  -15.900; -164.000; -220.000
355.167;  -18.975; -262.000; -162.000
355.300;  -97.425;-1061.000; -880.000
355.433;  981.250;  -71.000;  -14.000
355.565; 1486.850; -402.000; -384.000
355.698;  383.625; -356.000; -296.000
355.831;  -14.700; -882.000; -801.000
355.964;   61.375; -285.000; -170.000
356.096; -104.750; -856.000; -843.000
356.229;   -9.350; -523.000; -530.000
356.362;  303.275; -373.000; -266.000
356.494;  601.100; -229.000; -162.000
356.627;  442.750;  269.000;  377.000
356.760;  645.625;  120.000;   53.000
356.892;  937.725; -286.000; -601.000
357.025;  608.650;  403.000;  389.000
357.157;  570.800; -167.000; -179.000
357.290;  690.900; -856.000; -713.000
357.423;  189.975; -667.000; -556.000
357.555;  107.400; -217.000; -228.000
357.688;  119.875; -483.000; -364.000
357.820;  422.850; -870.000; -877.000
357.953; 3485.875; -563.000; -589.000
358.085;  735.600; -632.000; -612.000
358.218; 1019.775;-1131.000; -932.000
358.350;  185.400;  -58.000;  312.000
358.483; -144.550;-1300.000;-1187.000
358.615;  -30.850;-1182.000;-1078.000
358.747;  -74.325;-1187.000;-1058.000
358.880;   13.475; -810.000; -744.000
359.012;  -15.750; -376.000; -202.000
359.145;  -43.800; -480.000; -511.000
359.277;   36.375; -962.000; -913.000
359.409; 2917.850;  536.000;  231.000
359.542;  745.725; -738.000; -688.000
359.674;   66.100;   46.000;   13.000
359.806;  -64.850; -565.000; -438.000
359.939;  -59.800; -617.000; -516.000
360.071;  -27.550; -583.000; -579.000
360.203;  -33.225; -411.000; -364.000
360.335;   44.550;  164.000;  -16.000
360.468;  154.750; -249.000; -307.000
360.600; 2340.950; -547.000; -454.000
360.732; 2835.075; -546.000; -423.000
360.864;  361.800;-1216.000;-1044.000
360.996;  226.875; -516.000; -554.000
361.129;   25.450; -389.000; -598.000
361.261;   17.875;  110.000; -113.000
361.393;  -25.025; -252.000; -214.000
361.525;   24.825;   94.000;  244.000
361.657;  -60.650; -821.000; -703.000
361.789;    5.925; -139.000; -155.000
361.921;  188.375; -642.000; -593.000
362.053;  244.425;  524.000;  541.000
362.185;   39.925;  288.000;   72.000
362.318;  -96.450; -709.000; -705.000
362.450;  120.000;  294.000;  444.000
362.582;   83.925; -913.000; -870.000
362.714;  -52.375; -353.000; -332.000
362.846;  -86.475; -606.000; -490.000
362.978; -148.725; -941.000; -811.000
363.109;   32.475; -161.000; -260.000
363.241;  375.675; -739.000; -749.000
363.373;  411.150; -649.000; -564.000
363.505;  665.050; -186.000;  -91.000
363.637;  138.775; -787.000; -601.000
363.769; -131.875;-1067.000;-1080.000
363.901;  -70.725; -596.000; -654.000
364.033; -121.350;-1103.000;-1062.000
364.165;   -7.525; -283.000; -283.000
364.296;   58.175; -316.000; -177.000
364.428;   47.625;-1344.000;-1220.000
364.560;  -85.150; -679.000; -661.000
364.692;  -61.050; -738.000; -835.000
364.824;  233.975; -588.000; -456.000
364.955;  430.825; -402.000; -564.000
365.087;  924.925;-1097.000; -852.000
365.219;   23.625; -686.000; -816.000
365.351;  -81.700; -526.000; -572.000
365.482;   44.800;  300.000;  240.000
365.614;  -54.550; -402.000; -314.000
365.746; -103.825; -729.000; -752.000
365.877; -108.525; -706.000; -672.000
366.009;  260.500;  -35.000;  -62.000
366.141; -102.075;-1249.000;-1134.000
366.272; -119.125; -803.000; -719.000
366.404; -124.650;-1005.000; -874.000
366.535;   -6.600; -139.000;  -12.000
366.667; -119.400; -644.000; -649.000
366.799;   38.875;  353.000;  203.000
366.930; -127.500; -862.000; -996.000
367.062;  104.900; -639.000; -613.000
367.193;  153.325; -872.000; -842.000
367.325;  -64.825; -580.000; -684.000
367.456;   43.600; -246.000;   31.000
367.588;  152.875; -371.000; -318.000
367.719;   17.725;  -44.000;  -45.000
367.851;  -15.075; -222.000; -241.000
367.982;  -60.450; -875.000; -732.000
368.113;   69.050; -475.000; -358.000
368.245; -139.000; -960.000; -841.000
368.376;  -14.225; -254.000; -302.000
368.508;  -45.050; -188.000; -263.000
368.639; -143.375;-1166.000;-1034.000
368.770;  -28.050; -670.000; -589.000
368.902;  -73.350; -836.000; -926.000
369.033; -124.225; -906.000; -855.000
369.164;  -51.500; -720.000; -653.000
369.296; -116.125; -452.000; -601.000
369.427;  -13.525; -209.000; -144.000
369.558;  -53.800; -593.000; -377.000
369.689;  -91.425; -721.000; -569.000
369.821; -134.125; -951.000; -845.000
369.952;  -23.850;   42.000; -108.000
370.083;  -69.575; -229.000; -108.000
370.214;  -95.375; -735.000; -650.000
370.345;  -18.925;   65.000;   81.000
370.477;  -89.350; -810.000; -790.000
370.608;  206.525; -328.000; -264.000
370.739;  -72.075;-1233.000;-1292.000
370.870;  -66.750;-1102.000; -923.000
371.001;   83.125; -378.000; -467.000
371.132;  -95.950; -754.000; -735.000
371.263;  -22.225;  -42.000; -148.000
371.394; -148.925; -841.000; -748.000
371.525;   34.825;  345.000;  225.000
371.657;  -91.950; -808.000; -670.000
371.788;   65.800;  103.000;  199.000
371.919;  157.225; -384.000; -304.000
372.050; 3408.400;  -91.000; -156.000
372.181;  985.500; -188.000; -294.000
372.311;  337.100;   42.000; -127.000
372.442;   14.025; -457.000; -451.000
372.573;  -20.800; -444.000; -340.000
372.704; -141.175;-1008.000; -980.000
372.835;   83.500; -228.000; -289.000
372.966;  -85.375; -646.000; -554.000
373.097;  -78.800; -575.000; -711.000
373.228;  -47.550; -717.000; -542.000
373.359;  110.425; -824.000; -536.000
373.490;  862.425; -881.000; -727.000
373.620; 1057.700;-1001.000; -803.000
373.751; 1661.725; -332.000; -396.000
373.882;  700.550; -663.000; -733.000
374.013;   48.000; -449.000; -262.000
374.143;  -53.275; -581.000; -659.000
374.274; -112.575; -987.000; -908.000
374.405;  161.675; -388.000; -276.000
374.536;  400.050; -526.000; -387.000
374.666; 1041.375; -759.000; -807.000
374.797;  194.175; -817.000; -868.000
374.928;  789.000; -710.000; -560.000
375.058;  800.325; -535.000; -500.000
375.189;   56.275;  -59.000;  -93.000
375.320; -122.900; -928.000;-1034.000
375.450;  -42.000; -625.000; -616.000
375.581;  -57.400; -526.000; -436.000
375.712;  -19.875; -574.000; -250.000
375.842;  288.850; -438.000; -415.000
375.973;  184.175; -554.000; -513.000
376.103;  -72.775; -665.000; -648.000
376.234;  -81.200; -531.000; -552.000
376.364;  -52.800; -944.000; -867.000
376.495;  296.350;  925.000;  529.000
376.625;  -24.925; -472.000; -485.000
376.756;   44.125; -709.000; -678.000
376.886;  -95.025;-1178.000;-1026.000
377.017;   42.300;-1048.000;-1061.000
377.147;  346.400; -786.000; -782.000
377.278;   66.775;  174.000;  228.000
377.408; -149.550; -801.000; -815.000
377.538; -122.750; -707.000; -693.000
377.669;  -94.275; -537.000; -613.000
377.799;  -98.250; -645.000; -635.000
377.929;  -77.975; -610.000; -428.000
378.060; -133.000; -781.000; -847.000
378.190;  -57.475; -726.000; -531.000
378.320;  -51.175; -401.000; -406.000
378.451;  -25.700; -131.000;  -22.000
378.581;  -17.225;  -67.000; -110.000
378.711;  143.125; 1035.000;  866.000
378.841;  -37.725; -533.000; -675.000
378.972;  -84.175; -871.000; -751.000
379.102;  -27.850; -652.000; -579.000
379.232;  -35.550; -126.000;  -73.000
379.362; -125.925;-1001.000; -885.000
379.492;  -12.950; -373.000; -424.000
379.623;   96.925;    0.000;  111.000
379.753; -110.300;-1107.000; -974.000
379.883;  175.775;   59.000;  156.000
380.013;  -17.450;-1081.000;-1017.000
380.143; -101.950;-1097.000;-1056.000
380.273; -113.825; -985.000; -861.000
380.403;   -9.800; -344.000; -257.000
380.533;  -46.625; -651.000; -664.000
380.663;   58.000;  173.000;  128.000
380.793; -112.250;-1027.000;-1074.000
380.923;  -28.325; -103.000;  -34.000
381.053; -102.600; -613.000; -623.000
381.183;  -33.150; -106.000; -248.000
381.313;   14.025; -656.000; -470.000
381.443;   26.750; -692.000; -473.000
381.573;  162.425; -402.000; -409.000
381.703;  216.675;-1249.000;-1095.000
381.833; -142.975;-1454.000;-1336.000
381.963;  101.375; -134.000;  -87.000
382.093; 1310.250; -925.000; -909.000
382.223;  392.650; -713.000; -602.000
382.353;  -31.925; -801.000; -608.000
382.482;  340.175;-1091.000; -964.000
382.612;  710.000; -872.000; -644.000
382.742;  382.775; -695.000; -622.000
382.872;  233.950; -565.000; -551.000
383.002;   52.800;  347.000; -132.000
383.131;  -37.125; -226.000; -160.000
383.261;  -56.400; -706.000; -768.000
383.391;  253.850; -552.000; -377.000
383.521; 3211.975;  451.000;  263.000
383.650;  728.225; -947.000; -904.000
383.780;  -22.000; -783.000; -656.000
383.910;  104.925;  880.000;  802.000
384.039;    2.900; -794.000; -656.000
384.169;  171.175;-1205.000;-1017.000
384.299;  -39.900; -650.000; -662.000
384.428; -105.400; -764.000; -680.000
384.558;  -47.500; -308.000; -275.000
384.687;  -57.300; -414.000; -334.000
384.817;    4.700;   75.000;   -2.000
384.947;    9.050; -234.000; -141.000
385.076;  274.575;  982.000;  912.000
385.206;   95.875;  369.000;  480.000
385.335;  -42.775; -549.000; -417.000
385.465;  -90.825; -655.000; -663.000
385.594;  116.750;  -53.000;  -44.000
385.724;  378.400; -868.000; -838.000
385.853;   92.400; -296.000; -270.000
385.982; 1290.475; -743.000; -787.000
386.112; 1995.900;-1052.000; -871.000
386.241;  117.825; -307.000; -312.000
386.371;   14.600; -174.000;  -87.000
386.500;  -12.500; -825.000; -789.000
386.629;   10.200; -874.000; -817.000
386.759;   53.625;  -43.000;   68.000
386.888;  -15.425; -170.000; -250.000
387.017;  -94.950; -648.000; -620.000
387.147;  -96.825; -771.000; -798.000
387.276;  -18.425; -410.000; -397.000
387.405;    5.125; -398.000; -342.000
387.535;  -58.075; -452.000; -361.000
387.664;  -62.450; -692.000; -620.000
387.793;   32.625; -198.000; -113.000
387.922;  476.275;  255.000;  200.000
388.052;    0.450; -576.000; -423.000
388.181;    0.775; -342.000; -472.000
388.310;  -12.075; -889.000; -710.000
388.439;  -52.675; -749.000; -742.000
388.568;  165.950;  365.000;  244.000
388.697; 1004.425; -756.000; -653.000
388.826;  161.350; -768.000; -666.000
388.956;   57.900; -285.000; -307.000
389.085;  -52.050; -347.000; -287.000
389.214; -119.225; -842.000; -872.000
389.343;  -83.775; -645.000; -413.000
389.472;  393.775;  126.000;  149.000
389.601;  504.200;   91.000;    0.000
389.730;    8.925; -568.000; -687.000
389.859;   63.125;  226.000;   46.000
389.988;  160.650; -423.000; -408.000
390.117;  132.975; -168.000; -146.000
390.246;   -5.525; -331.000; -320.000
390.375;   79.925; -673.000; -626.000
390.504;  -79.575; -703.000; -621.000
390.633; -117.975; -672.000; -726.000
390.761;  -81.100; -732.000; -645.000
390.890;    3.625;   -4.000; -130.000
391.019;  -30.400; -421.000; -441.000
391.148; -148.825; -826.000; -855.000
391.277;  -88.475; -576.000; -493.000
391.406;  -91.250; -821.000; -805.000
391.534;   14.650;  574.000; -301.000
391.663;  -74.050; -583.000; -645.000
391.792; -106.350; -673.000; -701.000
391.921;   77.000;   -3.000;   15.000
392.050;  163.375; -287.000; -228.000
392.178;  -65.450;-1206.000;-1061.000
392.307;  119.975; -758.000; -712.000
392.436;   50.850; -427.000; -641.000
392.564;   23.900;  166.000;   -6.000
392.693;  -99.475; -860.000; -682.000
392.822;  178.150; -529.000; -534.000
392.950;   65.275; -880.000; -714.000
393.079;  312.450; -188.000; -328.000
393.208;   12.300; -488.000; -511.000
393.336;  -10.600; -170.000; -145.000
393.465;  -62.475; -317.000; -199.000
393.593;  -11.375;   62.000;   79.000
393.722; -163.825;-1121.000; -916.000
393.850;  -36.675; -188.000;  -61.000
393.979; -167.000; -926.000; -805.000
394.107;  -81.100; -517.000; -537.000
394.236;  -41.175; -570.000; -507.000
394.364;  172.875;  383.000;  206.000
394.493;  231.250; -911.000; -767.000
394.621;  -25.150; -955.000; -916.000
394.750;  716.875; -873.000; -923.000
394.878; 2972.725; -247.000; -149.000
395.007; 3977.525; -721.000; -807.000
395.135;  259.825; -790.000; -721.000
395.263; -106.500;-1038.000;-1040.000
395.392;    0.100;  -25.000; -107.000
395.520; -140.675; -818.000; -679.000
395.648; -101.500; -865.000; -915.000
395.777;  -33.550; -366.000; -405.000
395.905;  -47.425; -449.000; -564.000
396.033;    9.525;  217.000;  172.000
396.162;  403.225; -399.000; -453.000
396.290;  336.350;  -17.000;   -2.000
396.418;   64.925; -555.000; -514.000
396.546;  -91.100; -571.000; -466.000
396.674; -109.750; -850.000; -878.000
396.803;   10.800;  -72.000;  -23.000
396.931;   77.925; -179.000; -199.000
397.059;   -0.825;-1026.000; -989.000
397.187; -131.225;-1026.000; -975.000
397.315; -144.025; -884.000; -649.000
397.443;  -93.025; -592.000; -443.000
397.572;  -89.725; -578.000; -424.000
397.700;  -30.875; -607.000; -614.000
397.828;   -3.900;  120.000;  -90.000
397.956;  -44.800; -508.000; -478.000
398.084;  -68.050; -767.000; -626.000
398.212;   34.525;  137.000;  124.000
398.340;   -9.325;  -56.000;  159.000
398.468;   16.400; -390.000; -169.000
398.596; -143.425; -993.000; -953.000
398.724; -131.650; -762.000; -767.000
398.852; -172.800;-1024.000; -976.000
398.980;  -75.525; -560.000; -560.000
399.108;  -64.500; -982.000; -735.000
399.236;   20.700;   13.000;    8.000
399.363;  -12.950;  222.000;  196.000
399.491;  -78.350; -404.000; -398.000
399.619; -135.600; -829.000; -800.000
399.747; -110.125; -859.000; -771.000
399.875;   54.400;  220.000;  234.000
400.003;  -62.825; -359.000; -284.000
400.130;  -84.375; -421.000; -341.000
400.258;  -33.350;  -83.000;   38.000
400.386;  -65.525; -352.000; -168.000
400.514;  -39.550; -526.000; -587.000
400.641; -116.550; -928.000; -802.000
400.769; -157.525; -979.000; -888.000
400.897; -126.250; -838.000; -793.000
401.025;  -34.275; -166.000; -152.000
401.152;  -13.400;  220.000;   38.000
401.280;  -95.100; -430.000; -429.000
401.408; -129.525; -712.000; -576.000
401.535; -116.475; -735.000; -758.000
401.663; -215.525;-1134.000;-1054.000
401.790;  -86.150; -514.000; -525.000
401.918;   19.175;  436.000;  405.000
402.046;  -28.150;  134.000;  122.000
402.173;  -40.200;  -18.000;    7.000
402.301;  -78.200; -519.000; -397.000
402.428;   32.675;  528.000;  383.000
402.556; -151.875;-1188.000; -913.000
402.683;  -46.125;  -20.000;   -1.000
402.811;  -33.275;  -37.000; -206.000
402.938;  -15.975;   20.000;   27.000
403.066;  178.350; -574.000; -558.000
403.193;  313.675;  299.000;  239.000
403.321;  242.525; -396.000; -574.000
403.448;  306.125;   83.000;   27.000
403.575;  135.900;  -90.000;  -46.000
403.703; -105.725; -732.000; -557.000
403.830;  -68.375; -531.000; -496.000
403.957; -156.700;-1117.000;-1023.000
404.085;    5.500;  -61.000; -172.000
404.212;  105.675;  -50.000;   63.000
404.339;  276.075; -566.000; -306.000
404.467; 5897.950; -612.000; -524.000
404.594; 3685.025; -287.000; -227.000
404.721;  829.825; -869.000; -764.000
404.848;   71.025; -113.000; -202.000
404.976; -117.125; -856.000; -783.000
405.103;  -21.225;  -14.000;  -82.000
405.230;   -6.250;  190.000;  226.000
405.357;   24.225;  117.000;   44.000
405.484;  261.950;  -49.000;    5.000
405.612;   39.300; -548.000; -563.000
405.739;  -63.775; -488.000; -243.000
405.866;   77.125;  669.000;  385.000
405.993;  -74.875; -398.000; -102.000
406.120; -146.700; -801.000; -887.000
406.247;  -61.850; -323.000; -342.000
406.374;  373.175;  540.000;  629.000
406.501;   59.625; -632.000; -702.000
406.628;  -90.500; -621.000; -589.000
406.755; -116.925; -803.000; -620.000
406.882;  -51.725; -228.000; -277.000
407.009; -117.025; -719.000; -628.000
407.136;   41.075; -480.000; -401.000
407.263;   91.575; -939.000; -829.000
407.390;  -97.800; -692.000; -614.000
407.517; -189.975;-1139.000;-1187.000
407.644;  -62.275; -332.000; -256.000
407.771;  -82.225; -249.000; -287.000
407.898;  -20.500;  168.000;  328.000
408.025;  -70.800; -421.000; -313.000
408.151;   -5.200;   82.000;  153.000
408.278;  -66.250; -267.000; -216.000
408.405; -129.000; -931.000; -899.000
408.532;  -83.075; -549.000; -542.000
408.659; -116.225; -677.000; -648.000
408.785; -213.000;-1298.000;-1170.000
408.912;  -84.475; -412.000; -296.000
409.039; -126.900; -610.000; -686.000
409.166; -109.500; -591.000; -555.000
409.292; -120.550; -571.000; -534.000
409.419; -124.300; -665.000; -649.000
409.546;  -95.575; -431.000; -192.000
409.672; -119.550; -713.000; -545.000
409.799;  -13.700;  -36.000;   34.000
409.926;  -42.600; -180.000; -179.000
410.052; -187.225;-1127.000;-1091.000
410.179;  -69.875; -368.000; -392.000
410.305; -105.125; -375.000; -493.000
410.432;  -57.250; -220.000; -333.000
410.558;  -94.700; -305.000; -380.000
410.685; -125.125; -688.000; -431.000
410.812;  -99.500; -409.000; -588.000
410.938; -139.825; -964.000; -808.000
411.065; -116.775; -671.000; -645.000
411.191;  -25.750; -189.000; -174.000
411.317; -144.950; -823.000; -742.000
411.444;  -73.075; -317.000; -246.000
411.570;  -75.225; -339.000; -294.000
411.697; -132.800; -758.000; -752.000
411.823; -186.050; -989.000; -999.000
411.949;  -43.750;  -56.000;   17.000
412.076; -125.650; -539.000; -519.000
412.202; -126.850; -758.000; -757.000
412.329; -131.850; -798.000; -752.000
412.455; -134.450; -821.000; -657.000
412.581;  -33.225;  -15.000;  172.000
412.707;  -71.275; -540.000; -457.000
412.834;    2.950;  156.000;  219.000
412.960;  -93.975; -785.000; -784.000
413.086; -111.400; -743.000; -701.000
413.212;  142.625;  604.000;  578.000
413.339;  -92.950; -685.000; -701.000
413.465;   -6.800; -364.000; -310.000
413.591;  -96.575; -757.000; -474.000
413.717;  -60.625; -358.000; -366.000
413.843; -143.475; -839.000; -861.000
413.969;  -62.950;  -47.000; -292.000
414.096; -103.350; -679.000; -679.000
414.222;   -6.600;  -33.000;   85.000
414.348;  -50.250; -652.000; -385.000
414.474;   87.800;   38.000;  -52.000
414.600;  -28.800; -126.000; -144.000
414.726;  -11.825;  -96.000;  -55.000
414.852;  -63.975; -365.000; -342.000
414.978;   23.650;  104.000;  -18.000
415.104;   19.575;   38.000;   80.000
415.230;   25.800; -329.000; -330.000
415.356;   28.300; -409.000; -514.000
415.482;  181.025;   13.000;  -35.000
415.608;  251.275; -247.000; -323.000
415.734;  980.100;   67.000;   38.000
415.860;20299.950; -875.000; -767.000
415.986;14231.925; -685.000; -607.000
416.111; 1204.600; -798.000; -652.000
416.237;  259.700; -424.000; -571.000
416.363; 1159.775; -765.000; -733.000
416.489; 4145.825; -324.000; -251.000
416.615;  422.250; -707.000; -742.000
416.741;  -29.275; -677.000; -784.000
416.866; -101.050; -673.000; -736.000
416.992; -134.825; -801.000; -818.000
417.118;  -43.625;  -41.000;  -80.000
417.244;  -65.950; -798.000; -531.000
417.369;  -81.075; -801.000; -612.000
417.495;   -9.125; -325.000; -254.000
417.621;  -97.700;-1015.000; -803.000
417.746;   -6.450; -579.000; -572.000
417.872;   38.175; -254.000; -144.000
417.998;   35.375; -515.000; -530.000
418.123; 1084.875;-1073.000; -845.000
418.249; 5468.950; -512.000; -601.000
418.374;  708.700; -916.000; -824.000
418.500;  112.500; -383.000; -482.000
418.626;  105.900;   70.000;  -59.000
418.751;  102.250; -549.000; -448.000
418.877;  185.275; -637.000; -643.000
419.002; 1863.150; -688.000; -560.000
419.128;12765.125; -930.000; -721.000
419.253; 3016.675; -967.000; -837.000
419.379;  394.325; -391.000; -338.000
419.504;  388.250;  325.000;  415.000
419.629;  508.100; -393.000; -212.000
419.755; 3727.425; -317.000; -254.000
419.880;21465.625;  -98.000;   67.000
420.006;11644.050; -280.000; -221.000
420.131;29566.625; -662.000; -775.000
420.256; 4107.600; -315.000; -316.000
420.382;  528.325; -665.000; -687.000
420.507;   50.025; -649.000; -778.000
420.632;  126.475; -337.000; -339.000
420.758;  204.325; -251.000; -425.000
420.883;  -97.000; -876.000; -672.000
421.008; -109.775; -775.000; -619.000
421.133;  -90.900; -509.000; -467.000
421.259;  -56.925; -325.000; -259.000
421.384; -127.575; -834.000; -693.000
421.509;  -64.750;-1052.000; -862.000
421.634; 1072.250; -936.000; -820.000
421.759;  430.050; -359.000; -327.000
421.885;  -76.800; -717.000; -656.000
422.010;  -84.850; -673.000; -542.000
422.135; -162.600; -695.000; -727.000
422.260;   31.475;  340.000;  280.000
422.385;  -47.700;   12.000;  -98.000
422.510;   -2.450;  151.000;  -26.000
422.635;    3.750;  -87.000;  -43.000
422.760;   74.200; -766.000; -791.000
422.885;   33.225;  -57.000;  -80.000
423.010;  -38.875; -112.000; -169.000
423.135; -105.750; -481.000; -561.000
423.260;  -24.950; -150.000; -245.000
423.385;   61.500;  476.000;  222.000
423.510;   22.750;   71.000;  -22.000
423.635;   57.400;  133.000;   45.000
423.760;   50.000;  383.000;  328.000
423.885;   31.450;  336.000;  391.000
424.010;    1.525;  -68.000;  -13.000
424.135;  -27.375;    5.000;  -33.000
424.259;  -93.850; -654.000; -457.000
424.384;  -76.100; -279.000; -272.000
424.509;  -22.175; -260.000; -186.000
424.634; -105.975; -761.000; -623.000
424.759;  -38.250; -688.000; -544.000
424.883;  -33.475; -506.000; -527.000
425.008;  160.675; -502.000; -410.000
425.133; 2020.275; -679.000; -653.000
425.258;  925.550; -517.000; -381.000
425.382;  982.300; -867.000; -774.000
425.507; 2450.900; -487.000; -543.000
425.632;  388.200; -802.000; -663.000
425.756;  453.525; -256.000; -146.000
425.881; 6912.625; -831.000; -857.000
426.006;18010.025; -604.000; -355.000
426.130; 2690.100; -696.000; -508.000
426.255;  351.650; -611.000; -491.000
426.379;  146.475; -189.000; -577.000
426.504;  360.400;  660.000;  544.000
426.629; 4091.475; -519.000; -466.000
426.753; 2726.975;   64.000;  -46.000
426.878;  304.750; -252.000; -288.000
427.002;  166.900; -651.000; -668.000
427.127; 1625.600;  -35.000; -158.000
427.251;11564.350;  372.000;  401.000
427.375; 3178.650; -191.000; -173.000
427.500; 2190.400; -616.000; -610.000
427.624;  718.875; -234.000; -400.000
427.749;   81.750; -216.000; -225.000
427.873;  -46.900; -499.000; -412.000
427.997;  -48.025; -222.000; -230.000
428.122;   65.750;  795.000;  703.000
428.246;   64.625;  433.000;  434.000
428.371; -144.925; -869.000; -773.000
428.495; -104.375; -624.000; -646.000
428.619;  -44.150; -186.000; -117.000
428.743;    0.525;   65.000;  132.000
428.868;   -7.500; -732.000; -643.000
428.992; 1331.225; -219.000; -326.000
429.116;  502.575; -329.000; -357.000
429.240;  249.900;  419.000;  426.000
429.365;  -36.600; -454.000; -574.000
429.489;  -58.350; -638.000; -647.000
429.613;   19.225; -236.000; -177.000
429.737;   41.475; -563.000; -432.000
429.861;  252.600; -247.000; -133.000
429.985; 5681.200; -425.000; -305.000
430.109; 6117.475; -770.000; -908.000
430.234;  678.650;   76.000;  -50.000
430.358;   44.850; -250.000; -160.000
430.482;  -73.700; -672.000; -564.000
430.606;  -88.125; -655.000; -375.000
430.730;    2.850; -437.000; -388.000
430.854;   82.375; -909.000; -835.000
430.978;  -80.725; -795.000; -764.000
431.102;  -95.575; -499.000; -422.000
431.226; -131.725; -874.000; -815.000
431.350;    6.700;  345.000;  422.000
431.474;  -82.850; -661.000; -373.000
431.597; -159.750;-1060.000; -848.000
431.721;  -90.825; -276.000; -267.000
431.845; -140.025; -704.000; -472.000
431.969;  -83.700; -304.000; -349.000
432.093; -105.300; -395.000; -317.000
432.217;  -31.175;   32.000;   82.000
432.341;  -99.200; -523.000; -518.000
432.464;   -1.575;   96.000;   40.000
432.588;  156.775; -401.000; -329.000
432.712;   82.225;  -52.000;  -52.000
432.836;   26.175;  213.000;  263.000
432.959;  -30.100; -372.000; -311.000
433.083;   70.175;   11.000;    2.000
433.207;  376.375;  285.000;  930.000
433.330; 5282.250; -391.000; -200.000
433.454; 6286.000; -654.000; -638.000
433.578; 3585.000;  583.000;  278.000
433.701;  636.250; -623.000; -675.000
433.825;  114.800; -292.000; -299.000
433.949;  149.500;   28.000;  -72.000
434.072;   29.600; -410.000; -323.000
434.196;  -24.525; -309.000; -117.000
434.319; 3676.450;25482.000;25124.000
434.443;  730.475; -656.000; -603.000
434.566; 2683.600;  281.000;   62.000
434.690;  417.550; -637.000; -383.000
434.813;   41.350; -251.000; -173.000
434.937;  -89.050; -569.000; -696.000
435.060;  -55.025; -423.000; -332.000
435.184;  269.775; -492.000; -217.000
435.307;  129.425;  159.000;  102.000
435.431;  -33.325;  -40.000;   24.000
435.554;  -94.625; -399.000; -240.000
435.677;  -91.125; -350.000; -258.000
435.801;  -56.325;  -25.000;   49.000
435.924;  -27.650;    1.000;  -67.000
436.048; -134.175;-1019.000; -732.000
436.171;  -82.825; -240.000;  -66.000
436.294;  -36.000; -248.000; -229.000
436.417;   92.900; -963.000; -849.000
436.541;  -92.675; -814.000; -840.000
436.664;  -52.650; -242.000; -316.000
436.787;  -32.325;   13.000;  113.000
436.910; -111.675; -792.000; -422.000
437.034;  -13.925;  142.000;  143.000
437.157;   38.475;  -11.000;    0.000
437.280;  -52.700; -392.000; -292.000
437.403;  -92.450; -982.000; -869.000
437.526;  542.350; -903.000; -865.000
437.649; 2035.000; -505.000; -332.000
437.772;  272.350; -692.000; -540.000
437.896;  103.975;  700.000;  544.000
438.019; -126.900; -758.000; -503.000
438.142; -111.300; -596.000; -506.000
438.265;  -62.475; -639.000; -670.000
438.388;  480.500; -520.000; -410.000
438.511;   61.875; -597.000; -394.000
438.634;  -48.575; -247.000; -125.000
438.757; -145.575; -693.000; -619.000
438.880;  -23.600;  -34.000;  -57.000
439.003;  -90.825; -417.000; -437.000
439.126;  -65.875; -287.000; -167.000
439.248;  -78.175;  -98.000; -139.000
439.371;  -57.400;    9.000;  -53.000
439.494;    9.250;  510.000;  439.000
439.617;  -59.550;   65.000;  -88.000
439.740; -181.850; -968.000; -816.000
439.863; -159.550; -755.000; -595.000
439.986; -142.750; -476.000; -431.000
440.108;  -63.575; -161.000; -112.000
440.231; -185.850; -950.000; -836.000
440.354;  -58.350;  -64.000; -150.000
440.477;    6.875; -566.000; -542.000
440.599;  -30.375; -200.000; -225.000
440.722; -137.575; -709.000; -586.000
440.845;   66.500;  751.000;  928.000
440.968; -131.575; -415.000; -311.000
441.090;  -69.450; -199.000;  -33.000
441.213; -183.350;-1021.000; -825.000
441.336;  -57.850; -159.000;   -5.000
441.458; -101.300; -549.000; -396.000
441.581;  -98.775; -628.000; -629.000
441.703;  -78.525; -152.000;   13.000
441.826; -115.800; -557.000; -400.000
441.948;  -65.950;   56.000;   51.000
442.071;   18.625;  555.000;  424.000
442.193; -119.900; -531.000; -485.000
442.316;   10.525;  152.000;   97.000
442.438;   28.525; -233.000;  -10.000
442.561;   65.600;  272.000;  262.000
442.683;  471.175; -809.000; -522.000
442.806; 1041.825;   -8.000;   74.000
442.928;   -7.375; -859.000; -604.000
443.051;  -90.400; -577.000; -373.000
443.173; -110.025; -341.000; -339.000
443.295; -103.175; -263.000; -371.000
443.418;  -81.200; -321.000;  -29.000
443.540;  -21.025; -106.000;   -4.000
443.662; -138.225; -563.000; -465.000
443.785;  -16.625;  335.000;  199.000
443.907; -102.475; -362.000; -208.000
444.029; -139.975; -767.000; -494.000
444.152; -156.525; -644.000; -554.000
444.274;  -48.925;  -18.000;  -24.000
444.396; -111.150; -461.000; -221.000
444.518; -127.500; -691.000; -454.000
444.640; -120.250; -268.000; -111.000
444.763;  -15.800;  388.000;  249.000
444.885; -129.375; -432.000; -392.000
445.007;  -52.325;   35.000;   86.000
445.129; -131.225; -610.000; -515.000
445.251; -108.850; -372.000; -439.000
445.373; -154.525; -537.000; -386.000
445.495;    6.350;  242.000;  350.000
445.617;   51.150;  853.000;  753.000
445.739;  -61.075; -215.000;  -97.000
445.861;  -51.975; -245.000; -112.000
445.984;  -50.300; -267.000; -101.000
446.105;  187.375; -418.000; -251.000
446.227;  536.550; -176.000;  -19.000
446.349;  -14.725; -358.000; -249.000
446.471; -111.075; -615.000; -448.000
446.593;  -81.675; -316.000;   19.000
446.715;  -31.550;  -67.000;   41.000
446.837;   43.225;  697.000;  832.000
446.959; -109.700; -457.000; -478.000
447.081; -155.150; -628.000; -518.000
447.203;   49.175;  862.000;  834.000
447.325;  -95.250; -270.000;   42.000
447.446;  -29.200;  286.000;  530.000
447.568; -171.400; -921.000; -803.000
447.690;  -88.475; -236.000; -245.000
447.812; -160.500; -798.000; -519.000
447.933;  -30.175;  155.000;  127.000
448.055;  -74.025; -306.000; -261.000
448.177;  122.275;   31.000;   79.000
448.299;   43.825; -935.000; -727.000
448.420;   24.850;  -25.000;  159.000
448.542;  -58.400;   -3.000;   33.000
448.664;  -37.350;  109.000;  322.000
448.785;  -51.475;  265.000;   83.000
448.907;  -85.575; -614.000; -353.000
449.028;  -62.650; -771.000; -471.000
449.150;   51.400;  492.000;  589.000
449.272; -208.100;-1044.000; -913.000
449.393;   28.875;  612.000;  694.000
449.515; -144.925; -634.000; -581.000
449.636;  -75.275; -264.000; -155.000
449.758;   56.025;  763.000;  622.000
449.879; -110.650; -498.000; -396.000
450.001; -101.675; -149.000;  -49.000
450.122;  -38.000;  -95.000;  162.000
450.244;  -30.850;   37.000;  364.000
450.365; -101.375; -495.000; -301.000
450.486;  -46.675;   80.000;  268.000
450.608;   14.225;  393.000;  326.000
450.729;   64.975;  578.000;  645.000
450.850;    8.625; -574.000; -466.000
450.972;  766.125; -552.000; -389.000
451.093; 5074.725;  190.000;  588.000
451.214; 2097.650; -516.000; -337.000
451.336;  382.625;  773.000;  579.000
451.457;   60.650;  264.000;  393.000
451.578;  -27.175; -118.000;  -74.000
451.699; -123.225; -546.000; -540.000
451.821;  -75.825; -284.000;  -50.000
451.942;  -15.900;  278.000;  285.000
452.063;   37.675;  228.000;  419.000
452.184;  566.700;  -54.000;  -49.000
452.305; 1076.875;  103.000;  170.000
452.427;  101.675; -549.000; -301.000
452.548;  -35.075;   23.000;   79.000
452.669;  -77.175; -257.000;  -89.000
452.790;  -40.075;    3.000;  -18.000
452.911;  -34.575;  195.000;  259.000
453.032;  -73.850; -289.000;  -60.000
453.153;  -57.650;  -29.000;   81.000
453.274;   72.425;  737.000;  868.000
453.395;  -70.275;  -51.000;  175.000
453.516;  105.450; 1317.000; 1388.000
453.637;  -75.625; -205.000; -150.000
453.758;  -45.050;   15.000;   69.000
453.879; -128.050; -462.000; -250.000
454.000;   76.500; 1086.000;  948.000
454.121; -132.350; -554.000; -326.000
454.242; -112.575; -599.000; -383.000
454.362;  -56.975;  -99.000;  114.000
454.483;  -51.775; -309.000; -229.000
454.604;   46.050;  512.000;  580.000
454.725; -129.750; -627.000; -555.000
454.846; -127.900; -474.000; -406.000
454.967;  -34.075;  230.000;  539.000
455.087;  -46.975;  179.000;  153.000
455.208;   17.225;  554.000;  856.000
455.329;  -59.125;  -22.000;   82.000
455.450;   24.750;  473.000;  633.000
455.570;  -93.975; -234.000; -211.000
455.691;  -49.875;  201.000;  407.000
455.812; -125.950; -270.000;  -92.000
455.932;  -72.850;  107.000;  -97.000
456.053; -102.350;   36.000;   24.000
456.173; -108.200; -433.000; -355.000
456.294; -132.425; -476.000; -303.000
456.415;  -66.975;  -73.000;   70.000
456.535;  -45.825;  297.000;  273.000
456.656;  -45.225;  132.000;  240.000
456.776;  -73.775;    3.000;  298.000
456.897;  -13.525;  308.000;  513.000
457.017;  -93.550; -153.000;   -3.000
457.138; -115.625; -402.000; -249.000
457.258;  -41.100;  263.000;  224.000
457.379;  -30.175;  509.000;  521.000
457.499;  -43.350;  443.000;  432.000
457.620; -130.975; -407.000; -231.000
457.740; -102.100; -132.000;  -11.000
457.860;  -69.475;   87.000;   44.000
457.981;  -69.075;  132.000;  124.000
458.101;  -84.675;  -89.000;   40.000
458.221;  -24.975;  336.000;  402.000
458.342;  -71.300;   -4.000;  -37.000
458.462;    1.425;  617.000;  352.000
458.582;  -39.525; -302.000; -294.000
458.703;  -11.450;  303.000;  154.000
458.823;  -27.250;   22.000;  163.000
458.943;    2.350;  341.000;  467.000
459.063;  -23.075; 1124.000;  192.000
459.183;  -35.950;  328.000;  313.000
459.304;   -3.700;  315.000;  517.000
459.424;  -73.275; -246.000;  -89.000
459.544;  339.850;  388.000;  764.000
459.664;  821.150;  499.000;  506.000
459.784;  295.050; 1004.000; 1175.000
459.904;   46.450;  867.000;  744.000
460.024;   63.375;  867.000;  684.000
460.144;   -1.100;  449.000;  554.000
460.264;  -23.125;  515.000;  327.000
460.385; -118.850; -145.000; -119.000
460.505;   26.975;  905.000;  858.000
460.625; -100.025;  -17.000;  -68.000
460.745;  -30.675;  396.000;  541.000
460.864;  -64.625;  153.000;  469.000
460.984;    2.225;  499.000;  573.000
461.104;  129.625; 1656.000; 1775.000
461.224;    6.300;  657.000;  650.000
461.344;  -48.425;  431.000;  360.000
461.464;  -51.925;  258.000;  513.000
461.584;  -37.250;  283.000;  466.000
461.704;  -62.175;   58.000;  108.000
461.824;  -67.875;  238.000;  259.000
461.943;  -59.700;  191.000;  130.000
462.063;  -91.725;    2.000;  324.000
462.183;   18.400;  639.000;  717.000
462.303;   93.825; 1678.000; 1230.000
462.422;   23.525;  781.000;  840.000
462.542;  -60.075;  271.000;  391.000
462.662;   18.125;  353.000;  380.000
462.782;  235.325;  833.000;  572.000
462.901;  472.625;  545.000;  717.000
463.021;  265.100; 1702.000; 1638.000
463.141;  -15.325;  337.000;  770.000
463.260;  -40.275;  614.000;  474.000
463.380;    0.075;  902.000;  884.000
463.499;  -47.275;  342.000;  332.000
463.619;  -42.250;  581.000;  559.000
463.738;  107.225; 1644.000;  903.000
463.858;    9.175;  657.000;  811.000
463.978;  -33.275;  542.000;  396.000
464.097;   42.500;  921.000; 1114.000
464.217;  118.825; 1196.000; 1143.000
464.336;  100.000; 1068.000; 1130.000
464.455;  -46.475;  328.000;  659.000
464.575;   32.800;  597.000;  602.000
464.694;  167.275; 1204.000; 1179.000
464.814;  125.875; 1190.000; 1138.000
464.933;   60.700; 1095.000; 1027.000
465.052;   89.950; 1412.000; 1054.000
465.172;   68.450;  922.000;  799.000
465.291;  140.150; 1376.000; 1320.000
465.410;   -2.275;  462.000;  735.000
465.530;   83.500; 1355.000; 1310.000
465.649;   59.600; 1209.000; 1273.000
465.768;  141.550; 1673.000; 1508.000
465.888;   43.975;  941.000; 1174.000
466.007;   85.875; 1335.000; 1440.000
466.126;  -22.425;  721.000;  641.000
466.245;   37.675; 1176.000; 1187.000
466.364;   12.175;  950.000; 1060.000
466.484;   42.200; 1024.000; 1213.000
466.603;   25.800; 1101.000; 1222.000
466.722;  118.525; 1490.000; 1769.000
466.841;   62.325; 1151.000; 1401.000
466.960;   39.675; 1069.000;  972.000
467.079;  129.650; 1971.000; 1786.000
467.198;   27.725; 1238.000; 1181.000
467.317;   78.700; 1768.000; 1162.000
467.436;   63.550; 1709.000; 1261.000
467.555;  116.825; 1796.000; 1746.000
467.674;   54.875; 1227.000; 1329.000
467.793;   31.150; 1376.000; 1374.000
467.912;   69.450; 1658.000; 1539.000
468.031;  112.350; 2038.000; 1930.000
468.150;  147.650; 1842.000; 1837.000
468.269;  193.325; 2313.000; 2090.000
468.388;  188.625; 2168.000; 2339.000
468.507;  250.350; 2884.000; 2903.000
468.626;  233.325; 2555.000; 2541.000
468.744;  128.900; 2018.000; 2174.000
468.863;  209.700; 2312.000; 2523.000
468.982;   77.775; 1503.000; 1555.000
469.101;  214.175; 2788.000; 2692.000
469.220;  136.800; 2333.000; 2176.000
469.338;  241.300; 2935.000; 3051.000
469.457;  185.350; 2719.000; 2545.000
469.576;  334.625; 3953.000; 3784.000
469.695;  233.000; 2877.000; 3066.000
469.813;  428.650; 4148.000; 4192.000
469.932;  392.950; 4255.000; 4485.000
470.051;  416.900; 4075.000; 4161.000
470.169;  881.725; 4470.000; 4338.000
470.288; 1475.675; 4700.000; 4809.000
470.406;  870.125; 5059.000; 5194.000
470.525;  617.725; 6101.000; 5787.000
470.644;  640.450; 6847.000; 6794.000
470.762;  835.000; 8397.000; 7873.000
470.881;  911.350; 8651.000; 8464.000
470.999; 1068.675; 9685.000; 9151.000
471.118; 1106.875;11174.000;10711.000

