
Integration time [ms]: 100.000
Averaging Nr. [scans]: 40
Smoothing Nr. [pixels]: 0
Data measured with spectrometer [name]: 2101012U2
Wave   ;Sample   ;Dark     ;Reference
[nm]   ;[counts] ;[counts] ;[counts] 

197.733;   55.150;  516.000;  404.000
197.879;  -76.675; -610.000; -634.000
198.025;  -47.725; -475.000; -420.000
198.171;  -80.450; -602.000; -612.000
198.317;  -29.000; -401.000; -316.000
198.463;  -69.950; -655.000; -404.000
198.609;   22.075;  181.000; -137.000
198.755;  -78.000; -644.000; -410.000
198.901;  -71.000; -505.000; -424.000
199.047;  -71.250; -615.000; -488.000
199.193;  -48.225; -230.000; -468.000
199.339;  -49.000; -222.000; -369.000
199.485;   37.650;  330.000;  271.000
199.631;   16.075;  227.000;  310.000
199.777;  -47.525; -466.000; -398.000
199.923;  -63.875; -610.000; -424.000
200.069;   -2.375; -141.000;  -58.000
200.215;   47.375;  128.000;  453.000
200.361;   41.675;  243.000;  477.000
200.507;  -62.725; -600.000; -373.000
200.653;  -41.175; -371.000; -194.000
200.798;  -35.975; -215.000; -125.000
200.944;   -8.550; -146.000;  -41.000
201.090;   40.125;   61.000;  222.000
201.236;    5.100; -116.000; -158.000
201.382;  126.675;  874.000;  903.000
201.528;   15.450;  -58.000;  -48.000
201.674;  -33.750; -386.000; -293.000
201.819;  -62.150; -540.000; -439.000
201.965;  -79.125; -699.000; -447.000
202.111;  -27.175; -273.000; -226.000
202.257;  -59.000; -250.000; -238.000
202.402;   -6.600;   13.000;  -36.000
202.548;  -33.675; -169.000; -116.000
202.694;   70.175;  410.000; -183.000
202.840;  -67.925; -603.000; -531.000
202.985;  -80.550; -681.000; -639.000
203.131; -105.850; -832.000; -666.000
203.277;  -24.775; -199.000; -262.000
203.423;  -58.475; -434.000; -520.000
203.568;  -35.675; -462.000; -237.000
203.714;  -65.625; -535.000; -542.000
203.860;  -84.175; -682.000; -641.000
204.005;   10.675;  112.000;  167.000
204.151;   71.000;  561.000;  556.000
204.296;  -48.725; -354.000; -221.000
204.442;  -59.250; -600.000; -547.000
204.588;  -71.450; -592.000; -579.000
204.733;   23.400;  178.000;  168.000
204.879; -127.025;-1018.000; -822.000
205.025;    6.350;  -99.000;  126.000
205.170;  -11.900;  -17.000;   94.000
205.316;   71.050;  438.000;  661.000
205.461;  -87.325; -698.000; -554.000
205.607;   78.200;  609.000;  665.000
205.752;  -86.325; -626.000; -551.000
205.898;  -50.950; -501.000; -391.000
206.043;  -58.400; -578.000; -506.000
206.189;  -45.700; -243.000; -285.000
206.334;   65.650;  554.000;  606.000
206.480;   81.825;  409.000;  239.000
206.625;  -91.450; -529.000; -552.000
206.771;  -54.900; -451.000; -373.000
206.916;  -36.625; -210.000; -537.000
207.062;  -72.575; -545.000; -591.000
207.207;  -64.425; -546.000; -443.000
207.353;   56.550;  185.000;  460.000
207.498;   20.925;  196.000;   85.000
207.643;  -49.950; -501.000; -370.000
207.789; -130.125;-1069.000; -910.000
207.934;  -98.800; -665.000; -713.000
208.080;  -26.050; -154.000;   66.000
208.225;  -15.625;  -22.000;  -57.000
208.370;  -87.725; -727.000; -619.000
208.516;  -78.950; -741.000; -487.000
208.661;  -25.800; -127.000;  -69.000
208.806;  -22.975; -165.000; -171.000
208.952; -129.850;-1044.000; -731.000
209.097;   68.700;  378.000;  349.000
209.242;  -56.925; -307.000; -382.000
209.387;   55.100;  392.000;  350.000
209.533;  -60.475; -321.000; -350.000
209.678;   88.100;  472.000;  543.000
209.823;  -57.025; -408.000; -310.000
209.969;  -96.775; -860.000; -757.000
210.114; -110.025; -907.000; -719.000
210.259; -101.300; -939.000; -889.000
210.404;  -11.350; -171.000;  103.000
210.549;    4.000;  108.000;    3.000
210.695;  -13.325;   -3.000;  -95.000
210.840;   19.600;   94.000;   67.000
210.985;  -68.400; -484.000; -303.000
211.130;   54.500;  268.000;  406.000
211.275;    7.575;  207.000;  199.000
211.420;  -56.175; -300.000; -289.000
211.566;  -62.800; -536.000; -489.000
211.711;   18.975;  218.000;  157.000
211.856;  -77.800; -545.000; -519.000
212.001;    0.075;  151.000;   44.000
212.146;    9.075;  153.000;   49.000
212.291;  -19.275; -210.000; -186.000
212.436;  -22.925; -280.000;   -6.000
212.581;  -91.325; -685.000; -653.000
212.726;  -76.700; -487.000; -538.000
212.871;  -51.000; -552.000; -217.000
213.016; -144.700;-1172.000;-1029.000
213.161;   58.975;  406.000;  291.000
213.306;  -69.500; -435.000; -577.000
213.451;  -93.200; -778.000; -689.000
213.596;  -40.100; -455.000; -347.000
213.741;  -52.850; -448.000; -538.000
213.886;  -85.300; -498.000; -517.000
214.031;  -14.825; -294.000; -124.000
214.176;  -39.375; -408.000; -341.000
214.321;  -20.800; -296.000; -157.000
214.466;  -34.150; -163.000;  -43.000
214.611;    4.250;  -61.000;  -10.000
214.756; -132.825; -948.000; -858.000
214.901;  -30.475; -388.000; -226.000
215.046; -112.900; -797.000; -825.000
215.191;   24.750;  128.000;   35.000
215.336;   -6.275; -157.000;  -19.000
215.480;  -71.650; -684.000; -505.000
215.625;  -13.725; -175.000;  -19.000
215.770;  -94.925; -757.000; -662.000
215.915;   -5.850;   -5.000;  -97.000
216.060;  -18.000; -113.000;  -21.000
216.205; -101.050; -731.000; -779.000
216.349;  -79.650; -470.000; -533.000
216.494; -127.925; -939.000; -867.000
216.639; -104.525; -823.000; -888.000
216.784;  -89.900; -577.000; -525.000
216.929;   50.075;  392.000;  281.000
217.073;  -13.175; -244.000;  -31.000
217.218;    9.400;   78.000;  -47.000
217.363;  -96.050; -656.000; -618.000
217.507;  -81.675; -623.000; -588.000
217.652; -129.200; -845.000; -874.000
217.797;  -90.850; -708.000; -659.000
217.942; -117.850; -856.000; -720.000
218.086;   76.500;  608.000;  539.000
218.231;  -24.275; -174.000;  -26.000
218.376;  -38.750; -337.000; -229.000
218.520;    2.125;  -41.000;   96.000
218.665;  -32.425; -338.000; -204.000
218.810;  -43.000; -275.000; -233.000
218.954;   22.525;  201.000;   35.000
219.099; -104.625; -713.000; -963.000
219.243;  -77.100; -589.000; -554.000
219.388;  -34.300; -264.000; -136.000
219.532;    0.125; -116.000; -116.000
219.677;  -77.700; -564.000; -521.000
219.822;   -9.100;   33.000;   89.000
219.966;    0.825;   17.000;  -99.000
220.111;  -31.625; -328.000;  -40.000
220.255; -104.475; -797.000; -750.000
220.400;  -21.775; -180.000; -146.000
220.544;  -66.450; -516.000; -450.000
220.689;  -57.475; -422.000; -451.000
220.833;  -19.875; -123.000;  -58.000
220.978;  -52.075; -393.000; -563.000
221.122;   18.100;  319.000;  307.000
221.267; -129.925; -906.000; -837.000
221.411;  -67.750; -478.000; -394.000
221.555;   -7.225; -104.000;  -23.000
221.700;  -49.500; -329.000; -222.000
221.844;   35.525;  255.000;  272.000
221.989;  -44.975; -328.000; -311.000
222.133;  -43.475; -289.000; -307.000
222.277;  -16.675;    5.000;   78.000
222.422;   19.925;  227.000;  113.000
222.566;  -32.900; -381.000; -214.000
222.711;  -59.625; -414.000; -479.000
222.855;  -75.425; -643.000; -586.000
222.999;  -78.375; -642.000; -717.000
223.144;  -48.875; -195.000; -194.000
223.288;   49.450;  423.000;  251.000
223.432;   22.200;  184.000;  230.000
223.576;   11.225;  152.000;  -21.000
223.721;   39.250;  364.000;  273.000
223.865;  -51.575; -472.000; -475.000
224.009;  235.025; 1673.000; 1631.000
224.153;  -91.600; -660.000; -671.000
224.298;  -72.350; -531.000; -489.000
224.442;   -5.725;  -74.000;  -33.000
224.586;  -37.350; -169.000; -106.000
224.730;  -99.500; -858.000; -670.000
224.875; -105.650; -739.000; -688.000
225.019;   -9.200;  102.000;  188.000
225.163;   38.225;  208.000;  341.000
225.307;   27.350;   97.000;  -91.000
225.451;   37.825;  360.000;  481.000
225.595;   38.625;  264.000;  176.000
225.739;  -27.950; -170.000;  -94.000
225.884;    8.225;   86.000;    5.000
226.028; -107.675; -760.000; -626.000
226.172;  -38.350; -260.000; -273.000
226.316; -115.475; -941.000; -902.000
226.460;  -66.450; -645.000; -493.000
226.604;  -57.500; -406.000; -400.000
226.748;  -92.525; -836.000; -733.000
226.892;  -35.425; -227.000; -181.000
227.036;  -56.050; -537.000; -447.000
227.180;  -72.325; -551.000; -375.000
227.324;  -66.525; -561.000; -580.000
227.468; -114.100; -819.000; -717.000
227.612;   19.875;  242.000;  -28.000
227.756; -100.525; -845.000; -698.000
227.900;   43.675;  342.000;  441.000
228.044;  -65.450; -509.000; -290.000
228.188;   54.275;  448.000;  568.000
228.332;  -87.150; -546.000; -472.000
228.476;  -38.925; -223.000; -149.000
228.620;  -40.150; -210.000; -150.000
228.764;   58.375;  431.000;  349.000
228.908;  -28.125; -155.000;   30.000
229.052;  -62.925; -615.000; -528.000
229.195;  -28.525; -172.000;   13.000
229.339;  -34.725; -235.000; -305.000
229.483;  -34.725;    5.000; -162.000
229.627;   -2.900; -156.000;  139.000
229.771;  -64.325; -218.000; -294.000
229.915;    2.675;  230.000;   79.000
230.059;  -95.700; -648.000; -663.000
230.202;  -36.875; -370.000; -317.000
230.346;  -27.375; -107.000;  107.000
230.490;  -54.175; -489.000; -521.000
230.634; -106.025; -736.000; -553.000
230.777;   68.775;  478.000;  509.000
230.921;  -53.675; -450.000; -359.000
231.065;  -45.800; -246.000; -286.000
231.209;   23.400;  261.000;  265.000
231.352;   10.525;   54.000;   40.000
231.496;   18.000;  568.000;  188.000
231.640;  -89.550; -693.000; -621.000
231.783;   75.550;  546.000;  525.000
231.927;  -43.700; -294.000; -365.000
232.071; -127.625; -962.000; -736.000
232.214; -110.600; -980.000; -764.000
232.358; -102.425; -683.000; -599.000
232.502;    1.975;  -19.000;    7.000
232.645; -146.775;-1090.000; -927.000
232.789;  -26.600; -257.000; -218.000
232.933;  -38.075; -407.000; -224.000
233.076; -129.825;-1038.000; -897.000
233.220; -115.775; -752.000; -777.000
233.363;  -92.275; -669.000; -477.000
233.507;   53.375;  371.000;  129.000
233.650; -100.750; -764.000; -834.000
233.794;   49.525;  438.000;  461.000
233.938;  -51.125; -530.000; -362.000
234.081;   -4.975;  -93.000;   31.000
234.225;  -55.700; -631.000; -539.000
234.368; -113.200; -773.000; -723.000
234.512;  -54.925; -385.000; -299.000
234.655;  -89.225; -582.000; -555.000
234.798;  -76.575; -493.000; -466.000
234.942; -132.600; -884.000;-1002.000
235.085;  -84.825; -651.000; -443.000
235.229;  -69.050; -405.000; -410.000
235.372;  -56.475; -247.000; -191.000
235.516;  -60.850; -397.000; -321.000
235.659;    8.375;   92.000;  121.000
235.802;  -14.350;  -38.000;  -22.000
235.946;   30.400;  335.000;  215.000
236.089;   21.425;  126.000;  250.000
236.233;   51.275;  275.000;  298.000
236.376;  -50.850; -235.000; -378.000
236.519;  -44.975; -297.000; -319.000
236.663;  -21.475; -215.000; -117.000
236.806; -127.600;-1029.000; -999.000
236.949;   59.075;  543.000;  431.000
237.092;   76.125;  412.000;  391.000
237.236;  -94.700; -589.000; -502.000
237.379;   37.000;  352.000;  428.000
237.522; -131.100; -879.000; -768.000
237.666;  -25.225; -271.000;   18.000
237.809; -119.300; -851.000; -823.000
237.952;   45.500;  469.000;  271.000
238.095;  -64.300; -447.000; -442.000
238.238;  101.775;  688.000;  700.000
238.382;   -5.000;  166.000;  103.000
238.525;  -69.050; -598.000; -511.000
238.668; -143.150;-1060.000; -985.000
238.811;  -85.450; -638.000; -643.000
238.954;  -64.600; -483.000; -334.000
239.097;   95.975;  617.000;  664.000
239.241;   17.225;  394.000;  326.000
239.384;  -36.850; -254.000; -214.000
239.527;  -65.925; -424.000; -224.000
239.670; -147.025; -994.000;-1091.000
239.813; -107.375; -696.000; -658.000
239.956;   82.275;  579.000;  473.000
240.099; -113.875; -778.000; -725.000
240.242;   68.775;  428.000;  432.000
240.385;   43.225;  466.000;  450.000
240.528;  -65.250; -706.000; -473.000
240.671;    9.100;  189.000;  134.000
240.814;  -42.800; -441.000; -158.000
240.957; -102.525; -767.000; -578.000
241.100; -104.975; -779.000; -755.000
241.243; -144.500;-1234.000; -893.000
241.386;  -49.150; -508.000; -379.000
241.529;  -87.325; -735.000; -547.000
241.672;  -70.525; -566.000; -495.000
241.815; -122.200; -832.000; -808.000
241.958;  -26.275; -125.000; -182.000
242.101;  -84.575; -545.000; -390.000
242.244;  -52.200; -270.000; -325.000
242.387;  -41.950; -304.000; -246.000
242.530;   52.075;  470.000;  134.000
242.673;  -54.975; -381.000; -309.000
242.815; -118.275; -925.000; -899.000
242.958;  -66.600; -482.000; -381.000
243.101;   13.875;  132.000;  187.000
243.244;  -93.525; -564.000; -521.000
243.387;  -43.125; -313.000; -316.000
243.530;  -93.075; -657.000; -674.000
243.672;   -9.750;   43.000;  -92.000
243.815;  -54.600; -355.000; -283.000
243.958;    2.300;   98.000;  -26.000
244.101;   -5.500;   59.000;  -16.000
244.243;  -15.800;  -47.000;  101.000
244.386; -103.925; -761.000; -630.000
244.529;  -42.350; -132.000; -139.000
244.672; -160.025;-1154.000; -951.000
244.814;  -97.650; -621.000; -794.000
244.957;  -49.675; -380.000; -304.000
245.100;  -68.625; -489.000; -489.000
245.242;  -60.375; -387.000; -374.000
245.385;   -3.275;  -59.000;  -39.000
245.528; -128.300; -871.000; -705.000
245.670;   79.775;  612.000;  634.000
245.813;  -97.300; -599.000; -547.000
245.956;  -22.300; -324.000; -275.000
246.098;  -75.250; -508.000; -650.000
246.241;    6.975;  194.000;   48.000
246.383;  -12.225; -119.000;  -73.000
246.526;  -77.650; -454.000; -525.000
246.669; -115.425; -889.000; -780.000
246.811;   18.550;  172.000;   -1.000
246.954;  -74.550; -512.000; -426.000
247.096;  -29.550;  -84.000;   -6.000
247.239;  -68.625; -482.000; -445.000
247.381;  -77.225; -647.000; -488.000
247.524;   70.850;  645.000;  679.000
247.666;  -12.925;   58.000;   11.000
247.809; -126.450; -887.000; -691.000
247.951;   -3.350;  -75.000;  138.000
248.094;   25.500;  432.000;  308.000
248.236; -158.675;-1262.000;-1238.000
248.378;   -6.750; -356.000;  -81.000
248.521;  -39.825; -334.000; -337.000
248.663;  -39.800; -236.000; -267.000
248.806;  -25.175; -300.000; -266.000
248.948;  -97.100; -886.000; -763.000
249.090;  -42.875; -428.000; -398.000
249.233;  -47.600; -344.000; -381.000
249.375;  -72.600; -474.000; -451.000
249.518;  -24.200;  -83.000; -133.000
249.660;   -5.675; -103.000;    3.000
249.802; -160.025;-1303.000;-1189.000
249.945;  -73.650; -612.000; -540.000
250.087; -113.375; -834.000; -768.000
250.229;  -46.600; -362.000; -480.000
250.371;  -78.850; -494.000; -439.000
250.514;  -50.400; -310.000; -244.000
250.656;  -76.375;   69.000;  102.000
250.798; -119.925; -849.000; -800.000
250.940;  -67.000; -322.000; -322.000
251.083;  -35.275; -335.000; -111.000
251.225;   34.350;  338.000;  310.000
251.367;  -37.200; -274.000; -373.000
251.509;  -45.275; -265.000; -210.000
251.651; -107.400; -731.000; -671.000
251.794;   73.150;  538.000;  632.000
251.936; -100.750; -821.000; -747.000
252.078;  -91.200; -540.000; -461.000
252.220;  -72.200; -645.000; -477.000
252.362;   60.750;  344.000;  462.000
252.504;  -61.675; -677.000; -584.000
252.646; -122.950; -875.000; -722.000
252.788;   -8.200;   14.000; -128.000
252.931;  -42.750; -257.000; -253.000
253.073;  -45.975; -376.000; -317.000
253.215;   -7.325;  141.000;  122.000
253.357;  -17.750;   82.000; -153.000
253.499;  -54.475; -374.000; -234.000
253.641;  -91.650; -749.000; -594.000
253.783; -108.650; -609.000; -527.000
253.925;  -88.000; -586.000; -591.000
254.067; -116.025; -744.000; -667.000
254.209;  -33.025; -391.000; -259.000
254.351; -138.350; -865.000; -883.000
254.493;  -63.625; -441.000; -417.000
254.635; -141.525; -936.000; -818.000
254.777;  -79.475; -752.000; -687.000
254.918;  -81.225; -512.000; -430.000
255.060;  -70.000; -551.000; -395.000
255.202;  -59.075; -473.000; -261.000
255.344;  -80.725; -658.000; -455.000
255.486;  -79.875; -471.000; -406.000
255.628; -110.800; -780.000; -781.000
255.770;  -92.425; -676.000; -536.000
255.912;  -69.775; -559.000; -468.000
256.053;  -93.100; -730.000; -508.000
256.195;  144.550; 1008.000;  903.000
256.337; -105.900; -861.000; -595.000
256.479;   69.625;  532.000;  416.000
256.621;  -42.675; -394.000; -212.000
256.762; -107.400; -789.000; -742.000
256.904;   35.075;  485.000;  487.000
257.046;  -45.400; -381.000; -271.000
257.188;  -44.700; -351.000; -264.000
257.329;  -77.100; -525.000; -464.000
257.471; -129.125; -939.000; -807.000
257.613;  -65.075; -584.000; -498.000
257.755; -155.475;-1073.000; -982.000
257.896;   25.900;  286.000;  392.000
258.038;  -72.425; -403.000; -352.000
258.180;  -47.900; -354.000; -279.000
258.321;  -88.725; -581.000; -457.000
258.463;   -1.075;  -71.000;  133.000
258.605;  -85.650; -562.000; -570.000
258.746; -100.900; -886.000; -772.000
258.888; -155.275;-1026.000;-1020.000
259.029;   22.125;  121.000;   -8.000
259.171;  -95.775; -614.000; -550.000
259.313;  -12.250;  -49.000;  -47.000
259.454;  -81.650; -536.000; -414.000
259.596;  -54.100; -483.000; -390.000
259.737;  -70.400; -590.000; -474.000
259.879;   36.075;  217.000;  311.000
260.020;   78.225;  901.000;  636.000
260.162;  -30.250; -146.000; -253.000
260.303; -117.125; -768.000; -687.000
260.445;  -93.000; -609.000; -613.000
260.586;   17.850;  392.000;  157.000
260.728;  -57.450; -360.000; -248.000
260.869; -129.600; -350.000; -343.000
261.011;   79.200;  706.000;  537.000
261.152;  -60.525; -479.000; -319.000
261.293;  -74.050; -576.000; -595.000
261.435;  -42.650; -219.000; -184.000
261.576;  -38.225; -455.000; -325.000
261.718;   42.275;  420.000;  470.000
261.859; -122.400; -940.000; -949.000
262.000; -128.475; -951.000;-1016.000
262.142;  -39.500;  -52.000;  -60.000
262.283; -118.150; -808.000; -691.000
262.424;  -84.350; -666.000; -625.000
262.566; -161.150;-1161.000; -983.000
262.707; -101.150; -840.000; -830.000
262.848; -124.425; -769.000; -726.000
262.990;  -44.200; -362.000; -345.000
263.131;   69.750;  650.000;  681.000
263.272;  -17.175;  -61.000;  -41.000
263.413;  -99.675; -589.000; -561.000
263.555;  -73.300; -669.000; -143.000
263.696;  -83.075; -550.000; -641.000
263.837;  -77.900; -449.000; -551.000
263.978;   -6.425;   -5.000;  -77.000
264.119;  -48.725; -283.000; -264.000
264.261; -124.750; -847.000; -630.000
264.402;   -7.125;   33.000;   40.000
264.543;  -78.525; -509.000; -524.000
264.684;  -15.875;   61.000;  -50.000
264.825;  -84.950; -816.000; -538.000
264.966;    1.875;  -84.000;  -67.000
265.107; -121.325; -646.000; -670.000
265.248; -116.300; -825.000; -812.000
265.390;  -13.225;  152.000;   -9.000
265.531;  -21.500; -238.000; -107.000
265.672;  -99.525; -557.000; -630.000
265.813;   53.875;  563.000;  439.000
265.954; -151.400; -959.000; -940.000
266.095;  -17.725; -372.000; -322.000
266.236;  -95.425; -686.000; -548.000
266.377;  -45.275; -243.000; -297.000
266.518;  -84.500; -619.000; -547.000
266.659;   28.975;  170.000;  268.000
266.800;   -0.925;   83.000;   85.000
266.941;  -69.050; -487.000; -478.000
267.082;    1.150;  354.000;   99.000
267.223;  -42.325; -344.000; -273.000
267.364; -118.975; -892.000; -686.000
267.504;  -14.625;    3.000;  135.000
267.645;    0.775;  160.000;   67.000
267.786;  -40.600; -147.000;  -86.000
267.927;  -86.650; -473.000; -379.000
268.068;  -17.125; -186.000;  -61.000
268.209;  -49.125; -175.000; -413.000
268.350;  -69.325; -388.000; -532.000
268.490;  -93.025; -648.000; -521.000
268.631;   26.950;  127.000;  225.000
268.772; -110.250; -874.000; -647.000
268.913;  -58.925; -328.000; -476.000
269.054;  -33.375; -117.000;   12.000
269.194;  -50.475; -418.000; -402.000
269.335; -163.875;-1137.000;-1074.000
269.476;  -28.100;   33.000;  -35.000
269.617;  -52.850; -347.000; -392.000
269.757;  -90.925; -713.000; -646.000
269.898; -108.525; -856.000; -613.000
270.039;  -70.325; -415.000; -405.000
270.180; -146.700; -952.000; -816.000
270.320;  -22.025; -190.000; -250.000
270.461;  -41.700; -277.000; -249.000
270.602;  -16.600; -186.000; -156.000
270.742; -124.325; -868.000; -943.000
270.883;  -54.350; -442.000; -390.000
271.023;  -66.850; -358.000; -357.000
271.164;  -80.475; -607.000; -528.000
271.305;  -94.550; -666.000; -654.000
271.445;  -92.850; -722.000; -683.000
271.586;  -75.075; -462.000; -283.000
271.726;  -45.450; -397.000; -322.000
271.867;  -64.150; -594.000; -534.000
272.008;  163.925; -473.000; -285.000
272.148;  105.350;  462.000;  468.000
272.289;  -10.650; -113.000; -181.000
272.429;   -4.575;   19.000;  185.000
272.570;  -95.100; -633.000; -737.000
272.710; -108.650; -825.000; -775.000
272.851;  -29.225;  113.000; -130.000
272.991; -165.350;-1173.000;-1077.000
273.131;  -80.850; -419.000; -459.000
273.272; -104.300; -683.000; -723.000
273.412;   -5.975; -143.000;  -31.000
273.553;  -59.200; -488.000; -507.000
273.693;  129.175;  913.000;  858.000
273.834;  -89.025; -894.000; -692.000
273.974;  -88.925; -664.000; -615.000
274.114; -115.675; -772.000; -560.000
274.255;   64.325;  414.000;  373.000
274.395;  -10.675; -180.000; -125.000
274.535;   29.375;  199.000;  350.000
274.676;   10.525;  225.000;   94.000
274.816;   12.925;  110.000;   34.000
274.956;  -82.375; -624.000; -690.000
275.097;  -67.575;-1014.000; -922.000
275.237; -107.325; -913.000; -803.000
275.377;  -82.825; -778.000; -689.000
275.517; -143.875; -878.000; -937.000
275.658;  -68.275; -590.000; -555.000
275.798;  -88.825; -606.000; -413.000
275.938;   20.275;  215.000;  323.000
276.078; -101.075; -626.000; -395.000
276.218;   -1.975;   99.000;  104.000
276.359; -144.850;-1026.000;-1024.000
276.499;  -81.000; -605.000; -446.000
276.639;  -38.425; -305.000; -151.000
276.779;  -59.350; -475.000; -357.000
276.919; -110.325; -783.000; -624.000
277.059;  -28.900; -261.000; -212.000
277.199;  -54.575; -357.000; -259.000
277.340;   38.175;  287.000;  175.000
277.480; -123.125; -840.000; -693.000
277.620;   29.875;  192.000;   16.000
277.760; -204.075;-1533.000;-1294.000
277.900;   13.475;  113.000;   33.000
278.040;    8.225;  137.000;  159.000
278.180;   40.175;  270.000;  170.000
278.320;   -3.775;   21.000;   56.000
278.460;  -69.025; -443.000; -469.000
278.600; -111.625; -708.000; -598.000
278.740;   49.925;  448.000;  224.000
278.880;  -80.575; -768.000; -791.000
279.020;  -13.325; -194.000; -144.000
279.160; -104.875; -672.000; -595.000
279.300; -131.175; -926.000; -873.000
279.440;  -77.300; -709.000; -622.000
279.579;  -25.950;-1014.000; -929.000
279.719;  -40.675; -410.000; -394.000
279.859;   56.175;   -4.000;   41.000
279.999;   19.400; -208.000;  101.000
280.139;  -36.450; -435.000; -387.000
280.279;  -88.450; -708.000; -745.000
280.419;  -16.725; -229.000; -147.000
280.559;  -38.750; -259.000; -180.000
280.698;  -82.525; -790.000; -639.000
280.838; -112.025; -778.000; -800.000
280.978; -109.275; -846.000; -790.000
281.118; -117.525; -811.000; -704.000
281.257;  -11.775;   24.000;    6.000
281.397; -120.925;-1094.000; -960.000
281.537;  -84.875; -599.000; -712.000
281.677;  -35.025; -150.000; -101.000
281.816;  -83.425; -700.000; -630.000
281.956;  -39.525; -193.000; -257.000
282.096;  -54.475; -539.000; -396.000
282.235; -105.375; -672.000; -638.000
282.375;  -46.875; -243.000;  -98.000
282.515; -102.000; -715.000; -707.000
282.654;    7.100;   29.000;  106.000
282.794;   11.825;  388.000;  244.000
282.934;  -49.100; -530.000; -491.000
283.073; -140.125;-1030.000; -857.000
283.213;  -67.950; -460.000; -467.000
283.353;  -46.400; -408.000; -349.000
283.492;  -44.450; -264.000; -296.000
283.632;  -52.575; -254.000; -168.000
283.771;  -99.350; -859.000; -730.000
283.911;  -50.425; -369.000; -260.000
284.050; -110.750; -794.000; -748.000
284.190; -157.125;-1229.000;-1096.000
284.329; -150.825;-1055.000; -964.000
284.469;  -91.875; -516.000; -591.000
284.608;  -65.725; -559.000; -598.000
284.748;  -94.825; -614.000; -570.000
284.887;   -1.925;  -87.000;  -20.000
285.027; -139.175; -844.000; -892.000
285.166;  -43.175; -192.000; -249.000
285.306;   -6.725; -116.000;  -33.000
285.445;  -47.675; -229.000; -343.000
285.584;  -99.150; -630.000; -494.000
285.724;  -45.200; -282.000; -322.000
285.863; -113.575; -857.000; -507.000
286.002;  -45.375; -366.000; -276.000
286.142; -115.200; -715.000; -622.000
286.281;  -82.400; -525.000; -493.000
286.420;  -88.725; -554.000; -417.000
286.560;   82.350;  653.000;  623.000
286.699; -143.250; -958.000; -912.000
286.838;  -95.225; -590.000; -591.000
286.978;  -90.650; -533.000; -537.000
287.117; -133.250;-1085.000; -950.000
287.256;  -28.900; -228.000; -211.000
287.395;  -58.925; -197.000; -378.000
287.535;  -62.900; -370.000; -298.000
287.674;  -81.825; -509.000; -484.000
287.813;   52.575;  661.000;  533.000
287.952; -127.725;-1010.000; -871.000
288.091; -151.725;-1049.000; -915.000
288.231;    8.175;   13.000;   15.000
288.370; -183.975;-1217.000;-1200.000
288.509;  -88.725; -728.000; -645.000
288.648;  -96.500; -770.000; -548.000
288.787;  -50.650; -243.000;  -87.000
288.926;  -69.125; -454.000; -475.000
289.065;  116.950;  859.000;  672.000
289.204;  -63.675; -377.000; -217.000
289.344; -103.750; -791.000; -690.000
289.483;   14.075;  416.000;  304.000
289.622;  -27.725; -291.000; -149.000
289.761;  -28.025; -309.000; -166.000
289.900; -108.975; -785.000; -626.000
290.039;  -28.425;  -12.000;  -95.000
290.178;  -44.425; -274.000; -180.000
290.317;  -88.000; -618.000; -479.000
290.456;  -69.250; -463.000; -451.000
290.595; -140.625; -961.000; -833.000
290.734; -133.100; -904.000; -891.000
290.873;  -81.275; -456.000; -420.000
291.011; -112.100; -833.000; -843.000
291.150; -107.625; -770.000; -682.000
291.289;  -37.975; -343.000; -110.000
291.428; -101.875; -599.000; -480.000
291.567;  -60.275; -370.000; -442.000
291.706;  -19.450;  109.000;  154.000
291.845;  -85.600; -597.000; -505.000
291.984; -174.075;-1234.000;-1061.000
292.122;   55.775;  602.000;  582.000
292.261;   30.750;  620.000;  463.000
292.400;   -2.850; -144.000;  211.000
292.539; -128.450; -959.000; -813.000
292.678;  -35.075; -325.000; -300.000
292.816; -162.500;-1136.000; -965.000
292.955;  -96.125; -844.000; -684.000
293.094;  -35.175; -173.000; -337.000
293.233;  -55.725; -556.000; -400.000
293.371;  -18.000; -225.000;  -84.000
293.510; -118.700; -866.000; -780.000
293.649; -127.175; -959.000; -924.000
293.787;  -88.125;-1083.000;-1012.000
293.926;  -15.650; -113.000;  -32.000
294.065;  -48.100; -379.000; -290.000
294.203;   35.900;  298.000;  406.000
294.342;   11.975;   74.000;  156.000
294.481; 5468.950;51180.000; -836.000
294.619;  -52.975; -425.000; -582.000
294.758; -156.750;-1230.000;-1137.000
294.896;   44.800; -125.000;    5.000
295.035; -137.125;-1040.000;-1006.000
295.174; -122.000;-1082.000; -954.000
295.312;  -46.025; -323.000; -203.000
295.451;  -27.250; -307.000; -428.000
295.589;  -73.650; -389.000; -518.000
295.728;    7.100; -292.000; -165.000
295.866;   -9.625;  -36.000;  -51.000
296.005;  -67.600; -584.000; -341.000
296.143;  -72.125; -558.000; -596.000
296.282; -109.250; -957.000; -881.000
296.420;  -96.400; -657.000; -557.000
296.559;  -94.750; -892.000; -633.000
296.697;   10.375; -847.000; -665.000
296.835;   17.700;-1141.000;-1002.000
296.974;   29.175;  -23.000;   39.000
297.112;   -0.450; -443.000; -504.000
297.251;  -77.850; -815.000; -755.000
297.389;   60.600; -576.000; -438.000
297.527;   26.925; -145.000;  -83.000
297.666;  -59.000; -486.000; -438.000
297.804;  -61.100; -404.000; -264.000
297.942;  -19.575; -136.000; -161.000
298.081;  -12.125; -183.000;   63.000
298.219;   49.975;  -17.000;  -19.000
298.357;   37.600; -144.000;  -71.000
298.495;   -5.700; -810.000; -812.000
298.634;   44.275;  245.000;  219.000
298.772;   38.500; -220.000; -338.000
298.910;  -50.500; -309.000; -182.000
299.048;   -9.375; -130.000; -153.000
299.187;  -39.050; -350.000; -250.000
299.325;    8.850;   52.000;  122.000
299.463;   21.225; -389.000; -299.000
299.601;   87.500; -327.000; -271.000
299.739; -115.600; -908.000; -883.000
299.877;  -86.325; -791.000; -703.000
300.016;  -57.800;-1095.000; -935.000
300.154;  138.750;  -19.000; -161.000
300.292;   13.575; -428.000; -348.000
300.430;   13.600; -408.000; -291.000
300.568; -111.850; -940.000; -874.000
300.706;  -57.225; -366.000; -469.000
300.844;  -70.575;-1108.000; -979.000
300.982;   96.725;  246.000;  282.000
301.120; -134.250; -965.000; -866.000
301.258;  -70.450; -812.000; -705.000
301.396;   27.000;  104.000;  -41.000
301.534;   47.300; -218.000; -293.000
301.672;  -34.775; -664.000; -521.000
301.810;    4.225; -613.000; -545.000
301.948;   88.175;   53.000;  149.000
302.086;  543.725; -250.000;  -32.000
302.224;  807.175; -610.000; -585.000
302.362;    4.175; -558.000; -622.000
302.500;  -48.475; -923.000; -893.000
302.638;   88.175;  128.000;  245.000
302.776;  -13.675; -352.000; -408.000
302.913;   31.675;  447.000;  236.000
303.051;  -26.975;  -86.000;  -23.000
303.189;   25.925;   90.000;  118.000
303.327;  -44.575; -341.000; -256.000
303.465;  -77.225; -832.000; -588.000
303.603;  -99.025; -805.000; -604.000
303.740;   86.325;  417.000;  241.000
303.878;   -5.200; -800.000; -759.000
304.016;  -87.200; -915.000; -790.000
304.154; -135.950;-1123.000;-1152.000
304.291;  -59.200; -505.000; -554.000
304.429;    0.500;  102.000;   74.000
304.567; -123.025; -908.000; -893.000
304.705;  -74.250; -408.000; -515.000
304.842;   63.300; -616.000; -540.000
304.980;   50.800;  215.000;   35.000
305.118;   15.225; -367.000; -365.000
305.255;  -91.225; -945.000; -927.000
305.393;   43.725;  178.000;  239.000
305.531; -107.025;-1173.000; -956.000
305.668;  -61.775; -663.000; -582.000
305.806;   76.725; -358.000; -439.000
305.943;   84.325; -629.000; -637.000
306.081;   33.475; -378.000; -267.000
306.219; -116.025; -863.000; -748.000
306.356;   -7.025;  158.000;   27.000
306.494;  110.725;  981.000;  761.000
306.631;    7.325;  -11.000;  -55.000
306.769;   -3.875; -613.000; -485.000
306.906;  -27.450; -284.000; -258.000
307.044;  -68.000; -473.000; -488.000
307.181;  -77.800; -410.000; -332.000
307.319;    5.925;  112.000;   87.000
307.456; -175.575;-1191.000;-1153.000
307.594; -102.600; -980.000; -727.000
307.731;  -20.825; -371.000; -164.000
307.868;  -13.475;  -15.000;   20.000
308.006; -146.000; -961.000; -847.000
308.143;  -83.400; -618.000; -330.000
308.281;  127.400;  -37.000; -254.000
308.418;  -36.000; -748.000; -640.000
308.555;  -78.875; -400.000; -250.000
308.693;  -76.275; -577.000; -573.000
308.830; -113.075; -712.000; -657.000
308.967;  -30.775; -215.000;  -95.000
309.105;  -57.775; -507.000; -396.000
309.242;   14.725; -468.000; -367.000
309.379;  239.725; -577.000; -655.000
309.517;  -73.075; -936.000; -948.000
309.654; -116.775; -910.000; -734.000
309.791;  -78.825; -662.000; -580.000
309.928; -131.900; -977.000; -914.000
310.065;  147.550;  819.000;  697.000
310.203;  -31.100; -825.000; -850.000
310.340;  -17.300; -465.000; -321.000
310.477;  -87.450; -412.000; -516.000
310.614;  -71.775; -383.000; -473.000
310.751;  -82.375; -427.000; -518.000
310.889;  -28.875;    1.000;   11.000
311.026; -159.175;-1161.000; -939.000
311.163;  -68.000; -386.000; -380.000
311.300;  -89.050; -512.000; -479.000
311.437;  -71.775; -658.000; -619.000
311.574; -162.050;-1226.000; -985.000
311.711;  -55.000; -595.000; -433.000
311.848;  -47.100; -380.000; -388.000
311.985;    7.625;  270.000;   93.000
312.122; -134.525; -932.000; -762.000
312.259; -129.075; -941.000; -994.000
312.396; -100.625; -508.000; -551.000
312.533;  -95.725; -812.000; -790.000
312.670; -138.125;-1070.000; -898.000
312.807;  -49.325; -352.000; -367.000
312.944;  -93.900; -513.000; -611.000
313.081;  -32.300; -150.000; -415.000
313.218; -109.150;-1111.000; -867.000
313.355;   -0.675; -531.000; -449.000
313.492;   -3.675; -455.000; -292.000
313.629;  118.650;  815.000;  735.000
313.766; -171.350;-1176.000;-1008.000
313.902;  -33.800; -186.000;   21.000
314.039;  -58.375; -372.000; -289.000
314.176;    8.250;  286.000;  192.000
314.313;  -84.050; -569.000; -473.000
314.450;  -80.975; -788.000; -684.000
314.587;  -64.425; -468.000; -480.000
314.723;   -1.625;  -78.000;  130.000
314.860;   19.350;  318.000;  332.000
314.997;   26.050;  223.000;  142.000
315.134;  -61.950; -385.000; -368.000
315.270;  -40.800; -480.000; -496.000
315.407; -137.525;-1094.000; -967.000
315.544;  -46.775; -657.000; -538.000
315.681;  -64.275; -681.000; -565.000
315.817;    6.525; -133.000; -176.000
315.954;   -6.250; -613.000; -392.000
316.091; -139.150;-1045.000;-1023.000
316.227;  -33.850;  -71.000; -179.000
316.364;    6.050;   23.000;    6.000
316.500;  -49.200; -113.000; -300.000
316.637;  -53.125; -181.000; -302.000
316.774; -103.600; -625.000; -358.000
316.910;  -90.850; -598.000; -629.000
317.047;  -77.100; -487.000; -351.000
317.183;  -52.625; -435.000; -566.000
317.320;  -21.075; -367.000; -321.000
317.456;  -80.375; -733.000; -805.000
317.593;  -91.650; -598.000; -641.000
317.729;    3.200;  168.000;  -67.000
317.866; -201.450;-1434.000;-1285.000
318.002; -102.000; -708.000; -948.000
318.139; -100.950; -883.000; -867.000
318.275; -113.125;-1003.000; -738.000
318.412;  -74.250; -517.000; -336.000
318.548;  -54.100; -751.000; -720.000
318.685; -104.550; -985.000; -888.000
318.821;  -86.675; -762.000; -735.000
318.957;  -18.950;   34.000;  -23.000
319.094;   32.750;  297.000;  154.000
319.230;  -89.600; -756.000; -742.000
319.367;   85.675; -471.000; -520.000
319.503;   33.875; -538.000; -436.000
319.639; -100.700; -877.000; -793.000
319.775;  -74.375; -750.000; -685.000
319.912;  -63.025; -424.000; -519.000
320.048; -103.900;-1184.000;-1184.000
320.184;   66.450;   59.000;   70.000
320.321;  -61.900; -497.000; -467.000
320.457;   69.200;  475.000;  662.000
320.593;  -69.400; -375.000; -382.000
320.729; -102.200; -732.000; -734.000
320.866;  -72.600; -577.000; -635.000
321.002;  -89.325; -759.000; -809.000
321.138;  -16.325; -135.000; -211.000
321.274;   52.400; -148.000; -115.000
321.410;  -33.325; -585.000; -353.000
321.546;  -48.575;-1011.000; -911.000
321.683;   44.650;  400.000;  185.000
321.819;   -6.750;  -48.000; -117.000
321.955; -122.875; -743.000; -722.000
322.091;  -54.925; -585.000; -540.000
322.227;  -35.650; -382.000; -202.000
322.363;  -22.000; -320.000; -215.000
322.499;  -59.500; -343.000; -331.000
322.635;  152.075;  636.000;  443.000
322.771;   12.675; -139.000;   12.000
322.907;   76.625;  129.000;  327.000
323.043;  -28.525; -115.000; -206.000
323.179;  -40.850; -394.000; -363.000
323.315;  -11.150; -401.000; -371.000
323.451;   67.525; -328.000; -236.000
323.587;   47.025;  -60.000;  -77.000
323.723;   -7.825; -682.000; -601.000
323.859;  -18.475; -258.000;  -76.000
323.995;  -34.650; -467.000; -409.000
324.131; -127.450; -967.000; -892.000
324.267;  -35.025; -254.000; -276.000
324.402; -129.975; -960.000; -983.000
324.538;  -23.675; -279.000; -104.000
324.674;   21.075;  164.000;   77.000
324.810;   94.950;  226.000;  308.000
324.946;  -16.825; -810.000; -658.000
325.082;  -81.700; -568.000; -475.000
325.217;  -21.325;  -62.000;   16.000
325.353; -103.450; -764.000; -659.000
325.489;  -92.850; -540.000; -506.000
325.625;  -75.950; -579.000; -525.000
325.760;   59.950;  517.000;  376.000
325.896;  -12.900; -515.000; -702.000
326.032;  -67.975; -403.000; -352.000
326.168;  -71.900; -462.000; -369.000
326.303;  -66.300; -352.000; -461.000
326.439;  -32.925; -336.000; -276.000
326.575;   -6.850; -190.000;  -29.000
326.710;  -11.000; -156.000;  -30.000
326.846;  -16.075;  146.000;  103.000
326.982;  -99.850; -530.000; -548.000
327.117;  -85.800; -481.000; -442.000
327.253;  -81.375; -745.000; -742.000
327.388; -134.800;-1137.000;-1153.000
327.524;  -81.400; -811.000; -578.000
327.659;  -28.625;  -58.000;  -22.000
327.795;  -19.650;   69.000;   45.000
327.931;  -90.175; -723.000; -499.000
328.066;  -27.650; -417.000; -276.000
328.202;  -40.350;   12.000; -129.000
328.337;   95.100;  957.000;  713.000
328.473;   34.525;  -12.000;  -74.000
328.608;  -36.250; -256.000; -267.000
328.743;  -99.075; -799.000; -664.000
328.879;    6.575;  214.000;  114.000
329.014;  -56.900; -102.000; -122.000
329.150;  -85.175; -358.000; -483.000
329.285;  -89.325; -465.000; -466.000
329.421;  -57.625; -548.000; -246.000
329.556;  -33.625;  -36.000;   85.000
329.691; -105.075; -633.000; -615.000
329.827;  -94.775; -626.000; -480.000
329.962;  -49.625;  131.000; -301.000
330.097; -108.075; -673.000; -585.000
330.233;  -63.175; -410.000; -223.000
330.368; -141.675; -839.000; -628.000
330.503;  -26.375;    3.000;   98.000
330.638;    4.625;  -93.000; -125.000
330.774;  -75.075; -609.000; -530.000
330.909;  -41.350; -434.000; -244.000
331.044; -103.100; -714.000; -708.000
331.179; -187.425;-1217.000;-1109.000
331.315;   -8.500;   77.000;   20.000
331.450;    2.350;  157.000;  285.000
331.585;  -89.975; -805.000; -706.000
331.720;  -93.250; -510.000; -460.000
331.855;  -12.525;  -35.000; -102.000
331.990;  246.675;   62.000;  138.000
332.126;  132.225; -110.000;   71.000
332.261;  -28.275; -379.000; -265.000
332.396;   -9.200; -135.000; -242.000
332.531;  -97.475;-1074.000;-1031.000
332.666;   23.675; -519.000; -363.000
332.801;  -96.925; -726.000; -807.000
332.936;  -36.325; -192.000; -122.000
333.071; -151.325; -870.000; -817.000
333.206;   11.925;  307.000;  379.000
333.341;   20.575;  344.000;  418.000
333.476; -102.325; -627.000; -623.000
333.611;  -43.725; -251.000; -173.000
333.746;  -50.525; -381.000; -464.000
333.881; -124.850; -973.000; -935.000
334.016; -148.200; -936.000; -917.000
334.151; -123.275; -746.000; -702.000
334.286;   22.675;  152.000;  186.000
334.421;  -23.425; -125.000; -178.000
334.556;  -89.275; -611.000; -567.000
334.690;  -93.325; -631.000; -577.000
334.825;   50.250;  381.000;   83.000
334.960;  -89.125; -285.000; -413.000
335.095;   -1.050;  135.000;  -91.000
335.230; -103.925; -722.000; -738.000
335.365; -142.600;-1084.000; -990.000
335.499; -147.325;-1108.000;-1037.000
335.634;    6.275;    9.000;  534.000
335.769; -103.150; -755.000; -720.000
335.904;  -57.325; -603.000; -561.000
336.038;  -75.975; -735.000; -657.000
336.173; -127.675;-1206.000;-1194.000
336.308;    1.675; -116.000; -189.000
336.443;   12.825; -544.000; -634.000
336.577;  -84.675; -936.000; -787.000
336.712;   51.125;   -4.000;  -12.000
336.847;  -56.250; -724.000; -607.000
336.981;   49.300; -272.000; -208.000
337.116;  247.825;  615.000;  501.000
337.250;  123.850; -434.000; -421.000
337.385;  271.050; -297.000; -208.000
337.520;   90.525; -632.000; -603.000
337.654;  -52.075; -215.000; -126.000
337.789; -141.450; -989.000; -933.000
337.923;  -52.075; -104.000; -205.000
338.058;  -98.700; -673.000; -738.000
338.192;  -49.300; -611.000; -488.000
338.327;  -14.400;  -18.000; -155.000
338.461;  -76.700; -299.000; -469.000
338.596;  -90.625; -780.000; -638.000
338.730; -100.075; -767.000; -803.000
338.865;   95.425;  -46.000; -140.000
338.999;  -55.625; -846.000; -702.000
339.134;  -37.750; -634.000; -536.000
339.268;   -2.075; -741.000; -603.000
339.403;  366.775; -740.000; -775.000
339.537;  119.475; -894.000; -820.000
339.671; -124.025; -829.000; -813.000
339.806;  -66.950; -556.000; -512.000
339.940;   13.150; -261.000; -235.000
340.074; -107.175; -685.000; -510.000
340.209;  -48.825; -351.000; -230.000
340.343;  -93.375; -517.000; -573.000
340.477;  132.075;  998.000; 1036.000
340.612;  -50.650;-1033.000; -900.000
340.746;  132.875; -199.000; -243.000
340.880;  -82.775; -924.000; -785.000
341.014;  -29.800;  -45.000; -154.000
341.149; -120.825; -756.000; -718.000
341.283; -119.600; -839.000; -754.000
341.417; -109.775;-1124.000; -938.000
341.551;   85.550; -768.000; -708.000
341.685;  -55.950; -633.000; -611.000
341.820;  -58.500; -562.000; -493.000
341.954;  -63.325; -218.000; -349.000
342.088; -158.050;-1102.000;-1019.000
342.222;   36.725;  565.000;  618.000
342.356;  -65.625; -395.000; -335.000
342.490; -121.150; -880.000; -841.000
342.624;  -49.125; -339.000; -242.000
342.758;  -17.050; -364.000; -312.000
342.892;  -72.100; -710.000; -585.000
343.026;  -65.275;  -58.000; -116.000
343.160;  -61.350; -426.000; -376.000
343.294;  -93.900; -474.000; -337.000
343.428;  -40.275; -488.000; -448.000
343.562;  -24.850; -172.000;  -23.000
343.696;  -31.275; -385.000; -314.000
343.830;  -43.025; -362.000; -356.000
343.964;    5.575; -231.000; -168.000
344.098;  776.025;  199.000;   70.000
344.232;  650.000; -266.000; -127.000
344.366;   71.400; -567.000; -453.000
344.500;   28.050; -665.000; -744.000
344.634;    4.525; -324.000; -164.000
344.768;  -42.150; -531.000; -341.000
344.902;    8.750;  278.000;  256.000
345.035;  -77.325; -556.000; -496.000
345.169; -132.850; -933.000; -656.000
345.303;  -51.275; -308.000; -482.000
345.437;  -75.025; -826.000; -717.000
345.571;  -83.725; -675.000; -594.000
345.704;  -82.550; -309.000; -532.000
345.838;  -29.875; -331.000; -284.000
345.972;  -59.675; -543.000; -495.000
346.106;  157.475; -179.000; -190.000
346.239;  395.225; -312.000; -243.000
346.373;  -10.025; -343.000; -302.000
346.507; -163.125; -950.000; -962.000
346.640;   96.950;  -30.000;   13.000
346.774;  -57.925; -650.000; -797.000
346.908;  -22.100; -138.000;  -11.000
347.041; -108.025; -646.000; -593.000
347.175;   -4.150;  259.000;   27.000
347.309;  -82.600; -698.000; -628.000
347.442; -104.450; -883.000; -732.000
347.576;  233.000;  670.000;  668.000
347.709;  167.525; -123.000;  -52.000
347.843; -107.725; -933.000; -825.000
347.976;   20.425;  235.000;  294.000
348.110; -191.225;-1268.000;-1186.000
348.243; -113.350; -679.000; -772.000
348.377;    1.575;  -26.000;   60.000
348.510;   41.650;  403.000;  540.000
348.644;  -62.350;  -37.000; -159.000
348.777;   -4.275;  180.000;  191.000
348.911;  -57.375; -142.000; -112.000
349.044;  145.000;  471.000;  448.000
349.178;  104.925;-1069.000;-1006.000
349.311;   96.375;  141.000;  255.000
349.444;  -11.225; -927.000; -813.000
349.578;  -27.300; -347.000; -200.000
349.711; -114.175; -959.000; -862.000
349.845;  -21.200; -661.000; -591.000
349.978; -158.950;-1224.000;-1137.000
350.111;  -92.050; -546.000; -612.000
350.244;  -89.725; -596.000; -700.000
350.378;   -8.450; -392.000; -393.000
350.511;  -72.425; -393.000; -426.000
350.644; -106.250; -808.000; -806.000
350.778;    0.850;  168.000;  104.000
350.911;  -17.050;  134.000;  140.000
351.044;  -98.225; -685.000; -615.000
351.177;  -39.600; -321.000; -281.000
351.310;  -38.625;    3.000; -131.000
351.444; -100.600; -888.000; -788.000
351.577;   97.575;  140.000;   90.000
351.710;   85.925;  593.000;  417.000
351.843;  -53.550; -165.000;  -77.000
351.976;    5.625;  149.000;  -79.000
352.109;  -99.775; -621.000; -612.000
352.242;  -33.525; -464.000; -419.000
352.376;  -86.550; -580.000; -636.000
352.509;  117.550; -437.000; -356.000
352.642;  -31.725; -654.000; -604.000
352.775;   51.800; -141.000;  -98.000
352.908; -131.725; -933.000; -904.000
353.041; -117.700; -814.000; -824.000
353.174;  -80.450; -551.000; -424.000
353.307;  -82.725; -753.000; -764.000
353.440;   53.500;  541.000;  453.000
353.573; -113.850; -957.000;-1008.000
353.706;  -79.425; -384.000; -558.000
353.839;  -14.600; -264.000; -220.000
353.971; -106.100; -657.000; -512.000
354.104;  -92.875; -896.000; -835.000
354.237;  -59.250; -627.000; -662.000
354.370;  -89.800; -846.000; -879.000
354.503; -196.650;-1231.000;-1308.000
354.636;  -42.425; -529.000; -348.000
354.769; -130.925; -937.000; -860.000
354.902;  -32.125; -230.000; -139.000
355.034;  -33.725; -164.000; -220.000
355.167;  -40.800; -262.000; -162.000
355.300;  -97.600;-1061.000; -880.000
355.433;  987.500;  -71.000;  -14.000
355.565; 1551.825; -402.000; -384.000
355.698;  403.925; -356.000; -296.000
355.831;  -11.300; -882.000; -801.000
355.964;   55.750; -285.000; -170.000
356.096;  -99.475; -856.000; -843.000
356.229;   -5.475; -523.000; -530.000
356.362;  307.775; -373.000; -266.000
356.494;  626.525; -229.000; -162.000
356.627;  409.525;  269.000;  377.000
356.760;  656.575;  120.000;   53.000
356.892;  981.075; -286.000; -601.000
357.025;  566.175;  403.000;  389.000
357.157;  483.275; -167.000; -179.000
357.290;  739.875; -856.000; -713.000
357.423;  201.400; -667.000; -556.000
357.555;   78.000; -217.000; -228.000
357.688;  101.850; -483.000; -364.000
357.820;  409.650; -870.000; -877.000
357.953; 3348.325; -563.000; -589.000
358.085;  704.900; -632.000; -612.000
358.218;  867.650;-1131.000; -932.000
358.350;  158.550;  -58.000;  312.000
358.483; -128.200;-1300.000;-1187.000
358.615;  -51.400;-1182.000;-1078.000
358.747;  -90.175;-1187.000;-1058.000
358.880;  -16.400; -810.000; -744.000
359.012;  -27.225; -376.000; -202.000
359.145;  -52.600; -480.000; -511.000
359.277;   26.600; -962.000; -913.000
359.409; 2750.625;  536.000;  231.000
359.542;  704.275; -738.000; -688.000
359.674;   57.325;   46.000;   13.000
359.806;  -72.925; -565.000; -438.000
359.939;  -46.875; -617.000; -516.000
360.071;  -33.125; -583.000; -579.000
360.203;  -25.175; -411.000; -364.000
360.335;   30.050;  164.000;  -16.000
360.468;  173.300; -249.000; -307.000
360.600; 2265.650; -547.000; -454.000
360.732; 2979.525; -546.000; -423.000
360.864;  399.150;-1216.000;-1044.000
360.996;  214.075; -516.000; -554.000
361.129;   -3.075; -389.000; -598.000
361.261;    7.900;  110.000; -113.000
361.393;  -59.675; -252.000; -214.000
361.525;    7.925;   94.000;  244.000
361.657;  -66.600; -821.000; -703.000
361.789;   -6.075; -139.000; -155.000
361.921;  151.950; -642.000; -593.000
362.053;  226.400;  524.000;  541.000
362.185;   36.375;  288.000;   72.000
362.318;  -86.075; -709.000; -705.000
362.450;   81.100;  294.000;  444.000
362.582;   44.900; -913.000; -870.000
362.714;  -54.675; -353.000; -332.000
362.846;  -94.925; -606.000; -490.000
362.978; -147.825; -941.000; -811.000
363.109;   14.275; -161.000; -260.000
363.241;  338.450; -739.000; -749.000
363.373;  428.900; -649.000; -564.000
363.505;  689.850; -186.000;  -91.000
363.637;  159.200; -787.000; -601.000
363.769; -141.325;-1067.000;-1080.000
363.901;  -83.350; -596.000; -654.000
364.033; -132.625;-1103.000;-1062.000
364.165;  -10.925; -283.000; -283.000
364.296;   59.425; -316.000; -177.000
364.428;   76.025;-1344.000;-1220.000
364.560;  -78.025; -679.000; -661.000
364.692;  -75.775; -738.000; -835.000
364.824;  180.600; -588.000; -456.000
364.955;  408.925; -402.000; -564.000
365.087; 1007.175;-1097.000; -852.000
365.219;   18.950; -686.000; -816.000
365.351;  -83.375; -526.000; -572.000
365.482;   38.400;  300.000;  240.000
365.614;  -59.725; -402.000; -314.000
365.746; -100.800; -729.000; -752.000
365.877; -102.950; -706.000; -672.000
366.009;  271.025;  -35.000;  -62.000
366.141;  -85.300;-1249.000;-1134.000
366.272; -114.800; -803.000; -719.000
366.404; -135.750;-1005.000; -874.000
366.535;  -26.675; -139.000;  -12.000
366.667; -113.000; -644.000; -649.000
366.799;   28.075;  353.000;  203.000
366.930; -131.400; -862.000; -996.000
367.062;  123.875; -639.000; -613.000
367.193;  164.000; -872.000; -842.000
367.325;  -72.275; -580.000; -684.000
367.456;   12.575; -246.000;   31.000
367.588;  152.325; -371.000; -318.000
367.719;    6.050;  -44.000;  -45.000
367.851;  -22.075; -222.000; -241.000
367.982;  -66.575; -875.000; -732.000
368.113;   63.775; -475.000; -358.000
368.245; -130.375; -960.000; -841.000
368.376;  -44.900; -254.000; -302.000
368.508;  -47.450; -188.000; -263.000
368.639; -144.150;-1166.000;-1034.000
368.770;  -40.275; -670.000; -589.000
368.902;  -86.125; -836.000; -926.000
369.033; -134.725; -906.000; -855.000
369.164;  -44.775; -720.000; -653.000
369.296; -117.650; -452.000; -601.000
369.427;   -7.050; -209.000; -144.000
369.558;  -66.075; -593.000; -377.000
369.689; -116.200; -721.000; -569.000
369.821; -133.350; -951.000; -845.000
369.952;  -31.250;   42.000; -108.000
370.083;  -56.700; -229.000; -108.000
370.214;  -94.150; -735.000; -650.000
370.345;  -16.225;   65.000;   81.000
370.477;  -93.850; -810.000; -790.000
370.608;  184.850; -328.000; -264.000
370.739;  -73.625;-1233.000;-1292.000
370.870;  -71.625;-1102.000; -923.000
371.001;   39.900; -378.000; -467.000
371.132;  -99.375; -754.000; -735.000
371.263;  -35.950;  -42.000; -148.000
371.394; -141.600; -841.000; -748.000
371.525;   30.350;  345.000;  225.000
371.657;  -92.050; -808.000; -670.000
371.788;   50.050;  103.000;  199.000
371.919;  141.750; -384.000; -304.000
372.050; 3139.675;  -91.000; -156.000
372.181;  936.150; -188.000; -294.000
372.311;  303.250;   42.000; -127.000
372.442;    7.075; -457.000; -451.000
372.573;  -25.175; -444.000; -340.000
372.704; -131.975;-1008.000; -980.000
372.835;   58.400; -228.000; -289.000
372.966;  -78.725; -646.000; -554.000
373.097;  -80.075; -575.000; -711.000
373.228;  -57.000; -717.000; -542.000
373.359;   82.725; -824.000; -536.000
373.490;  764.375; -881.000; -727.000
373.620;  984.175;-1001.000; -803.000
373.751; 1480.750; -332.000; -396.000
373.882;  665.575; -663.000; -733.000
374.013;   17.925; -449.000; -262.000
374.143;  -59.200; -581.000; -659.000
374.274; -120.275; -987.000; -908.000
374.405;  129.300; -388.000; -276.000
374.536;  352.925; -526.000; -387.000
374.666;  912.475; -759.000; -807.000
374.797;  163.675; -817.000; -868.000
374.928;  675.500; -710.000; -560.000
375.058;  723.525; -535.000; -500.000
375.189;   46.175;  -59.000;  -93.000
375.320; -109.075; -928.000;-1034.000
375.450;  -60.550; -625.000; -616.000
375.581;  -67.950; -526.000; -436.000
375.712;  -53.850; -574.000; -250.000
375.842;  225.575; -438.000; -415.000
375.973;  157.725; -554.000; -513.000
376.103;  -68.775; -665.000; -648.000
376.234;  -89.075; -531.000; -552.000
376.364;  -70.775; -944.000; -867.000
376.495;  275.400;  925.000;  529.000
376.625;  -31.450; -472.000; -485.000
376.756;   24.625; -709.000; -678.000
376.886;  -98.175;-1178.000;-1026.000
377.017;   47.775;-1048.000;-1061.000
377.147;  368.125; -786.000; -782.000
377.278;   38.200;  174.000;  228.000
377.408; -139.450; -801.000; -815.000
377.538; -101.625; -707.000; -693.000
377.669;  -83.000; -537.000; -613.000
377.799;  -99.200; -645.000; -635.000
377.929;  -88.875; -610.000; -428.000
378.060; -127.075; -781.000; -847.000
378.190;  -78.250; -726.000; -531.000
378.320;  -48.800; -401.000; -406.000
378.451;  -13.650; -131.000;  -22.000
378.581;  -22.550;  -67.000; -110.000
378.711;  125.800; 1035.000;  866.000
378.841;  -38.600; -533.000; -675.000
378.972;  -84.300; -871.000; -751.000
379.102;  -32.825; -652.000; -579.000
379.232;  -25.875; -126.000;  -73.000
379.362; -117.550;-1001.000; -885.000
379.492;  -35.750; -373.000; -424.000
379.623;   73.525;    0.000;  111.000
379.753; -129.250;-1107.000; -974.000
379.883;  152.950;   59.000;  156.000
380.013;  -16.625;-1081.000;-1017.000
380.143; -116.400;-1097.000;-1056.000
380.273; -115.450; -985.000; -861.000
380.403;  -17.925; -344.000; -257.000
380.533;  -47.575; -651.000; -664.000
380.663;   46.825;  173.000;  128.000
380.793; -121.225;-1027.000;-1074.000
380.923;  -43.150; -103.000;  -34.000
381.053; -104.775; -613.000; -623.000
381.183;  -51.700; -106.000; -248.000
381.313;   -4.850; -656.000; -470.000
381.443;    5.325; -692.000; -473.000
381.573;  115.525; -402.000; -409.000
381.703;  189.275;-1249.000;-1095.000
381.833; -162.375;-1454.000;-1336.000
381.963;   84.900; -134.000;  -87.000
382.093; 1222.750; -925.000; -909.000
382.223;  369.525; -713.000; -602.000
382.353;  -40.150; -801.000; -608.000
382.482;  271.125;-1091.000; -964.000
382.612;  639.275; -872.000; -644.000
382.742;  348.775; -695.000; -622.000
382.872;  185.225; -565.000; -551.000
383.002;   50.775;  347.000; -132.000
383.131;  -33.225; -226.000; -160.000
383.261;  -61.975; -706.000; -768.000
383.391;  249.450; -552.000; -377.000
383.521; 3399.200;  451.000;  263.000
383.650;  836.225; -947.000; -904.000
383.780;  -10.750; -783.000; -656.000
383.910;   79.475;  880.000;  802.000
384.039;  -10.850; -794.000; -656.000
384.169;  137.825;-1205.000;-1017.000
384.299;  -48.125; -650.000; -662.000
384.428; -115.200; -764.000; -680.000
384.558;  -62.200; -308.000; -275.000
384.687;  -65.325; -414.000; -334.000
384.817;   -3.400;   75.000;   -2.000
384.947;   -7.450; -234.000; -141.000
385.076;  239.725;  982.000;  912.000
385.206;   73.675;  369.000;  480.000
385.335;  -51.750; -549.000; -417.000
385.465; -106.225; -655.000; -663.000
385.594;   84.750;  -53.000;  -44.000
385.724;  293.675; -868.000; -838.000
385.853;   72.075; -296.000; -270.000
385.982; 1106.775; -743.000; -787.000
386.112; 1826.225;-1052.000; -871.000
386.241;  106.500; -307.000; -312.000
386.371;   16.200; -174.000;  -87.000
386.500;  -29.225; -825.000; -789.000
386.629;    1.025; -874.000; -817.000
386.759;   42.050;  -43.000;   68.000
386.888;  -19.500; -170.000; -250.000
387.017;  -99.200; -648.000; -620.000
387.147; -113.575; -771.000; -798.000
387.276;  -28.425; -410.000; -397.000
387.405;   -6.100; -398.000; -342.000
387.535;  -70.825; -452.000; -361.000
387.664;  -64.475; -692.000; -620.000
387.793;   26.675; -198.000; -113.000
387.922;  415.275;  255.000;  200.000
388.052;  -19.100; -576.000; -423.000
388.181;  -21.775; -342.000; -472.000
388.310;  -52.475; -889.000; -710.000
388.439;  -73.100; -749.000; -742.000
388.568;  130.400;  365.000;  244.000
388.697;  853.875; -756.000; -653.000
388.826;  143.650; -768.000; -666.000
388.956;   29.725; -285.000; -307.000
389.085;  -47.800; -347.000; -287.000
389.214; -105.350; -842.000; -872.000
389.343;  -88.825; -645.000; -413.000
389.472;  400.900;  126.000;  149.000
389.601;  504.225;   91.000;    0.000
389.730;   -3.200; -568.000; -687.000
389.859;   41.200;  226.000;   46.000
389.988;  138.200; -423.000; -408.000
390.117;   97.950; -168.000; -146.000
390.246;  -41.525; -331.000; -320.000
390.375;   54.875; -673.000; -626.000
390.504;  -79.125; -703.000; -621.000
390.633; -121.950; -672.000; -726.000
390.761;  -73.925; -732.000; -645.000
390.890;   -7.150;   -4.000; -130.000
391.019;  -24.675; -421.000; -441.000
391.148; -148.575; -826.000; -855.000
391.277;  -92.975; -576.000; -493.000
391.406; -107.900; -821.000; -805.000
391.534;    9.825;  574.000; -301.000
391.663;  -84.525; -583.000; -645.000
391.792;  -85.950; -673.000; -701.000
391.921;   44.650;   -3.000;   15.000
392.050;  125.225; -287.000; -228.000
392.178;  -82.725;-1206.000;-1061.000
392.307;  109.175; -758.000; -712.000
392.436;   41.500; -427.000; -641.000
392.564;    5.050;  166.000;   -6.000
392.693; -110.225; -860.000; -682.000
392.822;  138.400; -529.000; -534.000
392.950;   60.275; -880.000; -714.000
393.079;  256.550; -188.000; -328.000
393.208;   -0.850; -488.000; -511.000
393.336;  -27.250; -170.000; -145.000
393.465;  -59.450; -317.000; -199.000
393.593;  -11.725;   62.000;   79.000
393.722; -155.950;-1121.000; -916.000
393.850;  -53.450; -188.000;  -61.000
393.979; -168.825; -926.000; -805.000
394.107;  -70.000; -517.000; -537.000
394.236;  -34.300; -570.000; -507.000
394.364;  178.075;  383.000;  206.000
394.493;  285.075; -911.000; -767.000
394.621;   -6.975; -955.000; -916.000
394.750;  719.350; -873.000; -923.000
394.878; 2986.125; -247.000; -149.000
395.007; 4171.450; -721.000; -807.000
395.135;  307.100; -790.000; -721.000
395.263; -100.050;-1038.000;-1040.000
395.392;  -10.150;  -25.000; -107.000
395.520; -156.175; -818.000; -679.000
395.648; -103.675; -865.000; -915.000
395.777;  -43.850; -366.000; -405.000
395.905;  -75.050; -449.000; -564.000
396.033;    0.725;  217.000;  172.000
396.162;  475.150; -399.000; -453.000
396.290;  408.025;  -17.000;   -2.000
396.418;   54.600; -555.000; -514.000
396.546;  -98.125; -571.000; -466.000
396.674; -105.525; -850.000; -878.000
396.803;   -6.125;  -72.000;  -23.000
396.931;   46.225; -179.000; -199.000
397.059;  -10.425;-1026.000; -989.000
397.187; -116.725;-1026.000; -975.000
397.315; -151.650; -884.000; -649.000
397.443; -106.250; -592.000; -443.000
397.572; -107.500; -578.000; -424.000
397.700;  -34.175; -607.000; -614.000
397.828;   -7.800;  120.000;  -90.000
397.956;  -64.775; -508.000; -478.000
398.084;  -81.400; -767.000; -626.000
398.212;   22.575;  137.000;  124.000
398.340;  -12.850;  -56.000;  159.000
398.468;   -7.800; -390.000; -169.000
398.596; -153.725; -993.000; -953.000
398.724; -135.350; -762.000; -767.000
398.852; -167.875;-1024.000; -976.000
398.980;  -78.875; -560.000; -560.000
399.108;  -79.150; -982.000; -735.000
399.236;   12.950;   13.000;    8.000
399.363;    7.350;  222.000;  196.000
399.491;  -76.425; -404.000; -398.000
399.619; -127.850; -829.000; -800.000
399.747; -122.125; -859.000; -771.000
399.875;   42.375;  220.000;  234.000
400.003;  -52.925; -359.000; -284.000
400.130;  -92.650; -421.000; -341.000
400.258;  -38.100;  -83.000;   38.000
400.386;  -75.850; -352.000; -168.000
400.514;  -64.250; -526.000; -587.000
400.641; -114.775; -928.000; -802.000
400.769; -134.950; -979.000; -888.000
400.897; -129.850; -838.000; -793.000
401.025;  -38.400; -166.000; -152.000
401.152;  -26.350;  220.000;   38.000
401.280; -100.775; -430.000; -429.000
401.408; -123.175; -712.000; -576.000
401.535; -113.475; -735.000; -758.000
401.663; -198.650;-1134.000;-1054.000
401.790;  -94.825; -514.000; -525.000
401.918;   38.425;  436.000;  405.000
402.046;  -32.250;  134.000;  122.000
402.173;  -52.750;  -18.000;    7.000
402.301;  -71.500; -519.000; -397.000
402.428;   23.325;  528.000;  383.000
402.556; -154.500;-1188.000; -913.000
402.683;  -46.925;  -20.000;   -1.000
402.811;  -43.150;  -37.000; -206.000
402.938;  -23.900;   20.000;   27.000
403.066;  137.550; -574.000; -558.000
403.193;  284.250;  299.000;  239.000
403.321;  210.725; -396.000; -574.000
403.448;  280.150;   83.000;   27.000
403.575;  116.925;  -90.000;  -46.000
403.703;  -98.775; -732.000; -557.000
403.830;  -78.700; -531.000; -496.000
403.957; -157.125;-1117.000;-1023.000
404.085;   -0.050;  -61.000; -172.000
404.212;   83.450;  -50.000;   63.000
404.339;  246.550; -566.000; -306.000
404.467; 5948.850; -612.000; -524.000
404.594; 3825.175; -287.000; -227.000
404.721;  812.925; -869.000; -764.000
404.848;   73.525; -113.000; -202.000
404.976; -125.450; -856.000; -783.000
405.103;  -19.200;  -14.000;  -82.000
405.230;  -18.750;  190.000;  226.000
405.357;   14.725;  117.000;   44.000
405.484;  261.850;  -49.000;    5.000
405.612;   44.000; -548.000; -563.000
405.739;  -82.875; -488.000; -243.000
405.866;   71.400;  669.000;  385.000
405.993;  -57.275; -398.000; -102.000
406.120; -152.850; -801.000; -887.000
406.247;  -60.225; -323.000; -342.000
406.374;  336.250;  540.000;  629.000
406.501;   47.825; -632.000; -702.000
406.628;  -95.025; -621.000; -589.000
406.755; -123.625; -803.000; -620.000
406.882;  -48.800; -228.000; -277.000
407.009; -117.125; -719.000; -628.000
407.136;   -0.800; -480.000; -401.000
407.263;   59.875; -939.000; -829.000
407.390;  -96.950; -692.000; -614.000
407.517; -182.350;-1139.000;-1187.000
407.644;  -60.950; -332.000; -256.000
407.771; -156.000; -249.000; -287.000
407.898;   -5.600;  168.000;  328.000
408.025;  -68.750; -421.000; -313.000
408.151;  -21.100;   82.000;  153.000
408.278;  -77.425; -267.000; -216.000
408.405; -132.475; -931.000; -899.000
408.532;  -88.075; -549.000; -542.000
408.659; -117.375; -677.000; -648.000
408.785; -207.350;-1298.000;-1170.000
408.912;  -69.300; -412.000; -296.000
409.039; -131.050; -610.000; -686.000
409.166; -107.750; -591.000; -555.000
409.292; -113.900; -571.000; -534.000
409.419; -133.375; -665.000; -649.000
409.546;  -99.700; -431.000; -192.000
409.672; -128.400; -713.000; -545.000
409.799;  -39.275;  -36.000;   34.000
409.926;  -47.400; -180.000; -179.000
410.052; -194.750;-1127.000;-1091.000
410.179;  -78.350; -368.000; -392.000
410.305; -109.875; -375.000; -493.000
410.432;  -49.400; -220.000; -333.000
410.558; -110.675; -305.000; -380.000
410.685; -109.675; -688.000; -431.000
410.812; -104.775; -409.000; -588.000
410.938; -138.625; -964.000; -808.000
411.065; -118.700; -671.000; -645.000
411.191;  -30.400; -189.000; -174.000
411.317; -129.400; -823.000; -742.000
411.444;  -82.625; -317.000; -246.000
411.570;  -79.200; -339.000; -294.000
411.697; -124.900; -758.000; -752.000
411.823; -185.850; -989.000; -999.000
411.949;  -47.525;  -56.000;   17.000
412.076; -121.875; -539.000; -519.000
412.202; -130.000; -758.000; -757.000
412.329; -139.575; -798.000; -752.000
412.455; -122.175; -821.000; -657.000
412.581;  -40.375;  -15.000;  172.000
412.707;  -68.425; -540.000; -457.000
412.834;    4.425;  156.000;  219.000
412.960; -104.050; -785.000; -784.000
413.086; -113.150; -743.000; -701.000
413.212;  113.925;  604.000;  578.000
413.339;  -86.100; -685.000; -701.000
413.465;  -20.925; -364.000; -310.000
413.591; -103.050; -757.000; -474.000
413.717;  -66.575; -358.000; -366.000
413.843; -152.200; -839.000; -861.000
413.969;  -54.400;  -47.000; -292.000
414.096;  -93.350; -679.000; -679.000
414.222;  -25.500;  -33.000;   85.000
414.348;  -70.675; -652.000; -385.000
414.474;   62.075;   38.000;  -52.000
414.600;  -36.450; -126.000; -144.000
414.726;  -12.950;  -96.000;  -55.000
414.852;  -72.800; -365.000; -342.000
414.978;   25.475;  104.000;  -18.000
415.104;   28.025;   38.000;   80.000
415.230;    8.975; -329.000; -330.000
415.356;   27.550; -409.000; -514.000
415.482;  173.275;   13.000;  -35.000
415.608;  272.975; -247.000; -323.000
415.734;  955.050;   67.000;   38.000
415.860;20039.500; -875.000; -767.000
415.986;15069.325; -685.000; -607.000
416.111; 1307.075; -798.000; -652.000
416.237;  268.200; -424.000; -571.000
416.363; 1145.350; -765.000; -733.000
416.489; 4410.000; -324.000; -251.000
416.615;  493.350; -707.000; -742.000
416.741;  -34.725; -677.000; -784.000
416.866; -103.550; -673.000; -736.000
416.992; -121.075; -801.000; -818.000
417.118;  -31.950;  -41.000;  -80.000
417.244;  -90.900; -798.000; -531.000
417.369;  -92.925; -801.000; -612.000
417.495;  -24.800; -325.000; -254.000
417.621;  -94.350;-1015.000; -803.000
417.746;   -3.600; -579.000; -572.000
417.872;   42.500; -254.000; -144.000
417.998;   49.950; -515.000; -530.000
418.123; 1048.450;-1073.000; -845.000
418.249; 5619.825; -512.000; -601.000
418.374;  794.425; -916.000; -824.000
418.500;  119.725; -383.000; -482.000
418.626;  111.550;   70.000;  -59.000
418.751;  109.925; -549.000; -448.000
418.877;  184.550; -637.000; -643.000
419.002; 1801.525; -688.000; -560.000
419.128;13091.800; -930.000; -721.000
419.253; 3348.350; -967.000; -837.000
419.379;  441.375; -391.000; -338.000
419.504;  404.400;  325.000;  415.000
419.629;  547.325; -393.000; -212.000
419.755; 3674.350; -317.000; -254.000
419.880;22409.300;  -98.000;   67.000
420.006;11877.575; -280.000; -221.000
420.131;30533.025; -662.000; -775.000
420.256; 4508.825; -315.000; -316.000
420.382;  573.975; -665.000; -687.000
420.507;   70.250; -649.000; -778.000
420.632;   80.025; -337.000; -339.000
420.758;  182.925; -251.000; -425.000
420.883;  -96.475; -876.000; -672.000
421.008; -122.650; -775.000; -619.000
421.133;  -93.300; -509.000; -467.000
421.259;  -50.450; -325.000; -259.000
421.384; -123.600; -834.000; -693.000
421.509;  -78.925;-1052.000; -862.000
421.634;  850.350; -936.000; -820.000
421.759;  384.500; -359.000; -327.000
421.885;  -82.800; -717.000; -656.000
422.010;  -86.775; -673.000; -542.000
422.135; -156.525; -695.000; -727.000
422.260;    9.975;  340.000;  280.000
422.385;  -48.850;   12.000;  -98.000
422.510;   -5.850;  151.000;  -26.000
422.635;   -7.875;  -87.000;  -43.000
422.760;   71.225; -766.000; -791.000
422.885;   36.200;  -57.000;  -80.000
423.010;  -35.550; -112.000; -169.000
423.135; -101.175; -481.000; -561.000
423.260;  -29.050; -150.000; -245.000
423.385;   52.775;  476.000;  222.000
423.510;   16.625;   71.000;  -22.000
423.635;   65.700;  133.000;   45.000
423.760;   42.250;  383.000;  328.000
423.885;   42.300;  336.000;  391.000
424.010;  -11.700;  -68.000;  -13.000
424.135;  -28.775;    5.000;  -33.000
424.259;  -86.250; -654.000; -457.000
424.384;  -64.225; -279.000; -272.000
424.509;  -37.425; -260.000; -186.000
424.634;  -98.400; -761.000; -623.000
424.759;  -43.000; -688.000; -544.000
424.883;  -25.100; -506.000; -527.000
425.008;  136.650; -502.000; -410.000
425.133; 2028.600; -679.000; -653.000
425.258;  964.750; -517.000; -381.000
425.382;  874.025; -867.000; -774.000
425.507; 2322.600; -487.000; -543.000
425.632;  415.775; -802.000; -663.000
425.756;  463.250; -256.000; -146.000
425.881; 6803.475; -831.000; -857.000
426.006;19303.575; -604.000; -355.000
426.130; 3036.500; -696.000; -508.000
426.255;  390.475; -611.000; -491.000
426.379;  159.775; -189.000; -577.000
426.504;  368.100;  660.000;  544.000
426.629; 4038.500; -519.000; -466.000
426.753; 2931.475;   64.000;  -46.000
426.878;  315.200; -252.000; -288.000
427.002;  133.675; -651.000; -668.000
427.127; 1566.250;  -35.000; -158.000
427.251;11841.975;  372.000;  401.000
427.375; 3456.675; -191.000; -173.000
427.500; 2033.650; -616.000; -610.000
427.624;  707.550; -234.000; -400.000
427.749;   80.325; -216.000; -225.000
427.873;  -54.375; -499.000; -412.000
427.997;  -46.825; -222.000; -230.000
428.122;   54.100;  795.000;  703.000
428.246;   45.975;  433.000;  434.000
428.371; -146.750; -869.000; -773.000
428.495; -110.700; -624.000; -646.000
428.619;  -52.550; -186.000; -117.000
428.743;    5.475;   65.000;  132.000
428.868;  -18.825; -732.000; -643.000
428.992; 1189.875; -219.000; -326.000
429.116;  483.975; -329.000; -357.000
429.240;  233.875;  419.000;  426.000
429.365;  -37.450; -454.000; -574.000
429.489;  -65.425; -638.000; -647.000
429.613;   -4.975; -236.000; -177.000
429.737;   30.350; -563.000; -432.000
429.861;  268.450; -247.000; -133.000
429.985; 5612.500; -425.000; -305.000
430.109; 6440.225; -770.000; -908.000
430.234;  759.025;   76.000;  -50.000
430.358;   55.150; -250.000; -160.000
430.482;  -78.575; -672.000; -564.000
430.606;  -88.200; -655.000; -375.000
430.730;  -20.300; -437.000; -388.000
430.854;   39.100; -909.000; -835.000
430.978;  -88.325; -795.000; -764.000
431.102; -103.100; -499.000; -422.000
431.226; -143.675; -874.000; -815.000
431.350;   -4.550;  345.000;  422.000
431.474;  -76.200; -661.000; -373.000
431.597; -167.250;-1060.000; -848.000
431.721;  -96.850; -276.000; -267.000
431.845; -138.425; -704.000; -472.000
431.969;  -91.125; -304.000; -349.000
432.093; -107.850; -395.000; -317.000
432.217;  -25.375;   32.000;   82.000
432.341;  -99.975; -523.000; -518.000
432.464;   -4.875;   96.000;   40.000
432.588;  120.600; -401.000; -329.000
432.712;   78.600;  -52.000;  -52.000
432.836;   42.800;  213.000;  263.000
432.959;  -22.750; -372.000; -311.000
433.083;   84.125;   11.000;    2.000
433.207;  366.725;  285.000;  930.000
433.330; 5191.450; -391.000; -200.000
433.454; 6617.625; -654.000; -638.000
433.578; 3790.500;  583.000;  278.000
433.701;  695.800; -623.000; -675.000
433.825;  121.975; -292.000; -299.000
433.949;  107.100;   28.000;  -72.000
434.072;   10.100; -410.000; -323.000
434.196;  -35.225; -309.000; -117.000
434.319; 3654.000;25482.000;25124.000
434.443;  685.675; -656.000; -603.000
434.566; 2726.850;  281.000;   62.000
434.690;  479.250; -637.000; -383.000
434.813;   46.225; -251.000; -173.000
434.937;  -77.875; -569.000; -696.000
435.060;  -80.425; -423.000; -332.000
435.184;  187.350; -492.000; -217.000
435.307;  100.900;  159.000;  102.000
435.431;  -34.600;  -40.000;   24.000
435.554;  -83.000; -399.000; -240.000
435.677; -100.075; -350.000; -258.000
435.801;  -52.750;  -25.000;   49.000
435.924;  -45.950;    1.000;  -67.000
436.048; -138.975;-1019.000; -732.000
436.171;  -79.525; -240.000;  -66.000
436.294;  -58.500; -248.000; -229.000
436.417;   95.625; -963.000; -849.000
436.541;  -85.125; -814.000; -840.000
436.664;  -74.325; -242.000; -316.000
436.787;  -57.875;   13.000;  113.000
436.910; -129.475; -792.000; -422.000
437.034;  -13.375;  142.000;  143.000
437.157;   30.750;  -11.000;    0.000
437.280;  -71.200; -392.000; -292.000
437.403; -108.675; -982.000; -869.000
437.526;  408.975; -903.000; -865.000
437.649; 1694.900; -505.000; -332.000
437.772;  214.950; -692.000; -540.000
437.896;  110.800;  700.000;  544.000
438.019; -110.100; -758.000; -503.000
438.142;  -97.350; -596.000; -506.000
438.265;  -65.125; -639.000; -670.000
438.388;  397.000; -520.000; -410.000
438.511;   47.125; -597.000; -394.000
438.634;  -45.975; -247.000; -125.000
438.757; -145.225; -693.000; -619.000
438.880;  -49.650;  -34.000;  -57.000
439.003; -105.175; -417.000; -437.000
439.126;  -76.025; -287.000; -167.000
439.248;  -68.825;  -98.000; -139.000
439.371;  -37.450;    9.000;  -53.000
439.494;   10.075;  510.000;  439.000
439.617;  -61.075;   65.000;  -88.000
439.740; -183.475; -968.000; -816.000
439.863; -157.100; -755.000; -595.000
439.986; -124.000; -476.000; -431.000
440.108;  -75.775; -161.000; -112.000
440.231; -185.600; -950.000; -836.000
440.354;  -64.225;  -64.000; -150.000
440.477;  -20.800; -566.000; -542.000
440.599;  -18.900; -200.000; -225.000
440.722; -138.875; -709.000; -586.000
440.845;   53.825;  751.000;  928.000
440.968; -121.900; -415.000; -311.000
441.090;  -70.875; -199.000;  -33.000
441.213; -174.250;-1021.000; -825.000
441.336;  -60.375; -159.000;   -5.000
441.458; -103.900; -549.000; -396.000
441.581; -112.900; -628.000; -629.000
441.703;  -62.925; -152.000;   13.000
441.826; -110.425; -557.000; -400.000
441.948;  -66.800;   56.000;   51.000
442.071;   17.500;  555.000;  424.000
442.193; -119.925; -531.000; -485.000
442.316;   -5.425;  152.000;   97.000
442.438;   24.750; -233.000;  -10.000
442.561;   57.200;  272.000;  262.000
442.683;  342.050; -809.000; -522.000
442.806;  882.775;   -8.000;   74.000
442.928;  -18.675; -859.000; -604.000
443.051;  -80.200; -577.000; -373.000
443.173; -107.600; -341.000; -339.000
443.295;  -90.225; -263.000; -371.000
443.418;  -75.875; -321.000;  -29.000
443.540;  -22.600; -106.000;   -4.000
443.662; -129.525; -563.000; -465.000
443.785;  -18.125;  335.000;  199.000
443.907; -103.550; -362.000; -208.000
444.029; -149.800; -767.000; -494.000
444.152; -168.700; -644.000; -554.000
444.274;  -47.875;  -18.000;  -24.000
444.396; -127.275; -461.000; -221.000
444.518; -151.250; -691.000; -454.000
444.640; -110.425; -268.000; -111.000
444.763;  -36.750;  388.000;  249.000
444.885; -133.225; -432.000; -392.000
445.007;  -39.350;   35.000;   86.000
445.129; -123.025; -610.000; -515.000
445.251; -113.900; -372.000; -439.000
445.373; -147.950; -537.000; -386.000
445.495;  -20.150;  242.000;  350.000
445.617;   42.750;  853.000;  753.000
445.739;  -74.075; -215.000;  -97.000
445.861;  -63.000; -245.000; -112.000
445.984;  -45.575; -267.000; -101.000
446.105;  115.200; -418.000; -251.000
446.227;  460.625; -176.000;  -19.000
446.349;  -22.975; -358.000; -249.000
446.471; -109.225; -615.000; -448.000
446.593;  -90.925; -316.000;   19.000
446.715;  -16.400;  -67.000;   41.000
446.837;   31.750;  697.000;  832.000
446.959; -111.800; -457.000; -478.000
447.081; -152.850; -628.000; -518.000
447.203;   41.925;  862.000;  834.000
447.325;  -95.975; -270.000;   42.000
447.446;  -25.300;  286.000;  530.000
447.568; -161.450; -921.000; -803.000
447.690;  -81.000; -236.000; -245.000
447.812; -158.800; -798.000; -519.000
447.933;  -37.450;  155.000;  127.000
448.055;  -79.425; -306.000; -261.000
448.177;   96.550;   31.000;   79.000
448.299;   19.525; -935.000; -727.000
448.420;   -0.750;  -25.000;  159.000
448.542;  -53.475;   -3.000;   33.000
448.664;  -30.600;  109.000;  322.000
448.785;  -45.600;  265.000;   83.000
448.907;  -97.400; -614.000; -353.000
449.028;  -62.975; -771.000; -471.000
449.150;   40.450;  492.000;  589.000
449.272; -188.225;-1044.000; -913.000
449.393;   23.250;  612.000;  694.000
449.515; -162.000; -634.000; -581.000
449.636;  -81.300; -264.000; -155.000
449.758;   68.025;  763.000;  622.000
449.879;  -92.750; -498.000; -396.000
450.001;  -86.900; -149.000;  -49.000
450.122;  -50.475;  -95.000;  162.000
450.244;  -27.800;   37.000;  364.000
450.365;  -91.400; -495.000; -301.000
450.486;  -39.675;   80.000;  268.000
450.608;   20.575;  393.000;  326.000
450.729;   69.050;  578.000;  645.000
450.850;    8.225; -574.000; -466.000
450.972;  770.550; -552.000; -389.000
451.093; 5155.850;  190.000;  588.000
451.214; 2404.200; -516.000; -337.000
451.336;  425.300;  773.000;  579.000
451.457;   68.675;  264.000;  393.000
451.578;  -34.850; -118.000;  -74.000
451.699; -124.050; -546.000; -540.000
451.821;  -70.475; -284.000;  -50.000
451.942;  -14.000;  278.000;  285.000
452.063;   21.300;  228.000;  419.000
452.184;  554.525;  -54.000;  -49.000
452.305; 1139.550;  103.000;  170.000
452.427;  150.900; -549.000; -301.000
452.548;  -17.775;   23.000;   79.000
452.669;  -60.625; -257.000;  -89.000
452.790;  -57.675;    3.000;  -18.000
452.911;  -25.225;  195.000;  259.000
453.032;  -73.425; -289.000;  -60.000
453.153;  -69.825;  -29.000;   81.000
453.274;   61.100;  737.000;  868.000
453.395;  -60.975;  -51.000;  175.000
453.516;  115.725; 1317.000; 1388.000
453.637;  -65.200; -205.000; -150.000
453.758;  -55.825;   15.000;   69.000
453.879; -132.750; -462.000; -250.000
454.000;   77.375; 1086.000;  948.000
454.121; -116.150; -554.000; -326.000
454.242; -128.075; -599.000; -383.000
454.362;  -64.325;  -99.000;  114.000
454.483;  -50.625; -309.000; -229.000
454.604;   36.175;  512.000;  580.000
454.725; -135.725; -627.000; -555.000
454.846; -124.625; -474.000; -406.000
454.967;  -35.075;  230.000;  539.000
455.087;  -58.975;  179.000;  153.000
455.208;    6.425;  554.000;  856.000
455.329;  -82.550;  -22.000;   82.000
455.450;   35.350;  473.000;  633.000
455.570;  -85.875; -234.000; -211.000
455.691;  -42.075;  201.000;  407.000
455.812; -115.675; -270.000;  -92.000
455.932;  -61.150;  107.000;  -97.000
456.053;  -88.975;   36.000;   24.000
456.173; -124.625; -433.000; -355.000
456.294; -146.575; -476.000; -303.000
456.415;  -65.175;  -73.000;   70.000
456.535;  -53.100;  297.000;  273.000
456.656;  -41.450;  132.000;  240.000
456.776;  -77.850;    3.000;  298.000
456.897;  -22.800;  308.000;  513.000
457.017;  -82.775; -153.000;   -3.000
457.138; -118.850; -402.000; -249.000
457.258;  -24.975;  263.000;  224.000
457.379;  -18.975;  509.000;  521.000
457.499;  -41.775;  443.000;  432.000
457.620; -127.875; -407.000; -231.000
457.740; -105.725; -132.000;  -11.000
457.860;  -68.275;   87.000;   44.000
457.981;  -46.150;  132.000;  124.000
458.101;  -71.700;  -89.000;   40.000
458.221;  -21.275;  336.000;  402.000
458.342;  -69.900;   -4.000;  -37.000
458.462;   38.400;  617.000;  352.000
458.582;  -26.550; -302.000; -294.000
458.703;    1.875;  303.000;  154.000
458.823;  -26.675;   22.000;  163.000
458.943;    6.300;  341.000;  467.000
459.063;  -14.025; 1124.000;  192.000
459.183;  -38.250;  328.000;  313.000
459.304;  -10.050;  315.000;  517.000
459.424;  -74.150; -246.000;  -89.000
459.544;  317.825;  388.000;  764.000
459.664;  868.150;  499.000;  506.000
459.784;  321.725; 1004.000; 1175.000
459.904;   50.150;  867.000;  744.000
460.024;   61.475;  867.000;  684.000
460.144;  -16.750;  449.000;  554.000
460.264;  -15.425;  515.000;  327.000
460.385; -100.475; -145.000; -119.000
460.505;   36.025;  905.000;  858.000
460.625;  -94.300;  -17.000;  -68.000
460.745;  -27.750;  396.000;  541.000
460.864;  -68.025;  153.000;  469.000
460.984;   -6.775;  499.000;  573.000
461.104;  113.675; 1656.000; 1775.000
461.224;    6.450;  657.000;  650.000
461.344;  -33.750;  431.000;  360.000
461.464;  -35.750;  258.000;  513.000
461.584;  -36.325;  283.000;  466.000
461.704;  -45.575;   58.000;  108.000
461.824;  -59.700;  238.000;  259.000
461.943;  -46.275;  191.000;  130.000
462.063;  -88.100;    2.000;  324.000
462.183;   13.950;  639.000;  717.000
462.303;   84.775; 1678.000; 1230.000
462.422;   13.400;  781.000;  840.000
462.542;  -60.200;  271.000;  391.000
462.662;   21.850;  353.000;  380.000
462.782;  244.400;  833.000;  572.000
462.901;  503.550;  545.000;  717.000
463.021;  287.125; 1702.000; 1638.000
463.141;   -8.050;  337.000;  770.000
463.260;  -25.150;  614.000;  474.000
463.380;    0.450;  902.000;  884.000
463.499;  -48.425;  342.000;  332.000
463.619;  -29.600;  581.000;  559.000
463.738;  104.700; 1644.000;  903.000
463.858;   -6.050;  657.000;  811.000
463.978;  -45.200;  542.000;  396.000
464.097;   52.500;  921.000; 1114.000
464.217;  113.750; 1196.000; 1143.000
464.336;  120.650; 1068.000; 1130.000
464.455;  -41.175;  328.000;  659.000
464.575;   32.275;  597.000;  602.000
464.694;  149.050; 1204.000; 1179.000
464.814;  126.175; 1190.000; 1138.000
464.933;   71.475; 1095.000; 1027.000
465.052;   97.275; 1412.000; 1054.000
465.172;   62.325;  922.000;  799.000
465.291;  124.100; 1376.000; 1320.000
465.410;   11.275;  462.000;  735.000
465.530;   81.225; 1355.000; 1310.000
465.649;   47.500; 1209.000; 1273.000
465.768;  117.225; 1673.000; 1508.000
465.888;   43.675;  941.000; 1174.000
466.007;   81.100; 1335.000; 1440.000
466.126;  -18.200;  721.000;  641.000
466.245;   40.375; 1176.000; 1187.000
466.364;    7.125;  950.000; 1060.000
466.484;   49.350; 1024.000; 1213.000
466.603;   19.075; 1101.000; 1222.000
466.722;  108.575; 1490.000; 1769.000
466.841;   59.375; 1151.000; 1401.000
466.960;   49.025; 1069.000;  972.000
467.079;  143.900; 1971.000; 1786.000
467.198;   43.450; 1238.000; 1181.000
467.317;   83.325; 1768.000; 1162.000
467.436;   46.075; 1709.000; 1261.000
467.555;  106.875; 1796.000; 1746.000
467.674;   54.450; 1227.000; 1329.000
467.793;   48.125; 1376.000; 1374.000
467.912;   85.750; 1658.000; 1539.000
468.031;  102.275; 2038.000; 1930.000
468.150;  134.925; 1842.000; 1837.000
468.269;  181.425; 2313.000; 2090.000
468.388;  185.425; 2168.000; 2339.000
468.507;  253.225; 2884.000; 2903.000
468.626;  264.925; 2555.000; 2541.000
468.744;  126.300; 2018.000; 2174.000
468.863;  196.625; 2312.000; 2523.000
468.982;   86.700; 1503.000; 1555.000
469.101;  205.625; 2788.000; 2692.000
469.220;  142.175; 2333.000; 2176.000
469.338;  258.175; 2935.000; 3051.000
469.457;  192.450; 2719.000; 2545.000
469.576;  339.725; 3953.000; 3784.000
469.695;  228.900; 2877.000; 3066.000
469.813;  427.150; 4148.000; 4192.000
469.932;  395.375; 4255.000; 4485.000
470.051;  410.250; 4075.000; 4161.000
470.169;  857.050; 4470.000; 4338.000
470.288; 1509.800; 4700.000; 4809.000
470.406;  916.325; 5059.000; 5194.000
470.525;  635.700; 6101.000; 5787.000
470.644;  623.350; 6847.000; 6794.000
470.762;  806.025; 8397.000; 7873.000
470.881;  907.500; 8651.000; 8464.000
470.999; 1061.625; 9685.000; 9151.000
471.118; 1088.325;11174.000;10711.000

