
Integration time [ms]: 200.000
Averaging Nr. [scans]: 10
Smoothing Nr. [pixels]: 0
Data measured with spectrometer [name]: 2101012U2
Wave   ;Sample   ;Dark     ;Reference
[nm]   ;[counts] ;[counts] ;[counts] 

197.733;  109.400;  516.000;  404.000
197.879; -174.500; -610.000; -634.000
198.025; -111.900; -475.000; -420.000
198.171; -138.900; -602.000; -612.000
198.317;  -75.000; -401.000; -316.000
198.463; -124.500; -655.000; -404.000
198.609;   59.600;  181.000; -137.000
198.755; -192.200; -644.000; -410.000
198.901; -123.100; -505.000; -424.000
199.047; -126.700; -615.000; -488.000
199.193;  -99.800; -230.000; -468.000
199.339;  -82.300; -222.000; -369.000
199.485;   58.500;  330.000;  271.000
199.631;   43.800;  227.000;  310.000
199.777;  -96.100; -466.000; -398.000
199.923; -152.400; -610.000; -424.000
200.069;   11.700; -141.000;  -58.000
200.215;  135.200;  128.000;  453.000
200.361;   70.000;  243.000;  477.000
200.507; -136.000; -600.000; -373.000
200.653;  -81.500; -371.000; -194.000
200.798;  -79.100; -215.000; -125.000
200.944;  -15.300; -146.000;  -41.000
201.090;   83.100;   61.000;  222.000
201.236;  -24.100; -116.000; -158.000
201.382;  282.700;  874.000;  903.000
201.528;   -2.400;  -58.000;  -48.000
201.674;  -89.400; -386.000; -293.000
201.819; -124.000; -540.000; -439.000
201.965; -180.400; -699.000; -447.000
202.111;  -47.700; -273.000; -226.000
202.257;  -53.500; -250.000; -238.000
202.402;    9.500;   13.000;  -36.000
202.548;  -55.600; -169.000; -116.000
202.694;  150.100;  410.000; -183.000
202.840; -149.200; -603.000; -531.000
202.985; -174.500; -681.000; -639.000
203.131; -224.900; -832.000; -666.000
203.277;  -53.200; -199.000; -262.000
203.423; -133.900; -434.000; -520.000
203.568;  -80.300; -462.000; -237.000
203.714; -120.300; -535.000; -542.000
203.860; -175.200; -682.000; -641.000
204.005;   29.100;  112.000;  167.000
204.151;  158.400;  561.000;  556.000
204.296; -101.200; -354.000; -221.000
204.442; -162.700; -600.000; -547.000
204.588; -189.200; -592.000; -579.000
204.733;   50.800;  178.000;  168.000
204.879; -275.500;-1018.000; -822.000
205.025;   28.800;  -99.000;  126.000
205.170;   37.600;  -17.000;   94.000
205.316;  168.600;  438.000;  661.000
205.461; -195.900; -698.000; -554.000
205.607;  209.200;  609.000;  665.000
205.752; -174.300; -626.000; -551.000
205.898; -102.300; -501.000; -391.000
206.043; -151.700; -578.000; -506.000
206.189;  -83.800; -243.000; -285.000
206.334;  160.200;  554.000;  606.000
206.480;  158.500;  409.000;  239.000
206.625; -151.400; -529.000; -552.000
206.771;  -97.500; -451.000; -373.000
206.916;  -72.100; -210.000; -537.000
207.062; -138.600; -545.000; -591.000
207.207; -136.200; -546.000; -443.000
207.353;  133.600;  185.000;  460.000
207.498;   30.200;  196.000;   85.000
207.643; -105.500; -501.000; -370.000
207.789; -256.600;-1069.000; -910.000
207.934; -177.700; -665.000; -713.000
208.080;  -57.800; -154.000;   66.000
208.225;  -10.900;  -22.000;  -57.000
208.370; -195.600; -727.000; -619.000
208.516; -163.000; -741.000; -487.000
208.661;  -61.300; -127.000;  -69.000
208.806;  -31.300; -165.000; -171.000
208.952; -260.700;-1044.000; -731.000
209.097;  163.700;  378.000;  349.000
209.242; -106.500; -307.000; -382.000
209.387;  114.400;  392.000;  350.000
209.533; -105.900; -321.000; -350.000
209.678;  166.500;  472.000;  543.000
209.823;  -98.200; -408.000; -310.000
209.969; -217.000; -860.000; -757.000
210.114; -217.600; -907.000; -719.000
210.259; -255.100; -939.000; -889.000
210.404;  -10.300; -171.000;  103.000
210.549;   26.800;  108.000;    3.000
210.695;  -35.800;   -3.000;  -95.000
210.840;   92.400;   94.000;   67.000
210.985; -118.000; -484.000; -303.000
211.130;  173.000;  268.000;  406.000
211.275;   41.500;  207.000;  199.000
211.420; -127.000; -300.000; -289.000
211.566; -133.900; -536.000; -489.000
211.711;   92.900;  218.000;  157.000
211.856; -140.800; -545.000; -519.000
212.001;   17.000;  151.000;   44.000
212.146;   23.300;  153.000;   49.000
212.291;  -44.300; -210.000; -186.000
212.436;  -82.800; -280.000;   -6.000
212.581; -161.400; -685.000; -653.000
212.726; -168.600; -487.000; -538.000
212.871;  -79.700; -552.000; -217.000
213.016; -319.200;-1172.000;-1029.000
213.161;  112.000;  406.000;  291.000
213.306; -138.900; -435.000; -577.000
213.451; -209.000; -778.000; -689.000
213.596;  -76.700; -455.000; -347.000
213.741; -116.900; -448.000; -538.000
213.886; -182.500; -498.000; -517.000
214.031;  -45.600; -294.000; -124.000
214.176; -110.200; -408.000; -341.000
214.321;  -76.900; -296.000; -157.000
214.466;  -52.300; -163.000;  -43.000
214.611;   -7.700;  -61.000;  -10.000
214.756; -240.900; -948.000; -858.000
214.901;  -26.900; -388.000; -226.000
215.046; -254.000; -797.000; -825.000
215.191;   68.000;  128.000;   35.000
215.336;  -17.400; -157.000;  -19.000
215.480; -132.400; -684.000; -505.000
215.625;  -24.400; -175.000;  -19.000
215.770; -184.800; -757.000; -662.000
215.915;   -3.900;   -5.000;  -97.000
216.060;  -18.600; -113.000;  -21.000
216.205; -257.200; -731.000; -779.000
216.349; -146.300; -470.000; -533.000
216.494; -278.600; -939.000; -867.000
216.639; -251.900; -823.000; -888.000
216.784; -173.300; -577.000; -525.000
216.929;   76.900;  392.000;  281.000
217.073;   -9.100; -244.000;  -31.000
217.218;   30.200;   78.000;  -47.000
217.363; -196.500; -656.000; -618.000
217.507; -177.700; -623.000; -588.000
217.652; -289.100; -845.000; -874.000
217.797; -187.200; -708.000; -659.000
217.942; -229.200; -856.000; -720.000
218.086;  166.700;  608.000;  539.000
218.231;  -42.500; -174.000;  -26.000
218.376;  -74.400; -337.000; -229.000
218.520;   11.900;  -41.000;   96.000
218.665;  -63.100; -338.000; -204.000
218.810;  -81.800; -275.000; -233.000
218.954;   49.300;  201.000;   35.000
219.099; -215.300; -713.000; -963.000
219.243; -147.900; -589.000; -554.000
219.388;  -61.800; -264.000; -136.000
219.532;  -24.900; -116.000; -116.000
219.677; -146.600; -564.000; -521.000
219.822;   12.600;   33.000;   89.000
219.966;   -8.000;   17.000;  -99.000
220.111;  -59.200; -328.000;  -40.000
220.255; -172.600; -797.000; -750.000
220.400;    9.000; -180.000; -146.000
220.544; -135.400; -516.000; -450.000
220.689;  -98.900; -422.000; -451.000
220.833;  -36.100; -123.000;  -58.000
220.978;  -72.600; -393.000; -563.000
221.122;   43.100;  319.000;  307.000
221.267; -244.300; -906.000; -837.000
221.411; -113.300; -478.000; -394.000
221.555;   14.100; -104.000;  -23.000
221.700; -106.400; -329.000; -222.000
221.844;   82.700;  255.000;  272.000
221.989;  -89.400; -328.000; -311.000
222.133;  -44.100; -289.000; -307.000
222.277;   -3.200;    5.000;   78.000
222.422;   37.800;  227.000;  113.000
222.566;  -60.900; -381.000; -214.000
222.711; -123.100; -414.000; -479.000
222.855; -194.900; -643.000; -586.000
222.999; -134.500; -642.000; -717.000
223.144;  -61.900; -195.000; -194.000
223.288;  111.900;  423.000;  251.000
223.432;    7.600;  184.000;  230.000
223.576;   61.500;  152.000;  -21.000
223.721;   89.400;  364.000;  273.000
223.865; -121.200; -472.000; -475.000
224.009;  478.300; 1673.000; 1631.000
224.153; -159.700; -660.000; -671.000
224.298; -130.000; -531.000; -489.000
224.442;  -23.100;  -74.000;  -33.000
224.586;  -16.300; -169.000; -106.000
224.730; -218.500; -858.000; -670.000
224.875; -206.500; -739.000; -688.000
225.019;   62.500;  102.000;  188.000
225.163;  104.700;  208.000;  341.000
225.307;   37.000;   97.000;  -91.000
225.451;   98.500;  360.000;  481.000
225.595;   65.700;  264.000;  176.000
225.739;  -23.800; -170.000;  -94.000
225.884;   12.400;   86.000;    5.000
226.028; -191.700; -760.000; -626.000
226.172;  -63.500; -260.000; -273.000
226.316; -241.800; -941.000; -902.000
226.460; -142.300; -645.000; -493.000
226.604; -101.900; -406.000; -400.000
226.748; -212.500; -836.000; -733.000
226.892;  -59.500; -227.000; -181.000
227.036;  -87.100; -537.000; -447.000
227.180; -118.000; -551.000; -375.000
227.324; -117.400; -561.000; -580.000
227.468; -247.400; -819.000; -717.000
227.612;   -2.700;  242.000;  -28.000
227.756; -225.000; -845.000; -698.000
227.900;  157.000;  342.000;  441.000
228.044; -125.400; -509.000; -290.000
228.188;  108.900;  448.000;  568.000
228.332; -182.400; -546.000; -472.000
228.476;  -56.200; -223.000; -149.000
228.620;  -53.200; -210.000; -150.000
228.764;  139.500;  431.000;  349.000
228.908;  -59.600; -155.000;   30.000
229.052; -138.000; -615.000; -528.000
229.195;  -35.400; -172.000;   13.000
229.339;  -46.800; -235.000; -305.000
229.483;  -74.200;    5.000; -162.000
229.627;   15.900; -156.000;  139.000
229.771;  -93.800; -218.000; -294.000
229.915;    9.000;  230.000;   79.000
230.059; -162.600; -648.000; -663.000
230.202;  -60.500; -370.000; -317.000
230.346;  -33.700; -107.000;  107.000
230.490; -133.200; -489.000; -521.000
230.634; -239.300; -736.000; -553.000
230.777;  167.600;  478.000;  509.000
230.921;  -97.800; -450.000; -359.000
231.065; -111.100; -246.000; -286.000
231.209;   58.700;  261.000;  265.000
231.352;   76.800;   54.000;   40.000
231.496;   88.600;  568.000;  188.000
231.640; -160.500; -693.000; -621.000
231.783;  162.700;  546.000;  525.000
231.927;  -73.000; -294.000; -365.000
232.071; -270.600; -962.000; -736.000
232.214; -229.500; -980.000; -764.000
232.358; -207.100; -683.000; -599.000
232.502;   46.700;  -19.000;    7.000
232.645; -302.000;-1090.000; -927.000
232.789;  -19.200; -257.000; -218.000
232.933;  -76.400; -407.000; -224.000
233.076; -277.700;-1038.000; -897.000
233.220; -202.100; -752.000; -777.000
233.363; -131.800; -669.000; -477.000
233.507;  128.100;  371.000;  129.000
233.650; -203.700; -764.000; -834.000
233.794;   99.800;  438.000;  461.000
233.938; -124.800; -530.000; -362.000
234.081;  -24.400;  -93.000;   31.000
234.225; -137.300; -631.000; -539.000
234.368; -244.500; -773.000; -723.000
234.512;  -77.300; -385.000; -299.000
234.655; -187.900; -582.000; -555.000
234.798; -133.700; -493.000; -466.000
234.942; -252.700; -884.000;-1002.000
235.085; -123.700; -651.000; -443.000
235.229; -133.900; -405.000; -410.000
235.372;  -71.700; -247.000; -191.000
235.516; -132.500; -397.000; -321.000
235.659;   50.200;   92.000;  121.000
235.802;   -8.700;  -38.000;  -22.000
235.946;   90.400;  335.000;  215.000
236.089;   78.300;  126.000;  250.000
236.233;  117.400;  275.000;  298.000
236.376;  -86.100; -235.000; -378.000
236.519;  -86.700; -297.000; -319.000
236.663;  -55.600; -215.000; -117.000
236.806; -263.300;-1029.000; -999.000
236.949;  167.400;  543.000;  431.000
237.092;  157.000;  412.000;  391.000
237.236; -162.300; -589.000; -502.000
237.379;  152.600;  352.000;  428.000
237.522; -247.500; -879.000; -768.000
237.666;   -0.200; -271.000;   18.000
237.809; -257.200; -851.000; -823.000
237.952;   65.300;  469.000;  271.000
238.095; -157.000; -447.000; -442.000
238.238;  176.700;  688.000;  700.000
238.382;    8.200;  166.000;  103.000
238.525; -159.300; -598.000; -511.000
238.668; -289.000;-1060.000; -985.000
238.811; -153.200; -638.000; -643.000
238.954; -129.200; -483.000; -334.000
239.097;  197.400;  617.000;  664.000
239.241;   62.900;  394.000;  326.000
239.384;  -42.800; -254.000; -214.000
239.527; -104.900; -424.000; -224.000
239.670; -303.100; -994.000;-1091.000
239.813; -235.000; -696.000; -658.000
239.956;  209.100;  579.000;  473.000
240.099; -253.300; -778.000; -725.000
240.242;  136.100;  428.000;  432.000
240.385;  110.600;  466.000;  450.000
240.528; -121.700; -706.000; -473.000
240.671;   56.500;  189.000;  134.000
240.814;  -74.200; -441.000; -158.000
240.957; -198.600; -767.000; -578.000
241.100; -192.100; -779.000; -755.000
241.243; -301.000;-1234.000; -893.000
241.386; -128.800; -508.000; -379.000
241.529; -166.300; -735.000; -547.000
241.672; -126.600; -566.000; -495.000
241.815; -227.500; -832.000; -808.000
241.958;  -26.900; -125.000; -182.000
242.101; -153.500; -545.000; -390.000
242.244;  -42.300; -270.000; -325.000
242.387;  -61.900; -304.000; -246.000
242.530;  148.100;  470.000;  134.000
242.673;  -78.700; -381.000; -309.000
242.815; -214.100; -925.000; -899.000
242.958; -153.400; -482.000; -381.000
243.101;    7.300;  132.000;  187.000
243.244; -181.000; -564.000; -521.000
243.387;  -66.600; -313.000; -316.000
243.530; -200.300; -657.000; -674.000
243.672;   29.900;   43.000;  -92.000
243.815; -112.200; -355.000; -283.000
243.958;    2.900;   98.000;  -26.000
244.101;   37.700;   59.000;  -16.000
244.243;   -4.100;  -47.000;  101.000
244.386; -234.400; -761.000; -630.000
244.529;  -16.500; -132.000; -139.000
244.672; -322.200;-1154.000; -951.000
244.814; -227.700; -621.000; -794.000
244.957;  -68.100; -380.000; -304.000
245.100; -157.500; -489.000; -489.000
245.242; -109.300; -387.000; -374.000
245.385;   -5.300;  -59.000;  -39.000
245.528; -238.800; -871.000; -705.000
245.670;  218.100;  612.000;  634.000
245.813; -189.600; -599.000; -547.000
245.956;  -51.900; -324.000; -275.000
246.098; -163.700; -508.000; -650.000
246.241;   15.500;  194.000;   48.000
246.383;  -24.500; -119.000;  -73.000
246.526; -126.700; -454.000; -525.000
246.669; -242.200; -889.000; -780.000
246.811;   60.400;  172.000;   -1.000
246.954; -125.000; -512.000; -426.000
247.096;  -38.500;  -84.000;   -6.000
247.239; -143.000; -482.000; -445.000
247.381; -132.600; -647.000; -488.000
247.524;  213.700;  645.000;  679.000
247.666;   26.100;   58.000;   11.000
247.809; -219.700; -887.000; -691.000
247.951;  -13.600;  -75.000;  138.000
248.094;   96.600;  432.000;  308.000
248.236; -318.200;-1262.000;-1238.000
248.378;   -5.000; -356.000;  -81.000
248.521;  -40.300; -334.000; -337.000
248.663;  -86.100; -236.000; -267.000
248.806;  -32.500; -300.000; -266.000
248.948; -162.700; -886.000; -763.000
249.090;  -87.800; -428.000; -398.000
249.233; -117.400; -344.000; -381.000
249.375; -133.600; -474.000; -451.000
249.518;  -27.000;  -83.000; -133.000
249.660;    5.100; -103.000;    3.000
249.802; -339.100;-1303.000;-1189.000
249.945; -109.000; -612.000; -540.000
250.087; -213.900; -834.000; -768.000
250.229;  -91.400; -362.000; -480.000
250.371; -153.400; -494.000; -439.000
250.514;  -93.300; -310.000; -244.000
250.656;   11.000;   69.000;  102.000
250.798; -241.800; -849.000; -800.000
250.940;  -79.700; -322.000; -322.000
251.083;  -50.800; -335.000; -111.000
251.225;  134.700;  338.000;  310.000
251.367;  -52.400; -274.000; -373.000
251.509;  -73.200; -265.000; -210.000
251.651; -179.400; -731.000; -671.000
251.794;  140.700;  538.000;  632.000
251.936; -218.600; -821.000; -747.000
252.078; -136.400; -540.000; -461.000
252.220; -135.600; -645.000; -477.000
252.362;  127.700;  344.000;  462.000
252.504; -121.600; -677.000; -584.000
252.646; -227.800; -875.000; -722.000
252.788;   13.800;   14.000; -128.000
252.931;  -52.700; -257.000; -253.000
253.073;  -62.900; -376.000; -317.000
253.215;   10.000;  141.000;  122.000
253.357;   -2.000;   82.000; -153.000
253.499;  -99.000; -374.000; -234.000
253.641; -169.900; -749.000; -594.000
253.783; -197.000; -609.000; -527.000
253.925; -174.900; -586.000; -591.000
254.067; -245.800; -744.000; -667.000
254.209;  -75.300; -391.000; -259.000
254.351; -274.300; -865.000; -883.000
254.493; -120.600; -441.000; -417.000
254.635; -229.400; -936.000; -818.000
254.777; -165.200; -752.000; -687.000
254.918; -132.300; -512.000; -430.000
255.060; -141.500; -551.000; -395.000
255.202; -102.400; -473.000; -261.000
255.344; -153.800; -658.000; -455.000
255.486;  -91.700; -471.000; -406.000
255.628; -184.900; -780.000; -781.000
255.770; -189.200; -676.000; -536.000
255.912; -113.000; -559.000; -468.000
256.053; -179.500; -730.000; -508.000
256.195;  339.400; 1008.000;  903.000
256.337; -200.000; -861.000; -595.000
256.479;  150.800;  532.000;  416.000
256.621;  -86.500; -394.000; -212.000
256.762; -174.600; -789.000; -742.000
256.904;  146.600;  485.000;  487.000
257.046;  -59.600; -381.000; -271.000
257.188;  -84.900; -351.000; -264.000
257.329; -132.800; -525.000; -464.000
257.471; -235.000; -939.000; -807.000
257.613;  -76.300; -584.000; -498.000
257.755; -312.900;-1073.000; -982.000
257.896;   78.000;  286.000;  392.000
258.038; -140.900; -403.000; -352.000
258.180;  -64.400; -354.000; -279.000
258.321; -151.200; -581.000; -457.000
258.463;   24.400;  -71.000;  133.000
258.605; -147.400; -562.000; -570.000
258.746; -215.600; -886.000; -772.000
258.888; -310.400;-1026.000;-1020.000
259.029;   59.600;  121.000;   -8.000
259.171; -183.600; -614.000; -550.000
259.313;   19.700;  -49.000;  -47.000
259.454; -135.400; -536.000; -414.000
259.596; -101.400; -483.000; -390.000
259.737; -111.100; -590.000; -474.000
259.879;   80.900;  217.000;  311.000
260.020;  205.400;  901.000;  636.000
260.162;  -68.000; -146.000; -253.000
260.303; -238.700; -768.000; -687.000
260.445; -137.700; -609.000; -613.000
260.586;   79.600;  392.000;  157.000
260.728;  -61.100; -360.000; -248.000
260.869; -120.100; -350.000; -343.000
261.011;  204.500;  706.000;  537.000
261.152; -101.400; -479.000; -319.000
261.293; -131.000; -576.000; -595.000
261.435;  -25.000; -219.000; -184.000
261.576; -103.600; -455.000; -325.000
261.718;  127.000;  420.000;  470.000
261.859; -251.500; -940.000; -949.000
262.000; -265.800; -951.000;-1016.000
262.142;  -25.500;  -52.000;  -60.000
262.283; -213.200; -808.000; -691.000
262.424; -149.000; -666.000; -625.000
262.566; -303.800;-1161.000; -983.000
262.707; -202.900; -840.000; -830.000
262.848; -259.600; -769.000; -726.000
262.990;  -88.200; -362.000; -345.000
263.131;  153.800;  650.000;  681.000
263.272;   27.400;  -61.000;  -41.000
263.413; -140.200; -589.000; -561.000
263.555; -115.000; -669.000; -143.000
263.696; -166.600; -550.000; -641.000
263.837;  -94.300; -449.000; -551.000
263.978;   18.000;   -5.000;  -77.000
264.119;  -84.000; -283.000; -264.000
264.261; -225.300; -847.000; -630.000
264.402;   30.000;   33.000;   40.000
264.543; -149.300; -509.000; -524.000
264.684;    5.900;   61.000;  -50.000
264.825; -111.000; -816.000; -538.000
264.966;    9.600;  -84.000;  -67.000
265.107; -208.800; -646.000; -670.000
265.248; -227.000; -825.000; -812.000
265.390;   -5.300;  152.000;   -9.000
265.531;   16.300; -238.000; -107.000
265.672; -180.700; -557.000; -630.000
265.813;  150.000;  563.000;  439.000
265.954; -302.800; -959.000; -940.000
266.095;  -13.100; -372.000; -322.000
266.236; -168.700; -686.000; -548.000
266.377;  -85.500; -243.000; -297.000
266.518; -114.800; -619.000; -547.000
266.659;   51.500;  170.000;  268.000
266.800;   58.000;   83.000;   85.000
266.941; -175.600; -487.000; -478.000
267.082;   31.600;  354.000;   99.000
267.223;  -69.900; -344.000; -273.000
267.364; -229.400; -892.000; -686.000
267.504;   -9.900;    3.000;  135.000
267.645;   16.900;  160.000;   67.000
267.786;  -36.900; -147.000;  -86.000
267.927;  -94.800; -473.000; -379.000
268.068;   16.000; -186.000;  -61.000
268.209;  -77.700; -175.000; -413.000
268.350;  -95.900; -388.000; -532.000
268.490; -139.500; -648.000; -521.000
268.631;   74.800;  127.000;  225.000
268.772; -226.100; -874.000; -647.000
268.913;  -95.400; -328.000; -476.000
269.054;    6.900; -117.000;   12.000
269.194;  -92.900; -418.000; -402.000
269.335; -295.900;-1137.000;-1074.000
269.476;  -11.800;   33.000;  -35.000
269.617;  -52.500; -347.000; -392.000
269.757; -188.300; -713.000; -646.000
269.898; -203.700; -856.000; -613.000
270.039;  -91.100; -415.000; -405.000
270.180; -239.300; -952.000; -816.000
270.320;    1.400; -190.000; -250.000
270.461;  -47.600; -277.000; -249.000
270.602;   24.000; -186.000; -156.000
270.742; -222.800; -868.000; -943.000
270.883; -112.000; -442.000; -390.000
271.023;  -84.900; -358.000; -357.000
271.164; -117.600; -607.000; -528.000
271.305; -190.200; -666.000; -654.000
271.445; -179.200; -722.000; -683.000
271.586; -130.300; -462.000; -283.000
271.726;  -65.400; -397.000; -322.000
271.867; -127.200; -594.000; -534.000
272.008;  322.200; -473.000; -285.000
272.148;  285.500;  462.000;  468.000
272.289;   62.100; -113.000; -181.000
272.429;   80.900;   19.000;  185.000
272.570; -170.400; -633.000; -737.000
272.710; -189.800; -825.000; -775.000
272.851;  -41.900;  113.000; -130.000
272.991; -317.700;-1173.000;-1077.000
273.131; -123.700; -419.000; -459.000
273.272; -166.600; -683.000; -723.000
273.412;   38.400; -143.000;  -31.000
273.553;  -93.900; -488.000; -507.000
273.693;  312.200;  913.000;  858.000
273.834; -156.600; -894.000; -692.000
273.974; -140.700; -664.000; -615.000
274.114; -173.900; -772.000; -560.000
274.255;  182.700;  414.000;  373.000
274.395;   41.800; -180.000; -125.000
274.535;   98.200;  199.000;  350.000
274.676;   63.900;  225.000;   94.000
274.816;   32.500;  110.000;   34.000
274.956; -155.400; -624.000; -690.000
275.097; -137.200;-1014.000; -922.000
275.237; -226.100; -913.000; -803.000
275.377; -194.000; -778.000; -689.000
275.517; -286.700; -878.000; -937.000
275.658;  -92.200; -590.000; -555.000
275.798;  -99.900; -606.000; -413.000
275.938;   43.500;  215.000;  323.000
276.078; -152.500; -626.000; -395.000
276.218;   45.200;   99.000;  104.000
276.359; -250.300;-1026.000;-1024.000
276.499; -139.600; -605.000; -446.000
276.639;  -39.200; -305.000; -151.000
276.779;  -86.500; -475.000; -357.000
276.919; -197.600; -783.000; -624.000
277.059;  -19.900; -261.000; -212.000
277.199;  -64.300; -357.000; -259.000
277.340;  142.600;  287.000;  175.000
277.480; -174.700; -840.000; -693.000
277.620;   58.800;  192.000;   16.000
277.760; -381.400;-1533.000;-1294.000
277.900;   68.200;  113.000;   33.000
278.040;   73.000;  137.000;  159.000
278.180;   89.600;  270.000;  170.000
278.320;   16.600;   21.000;   56.000
278.460;  -90.900; -443.000; -469.000
278.600; -211.500; -708.000; -598.000
278.740;  168.200;  448.000;  224.000
278.880;  -73.500; -768.000; -791.000
279.020;   55.700; -194.000; -144.000
279.160; -184.900; -672.000; -595.000
279.300; -247.000; -926.000; -873.000
279.440; -176.800; -709.000; -622.000
279.579;  -85.800;-1014.000; -929.000
279.719;  -91.400; -410.000; -394.000
279.859;  133.900;   -4.000;   41.000
279.999;   63.400; -208.000;  101.000
280.139;  -24.200; -435.000; -387.000
280.279; -123.800; -708.000; -745.000
280.419;    7.100; -229.000; -147.000
280.559;  -17.800; -259.000; -180.000
280.698; -192.200; -790.000; -639.000
280.838; -159.000; -778.000; -800.000
280.978; -182.800; -846.000; -790.000
281.118; -203.400; -811.000; -704.000
281.257;   51.500;   24.000;    6.000
281.397; -168.600;-1094.000; -960.000
281.537; -128.200; -599.000; -712.000
281.677;   -6.900; -150.000; -101.000
281.816; -138.900; -700.000; -630.000
281.956;  -33.800; -193.000; -257.000
282.096; -104.300; -539.000; -396.000
282.235; -182.300; -672.000; -638.000
282.375;  -19.600; -243.000;  -98.000
282.515; -192.100; -715.000; -707.000
282.654;  111.600;   29.000;  106.000
282.794;  112.800;  388.000;  244.000
282.934;  -97.600; -530.000; -491.000
283.073; -225.200;-1030.000; -857.000
283.213;  -87.500; -460.000; -467.000
283.353;  -27.700; -408.000; -349.000
283.492;    2.400; -264.000; -296.000
283.632;  -56.400; -254.000; -168.000
283.771; -153.100; -859.000; -730.000
283.911;  -41.900; -369.000; -260.000
284.050; -188.300; -794.000; -748.000
284.190; -291.800;-1229.000;-1096.000
284.329; -277.400;-1055.000; -964.000
284.469;  -75.000; -516.000; -591.000
284.608;  -76.700; -559.000; -598.000
284.748; -142.600; -614.000; -570.000
284.887;   24.800;  -87.000;  -20.000
285.027; -235.800; -844.000; -892.000
285.166;   -7.900; -192.000; -249.000
285.306;   82.000; -116.000;  -33.000
285.445;  -39.500; -229.000; -343.000
285.584; -120.400; -630.000; -494.000
285.724;  -38.800; -282.000; -322.000
285.863; -202.400; -857.000; -507.000
286.002;  -67.200; -366.000; -276.000
286.142; -176.200; -715.000; -622.000
286.281; -109.200; -525.000; -493.000
286.420; -131.900; -554.000; -417.000
286.560;  251.500;  653.000;  623.000
286.699; -247.700; -958.000; -912.000
286.838; -102.300; -590.000; -591.000
286.978; -146.900; -533.000; -537.000
287.117; -245.400;-1085.000; -950.000
287.256;  -33.700; -228.000; -211.000
287.395;  -72.600; -197.000; -378.000
287.535;  -41.100; -370.000; -298.000
287.674; -122.800; -509.000; -484.000
287.813;  145.800;  661.000;  533.000
287.952; -214.700;-1010.000; -871.000
288.091; -261.100;-1049.000; -915.000
288.231;   67.000;   13.000;   15.000
288.370; -324.800;-1217.000;-1200.000
288.509; -145.800; -728.000; -645.000
288.648; -158.100; -770.000; -548.000
288.787;  -11.100; -243.000;  -87.000
288.926; -109.500; -454.000; -475.000
289.065;  266.500;  859.000;  672.000
289.204;  -74.000; -377.000; -217.000
289.344; -155.500; -791.000; -690.000
289.483;   90.300;  416.000;  304.000
289.622;  -50.400; -291.000; -149.000
289.761;  -18.500; -309.000; -166.000
289.900; -178.100; -785.000; -626.000
290.039;    9.000;  -12.000;  -95.000
290.178;  -36.800; -274.000; -180.000
290.317; -142.400; -618.000; -479.000
290.456;  -73.000; -463.000; -451.000
290.595; -255.300; -961.000; -833.000
290.734; -238.400; -904.000; -891.000
290.873; -137.400; -456.000; -420.000
291.011; -192.900; -833.000; -843.000
291.150; -164.900; -770.000; -682.000
291.289;   24.500; -343.000; -110.000
291.428; -167.900; -599.000; -480.000
291.567;  -81.400; -370.000; -442.000
291.706;   69.500;  109.000;  154.000
291.845; -110.800; -597.000; -505.000
291.984; -325.500;-1234.000;-1061.000
292.122;  206.300;  602.000;  582.000
292.261;  165.100;  620.000;  463.000
292.400;   76.100; -144.000;  211.000
292.539; -226.200; -959.000; -813.000
292.678;  -52.500; -325.000; -300.000
292.816; -286.200;-1136.000; -965.000
292.955; -182.500; -844.000; -684.000
293.094;    0.800; -173.000; -337.000
293.233;  -63.400; -556.000; -400.000
293.371;  -60.100; -225.000;  -84.000
293.510; -191.900; -866.000; -780.000
293.649; -249.700; -959.000; -924.000
293.787; -101.700;-1083.000;-1012.000
293.926;   53.600; -113.000;  -32.000
294.065;  -74.700; -379.000; -290.000
294.203;  141.900;  298.000;  406.000
294.342;   89.400;   74.000;  156.000
294.481;12925.600;51180.000; -836.000
294.619;    1.400; -425.000; -582.000
294.758; -282.600;-1230.000;-1137.000
294.896;  213.800; -125.000;    5.000
295.035; -226.900;-1040.000;-1006.000
295.174; -217.300;-1082.000; -954.000
295.312;  -36.500; -323.000; -203.000
295.451;   15.100; -307.000; -428.000
295.589;  -80.500; -389.000; -518.000
295.728;  110.300; -292.000; -165.000
295.866;   59.300;  -36.000;  -51.000
296.005;  -95.800; -584.000; -341.000
296.143;  -95.900; -558.000; -596.000
296.282; -172.500; -957.000; -881.000
296.420; -130.800; -657.000; -557.000
296.559; -121.400; -892.000; -633.000
296.697;   91.300; -847.000; -665.000
296.835;  205.700;-1141.000;-1002.000
296.974;  141.700;  -23.000;   39.000
297.112;   88.100; -443.000; -504.000
297.251; -136.800; -815.000; -755.000
297.389;  248.900; -576.000; -438.000
297.527;  112.500; -145.000;  -83.000
297.666;  -57.800; -486.000; -438.000
297.804;  -76.000; -404.000; -264.000
297.942;   37.100; -136.000; -161.000
298.081;   22.900; -183.000;   63.000
298.219;  187.400;  -17.000;  -19.000
298.357;  132.500; -144.000;  -71.000
298.495;  104.900; -810.000; -812.000
298.634;  209.800;  245.000;  219.000
298.772;  162.700; -220.000; -338.000
298.910;  -23.000; -309.000; -182.000
299.048;   10.200; -130.000; -153.000
299.187;  -16.800; -350.000; -250.000
299.325;  111.900;   52.000;  122.000
299.463;  127.400; -389.000; -299.000
299.601;  300.600; -327.000; -271.000
299.739; -157.000; -908.000; -883.000
299.877; -135.800; -791.000; -703.000
300.016; -120.300;-1095.000; -935.000
300.154;  340.900;  -19.000; -161.000
300.292;  162.300; -428.000; -348.000
300.430;  121.500; -408.000; -291.000
300.568; -184.000; -940.000; -874.000
300.706;  -43.100; -366.000; -469.000
300.844; -153.700;-1108.000; -979.000
300.982;  287.500;  246.000;  282.000
301.120; -158.500; -965.000; -866.000
301.258; -101.700; -812.000; -705.000
301.396;  101.000;  104.000;  -41.000
301.534;  218.700; -218.000; -293.000
301.672;   53.000; -664.000; -521.000
301.810;  127.300; -613.000; -545.000
301.948;  303.100;   53.000;  149.000
302.086; 1222.700; -250.000;  -32.000
302.224; 1987.900; -610.000; -585.000
302.362;  158.200; -558.000; -622.000
302.500;    1.800; -923.000; -893.000
302.638;  299.300;  128.000;  245.000
302.776;   63.700; -352.000; -408.000
302.913;  179.100;  447.000;  236.000
303.051;   86.700;  -86.000;  -23.000
303.189;  169.000;   90.000;  118.000
303.327;  -23.900; -341.000; -256.000
303.465; -104.300; -832.000; -588.000
303.603; -136.300; -805.000; -604.000
303.740;  248.500;  417.000;  241.000
303.878;   80.800; -800.000; -759.000
304.016; -136.200; -915.000; -790.000
304.154; -232.600;-1123.000;-1152.000
304.291;  -62.500; -505.000; -554.000
304.429;   45.900;  102.000;   74.000
304.567; -229.300; -908.000; -893.000
304.705;  -49.100; -408.000; -515.000
304.842;  244.200; -616.000; -540.000
304.980;  148.200;  215.000;   35.000
305.118;  150.600; -367.000; -365.000
305.255;  -85.200; -945.000; -927.000
305.393;  124.800;  178.000;  239.000
305.531; -154.100;-1173.000; -956.000
305.668; -117.500; -663.000; -582.000
305.806;  220.500; -358.000; -439.000
305.943;  226.800; -629.000; -637.000
306.081;  122.200; -378.000; -267.000
306.219; -164.000; -863.000; -748.000
306.356;   73.800;  158.000;   27.000
306.494;  297.300;  981.000;  761.000
306.631;   58.700;  -11.000;  -55.000
306.769;   59.300; -613.000; -485.000
306.906;   44.500; -284.000; -258.000
307.044;  -43.400; -473.000; -488.000
307.181;  -61.500; -410.000; -332.000
307.319;   90.800;  112.000;   87.000
307.456; -335.300;-1191.000;-1153.000
307.594; -166.600; -980.000; -727.000
307.731;    1.600; -371.000; -164.000
307.868;   38.600;  -15.000;   20.000
308.006; -227.300; -961.000; -847.000
308.143;  -67.200; -618.000; -330.000
308.281;  481.400;  -37.000; -254.000
308.418;   53.900; -748.000; -640.000
308.555;  -71.700; -400.000; -250.000
308.693;  -97.800; -577.000; -573.000
308.830; -155.500; -712.000; -657.000
308.967;   28.800; -215.000;  -95.000
309.105;  -13.500; -507.000; -396.000
309.242;  145.800; -468.000; -367.000
309.379;  978.000; -577.000; -655.000
309.517;   -5.800; -936.000; -948.000
309.654; -137.100; -910.000; -734.000
309.791;  -89.000; -662.000; -580.000
309.928; -197.000; -977.000; -914.000
310.065;  447.800;  819.000;  697.000
310.203;   43.600; -825.000; -850.000
310.340;  118.400; -465.000; -321.000
310.477; -104.900; -412.000; -516.000
310.614;  -89.600; -383.000; -473.000
310.751;  -65.400; -427.000; -518.000
310.889;   36.600;    1.000;   11.000
311.026; -241.100;-1161.000; -939.000
311.163;  -37.100; -386.000; -380.000
311.300; -102.800; -512.000; -479.000
311.437;  -72.100; -658.000; -619.000
311.574; -271.100;-1226.000; -985.000
311.711;  -71.500; -595.000; -433.000
311.848;   -8.800; -380.000; -388.000
311.985;   94.600;  270.000;   93.000
312.122; -204.900; -932.000; -762.000
312.259; -182.000; -941.000; -994.000
312.396;  -80.400; -508.000; -551.000
312.533; -101.200; -812.000; -790.000
312.670; -191.700;-1070.000; -898.000
312.807;    1.300; -352.000; -367.000
312.944; -101.600; -513.000; -611.000
313.081;    5.800; -150.000; -415.000
313.218; -171.000;-1111.000; -867.000
313.355;   84.700; -531.000; -449.000
313.492;   55.700; -455.000; -292.000
313.629;  339.100;  815.000;  735.000
313.766; -283.200;-1176.000;-1008.000
313.902;   25.600; -186.000;   21.000
314.039;  -44.300; -372.000; -289.000
314.176;  118.600;  286.000;  192.000
314.313;  -64.800; -569.000; -473.000
314.450;  -93.100; -788.000; -684.000
314.587;  -63.000; -468.000; -480.000
314.723;   78.400;  -78.000;  130.000
314.860;  143.500;  318.000;  332.000
314.997;  112.400;  223.000;  142.000
315.134;  -20.200; -385.000; -368.000
315.270;   -9.500; -480.000; -496.000
315.407; -212.800;-1094.000; -967.000
315.544;  -52.200; -657.000; -538.000
315.681;  -66.500; -681.000; -565.000
315.817;  132.400; -133.000; -176.000
315.954;   54.600; -613.000; -392.000
316.091; -210.400;-1045.000;-1023.000
316.227;    7.900;  -71.000; -179.000
316.364;   78.400;   23.000;    6.000
316.500;  -19.700; -113.000; -300.000
316.637;  -31.400; -181.000; -302.000
316.774; -140.500; -625.000; -358.000
316.910; -124.000; -598.000; -629.000
317.047;  -80.600; -487.000; -351.000
317.183;  -33.900; -435.000; -566.000
317.320;  -12.000; -367.000; -321.000
317.456; -106.300; -733.000; -805.000
317.593; -122.400; -598.000; -641.000
317.729;   72.900;  168.000;  -67.000
317.866; -345.800;-1434.000;-1285.000
318.002; -121.900; -708.000; -948.000
318.139; -116.000; -883.000; -867.000
318.275; -164.100;-1003.000; -738.000
318.412;  -77.400; -517.000; -336.000
318.548;   -4.500; -751.000; -720.000
318.685; -152.200; -985.000; -888.000
318.821; -138.500; -762.000; -735.000
318.957;   20.200;   34.000;  -23.000
319.094;  150.800;  297.000;  154.000
319.230;  -51.500; -756.000; -742.000
319.367;  322.700; -471.000; -520.000
319.503;  171.100; -538.000; -436.000
319.639; -151.400; -877.000; -793.000
319.775; -101.300; -750.000; -685.000
319.912;  -64.600; -424.000; -519.000
320.048; -132.600;-1184.000;-1184.000
320.184;  189.500;   59.000;   70.000
320.321; -110.200; -497.000; -467.000
320.457;  174.000;  475.000;  662.000
320.593;  -65.500; -375.000; -382.000
320.729; -183.800; -732.000; -734.000
320.866;  -91.900; -577.000; -635.000
321.002; -110.800; -759.000; -809.000
321.138;   12.700; -135.000; -211.000
321.274;  193.000; -148.000; -115.000
321.410;  -55.100; -585.000; -353.000
321.546;  -14.200;-1011.000; -911.000
321.683;  188.500;  400.000;  185.000
321.819;   67.600;  -48.000; -117.000
321.955; -166.500; -743.000; -722.000
322.091;  -48.100; -585.000; -540.000
322.227;   22.000; -382.000; -202.000
322.363;   25.200; -320.000; -215.000
322.499;    5.100; -343.000; -331.000
322.635;  352.400;  636.000;  443.000
322.771;   76.600; -139.000;   12.000
322.907;  213.000;  129.000;  327.000
323.043;  -11.200; -115.000; -206.000
323.179;  -44.900; -394.000; -363.000
323.315;  129.200; -401.000; -371.000
323.451;  300.700; -328.000; -236.000
323.587;  154.600;  -60.000;  -77.000
323.723;   85.700; -682.000; -601.000
323.859;   -9.300; -258.000;  -76.000
323.995;  -59.600; -467.000; -409.000
324.131; -194.700; -967.000; -892.000
324.267;  -29.200; -254.000; -276.000
324.402; -246.100; -960.000; -983.000
324.538;   14.400; -279.000; -104.000
324.674;  101.300;  164.000;   77.000
324.810;  445.800;  226.000;  308.000
324.946;  110.100; -810.000; -658.000
325.082;  -90.500; -568.000; -475.000
325.217;    8.600;  -62.000;   16.000
325.353; -157.600; -764.000; -659.000
325.489; -115.600; -540.000; -506.000
325.625; -103.500; -579.000; -525.000
325.760;  150.800;  517.000;  376.000
325.896;  -44.400; -515.000; -702.000
326.032;  -87.600; -403.000; -352.000
326.168;  -66.000; -462.000; -369.000
326.303;  -81.000; -352.000; -461.000
326.439;   35.000; -336.000; -276.000
326.575;   52.300; -190.000;  -29.000
326.710;   32.800; -156.000;  -30.000
326.846;   56.400;  146.000;  103.000
326.982; -136.100; -530.000; -548.000
327.117;  -98.400; -481.000; -442.000
327.253; -152.800; -745.000; -742.000
327.388; -265.300;-1137.000;-1153.000
327.524;  -10.800; -811.000; -578.000
327.659;   -0.300;  -58.000;  -22.000
327.795;   39.400;   69.000;   45.000
327.931; -123.700; -723.000; -499.000
328.066;   11.700; -417.000; -276.000
328.202;   80.400;   12.000; -129.000
328.337;  297.200;  957.000;  713.000
328.473;   37.300;  -12.000;  -74.000
328.608;   -1.800; -256.000; -267.000
328.743; -106.400; -799.000; -664.000
328.879;  114.300;  214.000;  114.000
329.014;  -79.900; -102.000; -122.000
329.150;  -99.700; -358.000; -483.000
329.285;  -94.200; -465.000; -466.000
329.421;  -40.300; -548.000; -246.000
329.556;   -7.700;  -36.000;   85.000
329.691; -141.300; -633.000; -615.000
329.827; -147.200; -626.000; -480.000
329.962;  -22.700;  131.000; -301.000
330.097; -146.600; -673.000; -585.000
330.233;  -50.900; -410.000; -223.000
330.368; -202.200; -839.000; -628.000
330.503;   40.300;    3.000;   98.000
330.638;   95.700;  -93.000; -125.000
330.774;  -44.600; -609.000; -530.000
330.909;   -2.300; -434.000; -244.000
331.044; -131.100; -714.000; -708.000
331.179; -312.800;-1217.000;-1109.000
331.315;   90.600;   77.000;   20.000
331.450;   83.400;  157.000;  285.000
331.585; -150.100; -805.000; -706.000
331.720; -115.400; -510.000; -460.000
331.855;   38.900;  -35.000; -102.000
331.990;  399.700;   62.000;  138.000
332.126;  237.600; -110.000;   71.000
332.261;   11.700; -379.000; -265.000
332.396;   32.100; -135.000; -242.000
332.531; -171.800;-1074.000;-1031.000
332.666;   71.800; -519.000; -363.000
332.801; -151.700; -726.000; -807.000
332.936;    1.100; -192.000; -122.000
333.071; -285.300; -870.000; -817.000
333.206;  105.800;  307.000;  379.000
333.341;  159.100;  344.000;  418.000
333.476; -131.400; -627.000; -623.000
333.611;  -33.000; -251.000; -173.000
333.746;  -23.500; -381.000; -464.000
333.881; -159.600; -973.000; -935.000
334.016; -204.900; -936.000; -917.000
334.151; -209.000; -746.000; -702.000
334.286;  141.000;  152.000;  186.000
334.421;   31.500; -125.000; -178.000
334.556; -103.000; -611.000; -567.000
334.690;  -98.800; -631.000; -577.000
334.825;  149.600;  381.000;   83.000
334.960;  -20.800; -285.000; -413.000
335.095;   96.900;  135.000;  -91.000
335.230; -129.600; -722.000; -738.000
335.365; -220.500;-1084.000; -990.000
335.499; -220.200;-1108.000;-1037.000
335.634;  108.000;    9.000;  534.000
335.769; -126.600; -755.000; -720.000
335.904;  -56.400; -603.000; -561.000
336.038;  -45.300; -735.000; -657.000
336.173; -143.200;-1206.000;-1194.000
336.308;   45.800; -116.000; -189.000
336.443;  103.400; -544.000; -634.000
336.577; -104.600; -936.000; -787.000
336.712;  205.700;   -4.000;  -12.000
336.847;   11.400; -724.000; -607.000
336.981;  207.400; -272.000; -208.000
337.116;  678.500;  615.000;  501.000
337.250;  389.500; -434.000; -421.000
337.385;  373.600; -297.000; -208.000
337.520;  111.100; -632.000; -603.000
337.654;  -24.400; -215.000; -126.000
337.789; -225.200; -989.000; -933.000
337.923;    4.000; -104.000; -205.000
338.058; -124.000; -673.000; -738.000
338.192;   -7.200; -611.000; -488.000
338.327;   60.000;  -18.000; -155.000
338.461;  -35.100; -299.000; -469.000
338.596; -144.500; -780.000; -638.000
338.730; -148.500; -767.000; -803.000
338.865;  195.300;  -46.000; -140.000
338.999; -133.100; -846.000; -702.000
339.134;  -51.300; -634.000; -536.000
339.268;   32.000; -741.000; -603.000
339.403;  543.400; -740.000; -775.000
339.537;  157.000; -894.000; -820.000
339.671; -207.400; -829.000; -813.000
339.806; -108.800; -556.000; -512.000
339.940;   30.100; -261.000; -235.000
340.074; -125.600; -685.000; -510.000
340.209;  -48.400; -351.000; -230.000
340.343; -154.200; -517.000; -573.000
340.477;  376.700;  998.000; 1036.000
340.612; -141.100;-1033.000; -900.000
340.746;  206.500; -199.000; -243.000
340.880;  -86.500; -924.000; -785.000
341.014;   23.100;  -45.000; -154.000
341.149; -207.200; -756.000; -718.000
341.283; -171.100; -839.000; -754.000
341.417; -104.100;-1124.000; -938.000
341.551;  391.600; -768.000; -708.000
341.685;   -2.100; -633.000; -611.000
341.820;  -78.100; -562.000; -493.000
341.954;  -51.000; -218.000; -349.000
342.088; -242.900;-1102.000;-1019.000
342.222;  151.700;  565.000;  618.000
342.356;  -64.400; -395.000; -335.000
342.490; -125.500; -880.000; -841.000
342.624;  -61.300; -339.000; -242.000
342.758;   97.600; -364.000; -312.000
342.892;  -55.800; -710.000; -585.000
343.026;   -2.600;  -58.000; -116.000
343.160;  -72.700; -426.000; -376.000
343.294; -120.100; -474.000; -337.000
343.428;   10.800; -488.000; -448.000
343.562;   43.100; -172.000;  -23.000
343.696;   26.000; -385.000; -314.000
343.830;   37.200; -362.000; -356.000
343.964;  111.500; -231.000; -168.000
344.098; 1975.100;  199.000;   70.000
344.232; 1665.500; -266.000; -127.000
344.366;  204.200; -567.000; -453.000
344.500;  201.700; -665.000; -744.000
344.634;  142.400; -324.000; -164.000
344.768;   54.100; -531.000; -341.000
344.902;  129.600;  278.000;  256.000
345.035;  -92.100; -556.000; -496.000
345.169; -207.400; -933.000; -656.000
345.303;   18.300; -308.000; -482.000
345.437;  -68.600; -826.000; -717.000
345.571; -107.300; -675.000; -594.000
345.704;  -94.000; -309.000; -532.000
345.838;   51.200; -331.000; -284.000
345.972;  -28.900; -543.000; -495.000
346.106;  291.200; -179.000; -190.000
346.239;  791.100; -312.000; -243.000
346.373;   67.900; -343.000; -302.000
346.507; -263.600; -950.000; -962.000
346.640;  382.400;  -30.000;   13.000
346.774;  -19.200; -650.000; -797.000
346.908;   51.900; -138.000;  -11.000
347.041; -157.500; -646.000; -593.000
347.175;   54.800;  259.000;   27.000
347.309;  -65.700; -698.000; -628.000
347.442; -148.900; -883.000; -732.000
347.576;  616.300;  670.000;  668.000
347.709;  482.400; -123.000;  -52.000
347.843; -123.100; -933.000; -825.000
347.976;  152.800;  235.000;  294.000
348.110; -320.300;-1268.000;-1186.000
348.243; -159.200; -679.000; -772.000
348.377;   42.100;  -26.000;   60.000
348.510;  217.000;  403.000;  540.000
348.644;  -20.700;  -37.000; -159.000
348.777;   59.900;  180.000;  191.000
348.911;  -31.400; -142.000; -112.000
349.044;  426.700;  471.000;  448.000
349.178;  393.900;-1069.000;-1006.000
349.311;  276.700;  141.000;  255.000
349.444;  -10.200; -927.000; -813.000
349.578;   55.000; -347.000; -200.000
349.711; -133.500; -959.000; -862.000
349.845;   16.200; -661.000; -591.000
349.978; -235.700;-1224.000;-1137.000
350.111; -127.500; -546.000; -612.000
350.244; -145.200; -596.000; -700.000
350.378;   86.300; -392.000; -393.000
350.511;  -75.100; -393.000; -426.000
350.644; -172.000; -808.000; -806.000
350.778;   67.400;  168.000;  104.000
350.911;   55.600;  134.000;  140.000
351.044; -123.100; -685.000; -615.000
351.177;  -13.000; -321.000; -281.000
351.310;   27.900;    3.000; -131.000
351.444; -102.800; -888.000; -788.000
351.577;  335.500;  140.000;   90.000
351.710;  261.500;  593.000;  417.000
351.843;   -7.400; -165.000;  -77.000
351.976;   63.700;  149.000;  -79.000
352.109; -116.600; -621.000; -612.000
352.242;    8.600; -464.000; -419.000
352.376;  -31.900; -580.000; -636.000
352.509;  453.800; -437.000; -356.000
352.642;   96.800; -654.000; -604.000
352.775;  182.700; -141.000;  -98.000
352.908; -194.100; -933.000; -904.000
353.041; -134.700; -814.000; -824.000
353.174;  -58.400; -551.000; -424.000
353.307; -110.700; -753.000; -764.000
353.440;  234.800;  541.000;  453.000
353.573; -180.900; -957.000;-1008.000
353.706;  -25.900; -384.000; -558.000
353.839;   23.800; -264.000; -220.000
353.971; -128.700; -657.000; -512.000
354.104; -129.100; -896.000; -835.000
354.237;   -7.300; -627.000; -662.000
354.370; -111.400; -846.000; -879.000
354.503; -322.500;-1231.000;-1308.000
354.636;   23.900; -529.000; -348.000
354.769; -213.400; -937.000; -860.000
354.902;   54.100; -230.000; -139.000
355.034;   21.500; -164.000; -220.000
355.167;    8.700; -262.000; -162.000
355.300; -129.400;-1061.000; -880.000
355.433; 1529.900;  -71.000;  -14.000
355.565; 2370.000; -402.000; -384.000
355.698;  599.900; -356.000; -296.000
355.831;    8.500; -882.000; -801.000
355.964;  249.600; -285.000; -170.000
356.096;  -86.100; -856.000; -843.000
356.229;   98.900; -523.000; -530.000
356.362;  523.700; -373.000; -266.000
356.494;  979.000; -229.000; -162.000
356.627; 1096.600;  269.000;  377.000
356.760; 1135.500;  120.000;   53.000
356.892; 1455.800; -286.000; -601.000
357.025; 1441.100;  403.000;  389.000
357.157; 1340.700; -167.000; -179.000
357.290;  888.600; -856.000; -713.000
357.423;  331.600; -667.000; -556.000
357.555;  296.900; -217.000; -228.000
357.688;  320.400; -483.000; -364.000
357.820;  823.500; -870.000; -877.000
357.953; 6788.400; -563.000; -589.000
358.085; 1638.400; -632.000; -612.000
358.218; 2845.900;-1131.000; -932.000
358.350;  504.500;  -58.000;  312.000
358.483; -150.300;-1300.000;-1187.000
358.615;   57.600;-1182.000;-1078.000
358.747;  -29.000;-1187.000;-1058.000
358.880;  149.700; -810.000; -744.000
359.012;   87.200; -376.000; -202.000
359.145;  -16.500; -480.000; -511.000
359.277;  113.700; -962.000; -913.000
359.409; 5837.600;  536.000;  231.000
359.542; 1467.700; -738.000; -688.000
359.674;  165.100;   46.000;   13.000
359.806;  -82.200; -565.000; -438.000
359.939;  -43.000; -617.000; -516.000
360.071;  -14.400; -583.000; -579.000
360.203;    5.300; -411.000; -364.000
360.335;  171.900;  164.000;  -16.000
360.468;  381.500; -249.000; -307.000
360.600; 4477.200; -547.000; -454.000
360.732; 4017.200; -546.000; -423.000
360.864;  571.900;-1216.000;-1044.000
360.996;  734.300; -516.000; -554.000
361.129;  160.000; -389.000; -598.000
361.261;   93.200;  110.000; -113.000
361.393;  -33.900; -252.000; -214.000
361.525;  124.000;   94.000;  244.000
361.657;  -55.100; -821.000; -703.000
361.789;  112.900; -139.000; -155.000
361.921;  632.600; -642.000; -593.000
362.053;  624.600;  524.000;  541.000
362.185;  172.000;  288.000;   72.000
362.318; -104.500; -709.000; -705.000
362.450;  386.600;  294.000;  444.000
362.582;  460.100; -913.000; -870.000
362.714;   20.000; -353.000; -332.000
362.846;  -80.400; -606.000; -490.000
362.978; -231.500; -941.000; -811.000
363.109;  165.200; -161.000; -260.000
363.241;  976.300; -739.000; -749.000
363.373;  698.200; -649.000; -564.000
363.505;  989.900; -186.000;  -91.000
363.637;  265.600; -787.000; -601.000
363.769; -179.800;-1067.000;-1080.000
363.901; -102.800; -596.000; -654.000
364.033; -162.200;-1103.000;-1062.000
364.165;   68.200; -283.000; -283.000
364.296;  141.200; -316.000; -177.000
364.428;   48.100;-1344.000;-1220.000
364.560;  -83.300; -679.000; -661.000
364.692;  -75.700; -738.000; -835.000
364.824;  718.200; -588.000; -456.000
364.955;  798.000; -402.000; -564.000
365.087; 1140.500;-1097.000; -852.000
365.219;   27.800; -686.000; -816.000
365.351; -107.600; -526.000; -572.000
365.482;  171.600;  300.000;  240.000
365.614;  -25.900; -402.000; -314.000
365.746; -135.100; -729.000; -752.000
365.877; -148.400; -706.000; -672.000
366.009;  427.100;  -35.000;  -62.000
366.141; -185.300;-1249.000;-1134.000
366.272; -161.200; -803.000; -719.000
366.404; -203.700;-1005.000; -874.000
366.535;   29.000; -139.000;  -12.000
366.667; -124.600; -644.000; -649.000
366.799;  159.600;  353.000;  203.000
366.930; -162.400; -862.000; -996.000
367.062;  261.300; -639.000; -613.000
367.193;  200.400; -872.000; -842.000
367.325;  -72.400; -580.000; -684.000
367.456;  271.500; -246.000;   31.000
367.588;  256.600; -371.000; -318.000
367.719;   59.900;  -44.000;  -45.000
367.851;   29.200; -222.000; -241.000
367.982;  -29.600; -875.000; -732.000
368.113;  283.900; -475.000; -358.000
368.245; -141.200; -960.000; -841.000
368.376;   46.000; -254.000; -302.000
368.508;   17.900; -188.000; -263.000
368.639; -241.400;-1166.000;-1034.000
368.770;  -12.400; -670.000; -589.000
368.902;  -52.700; -836.000; -926.000
369.033; -179.600; -906.000; -855.000
369.164;  -54.900; -720.000; -653.000
369.296; -138.600; -452.000; -601.000
369.427;   68.800; -209.000; -144.000
369.558;  -15.800; -593.000; -377.000
369.689; -119.000; -721.000; -569.000
369.821; -216.400; -951.000; -845.000
369.952;   44.800;   42.000; -108.000
370.083;  -49.200; -229.000; -108.000
370.214; -102.100; -735.000; -650.000
370.345;   33.000;   65.000;   81.000
370.477; -101.300; -810.000; -790.000
370.608;  577.300; -328.000; -264.000
370.739;  -17.800;-1233.000;-1292.000
370.870;   11.200;-1102.000; -923.000
371.001;  284.700; -378.000; -467.000
371.132;  -98.200; -754.000; -735.000
371.263;   48.500;  -42.000; -148.000
371.394; -210.000; -841.000; -748.000
371.525;  142.300;  345.000;  225.000
371.657; -120.600; -808.000; -670.000
371.788;  236.100;  103.000;  199.000
371.919;  435.400; -384.000; -304.000
372.050; 7603.800;  -91.000; -156.000
372.181; 2089.700; -188.000; -294.000
372.311;  846.700;   42.000; -127.000
372.442;  136.100; -457.000; -451.000
372.573;   22.500; -444.000; -340.000
372.704; -176.400;-1008.000; -980.000
372.835;  231.900; -228.000; -289.000
372.966;  -61.200; -646.000; -554.000
373.097;  -41.600; -575.000; -711.000
373.228;   35.000; -717.000; -542.000
373.359;  382.600; -824.000; -536.000
373.490; 2113.400; -881.000; -727.000
373.620; 2457.300;-1001.000; -803.000
373.751; 3983.100; -332.000; -396.000
373.882; 1721.500; -663.000; -733.000
374.013;  250.000; -449.000; -262.000
374.143;  -45.800; -581.000; -659.000
374.274; -171.100; -987.000; -908.000
374.405;  429.000; -388.000; -276.000
374.536; 1071.300; -526.000; -387.000
374.666; 2535.000; -759.000; -807.000
374.797;  579.100; -817.000; -868.000
374.928; 2060.900; -710.000; -560.000
375.058; 1967.200; -535.000; -500.000
375.189;  236.800;  -59.000;  -93.000
375.320; -145.700; -928.000;-1034.000
375.450;  -17.700; -625.000; -616.000
375.581;  -46.500; -526.000; -436.000
375.712;   15.900; -574.000; -250.000
375.842;  742.900; -438.000; -415.000
375.973;  538.700; -554.000; -513.000
376.103;   50.700; -665.000; -648.000
376.234; -107.100; -531.000; -552.000
376.364;   22.000; -944.000; -867.000
376.495;  783.200;  925.000;  529.000
376.625;   90.900; -472.000; -485.000
376.756;  190.400; -709.000; -678.000
376.886;  -85.100;-1178.000;-1026.000
377.017;   55.200;-1048.000;-1061.000
377.147;  499.200; -786.000; -782.000
377.278;  179.100;  174.000;  228.000
377.408; -198.700; -801.000; -815.000
377.538; -132.200; -707.000; -693.000
377.669;  -71.300; -537.000; -613.000
377.799;  -84.500; -645.000; -635.000
377.929;  -34.400; -610.000; -428.000
378.060; -213.400; -781.000; -847.000
378.190;  -59.200; -726.000; -531.000
378.320;  -52.400; -401.000; -406.000
378.451;   90.500; -131.000;  -22.000
378.581;  129.700;  -67.000; -110.000
378.711;  430.400; 1035.000;  866.000
378.841;   72.500; -533.000; -675.000
378.972;  -81.800; -871.000; -751.000
379.102;   94.700; -652.000; -579.000
379.232;   44.900; -126.000;  -73.000
379.362; -143.200;-1001.000; -885.000
379.492;  129.000; -373.000; -424.000
379.623;  263.100;    0.000;  111.000
379.753; -125.700;-1107.000; -974.000
379.883;  516.800;   59.000;  156.000
380.013;   81.200;-1081.000;-1017.000
380.143; -157.500;-1097.000;-1056.000
380.273; -127.900; -985.000; -861.000
380.403;   81.300; -344.000; -257.000
380.533;    7.000; -651.000; -664.000
380.663;  281.900;  173.000;  128.000
380.793; -112.400;-1027.000;-1074.000
380.923;   50.400; -103.000;  -34.000
381.053;  -98.300; -613.000; -623.000
381.183;   23.900; -106.000; -248.000
381.313;  171.100; -656.000; -470.000
381.443;  156.400; -692.000; -473.000
381.573;  531.600; -402.000; -409.000
381.703;  685.700;-1249.000;-1095.000
381.833; -149.900;-1454.000;-1336.000
381.963;  294.000; -134.000;  -87.000
382.093; 2862.400; -925.000; -909.000
382.223;  840.300; -713.000; -602.000
382.353;   70.500; -801.000; -608.000
382.482;  960.900;-1091.000; -964.000
382.612; 1638.100; -872.000; -644.000
382.742;  899.700; -695.000; -622.000
382.872;  705.500; -565.000; -551.000
383.002;  228.900;  347.000; -132.000
383.131;   32.300; -226.000; -160.000
383.261;  -19.400; -706.000; -768.000
383.391;  551.300; -552.000; -377.000
383.521; 4572.300;  451.000;  263.000
383.650;  939.100; -947.000; -904.000
383.780;  -14.700; -783.000; -656.000
383.910;  290.800;  880.000;  802.000
384.039;  177.000; -794.000; -656.000
384.169;  500.700;-1205.000;-1017.000
384.299;   56.000; -650.000; -662.000
384.428; -128.900; -764.000; -680.000
384.558;   41.700; -308.000; -275.000
384.687;   47.500; -414.000; -334.000
384.817;  139.700;   75.000;   -2.000
384.947;  167.500; -234.000; -141.000
385.076;  763.900;  982.000;  912.000
385.206;  334.500;  369.000;  480.000
385.335;   41.600; -549.000; -417.000
385.465;  -41.200; -655.000; -663.000
385.594;  420.100;  -53.000;  -44.000
385.724; 1012.600; -868.000; -838.000
385.853;  359.100; -296.000; -270.000
385.982; 3226.400; -743.000; -787.000
386.112; 4525.400;-1052.000; -871.000
386.241;  426.600; -307.000; -312.000
386.371;  111.100; -174.000;  -87.000
386.500;   69.300; -825.000; -789.000
386.629;  104.300; -874.000; -817.000
386.759;  203.300;  -43.000;   68.000
386.888;  156.600; -170.000; -250.000
387.017;    8.400; -648.000; -620.000
387.147;  -69.500; -771.000; -798.000
387.276;  145.700; -410.000; -397.000
387.405;  120.700; -398.000; -342.000
387.535;   10.500; -452.000; -361.000
387.664;  -52.300; -692.000; -620.000
387.793;  257.600; -198.000; -113.000
387.922; 1266.700;  255.000;  200.000
388.052;  180.200; -576.000; -423.000
388.181;  208.800; -342.000; -472.000
388.310;  239.100; -889.000; -710.000
388.439;   41.700; -749.000; -742.000
388.568;  566.800;  365.000;  244.000
388.697; 2421.200; -756.000; -653.000
388.826;  493.700; -768.000; -666.000
388.956;  224.500; -285.000; -307.000
389.085;   54.700; -347.000; -287.000
389.214; -121.600; -842.000; -872.000
389.343;  -74.100; -645.000; -413.000
389.472;  746.600;  126.000;  149.000
389.601;  932.200;   91.000;    0.000
389.730;   91.600; -568.000; -687.000
389.859;  229.100;  226.000;   46.000
389.988;  487.500; -423.000; -408.000
390.117;  328.300; -168.000; -146.000
390.246;   63.800; -331.000; -320.000
390.375;  332.000; -673.000; -626.000
390.504;  -60.500; -703.000; -621.000
390.633; -129.700; -672.000; -726.000
390.761;  -55.500; -732.000; -645.000
390.890;  155.300;   -4.000; -130.000
391.019;   49.300; -421.000; -441.000
391.148; -177.400; -826.000; -855.000
391.277;  -52.200; -576.000; -493.000
391.406;  -50.000; -821.000; -805.000
391.534;  130.400;  574.000; -301.000
391.663;  -35.000; -583.000; -645.000
391.792;  -87.600; -673.000; -701.000
391.921;  415.100;   -3.000;   15.000
392.050;  548.400; -287.000; -228.000
392.178;  -23.400;-1206.000;-1061.000
392.307;  437.200; -758.000; -712.000
392.436;  215.200; -427.000; -641.000
392.564;  112.400;  166.000;   -6.000
392.693; -136.500; -860.000; -682.000
392.822;  588.600; -529.000; -534.000
392.950;  326.100; -880.000; -714.000
393.079;  815.200; -188.000; -328.000
393.208;  106.900; -488.000; -511.000
393.336;   58.700; -170.000; -145.000
393.465;  -29.300; -317.000; -199.000
393.593;   95.000;   62.000;   79.000
393.722; -243.600;-1121.000; -916.000
393.850;   -7.100; -188.000;  -61.000
393.979; -237.300; -926.000; -805.000
394.107;  -52.000; -517.000; -537.000
394.236;   34.900; -570.000; -507.000
394.364;  652.100;  383.000;  206.000
394.493; 1037.600; -911.000; -767.000
394.621;   28.300; -955.000; -916.000
394.750; 1140.300; -873.000; -923.000
394.878; 4796.300; -247.000; -149.000
395.007; 6095.200; -721.000; -807.000
395.135;  458.000; -790.000; -721.000
395.263; -159.000;-1038.000;-1040.000
395.392;   71.500;  -25.000; -107.000
395.520; -212.700; -818.000; -679.000
395.648; -111.700; -865.000; -915.000
395.777;   50.100; -366.000; -405.000
395.905;  -24.000; -449.000; -564.000
396.033;  112.900;  217.000;  172.000
396.162; 1679.300; -399.000; -453.000
396.290; 1440.100;  -17.000;   -2.000
396.418;  352.600; -555.000; -514.000
396.546; -107.100; -571.000; -466.000
396.674; -143.300; -850.000; -878.000
396.803;   84.500;  -72.000;  -23.000
396.931;  281.700; -179.000; -199.000
397.059;  186.400;-1026.000; -989.000
397.187; -128.300;-1026.000; -975.000
397.315; -231.200; -884.000; -649.000
397.443; -130.300; -592.000; -443.000
397.572; -113.800; -578.000; -424.000
397.700;   52.000; -607.000; -614.000
397.828;   95.900;  120.000;  -90.000
397.956;  -40.800; -508.000; -478.000
398.084; -113.100; -767.000; -626.000
398.212;  180.400;  137.000;  124.000
398.340;  134.700;  -56.000;  159.000
398.468;  158.200; -390.000; -169.000
398.596; -233.600; -993.000; -953.000
398.724; -163.800; -762.000; -767.000
398.852; -247.200;-1024.000; -976.000
398.980;  -79.500; -560.000; -560.000
399.108;  -30.900; -982.000; -735.000
399.236;  129.600;   13.000;    8.000
399.363;  110.800;  222.000;  196.000
399.491;  -73.900; -404.000; -398.000
399.619; -186.100; -829.000; -800.000
399.747; -135.900; -859.000; -771.000
399.875;  247.500;  220.000;  234.000
400.003;  -31.900; -359.000; -284.000
400.130; -137.700; -421.000; -341.000
400.258;    7.200;  -83.000;   38.000
400.386;  -32.500; -352.000; -168.000
400.514;  -11.700; -526.000; -587.000
400.641;  -60.600; -928.000; -802.000
400.769; -197.300; -979.000; -888.000
400.897;  -54.100; -838.000; -793.000
401.025;   53.000; -166.000; -152.000
401.152;   69.900;  220.000;   38.000
401.280;  -89.200; -430.000; -429.000
401.408; -174.400; -712.000; -576.000
401.535; -157.400; -735.000; -758.000
401.663; -314.400;-1134.000;-1054.000
401.790;  -89.400; -514.000; -525.000
401.918;  176.500;  436.000;  405.000
402.046;   26.900;  134.000;  122.000
402.173;   14.700;  -18.000;    7.000
402.301;  -38.100; -519.000; -397.000
402.428;  153.500;  528.000;  383.000
402.556; -207.200;-1188.000; -913.000
402.683;   16.600;  -20.000;   -1.000
402.811;   27.500;  -37.000; -206.000
402.938;   51.400;   20.000;   27.000
403.066;  482.400; -574.000; -558.000
403.193;  687.800;  299.000;  239.000
403.321;  556.100; -396.000; -574.000
403.448;  703.600;   83.000;   27.000
403.575;  357.500;  -90.000;  -46.000
403.703; -110.200; -732.000; -557.000
403.830;  -64.900; -531.000; -496.000
403.957; -215.200;-1117.000;-1023.000
404.085;  101.000;  -61.000; -172.000
404.212;  295.800;  -50.000;   63.000
404.339;  525.800; -566.000; -306.000
404.467; 9150.000; -612.000; -524.000
404.594; 6317.500; -287.000; -227.000
404.721; 1677.300; -869.000; -764.000
404.848;  209.600; -113.000; -202.000
404.976; -153.300; -856.000; -783.000
405.103;   35.900;  -14.000;  -82.000
405.230;   85.200;  190.000;  226.000
405.357;  155.200;  117.000;   44.000
405.484;  484.300;  -49.000;    5.000
405.612;  106.500; -548.000; -563.000
405.739;  -75.800; -488.000; -243.000
405.866;  263.100;  669.000;  385.000
405.993;    0.300; -398.000; -102.000
406.120; -194.400; -801.000; -887.000
406.247;  -35.800; -323.000; -342.000
406.374; 1123.200;  540.000;  629.000
406.501;  321.100; -632.000; -702.000
406.628;  -59.600; -621.000; -589.000
406.755; -110.900; -803.000; -620.000
406.882;   13.900; -228.000; -277.000
407.009; -120.700; -719.000; -628.000
407.136;  245.300; -480.000; -401.000
407.263;  443.600; -939.000; -829.000
407.390;  -62.200; -692.000; -614.000
407.517; -210.700;-1139.000;-1187.000
407.644;  -22.300; -332.000; -256.000
407.771;  -52.200; -249.000; -287.000
407.898;   92.900;  168.000;  328.000
408.025;  -44.600; -421.000; -313.000
408.151;   80.600;   82.000;  153.000
408.278;  -70.600; -267.000; -216.000
408.405; -188.600; -931.000; -899.000
408.532;  -80.400; -549.000; -542.000
408.659; -171.300; -677.000; -648.000
408.785; -351.000;-1298.000;-1170.000
408.912;  -31.100; -412.000; -296.000
409.039; -156.900; -610.000; -686.000
409.166; -161.400; -591.000; -555.000
409.292; -138.700; -571.000; -534.000
409.419; -185.900; -665.000; -649.000
409.546;  -87.700; -431.000; -192.000
409.672; -157.700; -713.000; -545.000
409.799;   52.300;  -36.000;   34.000
409.926;  -44.900; -180.000; -179.000
410.052; -297.500;-1127.000;-1091.000
410.179;  -60.600; -368.000; -392.000
410.305;  -96.800; -375.000; -493.000
410.432;  -24.200; -220.000; -333.000
410.558; -102.000; -305.000; -380.000
410.685; -143.100; -688.000; -431.000
410.812; -130.500; -409.000; -588.000
410.938; -195.900; -964.000; -808.000
411.065; -116.500; -671.000; -645.000
411.191;   10.300; -189.000; -174.000
411.317; -176.400; -823.000; -742.000
411.444;  -41.000; -317.000; -246.000
411.570;  -90.600; -339.000; -294.000
411.697; -199.200; -758.000; -752.000
411.823; -274.600; -989.000; -999.000
411.949;    8.700;  -56.000;   17.000
412.076; -144.800; -539.000; -519.000
412.202; -165.900; -758.000; -757.000
412.329; -187.500; -798.000; -752.000
412.455; -159.100; -821.000; -657.000
412.581;   33.600;  -15.000;  172.000
412.707;  -68.700; -540.000; -457.000
412.834;  126.000;  156.000;  219.000
412.960;  -96.200; -785.000; -784.000
413.086; -133.900; -743.000; -701.000
413.212;  431.000;  604.000;  578.000
413.339;  -54.400; -685.000; -701.000
413.465;  114.600; -364.000; -310.000
413.591; -103.700; -757.000; -474.000
413.717;  -24.400; -358.000; -366.000
413.843; -227.600; -839.000; -861.000
413.969;  -41.900;  -47.000; -292.000
414.096; -127.700; -679.000; -679.000
414.222;   56.400;  -33.000;   85.000
414.348;   52.100; -652.000; -385.000
414.474;  309.700;   38.000;  -52.000
414.600;   62.000; -126.000; -144.000
414.726;   41.800;  -96.000;  -55.000
414.852;  -37.400; -365.000; -342.000
414.978;  130.600;  104.000;  -18.000
415.104;  184.400;   38.000;   80.000
415.230;   98.600; -329.000; -330.000
415.356;   85.500; -409.000; -514.000
415.482;  402.100;   13.000;  -35.000
415.608;  507.100; -247.000; -323.000
415.734; 1784.300;   67.000;   38.000
415.860;35222.400; -875.000; -767.000
415.986;22986.500; -685.000; -607.000
416.111; 1852.200; -798.000; -652.000
416.237;  408.400; -424.000; -571.000
416.363; 1865.500; -765.000; -733.000
416.489; 6420.300; -324.000; -251.000
416.615;  633.600; -707.000; -742.000
416.741;  -43.300; -677.000; -784.000
416.866; -148.100; -673.000; -736.000
416.992; -184.700; -801.000; -818.000
417.118;   14.200;  -41.000;  -80.000
417.244;  -72.700; -798.000; -531.000
417.369; -114.600; -801.000; -612.000
417.495;   70.200; -325.000; -254.000
417.621; -114.900;-1015.000; -803.000
417.746;   20.500; -579.000; -572.000
417.872;  143.800; -254.000; -144.000
417.998;  130.900; -515.000; -530.000
418.123; 1912.700;-1073.000; -845.000
418.249; 8447.000; -512.000; -601.000
418.374; 1034.300; -916.000; -824.000
418.500;  202.900; -383.000; -482.000
418.626;  270.700;   70.000;  -59.000
418.751;  252.100; -549.000; -448.000
418.877;  344.500; -637.000; -643.000
419.002; 3304.700; -688.000; -560.000
419.128;19983.600; -930.000; -721.000
419.253; 4275.200; -967.000; -837.000
419.379;  569.200; -391.000; -338.000
419.504;  674.500;  325.000;  415.000
419.629;  810.800; -393.000; -212.000
419.755; 5803.600; -317.000; -254.000
419.880;30918.300;  -98.000;   67.000
420.006;18565.700; -280.000; -221.000
420.131;46946.300; -662.000; -775.000
420.256; 6105.500; -315.000; -316.000
420.382;  864.800; -665.000; -687.000
420.507;  132.000; -649.000; -778.000
420.632;  391.400; -337.000; -339.000
420.758;  666.900; -251.000; -425.000
420.883;  -88.400; -876.000; -672.000
421.008; -121.100; -775.000; -619.000
421.133;  -99.200; -509.000; -467.000
421.259;   -1.300; -325.000; -259.000
421.384; -167.500; -834.000; -693.000
421.509;   -3.900;-1052.000; -862.000
421.634; 3027.600; -936.000; -820.000
421.759; 1165.900; -359.000; -327.000
421.885;  -59.100; -717.000; -656.000
422.010;  -34.200; -673.000; -542.000
422.135; -201.900; -695.000; -727.000
422.260;  179.800;  340.000;  280.000
422.385;   -8.800;   12.000;  -98.000
422.510;  105.900;  151.000;  -26.000
422.635;  104.200;  -87.000;  -43.000
422.760;  230.000; -766.000; -791.000
422.885;  161.500;  -57.000;  -80.000
423.010;    1.500; -112.000; -169.000
423.135; -130.300; -481.000; -561.000
423.260;   89.200; -150.000; -245.000
423.385;  217.100;  476.000;  222.000
423.510;  148.000;   71.000;  -22.000
423.635;  250.200;  133.000;   45.000
423.760;  189.600;  383.000;  328.000
423.885;  208.100;  336.000;  391.000
424.010;   70.600;  -68.000;  -13.000
424.135;   20.600;    5.000;  -33.000
424.259; -111.800; -654.000; -457.000
424.384;  -43.500; -279.000; -272.000
424.509;   74.100; -260.000; -186.000
424.634; -142.600; -761.000; -623.000
424.759;    3.500; -688.000; -544.000
424.883;   42.000; -506.000; -527.000
425.008;  332.600; -502.000; -410.000
425.133; 3300.000; -679.000; -653.000
425.258; 1383.500; -517.000; -381.000
425.382; 2230.400; -867.000; -774.000
425.507; 5168.100; -487.000; -543.000
425.632;  780.600; -802.000; -663.000
425.756;  705.000; -256.000; -146.000
425.881;10005.300; -831.000; -857.000
426.006;23801.400; -604.000; -355.000
426.130; 3524.200; -696.000; -508.000
426.255;  493.800; -611.000; -491.000
426.379;  293.600; -189.000; -577.000
426.504;  767.000;  660.000;  544.000
426.629; 7211.300; -519.000; -466.000
426.753; 4370.500;   64.000;  -46.000
426.878;  581.800; -252.000; -288.000
427.002;  371.400; -651.000; -668.000
427.127; 2934.500;  -35.000; -158.000
427.251;18242.800;  372.000;  401.000
427.375; 4717.800; -191.000; -173.000
427.500; 4592.100; -616.000; -610.000
427.624; 1431.500; -234.000; -400.000
427.749;  306.700; -216.000; -225.000
427.873;   19.500; -499.000; -412.000
427.997;   23.000; -222.000; -230.000
428.122;  268.400;  795.000;  703.000
428.246;  226.800;  433.000;  434.000
428.371; -180.700; -869.000; -773.000
428.495; -132.300; -624.000; -646.000
428.619;   34.600; -186.000; -117.000
428.743;  143.500;   65.000;  132.000
428.868;  140.800; -732.000; -643.000
428.992; 3007.800; -219.000; -326.000
429.116; 1255.200; -329.000; -357.000
429.240;  682.500;  419.000;  426.000
429.365;   52.100; -454.000; -574.000
429.489;   27.600; -638.000; -647.000
429.613;  127.200; -236.000; -177.000
429.737;  127.400; -563.000; -432.000
429.861;  550.800; -247.000; -133.000
429.985; 9572.100; -425.000; -305.000
430.109; 9354.000; -770.000; -908.000
430.234; 1115.500;   76.000;  -50.000
430.358;  164.500; -250.000; -160.000
430.482;  -59.200; -672.000; -564.000
430.606;  -55.200; -655.000; -375.000
430.730;  181.600; -437.000; -388.000
430.854;  427.300; -909.000; -835.000
430.978;  -41.800; -795.000; -764.000
431.102;  -62.500; -499.000; -422.000
431.226;  -61.800; -874.000; -815.000
431.350;  225.400;  345.000;  422.000
431.474;   -1.700; -661.000; -373.000
431.597; -220.300;-1060.000; -848.000
431.721;  -87.500; -276.000; -267.000
431.845; -199.500; -704.000; -472.000
431.969;  -88.200; -304.000; -349.000
432.093; -111.900; -395.000; -317.000
432.217;   44.900;   32.000;   82.000
432.341; -103.900; -523.000; -518.000
432.464;   96.000;   96.000;   40.000
432.588;  633.800; -401.000; -329.000
432.712;  267.800;  -52.000;  -52.000
432.836;  159.400;  213.000;  263.000
432.959;   -0.800; -372.000; -311.000
433.083;  185.200;   11.000;    2.000
433.207;  683.900;  285.000;  930.000
433.330; 8342.300; -391.000; -200.000
433.454; 9171.800; -654.000; -638.000
433.578; 5658.700;  583.000;  278.000
433.701;  973.900; -623.000; -675.000
433.825;  417.500; -292.000; -299.000
433.949;  615.600;   28.000;  -72.000
434.072;  225.400; -410.000; -323.000
434.196;   41.300; -309.000; -117.000
434.319; 7835.500;25482.000;25124.000
434.443; 1504.000; -656.000; -603.000
434.566; 4207.000;  281.000;   62.000
434.690;  619.800; -637.000; -383.000
434.813;  140.000; -251.000; -173.000
434.937;  -85.700; -569.000; -696.000
435.060;   58.100; -423.000; -332.000
435.184; 1011.000; -492.000; -217.000
435.307;  509.900;  159.000;  102.000
435.431;   60.800;  -40.000;   24.000
435.554;  -78.400; -399.000; -240.000
435.677;  -64.900; -350.000; -258.000
435.801;    5.400;  -25.000;   49.000
435.924;   67.600;    1.000;  -67.000
436.048; -104.900;-1019.000; -732.000
436.171;  -37.500; -240.000;  -66.000
436.294;    0.800; -248.000; -229.000
436.417;  138.900; -963.000; -849.000
436.541; -113.500; -814.000; -840.000
436.664;  -16.800; -242.000; -316.000
436.787;   86.100;   13.000;  113.000
436.910; -142.500; -792.000; -422.000
437.034;  115.300;  142.000;  143.000
437.157;  265.100;  -11.000;    0.000
437.280;   18.500; -392.000; -292.000
437.403;  -76.800; -982.000; -869.000
437.526; 1929.200; -903.000; -865.000
437.649; 5745.200; -505.000; -332.000
437.772;  819.500; -692.000; -540.000
437.896;  356.100;  700.000;  544.000
438.019;  -96.600; -758.000; -503.000
438.142;  -98.400; -596.000; -506.000
438.265;  132.400; -639.000; -670.000
438.388; 1493.700; -520.000; -410.000
438.511;  301.200; -597.000; -394.000
438.634;   -3.500; -247.000; -125.000
438.757; -185.000; -693.000; -619.000
438.880;   32.400;  -34.000;  -57.000
439.003;  -45.600; -417.000; -437.000
439.126;  -48.900; -287.000; -167.000
439.248;  -63.600;  -98.000; -139.000
439.371;  -51.300;    9.000;  -53.000
439.494;  106.400;  510.000;  439.000
439.617;  -40.700;   65.000;  -88.000
439.740; -311.900; -968.000; -816.000
439.863; -219.100; -755.000; -595.000
439.986; -152.400; -476.000; -431.000
440.108;  -20.800; -161.000; -112.000
440.231; -259.500; -950.000; -836.000
440.354;   26.400;  -64.000; -150.000
440.477;  228.500; -566.000; -542.000
440.599;  128.000; -200.000; -225.000
440.722; -159.800; -709.000; -586.000
440.845;  218.200;  751.000;  928.000
440.968; -154.100; -415.000; -311.000
441.090;  -40.200; -199.000;  -33.000
441.213; -284.600;-1021.000; -825.000
441.336;   -9.000; -159.000;   -5.000
441.458;  -70.300; -549.000; -396.000
441.581;  -84.900; -628.000; -629.000
441.703;  -50.700; -152.000;   13.000
441.826; -159.400; -557.000; -400.000
441.948;  -32.200;   56.000;   51.000
442.071;  147.800;  555.000;  424.000
442.193; -138.300; -531.000; -485.000
442.316;   91.600;  152.000;   97.000
442.438;  136.800; -233.000;  -10.000
442.561;  231.000;  272.000;  262.000
442.683; 1598.700; -809.000; -522.000
442.806; 2728.200;   -8.000;   74.000
442.928;  111.000; -859.000; -604.000
443.051;  -60.700; -577.000; -373.000
443.173; -109.700; -341.000; -339.000
443.295; -112.000; -263.000; -371.000
443.418;  -69.800; -321.000;  -29.000
443.540;   38.200; -106.000;   -4.000
443.662; -196.900; -563.000; -465.000
443.785;   44.900;  335.000;  199.000
443.907; -140.400; -362.000; -208.000
444.029; -186.800; -767.000; -494.000
444.152; -221.100; -644.000; -554.000
444.274;    5.200;  -18.000;  -24.000
444.396; -147.100; -461.000; -221.000
444.518; -203.600; -691.000; -454.000
444.640; -135.300; -268.000; -111.000
444.763;   37.200;  388.000;  249.000
444.885; -156.700; -432.000; -392.000
445.007;   13.500;   35.000;   86.000
445.129; -149.400; -610.000; -515.000
445.251; -138.000; -372.000; -439.000
445.373; -225.300; -537.000; -386.000
445.495;   82.100;  242.000;  350.000
445.617;  163.000;  853.000;  753.000
445.739;  -60.500; -215.000;  -97.000
445.861;  -12.900; -245.000; -112.000
445.984;   32.300; -267.000; -101.000
446.105;  598.300; -418.000; -251.000
446.227; 1490.200; -176.000;  -19.000
446.349;   52.300; -358.000; -249.000
446.471; -144.800; -615.000; -448.000
446.593;  -37.800; -316.000;   19.000
446.715;   54.000;  -67.000;   41.000
446.837;  216.800;  697.000;  832.000
446.959; -131.100; -457.000; -478.000
447.081; -229.700; -628.000; -518.000
447.203;  192.200;  862.000;  834.000
447.325;  -90.500; -270.000;   42.000
447.446;   91.600;  286.000;  530.000
447.568; -256.500; -921.000; -803.000
447.690;  -92.100; -236.000; -245.000
447.812; -240.600; -798.000; -519.000
447.933;    5.600;  155.000;  127.000
448.055;  -76.600; -306.000; -261.000
448.177;  446.600;   31.000;   79.000
448.299;  222.400; -935.000; -727.000
448.420;  142.100;  -25.000;  159.000
448.542;  -10.600;   -3.000;   33.000
448.664;   33.200;  109.000;  322.000
448.785;  -24.600;  265.000;   83.000
448.907;  -95.600; -614.000; -353.000
449.028;   12.800; -771.000; -471.000
449.150;  171.800;  492.000;  589.000
449.272; -297.000;-1044.000; -913.000
449.393;  125.000;  612.000;  694.000
449.515; -217.400; -634.000; -581.000
449.636;  -64.800; -264.000; -155.000
449.758;  288.700;  763.000;  622.000
449.879;  -81.300; -498.000; -396.000
450.001;  -99.200; -149.000;  -49.000
450.122;    1.000;  -95.000;  162.000
450.244;   37.500;   37.000;  364.000
450.365; -118.900; -495.000; -301.000
450.486;  -13.800;   80.000;  268.000
450.608;  137.600;  393.000;  326.000
450.729;  203.300;  578.000;  645.000
450.850;   15.300; -574.000; -466.000
450.972; 1230.800; -552.000; -389.000
451.093; 7616.800;  190.000;  588.000
451.214; 2790.800; -516.000; -337.000
451.336;  631.300;  773.000;  579.000
451.457;  144.700;  264.000;  393.000
451.578;  -36.500; -118.000;  -74.000
451.699; -180.600; -546.000; -540.000
451.821;  -78.900; -284.000;  -50.000
451.942;   55.800;  278.000;  285.000
452.063;  133.100;  228.000;  419.000
452.184; 1027.200;  -54.000;  -49.000
452.305; 1770.900;  103.000;  170.000
452.427;  211.300; -549.000; -301.000
452.548;   38.000;   23.000;   79.000
452.669;  -64.200; -257.000;  -89.000
452.790;   -2.000;    3.000;  -18.000
452.911;   36.200;  195.000;  259.000
453.032;  -43.000; -289.000;  -60.000
453.153;    8.000;  -29.000;   81.000
453.274;  186.800;  737.000;  868.000
453.395;   17.800;  -51.000;  175.000
453.516;  339.800; 1317.000; 1388.000
453.637;  -29.800; -205.000; -150.000
453.758;  -54.400;   15.000;   69.000
453.879; -159.900; -462.000; -250.000
454.000;  281.400; 1086.000;  948.000
454.121; -157.700; -554.000; -326.000
454.242; -150.000; -599.000; -383.000
454.362;  -13.100;  -99.000;  114.000
454.483;   10.500; -309.000; -229.000
454.604;  256.900;  512.000;  580.000
454.725; -176.600; -627.000; -555.000
454.846; -187.300; -474.000; -406.000
454.967;   31.800;  230.000;  539.000
455.087;    9.600;  179.000;  153.000
455.208;  110.100;  554.000;  856.000
455.329;  -56.300;  -22.000;   82.000
455.450;  136.200;  473.000;  633.000
455.570; -113.600; -234.000; -211.000
455.691;  -13.700;  201.000;  407.000
455.812; -145.800; -270.000;  -92.000
455.932;  -57.700;  107.000;  -97.000
456.053; -101.000;   36.000;   24.000
456.173; -153.300; -433.000; -355.000
456.294; -211.200; -476.000; -303.000
456.415;  -79.700;  -73.000;   70.000
456.535;  -11.500;  297.000;  273.000
456.656;  -22.500;  132.000;  240.000
456.776;  -50.300;    3.000;  298.000
456.897;   73.000;  308.000;  513.000
457.017;  -96.900; -153.000;   -3.000
457.138; -153.300; -402.000; -249.000
457.258;   16.500;  263.000;  224.000
457.379;   69.000;  509.000;  521.000
457.499;   -6.400;  443.000;  432.000
457.620; -161.000; -407.000; -231.000
457.740; -104.600; -132.000;  -11.000
457.860;  -46.500;   87.000;   44.000
457.981;  -21.300;  132.000;  124.000
458.101;  -64.300;  -89.000;   40.000
458.221;   56.100;  336.000;  402.000
458.342;  -34.300;   -4.000;  -37.000
458.462;  111.200;  617.000;  352.000
458.582;  -65.000; -302.000; -294.000
458.703;   70.700;  303.000;  154.000
458.823;   14.200;   22.000;  163.000
458.943;  104.700;  341.000;  467.000
459.063;   29.800; 1124.000;  192.000
459.183;   27.400;  328.000;  313.000
459.304;  113.600;  315.000;  517.000
459.424; -101.000; -246.000;  -89.000
459.544;  664.000;  388.000;  764.000
459.664; 1376.400;  499.000;  506.000
459.784;  550.100; 1004.000; 1175.000
459.904;  177.500;  867.000;  744.000
460.024;  210.000;  867.000;  684.000
460.144;   82.700;  449.000;  554.000
460.264;   65.000;  515.000;  327.000
460.385; -134.000; -145.000; -119.000
460.505;  164.400;  905.000;  858.000
460.625; -101.100;  -17.000;  -68.000
460.745;   40.600;  396.000;  541.000
460.864;    4.000;  153.000;  469.000
460.984;  165.100;  499.000;  573.000
461.104;  363.300; 1656.000; 1775.000
461.224;   92.600;  657.000;  650.000
461.344;   33.200;  431.000;  360.000
461.464;   21.300;  258.000;  513.000
461.584;   59.300;  283.000;  466.000
461.704;   -6.600;   58.000;  108.000
461.824;  -29.800;  238.000;  259.000
461.943;   -9.000;  191.000;  130.000
462.063;  -86.400;    2.000;  324.000
462.183;  118.300;  639.000;  717.000
462.303;  283.800; 1678.000; 1230.000
462.422;  110.400;  781.000;  840.000
462.542;  -11.500;  271.000;  391.000
462.662;  157.900;  353.000;  380.000
462.782;  494.800;  833.000;  572.000
462.901;  865.000;  545.000;  717.000
463.021;  567.400; 1702.000; 1638.000
463.141;   49.600;  337.000;  770.000
463.260;   29.100;  614.000;  474.000
463.380;   88.500;  902.000;  884.000
463.499;   12.200;  342.000;  332.000
463.619;   15.700;  581.000;  559.000
463.738;  300.100; 1644.000;  903.000
463.858;  123.900;  657.000;  811.000
463.978;   -5.500;  542.000;  396.000
464.097;  168.900;  921.000; 1114.000
464.217;  260.300; 1196.000; 1143.000
464.336;  277.900; 1068.000; 1130.000
464.455;    0.100;  328.000;  659.000
464.575;  212.800;  597.000;  602.000
464.694;  440.200; 1204.000; 1179.000
464.814;  329.600; 1190.000; 1138.000
464.933;  231.200; 1095.000; 1027.000
465.052;  270.900; 1412.000; 1054.000
465.172;  225.800;  922.000;  799.000
465.291;  392.800; 1376.000; 1320.000
465.410;   89.400;  462.000;  735.000
465.530;  264.000; 1355.000; 1310.000
465.649;  279.100; 1209.000; 1273.000
465.768;  363.900; 1673.000; 1508.000
465.888;  174.100;  941.000; 1174.000
466.007;  309.600; 1335.000; 1440.000
466.126;   80.600;  721.000;  641.000
466.245;  178.900; 1176.000; 1187.000
466.364;  123.000;  950.000; 1060.000
466.484;  196.800; 1024.000; 1213.000
466.603;  174.000; 1101.000; 1222.000
466.722;  316.500; 1490.000; 1769.000
466.841;  251.400; 1151.000; 1401.000
466.960;  148.700; 1069.000;  972.000
467.079;  332.400; 1971.000; 1786.000
467.198;  187.600; 1238.000; 1181.000
467.317;  231.100; 1768.000; 1162.000
467.436;  255.000; 1709.000; 1261.000
467.555;  338.800; 1796.000; 1746.000
467.674;  217.800; 1227.000; 1329.000
467.793;  195.800; 1376.000; 1374.000
467.912;  283.100; 1658.000; 1539.000
468.031;  363.500; 2038.000; 1930.000
468.150;  380.700; 1842.000; 1837.000
468.269;  478.300; 2313.000; 2090.000
468.388;  480.400; 2168.000; 2339.000
468.507;  634.900; 2884.000; 2903.000
468.626;  628.400; 2555.000; 2541.000
468.744;  402.300; 2018.000; 2174.000
468.863;  485.900; 2312.000; 2523.000
468.982;  254.000; 1503.000; 1555.000
469.101;  563.500; 2788.000; 2692.000
469.220;  367.500; 2333.000; 2176.000
469.338;  579.800; 2935.000; 3051.000
469.457;  494.000; 2719.000; 2545.000
469.576;  813.000; 3953.000; 3784.000
469.695;  573.100; 2877.000; 3066.000
469.813;  969.100; 4148.000; 4192.000
469.932;  962.200; 4255.000; 4485.000
470.051;  978.700; 4075.000; 4161.000
470.169; 1656.000; 4470.000; 4338.000
470.288; 2613.600; 4700.000; 4809.000
470.406; 1694.800; 5059.000; 5194.000
470.525; 1371.000; 6101.000; 5787.000
470.644; 1387.300; 6847.000; 6794.000
470.762; 1732.200; 8397.000; 7873.000
470.881; 1891.600; 8651.000; 8464.000
470.999; 2163.200; 9685.000; 9151.000
471.118; 2283.800;11174.000;10711.000

