
Integration time [ms]: 200.000
Averaging Nr. [scans]: 10
Smoothing Nr. [pixels]: 0
Data measured with spectrometer [name]: 2101012U2
Wave   ;Sample   ;Dark     ;Reference
[nm]   ;[counts] ;[counts] ;[counts] 

197.733;  113.400;  516.000;  404.000
197.879; -198.700; -610.000; -634.000
198.025;  -87.500; -475.000; -420.000
198.171; -165.300; -602.000; -612.000
198.317;  -70.600; -401.000; -316.000
198.463; -115.600; -655.000; -404.000
198.609;   72.000;  181.000; -137.000
198.755; -187.700; -644.000; -410.000
198.901; -152.100; -505.000; -424.000
199.047; -157.000; -615.000; -488.000
199.193;  -90.800; -230.000; -468.000
199.339; -102.600; -222.000; -369.000
199.485;   98.200;  330.000;  271.000
199.631;   33.400;  227.000;  310.000
199.777; -100.100; -466.000; -398.000
199.923; -150.200; -610.000; -424.000
200.069;   18.800; -141.000;  -58.000
200.215;   71.900;  128.000;  453.000
200.361;  117.200;  243.000;  477.000
200.507; -172.300; -600.000; -373.000
200.653;  -50.600; -371.000; -194.000
200.798; -102.600; -215.000; -125.000
200.944;  -39.400; -146.000;  -41.000
201.090;   84.600;   61.000;  222.000
201.236;   16.800; -116.000; -158.000
201.382;  239.500;  874.000;  903.000
201.528;   14.200;  -58.000;  -48.000
201.674; -145.300; -386.000; -293.000
201.819; -109.000; -540.000; -439.000
201.965; -180.300; -699.000; -447.000
202.111;  -40.000; -273.000; -226.000
202.257; -104.600; -250.000; -238.000
202.402;   13.600;   13.000;  -36.000
202.548;  -55.100; -169.000; -116.000
202.694;  182.700;  410.000; -183.000
202.840; -143.600; -603.000; -531.000
202.985; -185.800; -681.000; -639.000
203.131; -217.200; -832.000; -666.000
203.277;  -56.700; -199.000; -262.000
203.423; -102.000; -434.000; -520.000
203.568;  -63.100; -462.000; -237.000
203.714; -128.100; -535.000; -542.000
203.860; -180.400; -682.000; -641.000
204.005;    2.200;  112.000;  167.000
204.151;  177.400;  561.000;  556.000
204.296; -122.000; -354.000; -221.000
204.442; -134.700; -600.000; -547.000
204.588; -171.700; -592.000; -579.000
204.733;   78.900;  178.000;  168.000
204.879; -293.900;-1018.000; -822.000
205.025;   25.600;  -99.000;  126.000
205.170;  -38.300;  -17.000;   94.000
205.316;  160.000;  438.000;  661.000
205.461; -167.000; -698.000; -554.000
205.607;  184.800;  609.000;  665.000
205.752; -168.300; -626.000; -551.000
205.898;  -97.800; -501.000; -391.000
206.043; -145.200; -578.000; -506.000
206.189;  -52.800; -243.000; -285.000
206.334;  128.500;  554.000;  606.000
206.480;  167.600;  409.000;  239.000
206.625; -164.800; -529.000; -552.000
206.771;  -80.800; -451.000; -373.000
206.916;  -75.400; -210.000; -537.000
207.062; -139.500; -545.000; -591.000
207.207; -160.100; -546.000; -443.000
207.353;  113.400;  185.000;  460.000
207.498;   19.200;  196.000;   85.000
207.643;  -84.800; -501.000; -370.000
207.789; -267.900;-1069.000; -910.000
207.934; -208.200; -665.000; -713.000
208.080;  -57.800; -154.000;   66.000
208.225;   -4.200;  -22.000;  -57.000
208.370; -172.200; -727.000; -619.000
208.516; -143.200; -741.000; -487.000
208.661;  -66.400; -127.000;  -69.000
208.806;  -63.800; -165.000; -171.000
208.952; -281.300;-1044.000; -731.000
209.097;  161.100;  378.000;  349.000
209.242; -118.400; -307.000; -382.000
209.387;  140.000;  392.000;  350.000
209.533;  -96.100; -321.000; -350.000
209.678;  180.300;  472.000;  543.000
209.823; -108.200; -408.000; -310.000
209.969; -209.200; -860.000; -757.000
210.114; -258.800; -907.000; -719.000
210.259; -256.800; -939.000; -889.000
210.404;  -34.300; -171.000;  103.000
210.549;   46.700;  108.000;    3.000
210.695;  -17.900;   -3.000;  -95.000
210.840;   80.800;   94.000;   67.000
210.985; -138.900; -484.000; -303.000
211.130;  161.900;  268.000;  406.000
211.275;   44.000;  207.000;  199.000
211.420; -126.400; -300.000; -289.000
211.566; -163.000; -536.000; -489.000
211.711;   82.300;  218.000;  157.000
211.856; -150.000; -545.000; -519.000
212.001;    3.100;  151.000;   44.000
212.146;   -5.500;  153.000;   49.000
212.291;  -60.800; -210.000; -186.000
212.436;  -74.400; -280.000;   -6.000
212.581; -186.000; -685.000; -653.000
212.726; -153.800; -487.000; -538.000
212.871;  -74.000; -552.000; -217.000
213.016; -310.000;-1172.000;-1029.000
213.161;  146.600;  406.000;  291.000
213.306; -166.300; -435.000; -577.000
213.451; -198.700; -778.000; -689.000
213.596; -127.100; -455.000; -347.000
213.741;  -99.600; -448.000; -538.000
213.886; -159.100; -498.000; -517.000
214.031;  -59.600; -294.000; -124.000
214.176;  -93.000; -408.000; -341.000
214.321;  -10.900; -296.000; -157.000
214.466;  -39.800; -163.000;  -43.000
214.611;   10.600;  -61.000;  -10.000
214.756; -256.700; -948.000; -858.000
214.901;  -67.400; -388.000; -226.000
215.046; -252.000; -797.000; -825.000
215.191;   55.800;  128.000;   35.000
215.336;  -54.000; -157.000;  -19.000
215.480; -117.300; -684.000; -505.000
215.625;  -11.300; -175.000;  -19.000
215.770; -156.600; -757.000; -662.000
215.915;  -14.400;   -5.000;  -97.000
216.060;    9.300; -113.000;  -21.000
216.205; -244.400; -731.000; -779.000
216.349; -130.300; -470.000; -533.000
216.494; -270.300; -939.000; -867.000
216.639; -239.800; -823.000; -888.000
216.784; -183.100; -577.000; -525.000
216.929;  115.800;  392.000;  281.000
217.073;  -20.000; -244.000;  -31.000
217.218;   59.000;   78.000;  -47.000
217.363; -199.000; -656.000; -618.000
217.507; -169.500; -623.000; -588.000
217.652; -265.200; -845.000; -874.000
217.797; -201.900; -708.000; -659.000
217.942; -233.600; -856.000; -720.000
218.086;  190.100;  608.000;  539.000
218.231;  -40.600; -174.000;  -26.000
218.376;  -45.200; -337.000; -229.000
218.520;    5.600;  -41.000;   96.000
218.665;  -29.200; -338.000; -204.000
218.810;  -93.900; -275.000; -233.000
218.954;   69.100;  201.000;   35.000
219.099; -215.100; -713.000; -963.000
219.243; -137.900; -589.000; -554.000
219.388;  -92.400; -264.000; -136.000
219.532;   11.200; -116.000; -116.000
219.677; -170.600; -564.000; -521.000
219.822;   24.900;   33.000;   89.000
219.966;  -30.800;   17.000;  -99.000
220.111;  -73.400; -328.000;  -40.000
220.255; -240.200; -797.000; -750.000
220.400;   -2.000; -180.000; -146.000
220.544; -139.400; -516.000; -450.000
220.689; -100.800; -422.000; -451.000
220.833;  -48.200; -123.000;  -58.000
220.978;  -68.800; -393.000; -563.000
221.122;   57.500;  319.000;  307.000
221.267; -225.400; -906.000; -837.000
221.411; -145.500; -478.000; -394.000
221.555;  -10.500; -104.000;  -23.000
221.700; -113.100; -329.000; -222.000
221.844;   89.700;  255.000;  272.000
221.989;  -96.100; -328.000; -311.000
222.133;  -67.400; -289.000; -307.000
222.277;    2.300;    5.000;   78.000
222.422;   50.700;  227.000;  113.000
222.566;  -68.900; -381.000; -214.000
222.711; -116.400; -414.000; -479.000
222.855; -139.500; -643.000; -586.000
222.999; -171.200; -642.000; -717.000
223.144;  -53.800; -195.000; -194.000
223.288;  106.700;  423.000;  251.000
223.432;   21.300;  184.000;  230.000
223.576;   67.300;  152.000;  -21.000
223.721;  104.200;  364.000;  273.000
223.865;  -78.900; -472.000; -475.000
224.009;  516.600; 1673.000; 1631.000
224.153; -164.900; -660.000; -671.000
224.298;  -99.500; -531.000; -489.000
224.442;  -29.500;  -74.000;  -33.000
224.586;  -15.100; -169.000; -106.000
224.730; -194.900; -858.000; -670.000
224.875; -245.300; -739.000; -688.000
225.019;   35.900;  102.000;  188.000
225.163;  112.200;  208.000;  341.000
225.307;   69.400;   97.000;  -91.000
225.451;   80.400;  360.000;  481.000
225.595;   94.900;  264.000;  176.000
225.739;  -54.300; -170.000;  -94.000
225.884;   58.800;   86.000;    5.000
226.028; -227.000; -760.000; -626.000
226.172;  -66.600; -260.000; -273.000
226.316; -265.600; -941.000; -902.000
226.460; -155.900; -645.000; -493.000
226.604; -125.100; -406.000; -400.000
226.748; -179.400; -836.000; -733.000
226.892;  -33.700; -227.000; -181.000
227.036; -104.500; -537.000; -447.000
227.180; -119.100; -551.000; -375.000
227.324; -109.000; -561.000; -580.000
227.468; -236.400; -819.000; -717.000
227.612;   49.600;  242.000;  -28.000
227.756; -234.200; -845.000; -698.000
227.900;  121.900;  342.000;  441.000
228.044; -142.600; -509.000; -290.000
228.188;  129.100;  448.000;  568.000
228.332; -179.100; -546.000; -472.000
228.476;  -52.800; -223.000; -149.000
228.620;  -80.500; -210.000; -150.000
228.764;  172.000;  431.000;  349.000
228.908;  -50.900; -155.000;   30.000
229.052; -110.500; -615.000; -528.000
229.195;  -22.300; -172.000;   13.000
229.339;  -84.400; -235.000; -305.000
229.483;  -42.200;    5.000; -162.000
229.627;   26.400; -156.000;  139.000
229.771;  -80.900; -218.000; -294.000
229.915;   30.900;  230.000;   79.000
230.059; -170.400; -648.000; -663.000
230.202;  -89.100; -370.000; -317.000
230.346;  -26.100; -107.000;  107.000
230.490; -102.000; -489.000; -521.000
230.634; -245.100; -736.000; -553.000
230.777;  158.600;  478.000;  509.000
230.921; -125.000; -450.000; -359.000
231.065;  -74.800; -246.000; -286.000
231.209;   54.400;  261.000;  265.000
231.352;   25.600;   54.000;   40.000
231.496;   44.400;  568.000;  188.000
231.640; -167.300; -693.000; -621.000
231.783;  124.000;  546.000;  525.000
231.927;  -74.800; -294.000; -365.000
232.071; -259.900; -962.000; -736.000
232.214; -265.700; -980.000; -764.000
232.358; -202.300; -683.000; -599.000
232.502;   33.200;  -19.000;    7.000
232.645; -297.700;-1090.000; -927.000
232.789;  -24.400; -257.000; -218.000
232.933;  -62.500; -407.000; -224.000
233.076; -252.600;-1038.000; -897.000
233.220; -217.000; -752.000; -777.000
233.363; -178.900; -669.000; -477.000
233.507;  125.600;  371.000;  129.000
233.650; -194.900; -764.000; -834.000
233.794;   69.200;  438.000;  461.000
233.938; -121.200; -530.000; -362.000
234.081;  -53.400;  -93.000;   31.000
234.225; -133.400; -631.000; -539.000
234.368; -254.600; -773.000; -723.000
234.512;  -54.100; -385.000; -299.000
234.655; -163.200; -582.000; -555.000
234.798; -100.600; -493.000; -466.000
234.942; -273.800; -884.000;-1002.000
235.085; -148.700; -651.000; -443.000
235.229; -152.400; -405.000; -410.000
235.372;  -70.800; -247.000; -191.000
235.516; -152.100; -397.000; -321.000
235.659;   84.000;   92.000;  121.000
235.802;   -6.400;  -38.000;  -22.000
235.946;   84.200;  335.000;  215.000
236.089;   83.100;  126.000;  250.000
236.233;   96.800;  275.000;  298.000
236.376; -105.000; -235.000; -378.000
236.519;  -74.300; -297.000; -319.000
236.663;  -56.600; -215.000; -117.000
236.806; -268.400;-1029.000; -999.000
236.949;  137.100;  543.000;  431.000
237.092;  123.500;  412.000;  391.000
237.236; -179.300; -589.000; -502.000
237.379;  168.700;  352.000;  428.000
237.522; -235.200; -879.000; -768.000
237.666;  -27.000; -271.000;   18.000
237.809; -242.400; -851.000; -823.000
237.952;   78.500;  469.000;  271.000
238.095; -127.300; -447.000; -442.000
238.238;  200.800;  688.000;  700.000
238.382;  -11.200;  166.000;  103.000
238.525; -125.900; -598.000; -511.000
238.668; -277.200;-1060.000; -985.000
238.811; -175.500; -638.000; -643.000
238.954; -107.800; -483.000; -334.000
239.097;  209.000;  617.000;  664.000
239.241;   69.100;  394.000;  326.000
239.384;  -57.100; -254.000; -214.000
239.527; -142.600; -424.000; -224.000
239.670; -295.700; -994.000;-1091.000
239.813; -249.200; -696.000; -658.000
239.956;  180.700;  579.000;  473.000
240.099; -220.000; -778.000; -725.000
240.242;  151.800;  428.000;  432.000
240.385;  105.500;  466.000;  450.000
240.528; -127.300; -706.000; -473.000
240.671;   26.900;  189.000;  134.000
240.814; -104.600; -441.000; -158.000
240.957; -185.100; -767.000; -578.000
241.100; -173.400; -779.000; -755.000
241.243; -298.100;-1234.000; -893.000
241.386; -147.700; -508.000; -379.000
241.529; -157.700; -735.000; -547.000
241.672; -113.100; -566.000; -495.000
241.815; -230.400; -832.000; -808.000
241.958;  -45.000; -125.000; -182.000
242.101; -173.300; -545.000; -390.000
242.244;  -27.900; -270.000; -325.000
242.387;  -60.600; -304.000; -246.000
242.530;  153.800;  470.000;  134.000
242.673;  -74.600; -381.000; -309.000
242.815; -230.700; -925.000; -899.000
242.958;  -85.100; -482.000; -381.000
243.101;   31.200;  132.000;  187.000
243.244; -169.300; -564.000; -521.000
243.387;  -84.300; -313.000; -316.000
243.530; -220.000; -657.000; -674.000
243.672;   16.200;   43.000;  -92.000
243.815; -142.500; -355.000; -283.000
243.958;   29.400;   98.000;  -26.000
244.101;  -31.200;   59.000;  -16.000
244.243;  -24.800;  -47.000;  101.000
244.386; -208.300; -761.000; -630.000
244.529;  -36.900; -132.000; -139.000
244.672; -307.100;-1154.000; -951.000
244.814; -193.900; -621.000; -794.000
244.957;  -72.900; -380.000; -304.000
245.100; -165.000; -489.000; -489.000
245.242; -124.000; -387.000; -374.000
245.385;   -1.400;  -59.000;  -39.000
245.528; -251.000; -871.000; -705.000
245.670;  183.000;  612.000;  634.000
245.813; -168.100; -599.000; -547.000
245.956;  -51.600; -324.000; -275.000
246.098; -136.300; -508.000; -650.000
246.241;   34.500;  194.000;   48.000
246.383;  -12.600; -119.000;  -73.000
246.526; -140.100; -454.000; -525.000
246.669; -222.000; -889.000; -780.000
246.811;   66.400;  172.000;   -1.000
246.954; -133.600; -512.000; -426.000
247.096;   -5.500;  -84.000;   -6.000
247.239; -131.600; -482.000; -445.000
247.381; -122.000; -647.000; -488.000
247.524;  179.500;  645.000;  679.000
247.666;    5.400;   58.000;   11.000
247.809; -241.700; -887.000; -691.000
247.951;   22.500;  -75.000;  138.000
248.094;   65.000;  432.000;  308.000
248.236; -330.000;-1262.000;-1238.000
248.378;   -7.300; -356.000;  -81.000
248.521;  -39.400; -334.000; -337.000
248.663;  -83.800; -236.000; -267.000
248.806;  -64.300; -300.000; -266.000
248.948; -197.900; -886.000; -763.000
249.090;  -91.100; -428.000; -398.000
249.233;  -97.700; -344.000; -381.000
249.375; -103.900; -474.000; -451.000
249.518;  -22.000;  -83.000; -133.000
249.660;   13.500; -103.000;    3.000
249.802; -335.300;-1303.000;-1189.000
249.945; -118.700; -612.000; -540.000
250.087; -203.100; -834.000; -768.000
250.229;  -70.200; -362.000; -480.000
250.371; -159.600; -494.000; -439.000
250.514;  -96.100; -310.000; -244.000
250.656; -127.400;   69.000;  102.000
250.798; -207.100; -849.000; -800.000
250.940; -116.900; -322.000; -322.000
251.083;  -22.300; -335.000; -111.000
251.225;  149.400;  338.000;  310.000
251.367;  -60.800; -274.000; -373.000
251.509;  -69.600; -265.000; -210.000
251.651; -182.500; -731.000; -671.000
251.794;  118.400;  538.000;  632.000
251.936; -196.500; -821.000; -747.000
252.078; -184.300; -540.000; -461.000
252.220; -130.400; -645.000; -477.000
252.362;  160.600;  344.000;  462.000
252.504; -119.300; -677.000; -584.000
252.646; -231.500; -875.000; -722.000
252.788;  -25.500;   14.000; -128.000
252.931;  -90.200; -257.000; -253.000
253.073;  -71.000; -376.000; -317.000
253.215;   26.200;  141.000;  122.000
253.357;  -21.400;   82.000; -153.000
253.499;  -96.300; -374.000; -234.000
253.641; -133.500; -749.000; -594.000
253.783; -185.400; -609.000; -527.000
253.925; -159.600; -586.000; -591.000
254.067; -219.400; -744.000; -667.000
254.209;  -64.800; -391.000; -259.000
254.351; -290.100; -865.000; -883.000
254.493; -136.800; -441.000; -417.000
254.635; -234.900; -936.000; -818.000
254.777; -179.000; -752.000; -687.000
254.918; -161.200; -512.000; -430.000
255.060; -116.000; -551.000; -395.000
255.202; -129.800; -473.000; -261.000
255.344; -124.500; -658.000; -455.000
255.486; -150.500; -471.000; -406.000
255.628; -191.300; -780.000; -781.000
255.770; -193.500; -676.000; -536.000
255.912; -121.200; -559.000; -468.000
256.053; -163.300; -730.000; -508.000
256.195;  350.200; 1008.000;  903.000
256.337; -184.700; -861.000; -595.000
256.479;   97.100;  532.000;  416.000
256.621;  -76.700; -394.000; -212.000
256.762; -170.000; -789.000; -742.000
256.904;  108.600;  485.000;  487.000
257.046;  -60.400; -381.000; -271.000
257.188;  -96.300; -351.000; -264.000
257.329; -109.900; -525.000; -464.000
257.471; -256.900; -939.000; -807.000
257.613; -123.100; -584.000; -498.000
257.755; -301.900;-1073.000; -982.000
257.896;  111.400;  286.000;  392.000
258.038; -138.600; -403.000; -352.000
258.180;  -80.800; -354.000; -279.000
258.321; -162.000; -581.000; -457.000
258.463;   -9.200;  -71.000;  133.000
258.605; -183.500; -562.000; -570.000
258.746; -208.800; -886.000; -772.000
258.888; -313.200;-1026.000;-1020.000
259.029;   45.000;  121.000;   -8.000
259.171; -168.800; -614.000; -550.000
259.313;    8.600;  -49.000;  -47.000
259.454; -168.700; -536.000; -414.000
259.596;  -87.900; -483.000; -390.000
259.737; -140.700; -590.000; -474.000
259.879;   79.200;  217.000;  311.000
260.020;  175.300;  901.000;  636.000
260.162;  -54.400; -146.000; -253.000
260.303; -224.900; -768.000; -687.000
260.445; -156.000; -609.000; -613.000
260.586;   71.100;  392.000;  157.000
260.728;  -71.900; -360.000; -248.000
260.869; -114.600; -350.000; -343.000
261.011;  142.200;  706.000;  537.000
261.152; -112.500; -479.000; -319.000
261.293; -141.000; -576.000; -595.000
261.435;  -79.800; -219.000; -184.000
261.576;  -37.900; -455.000; -325.000
261.718;  150.700;  420.000;  470.000
261.859; -238.700; -940.000; -949.000
262.000; -287.800; -951.000;-1016.000
262.142;  -16.200;  -52.000;  -60.000
262.283; -246.000; -808.000; -691.000
262.424; -179.300; -666.000; -625.000
262.566; -299.500;-1161.000; -983.000
262.707; -238.600; -840.000; -830.000
262.848; -276.300; -769.000; -726.000
262.990;  -76.800; -362.000; -345.000
263.131;  177.000;  650.000;  681.000
263.272;   31.600;  -61.000;  -41.000
263.413; -198.300; -589.000; -561.000
263.555; -100.000; -669.000; -143.000
263.696; -199.100; -550.000; -641.000
263.837;  -92.300; -449.000; -551.000
263.978;  -18.400;   -5.000;  -77.000
264.119;  -38.000; -283.000; -264.000
264.261; -232.800; -847.000; -630.000
264.402;   11.300;   33.000;   40.000
264.543; -157.200; -509.000; -524.000
264.684;    7.100;   61.000;  -50.000
264.825; -125.500; -816.000; -538.000
264.966;    6.200;  -84.000;  -67.000
265.107; -234.300; -646.000; -670.000
265.248; -211.400; -825.000; -812.000
265.390;    5.700;  152.000;   -9.000
265.531;  -31.000; -238.000; -107.000
265.672; -157.100; -557.000; -630.000
265.813;  166.300;  563.000;  439.000
265.954; -299.600; -959.000; -940.000
266.095;  -17.000; -372.000; -322.000
266.236; -199.600; -686.000; -548.000
266.377;  -58.600; -243.000; -297.000
266.518; -139.700; -619.000; -547.000
266.659;   81.100;  170.000;  268.000
266.800;   42.300;   83.000;   85.000
266.941; -136.300; -487.000; -478.000
267.082;   51.200;  354.000;   99.000
267.223;  -99.000; -344.000; -273.000
267.364; -213.100; -892.000; -686.000
267.504;  -13.200;    3.000;  135.000
267.645;  -17.200;  160.000;   67.000
267.786;  -72.800; -147.000;  -86.000
267.927; -129.400; -473.000; -379.000
268.068;  -24.100; -186.000;  -61.000
268.209; -111.400; -175.000; -413.000
268.350; -107.000; -388.000; -532.000
268.490; -159.300; -648.000; -521.000
268.631;   77.200;  127.000;  225.000
268.772; -216.100; -874.000; -647.000
268.913;  -78.700; -328.000; -476.000
269.054;  -20.600; -117.000;   12.000
269.194;  -82.800; -418.000; -402.000
269.335; -292.700;-1137.000;-1074.000
269.476;    9.500;   33.000;  -35.000
269.617;  -80.100; -347.000; -392.000
269.757; -178.400; -713.000; -646.000
269.898; -210.500; -856.000; -613.000
270.039;  -82.500; -415.000; -405.000
270.180; -292.100; -952.000; -816.000
270.320;  -25.000; -190.000; -250.000
270.461;  -85.000; -277.000; -249.000
270.602;   16.700; -186.000; -156.000
270.742; -233.600; -868.000; -943.000
270.883;  -81.200; -442.000; -390.000
271.023;  -95.600; -358.000; -357.000
271.164; -135.200; -607.000; -528.000
271.305; -209.200; -666.000; -654.000
271.445; -160.100; -722.000; -683.000
271.586; -101.000; -462.000; -283.000
271.726;  -74.500; -397.000; -322.000
271.867; -113.500; -594.000; -534.000
272.008;  308.100; -473.000; -285.000
272.148;  214.600;  462.000;  468.000
272.289;   30.400; -113.000; -181.000
272.429;   39.600;   19.000;  185.000
272.570; -178.000; -633.000; -737.000
272.710; -189.100; -825.000; -775.000
272.851;  -31.400;  113.000; -130.000
272.991; -320.800;-1173.000;-1077.000
273.131; -147.900; -419.000; -459.000
273.272; -170.500; -683.000; -723.000
273.412;   38.800; -143.000;  -31.000
273.553; -110.100; -488.000; -507.000
273.693;  297.500;  913.000;  858.000
273.834; -162.800; -894.000; -692.000
273.974; -117.300; -664.000; -615.000
274.114; -179.500; -772.000; -560.000
274.255;  128.100;  414.000;  373.000
274.395;   10.000; -180.000; -125.000
274.535;  105.600;  199.000;  350.000
274.676;   71.800;  225.000;   94.000
274.816;   52.200;  110.000;   34.000
274.956; -194.000; -624.000; -690.000
275.097; -162.200;-1014.000; -922.000
275.237; -226.900; -913.000; -803.000
275.377; -167.400; -778.000; -689.000
275.517; -297.500; -878.000; -937.000
275.658;  -96.100; -590.000; -555.000
275.798; -125.700; -606.000; -413.000
275.938;   30.100;  215.000;  323.000
276.078; -152.400; -626.000; -395.000
276.218;   60.500;   99.000;  104.000
276.359; -269.500;-1026.000;-1024.000
276.499; -128.700; -605.000; -446.000
276.639;  -13.600; -305.000; -151.000
276.779;  -85.900; -475.000; -357.000
276.919; -229.000; -783.000; -624.000
277.059;  -23.500; -261.000; -212.000
277.199;  -85.400; -357.000; -259.000
277.340;  138.200;  287.000;  175.000
277.480; -221.900; -840.000; -693.000
277.620;   72.800;  192.000;   16.000
277.760; -415.500;-1533.000;-1294.000
277.900;   49.100;  113.000;   33.000
278.040;   76.600;  137.000;  159.000
278.180;   63.700;  270.000;  170.000
278.320;   37.500;   21.000;   56.000
278.460; -122.900; -443.000; -469.000
278.600; -182.500; -708.000; -598.000
278.740;  116.100;  448.000;  224.000
278.880; -109.900; -768.000; -791.000
279.020;   31.500; -194.000; -144.000
279.160; -156.900; -672.000; -595.000
279.300; -206.700; -926.000; -873.000
279.440; -175.400; -709.000; -622.000
279.579;  -80.400;-1014.000; -929.000
279.719;  -94.500; -410.000; -394.000
279.859;  161.300;   -4.000;   41.000
279.999;   68.100; -208.000;  101.000
280.139;  -40.000; -435.000; -387.000
280.279; -165.900; -708.000; -745.000
280.419;   11.700; -229.000; -147.000
280.559;  -49.400; -259.000; -180.000
280.698; -129.500; -790.000; -639.000
280.838; -182.700; -778.000; -800.000
280.978; -170.100; -846.000; -790.000
281.118; -205.200; -811.000; -704.000
281.257;   53.300;   24.000;    6.000
281.397; -253.800;-1094.000; -960.000
281.537; -136.600; -599.000; -712.000
281.677;  -21.600; -150.000; -101.000
281.816; -144.500; -700.000; -630.000
281.956;  -41.800; -193.000; -257.000
282.096; -111.500; -539.000; -396.000
282.235; -206.000; -672.000; -638.000
282.375;  -10.500; -243.000;  -98.000
282.515; -196.500; -715.000; -707.000
282.654;   75.200;   29.000;  106.000
282.794;   75.200;  388.000;  244.000
282.934;  -74.800; -530.000; -491.000
283.073; -262.300;-1030.000; -857.000
283.213;  -98.000; -460.000; -467.000
283.353;  -33.400; -408.000; -349.000
283.492;  -32.500; -264.000; -296.000
283.632;  -99.600; -254.000; -168.000
283.771; -166.900; -859.000; -730.000
283.911; -110.000; -369.000; -260.000
284.050; -188.000; -794.000; -748.000
284.190; -323.300;-1229.000;-1096.000
284.329; -281.500;-1055.000; -964.000
284.469; -146.900; -516.000; -591.000
284.608;  -88.700; -559.000; -598.000
284.748; -166.300; -614.000; -570.000
284.887;   -5.200;  -87.000;  -20.000
285.027; -233.400; -844.000; -892.000
285.166;  -20.200; -192.000; -249.000
285.306;   51.900; -116.000;  -33.000
285.445;  -32.000; -229.000; -343.000
285.584; -154.600; -630.000; -494.000
285.724;  -46.300; -282.000; -322.000
285.863; -212.100; -857.000; -507.000
286.002;  -71.800; -366.000; -276.000
286.142; -190.700; -715.000; -622.000
286.281; -110.100; -525.000; -493.000
286.420; -141.200; -554.000; -417.000
286.560;  209.100;  653.000;  623.000
286.699; -274.200; -958.000; -912.000
286.838; -137.200; -590.000; -591.000
286.978; -153.500; -533.000; -537.000
287.117; -258.700;-1085.000; -950.000
287.256;  -68.400; -228.000; -211.000
287.395;  -91.800; -197.000; -378.000
287.535;  -76.900; -370.000; -298.000
287.674; -142.700; -509.000; -484.000
287.813;  122.200;  661.000;  533.000
287.952; -230.600;-1010.000; -871.000
288.091; -299.700;-1049.000; -915.000
288.231;   39.000;   13.000;   15.000
288.370; -345.300;-1217.000;-1200.000
288.509; -187.700; -728.000; -645.000
288.648; -155.000; -770.000; -548.000
288.787;  -34.100; -243.000;  -87.000
288.926; -106.700; -454.000; -475.000
289.065;  261.100;  859.000;  672.000
289.204;  -75.400; -377.000; -217.000
289.344; -185.700; -791.000; -690.000
289.483;   76.200;  416.000;  304.000
289.622;   -8.300; -291.000; -149.000
289.761;   -8.300; -309.000; -166.000
289.900; -184.700; -785.000; -626.000
290.039;   21.600;  -12.000;  -95.000
290.178;  -14.000; -274.000; -180.000
290.317; -159.000; -618.000; -479.000
290.456; -104.800; -463.000; -451.000
290.595; -276.200; -961.000; -833.000
290.734; -233.600; -904.000; -891.000
290.873; -127.200; -456.000; -420.000
291.011; -221.800; -833.000; -843.000
291.150; -201.800; -770.000; -682.000
291.289;  -17.900; -343.000; -110.000
291.428; -176.500; -599.000; -480.000
291.567; -100.300; -370.000; -442.000
291.706;   10.400;  109.000;  154.000
291.845; -151.300; -597.000; -505.000
291.984; -331.400;-1234.000;-1061.000
292.122;  173.400;  602.000;  582.000
292.261;  140.300;  620.000;  463.000
292.400;   13.300; -144.000;  211.000
292.539; -221.700; -959.000; -813.000
292.678;  -28.000; -325.000; -300.000
292.816; -310.000;-1136.000; -965.000
292.955; -143.400; -844.000; -684.000
293.094;  -37.500; -173.000; -337.000
293.233;  -84.000; -556.000; -400.000
293.371;  -49.300; -225.000;  -84.000
293.510; -183.300; -866.000; -780.000
293.649; -276.800; -959.000; -924.000
293.787; -135.900;-1083.000;-1012.000
293.926;   -1.600; -113.000;  -32.000
294.065;  -70.300; -379.000; -290.000
294.203;  128.600;  298.000;  406.000
294.342;   74.200;   74.000;  156.000
294.481;11121.100;51180.000; -836.000
294.619;  -62.200; -425.000; -582.000
294.758; -317.500;-1230.000;-1137.000
294.896;  129.500; -125.000;    5.000
295.035; -230.100;-1040.000;-1006.000
295.174; -221.700;-1082.000; -954.000
295.312;  -73.600; -323.000; -203.000
295.451;   18.000; -307.000; -428.000
295.589;  -94.900; -389.000; -518.000
295.728;   83.000; -292.000; -165.000
295.866;   20.700;  -36.000;  -51.000
296.005; -118.400; -584.000; -341.000
296.143; -148.300; -558.000; -596.000
296.282; -206.900; -957.000; -881.000
296.420; -149.700; -657.000; -557.000
296.559; -152.500; -892.000; -633.000
296.697;    8.800; -847.000; -665.000
296.835;   52.100;-1141.000;-1002.000
296.974;  108.500;  -23.000;   39.000
297.112;   50.600; -443.000; -504.000
297.251; -142.900; -815.000; -755.000
297.389;  155.100; -576.000; -438.000
297.527;   71.200; -145.000;  -83.000
297.666;  -78.900; -486.000; -438.000
297.804;  -75.500; -404.000; -264.000
297.942;   16.300; -136.000; -161.000
298.081;   26.100; -183.000;   63.000
298.219;  133.500;  -17.000;  -19.000
298.357;   93.100; -144.000;  -71.000
298.495;    8.600; -810.000; -812.000
298.634;  171.200;  245.000;  219.000
298.772;  124.700; -220.000; -338.000
298.910;  -50.300; -309.000; -182.000
299.048;   30.800; -130.000; -153.000
299.187;  -38.300; -350.000; -250.000
299.325;   68.900;   52.000;  122.000
299.463;   58.300; -389.000; -299.000
299.601;  219.100; -327.000; -271.000
299.739; -212.100; -908.000; -883.000
299.877; -129.700; -791.000; -703.000
300.016; -105.200;-1095.000; -935.000
300.154;  317.900;  -19.000; -161.000
300.292;   64.000; -428.000; -348.000
300.430;   56.900; -408.000; -291.000
300.568; -202.400; -940.000; -874.000
300.706;  -63.300; -366.000; -469.000
300.844; -187.800;-1108.000; -979.000
300.982;  254.600;  246.000;  282.000
301.120; -206.400; -965.000; -866.000
301.258; -112.300; -812.000; -705.000
301.396;   68.400;  104.000;  -41.000
301.534;  129.400; -218.000; -293.000
301.672;  -45.900; -664.000; -521.000
301.810;   74.500; -613.000; -545.000
301.948;  275.100;   53.000;  149.000
302.086;  966.900; -250.000;  -32.000
302.224; 1608.000; -610.000; -585.000
302.362;   82.300; -558.000; -622.000
302.500;  -79.700; -923.000; -893.000
302.638;  241.300;  128.000;  245.000
302.776;    1.600; -352.000; -408.000
302.913;  127.900;  447.000;  236.000
303.051;    6.900;  -86.000;  -23.000
303.189;  124.900;   90.000;  118.000
303.327;  -54.500; -341.000; -256.000
303.465; -147.400; -832.000; -588.000
303.603; -177.300; -805.000; -604.000
303.740;  226.600;  417.000;  241.000
303.878;    8.500; -800.000; -759.000
304.016; -155.900; -915.000; -790.000
304.154; -271.900;-1123.000;-1152.000
304.291;  -64.000; -505.000; -554.000
304.429;    4.000;  102.000;   74.000
304.567; -239.500; -908.000; -893.000
304.705; -110.600; -408.000; -515.000
304.842;  137.600; -616.000; -540.000
304.980;  136.300;  215.000;   35.000
305.118;   91.300; -367.000; -365.000
305.255; -174.700; -945.000; -927.000
305.393;  130.700;  178.000;  239.000
305.531; -204.200;-1173.000; -956.000
305.668; -136.600; -663.000; -582.000
305.806;  166.700; -358.000; -439.000
305.943;  128.500; -629.000; -637.000
306.081;  114.200; -378.000; -267.000
306.219; -169.600; -863.000; -748.000
306.356;   47.000;  158.000;   27.000
306.494;  288.200;  981.000;  761.000
306.631;   23.400;  -11.000;  -55.000
306.769;   17.800; -613.000; -485.000
306.906;   -3.100; -284.000; -258.000
307.044;  -33.500; -473.000; -488.000
307.181; -109.500; -410.000; -332.000
307.319;   88.200;  112.000;   87.000
307.456; -326.100;-1191.000;-1153.000
307.594; -162.700; -980.000; -727.000
307.731;   -2.800; -371.000; -164.000
307.868;   43.500;  -15.000;   20.000
308.006; -255.000; -961.000; -847.000
308.143; -104.400; -618.000; -330.000
308.281;  358.500;  -37.000; -254.000
308.418;   27.100; -748.000; -640.000
308.555; -133.900; -400.000; -250.000
308.693; -130.400; -577.000; -573.000
308.830; -181.400; -712.000; -657.000
308.967;    5.400; -215.000;  -95.000
309.105;  -43.600; -507.000; -396.000
309.242;   76.400; -468.000; -367.000
309.379;  680.100; -577.000; -655.000
309.517;  -75.300; -936.000; -948.000
309.654; -177.400; -910.000; -734.000
309.791; -119.500; -662.000; -580.000
309.928; -197.100; -977.000; -914.000
310.065;  396.800;  819.000;  697.000
310.203;  -37.700; -825.000; -850.000
310.340;   28.200; -465.000; -321.000
310.477; -143.600; -412.000; -516.000
310.614; -105.500; -383.000; -473.000
310.751; -121.400; -427.000; -518.000
310.889;   -9.100;    1.000;   11.000
311.026; -260.300;-1161.000; -939.000
311.163;  -36.100; -386.000; -380.000
311.300; -132.000; -512.000; -479.000
311.437; -107.000; -658.000; -619.000
311.574; -315.700;-1226.000; -985.000
311.711;  -82.400; -595.000; -433.000
311.848;  -26.900; -380.000; -388.000
311.985;   56.600;  270.000;   93.000
312.122; -223.200; -932.000; -762.000
312.259; -191.300; -941.000; -994.000
312.396; -112.700; -508.000; -551.000
312.533; -125.800; -812.000; -790.000
312.670; -239.800;-1070.000; -898.000
312.807;  -10.500; -352.000; -367.000
312.944; -142.200; -513.000; -611.000
313.081;  -23.100; -150.000; -415.000
313.218; -191.600;-1111.000; -867.000
313.355;   22.800; -531.000; -449.000
313.492;   36.200; -455.000; -292.000
313.629;  295.300;  815.000;  735.000
313.766; -277.200;-1176.000;-1008.000
313.902;   26.200; -186.000;   21.000
314.039;  -78.800; -372.000; -289.000
314.176;   82.600;  286.000;  192.000
314.313; -120.300; -569.000; -473.000
314.450; -115.200; -788.000; -684.000
314.587;  -88.200; -468.000; -480.000
314.723;   60.100;  -78.000;  130.000
314.860;  147.100;  318.000;  332.000
314.997;   97.800;  223.000;  142.000
315.134;  -67.600; -385.000; -368.000
315.270;  -50.100; -480.000; -496.000
315.407; -237.900;-1094.000; -967.000
315.544;  -83.900; -657.000; -538.000
315.681; -124.300; -681.000; -565.000
315.817;   81.700; -133.000; -176.000
315.954;   10.800; -613.000; -392.000
316.091; -235.400;-1045.000;-1023.000
316.227;  -13.500;  -71.000; -179.000
316.364;   42.100;   23.000;    6.000
316.500;  -94.500; -113.000; -300.000
316.637;  -42.600; -181.000; -302.000
316.774; -131.000; -625.000; -358.000
316.910; -139.500; -598.000; -629.000
317.047;  -87.500; -487.000; -351.000
317.183;  -80.100; -435.000; -566.000
317.320;   13.500; -367.000; -321.000
317.456; -105.100; -733.000; -805.000
317.593; -171.000; -598.000; -641.000
317.729;   54.900;  168.000;  -67.000
317.866; -364.300;-1434.000;-1285.000
318.002; -136.300; -708.000; -948.000
318.139; -224.100; -883.000; -867.000
318.275; -211.900;-1003.000; -738.000
318.412; -123.700; -517.000; -336.000
318.548;  -42.000; -751.000; -720.000
318.685; -177.400; -985.000; -888.000
318.821; -144.700; -762.000; -735.000
318.957;  -32.700;   34.000;  -23.000
319.094;  123.200;  297.000;  154.000
319.230; -160.200; -756.000; -742.000
319.367;  232.800; -471.000; -520.000
319.503;   88.300; -538.000; -436.000
319.639; -109.000; -877.000; -793.000
319.775; -118.500; -750.000; -685.000
319.912;  -85.900; -424.000; -519.000
320.048; -187.900;-1184.000;-1184.000
320.184;  216.400;   59.000;   70.000
320.321;  -72.600; -497.000; -467.000
320.457;  188.500;  475.000;  662.000
320.593; -111.100; -375.000; -382.000
320.729; -157.100; -732.000; -734.000
320.866; -152.000; -577.000; -635.000
321.002; -139.400; -759.000; -809.000
321.138;    8.400; -135.000; -211.000
321.274;  123.700; -148.000; -115.000
321.410;  -58.800; -585.000; -353.000
321.546;  -66.200;-1011.000; -911.000
321.683;  116.900;  400.000;  185.000
321.819;   50.300;  -48.000; -117.000
321.955; -203.100; -743.000; -722.000
322.091;  -49.500; -585.000; -540.000
322.227;    1.700; -382.000; -202.000
322.363;    6.400; -320.000; -215.000
322.499;  -62.100; -343.000; -331.000
322.635;  363.700;  636.000;  443.000
322.771;   58.300; -139.000;   12.000
322.907;  210.500;  129.000;  327.000
323.043;   -7.300; -115.000; -206.000
323.179;  -18.200; -394.000; -363.000
323.315;   12.700; -401.000; -371.000
323.451;  172.900; -328.000; -236.000
323.587;  142.500;  -60.000;  -77.000
323.723;   74.800; -682.000; -601.000
323.859;   -2.300; -258.000;  -76.000
323.995;  -11.200; -467.000; -409.000
324.131; -245.700; -967.000; -892.000
324.267;  -38.800; -254.000; -276.000
324.402; -256.800; -960.000; -983.000
324.538;   -8.900; -279.000; -104.000
324.674;   69.000;  164.000;   77.000
324.810;  295.400;  226.000;  308.000
324.946;   27.100; -810.000; -658.000
325.082; -114.300; -568.000; -475.000
325.217;   22.600;  -62.000;   16.000
325.353; -172.400; -764.000; -659.000
325.489; -183.000; -540.000; -506.000
325.625; -125.300; -579.000; -525.000
325.760;  154.900;  517.000;  376.000
325.896;  -12.900; -515.000; -702.000
326.032;  -59.800; -403.000; -352.000
326.168;  -67.000; -462.000; -369.000
326.303; -102.200; -352.000; -461.000
326.439;   -1.900; -336.000; -276.000
326.575;   57.500; -190.000;  -29.000
326.710;   45.200; -156.000;  -30.000
326.846;    1.600;  146.000;  103.000
326.982; -171.200; -530.000; -548.000
327.117; -120.900; -481.000; -442.000
327.253; -163.400; -745.000; -742.000
327.388; -307.400;-1137.000;-1153.000
327.524;  -63.700; -811.000; -578.000
327.659;    8.800;  -58.000;  -22.000
327.795;   -3.300;   69.000;   45.000
327.931; -148.800; -723.000; -499.000
328.066;    3.800; -417.000; -276.000
328.202;  -13.800;   12.000; -129.000
328.337;  259.200;  957.000;  713.000
328.473;   -9.900;  -12.000;  -74.000
328.608;   30.800; -256.000; -267.000
328.743; -162.100; -799.000; -664.000
328.879;   78.400;  214.000;  114.000
329.014;  -94.900; -102.000; -122.000
329.150; -114.800; -358.000; -483.000
329.285; -114.700; -465.000; -466.000
329.421;  -78.000; -548.000; -246.000
329.556;  -30.700;  -36.000;   85.000
329.691; -166.900; -633.000; -615.000
329.827; -133.100; -626.000; -480.000
329.962;  -27.800;  131.000; -301.000
330.097; -138.100; -673.000; -585.000
330.233;  -35.100; -410.000; -223.000
330.368; -236.000; -839.000; -628.000
330.503;   28.900;    3.000;   98.000
330.638;   40.600;  -93.000; -125.000
330.774;  -91.200; -609.000; -530.000
330.909;  -37.900; -434.000; -244.000
331.044; -154.300; -714.000; -708.000
331.179; -317.900;-1217.000;-1109.000
331.315;   46.700;   77.000;   20.000
331.450;   32.100;  157.000;  285.000
331.585; -161.500; -805.000; -706.000
331.720; -142.900; -510.000; -460.000
331.855;   13.800;  -35.000; -102.000
331.990;  514.900;   62.000;  138.000
332.126;  296.200; -110.000;   71.000
332.261;  -17.300; -379.000; -265.000
332.396;   32.400; -135.000; -242.000
332.531; -193.100;-1074.000;-1031.000
332.666;  105.900; -519.000; -363.000
332.801; -164.300; -726.000; -807.000
332.936;    6.000; -192.000; -122.000
333.071; -236.200; -870.000; -817.000
333.206;   86.700;  307.000;  379.000
333.341;   98.200;  344.000;  418.000
333.476; -136.900; -627.000; -623.000
333.611;  -51.500; -251.000; -173.000
333.746;  -70.900; -381.000; -464.000
333.881; -220.800; -973.000; -935.000
334.016; -217.400; -936.000; -917.000
334.151; -227.300; -746.000; -702.000
334.286;   78.300;  152.000;  186.000
334.421;   16.600; -125.000; -178.000
334.556; -128.700; -611.000; -567.000
334.690; -165.400; -631.000; -577.000
334.825;  189.200;  381.000;   83.000
334.960; -109.400; -285.000; -413.000
335.095;   37.200;  135.000;  -91.000
335.230; -180.100; -722.000; -738.000
335.365; -247.200;-1084.000; -990.000
335.499; -254.500;-1108.000;-1037.000
335.634;   77.900;    9.000;  534.000
335.769; -215.300; -755.000; -720.000
335.904;  -79.800; -603.000; -561.000
336.038; -136.900; -735.000; -657.000
336.173; -201.700;-1206.000;-1194.000
336.308;   10.800; -116.000; -189.000
336.443;   78.200; -544.000; -634.000
336.577; -113.600; -936.000; -787.000
336.712;  175.600;   -4.000;  -12.000
336.847;  -80.700; -724.000; -607.000
336.981;  108.800; -272.000; -208.000
337.116;  490.800;  615.000;  501.000
337.250;  241.800; -434.000; -421.000
337.385;  521.200; -297.000; -208.000
337.520;  233.900; -632.000; -603.000
337.654;  -56.900; -215.000; -126.000
337.789; -223.900; -989.000; -933.000
337.923;  -59.700; -104.000; -205.000
338.058; -143.300; -673.000; -738.000
338.192;  -25.900; -611.000; -488.000
338.327;   24.500;  -18.000; -155.000
338.461; -110.100; -299.000; -469.000
338.596; -143.100; -780.000; -638.000
338.730; -185.300; -767.000; -803.000
338.865;  246.000;  -46.000; -140.000
338.999;  -62.800; -846.000; -702.000
339.134;   32.900; -634.000; -536.000
339.268;   12.400; -741.000; -603.000
339.403;  753.000; -740.000; -775.000
339.537;  232.300; -894.000; -820.000
339.671; -175.100; -829.000; -813.000
339.806;  -94.700; -556.000; -512.000
339.940;   64.100; -261.000; -235.000
340.074; -193.600; -685.000; -510.000
340.209;  -32.200; -351.000; -230.000
340.343; -149.200; -517.000; -573.000
340.477;  365.000;  998.000; 1036.000
340.612; -114.900;-1033.000; -900.000
340.746;  307.600; -199.000; -243.000
340.880; -141.800; -924.000; -785.000
341.014;   22.500;  -45.000; -154.000
341.149; -223.400; -756.000; -718.000
341.283; -183.100; -839.000; -754.000
341.417; -184.600;-1124.000; -938.000
341.551;  209.300; -768.000; -708.000
341.685;  -55.800; -633.000; -611.000
341.820;  -99.400; -562.000; -493.000
341.954;  -88.100; -218.000; -349.000
342.088; -265.700;-1102.000;-1019.000
342.222;  136.600;  565.000;  618.000
342.356; -115.700; -395.000; -335.000
342.490; -156.400; -880.000; -841.000
342.624;  -32.600; -339.000; -242.000
342.758;  -17.500; -364.000; -312.000
342.892;  -92.500; -710.000; -585.000
343.026;  -39.700;  -58.000; -116.000
343.160;  -49.600; -426.000; -376.000
343.294; -142.900; -474.000; -337.000
343.428;  -32.100; -488.000; -448.000
343.562;    0.100; -172.000;  -23.000
343.696;  -43.300; -385.000; -314.000
343.830;  -30.400; -362.000; -356.000
343.964;   57.300; -231.000; -168.000
344.098; 1481.000;  199.000;   70.000
344.232; 1205.600; -266.000; -127.000
344.366;  179.300; -567.000; -453.000
344.500;  129.000; -665.000; -744.000
344.634;  114.100; -324.000; -164.000
344.768;   -5.300; -531.000; -341.000
344.902;   74.800;  278.000;  256.000
345.035; -125.800; -556.000; -496.000
345.169; -246.000; -933.000; -656.000
345.303;  -20.100; -308.000; -482.000
345.437; -151.900; -826.000; -717.000
345.571; -132.300; -675.000; -594.000
345.704; -124.800; -309.000; -532.000
345.838;    2.000; -331.000; -284.000
345.972;  -78.700; -543.000; -495.000
346.106;  362.400; -179.000; -190.000
346.239;  803.200; -312.000; -243.000
346.373;   68.700; -343.000; -302.000
346.507; -269.100; -950.000; -962.000
346.640;  286.500;  -30.000;   13.000
346.774;  -93.700; -650.000; -797.000
346.908;   53.700; -138.000;  -11.000
347.041; -170.700; -646.000; -593.000
347.175;   14.300;  259.000;   27.000
347.309; -115.600; -698.000; -628.000
347.442; -196.900; -883.000; -732.000
347.576;  526.500;  670.000;  668.000
347.709;  387.100; -123.000;  -52.000
347.843; -175.400; -933.000; -825.000
347.976;  132.600;  235.000;  294.000
348.110; -332.900;-1268.000;-1186.000
348.243; -138.800; -679.000; -772.000
348.377;   11.700;  -26.000;   60.000
348.510;  134.200;  403.000;  540.000
348.644;  -46.300;  -37.000; -159.000
348.777;   36.000;  180.000;  191.000
348.911;  -52.800; -142.000; -112.000
349.044;  355.900;  471.000;  448.000
349.178;  227.200;-1069.000;-1006.000
349.311;  288.900;  141.000;  255.000
349.444;  -23.900; -927.000; -813.000
349.578;   -3.200; -347.000; -200.000
349.711; -188.000; -959.000; -862.000
349.845;   35.900; -661.000; -591.000
349.978; -274.800;-1224.000;-1137.000
350.111; -132.500; -546.000; -612.000
350.244; -130.900; -596.000; -700.000
350.378;   31.300; -392.000; -393.000
350.511;  -92.000; -393.000; -426.000
350.644; -142.400; -808.000; -806.000
350.778;   27.900;  168.000;  104.000
350.911;   68.200;  134.000;  140.000
351.044; -142.800; -685.000; -615.000
351.177;  -14.500; -321.000; -281.000
351.310;    4.500;    3.000; -131.000
351.444; -126.000; -888.000; -788.000
351.577;  240.900;  140.000;   90.000
351.710;  249.200;  593.000;  417.000
351.843;  -34.800; -165.000;  -77.000
351.976;   63.100;  149.000;  -79.000
352.109; -161.400; -621.000; -612.000
352.242;   -4.800; -464.000; -419.000
352.376; -129.800; -580.000; -636.000
352.509;  299.300; -437.000; -356.000
352.642;    9.500; -654.000; -604.000
352.775;  124.700; -141.000;  -98.000
352.908; -210.600; -933.000; -904.000
353.041; -164.000; -814.000; -824.000
353.174;  -87.000; -551.000; -424.000
353.307; -127.400; -753.000; -764.000
353.440;  171.500;  541.000;  453.000
353.573; -186.400; -957.000;-1008.000
353.706;  -59.000; -384.000; -558.000
353.839;  -21.300; -264.000; -220.000
353.971; -156.600; -657.000; -512.000
354.104; -135.900; -896.000; -835.000
354.237;  -33.900; -627.000; -662.000
354.370; -163.900; -846.000; -879.000
354.503; -342.600;-1231.000;-1308.000
354.636;  -22.400; -529.000; -348.000
354.769; -238.600; -937.000; -860.000
354.902;    1.700; -230.000; -139.000
355.034;   -4.000; -164.000; -220.000
355.167;   -8.900; -262.000; -162.000
355.300; -167.900;-1061.000; -880.000
355.433; 1914.400;  -71.000;  -14.000
355.565; 2964.900; -402.000; -384.000
355.698;  740.200; -356.000; -296.000
355.831;    8.300; -882.000; -801.000
355.964;  152.000; -285.000; -170.000
356.096; -135.300; -856.000; -843.000
356.229;    9.700; -523.000; -530.000
356.362;  628.500; -373.000; -266.000
356.494; 1243.300; -229.000; -162.000
356.627;  887.200;  269.000;  377.000
356.760; 1297.100;  120.000;   53.000
356.892; 1855.200; -286.000; -601.000
357.025; 1150.800;  403.000;  389.000
357.157; 1027.200; -167.000; -179.000
357.290; 1393.400; -856.000; -713.000
357.423;  371.700; -667.000; -556.000
357.555;  202.200; -217.000; -228.000
357.688;  208.700; -483.000; -364.000
357.820;  689.600; -870.000; -877.000
357.953; 5981.600; -563.000; -589.000
358.085; 1281.800; -632.000; -612.000
358.218; 1789.000;-1131.000; -932.000
358.350;  353.900;  -58.000;  312.000
358.483; -208.000;-1300.000;-1187.000
358.615;  -24.200;-1182.000;-1078.000
358.747; -163.500;-1187.000;-1058.000
358.880;   56.600; -810.000; -744.000
359.012;    9.700; -376.000; -202.000
359.145;  -53.900; -480.000; -511.000
359.277;   65.100; -962.000; -913.000
359.409; 4981.100;  536.000;  231.000
359.542; 1222.900; -738.000; -688.000
359.674;  161.300;   46.000;   13.000
359.806;  -99.700; -565.000; -438.000
359.939;  -54.500; -617.000; -516.000
360.071;   14.500; -583.000; -579.000
360.203;  -20.300; -411.000; -364.000
360.335;  136.900;  164.000;  -16.000
360.468;  334.100; -249.000; -307.000
360.600; 4033.900; -547.000; -454.000
360.732; 5425.200; -546.000; -423.000
360.864;  741.000;-1216.000;-1044.000
360.996;  542.200; -516.000; -554.000
361.129;   77.400; -389.000; -598.000
361.261;  112.600;  110.000; -113.000
361.393;  -20.600; -252.000; -214.000
361.525;  113.500;   94.000;  244.000
361.657;  -78.400; -821.000; -703.000
361.789;   52.900; -139.000; -155.000
361.921;  358.900; -642.000; -593.000
362.053;  502.300;  524.000;  541.000
362.185;  124.300;  288.000;   72.000
362.318; -160.300; -709.000; -705.000
362.450;  240.800;  294.000;  444.000
362.582;  152.500; -913.000; -870.000
362.714;  -66.200; -353.000; -332.000
362.846; -115.300; -606.000; -490.000
362.978; -250.800; -941.000; -811.000
363.109;  114.900; -161.000; -260.000
363.241;  760.000; -739.000; -749.000
363.373;  886.900; -649.000; -564.000
363.505; 1338.200; -186.000;  -91.000
363.637;  362.200; -787.000; -601.000
363.769; -210.900;-1067.000;-1080.000
363.901;  -84.600; -596.000; -654.000
364.033; -210.400;-1103.000;-1062.000
364.165;   57.900; -283.000; -283.000
364.296;  170.600; -316.000; -177.000
364.428;  178.000;-1344.000;-1220.000
364.560; -106.800; -679.000; -661.000
364.692;  -91.200; -738.000; -835.000
364.824;  422.600; -588.000; -456.000
364.955;  836.600; -402.000; -564.000
365.087; 1821.000;-1097.000; -852.000
365.219;   73.100; -686.000; -816.000
365.351; -103.700; -526.000; -572.000
365.482;  129.500;  300.000;  240.000
365.614;  -47.100; -402.000; -314.000
365.746; -150.400; -729.000; -752.000
365.877; -183.100; -706.000; -672.000
366.009;  588.200;  -35.000;  -62.000
366.141; -153.100;-1249.000;-1134.000
366.272; -156.200; -803.000; -719.000
366.404; -207.100;-1005.000; -874.000
366.535;   41.100; -139.000;  -12.000
366.667; -141.200; -644.000; -649.000
366.799;  162.700;  353.000;  203.000
366.930; -221.400; -862.000; -996.000
367.062;  262.500; -639.000; -613.000
367.193;  367.400; -872.000; -842.000
367.325;  -89.100; -580.000; -684.000
367.456;  113.300; -246.000;   31.000
367.588;  343.700; -371.000; -318.000
367.719;   99.800;  -44.000;  -45.000
367.851;   11.100; -222.000; -241.000
367.982; -102.800; -875.000; -732.000
368.113;  163.800; -475.000; -358.000
368.245; -205.900; -960.000; -841.000
368.376;  -11.200; -254.000; -302.000
368.508;   -9.200; -188.000; -263.000
368.639; -235.000;-1166.000;-1034.000
368.770;  -14.400; -670.000; -589.000
368.902; -111.800; -836.000; -926.000
369.033; -165.300; -906.000; -855.000
369.164;  -67.400; -720.000; -653.000
369.296; -187.900; -452.000; -601.000
369.427;   -5.500; -209.000; -144.000
369.558;  -64.600; -593.000; -377.000
369.689; -115.100; -721.000; -569.000
369.821; -246.100; -951.000; -845.000
369.952;   20.000;   42.000; -108.000
370.083;  -56.100; -229.000; -108.000
370.214; -117.200; -735.000; -650.000
370.345;   24.000;   65.000;   81.000
370.477; -119.600; -810.000; -790.000
370.608;  420.500; -328.000; -264.000
370.739; -113.100;-1233.000;-1292.000
370.870;  -82.100;-1102.000; -923.000
371.001;  184.100; -378.000; -467.000
371.132;  -98.800; -754.000; -735.000
371.263;   40.100;  -42.000; -148.000
371.394; -232.800; -841.000; -748.000
371.525;  132.000;  345.000;  225.000
371.657; -133.400; -808.000; -670.000
371.788;  182.700;  103.000;  199.000
371.919;  305.100; -384.000; -304.000
372.050; 5845.900;  -91.000; -156.000
372.181; 1688.100; -188.000; -294.000
372.311;  628.700;   42.000; -127.000
372.442;   95.400; -457.000; -451.000
372.573;    2.100; -444.000; -340.000
372.704; -234.200;-1008.000; -980.000
372.835;  208.500; -228.000; -289.000
372.966; -123.800; -646.000; -554.000
373.097; -118.200; -575.000; -711.000
373.228;  -59.400; -717.000; -542.000
373.359;  248.000; -824.000; -536.000
373.490; 1492.300; -881.000; -727.000
373.620; 1787.600;-1001.000; -803.000
373.751; 2828.500; -332.000; -396.000
373.882; 1195.500; -663.000; -733.000
374.013;   91.700; -449.000; -262.000
374.143;  -63.700; -581.000; -659.000
374.274; -192.100; -987.000; -908.000
374.405;  383.100; -388.000; -276.000
374.536;  691.500; -526.000; -387.000
374.666; 1767.600; -759.000; -807.000
374.797;  369.500; -817.000; -868.000
374.928; 1375.800; -710.000; -560.000
375.058; 1418.800; -535.000; -500.000
375.189;  167.700;  -59.000;  -93.000
375.320; -196.500; -928.000;-1034.000
375.450;  -61.700; -625.000; -616.000
375.581;  -69.500; -526.000; -436.000
375.712;  -21.800; -574.000; -250.000
375.842;  533.300; -438.000; -415.000
375.973;  353.700; -554.000; -513.000
376.103;  -78.900; -665.000; -648.000
376.234; -107.700; -531.000; -552.000
376.364;  -49.900; -944.000; -867.000
376.495;  642.300;  925.000;  529.000
376.625;  -12.300; -472.000; -485.000
376.756;  118.900; -709.000; -678.000
376.886; -144.700;-1178.000;-1026.000
377.017;   97.300;-1048.000;-1061.000
377.147;  708.000; -786.000; -782.000
377.278;  168.900;  174.000;  228.000
377.408; -189.400; -801.000; -815.000
377.538; -163.200; -707.000; -693.000
377.669; -120.400; -537.000; -613.000
377.799; -112.000; -645.000; -635.000
377.929;  -86.600; -610.000; -428.000
378.060; -208.300; -781.000; -847.000
378.190;  -80.300; -726.000; -531.000
378.320;  -44.200; -401.000; -406.000
378.451;   46.400; -131.000;  -22.000
378.581;   -0.400;  -67.000; -110.000
378.711;  330.600; 1035.000;  866.000
378.841;   -0.900; -533.000; -675.000
378.972; -132.900; -871.000; -751.000
379.102;   -2.900; -652.000; -579.000
379.232;  -19.600; -126.000;  -73.000
379.362; -196.500;-1001.000; -885.000
379.492;   42.800; -373.000; -424.000
379.623;  214.900;    0.000;  111.000
379.753; -165.000;-1107.000; -974.000
379.883;  420.500;   59.000;  156.000
380.013;   -4.900;-1081.000;-1017.000
380.143; -166.300;-1097.000;-1056.000
380.273; -188.700; -985.000; -861.000
380.403;   40.100; -344.000; -257.000
380.533;  -69.700; -651.000; -664.000
380.663;  182.100;  173.000;  128.000
380.793; -185.600;-1027.000;-1074.000
380.923;   17.400; -103.000;  -34.000
381.053; -139.500; -613.000; -623.000
381.183;    2.500; -106.000; -248.000
381.313;   68.100; -656.000; -470.000
381.443;   78.200; -692.000; -473.000
381.573;  327.200; -402.000; -409.000
381.703;  426.800;-1249.000;-1095.000
381.833; -232.300;-1454.000;-1336.000
381.963;  244.800; -134.000;  -87.000
382.093; 2309.300; -925.000; -909.000
382.223;  707.300; -713.000; -602.000
382.353;  -39.700; -801.000; -608.000
382.482;  556.000;-1091.000; -964.000
382.612; 1282.100; -872.000; -644.000
382.742;  718.800; -695.000; -622.000
382.872;  439.600; -565.000; -551.000
383.002;  191.000;  347.000; -132.000
383.131;    3.800; -226.000; -160.000
383.261;  -59.500; -706.000; -768.000
383.391;  559.000; -552.000; -377.000
383.521; 6426.300;  451.000;  263.000
383.650; 1442.900; -947.000; -904.000
383.780;   15.200; -783.000; -656.000
383.910;  272.400;  880.000;  802.000
384.039;   56.800; -794.000; -656.000
384.169;  327.100;-1205.000;-1017.000
384.299;  -12.800; -650.000; -662.000
384.428; -152.700; -764.000; -680.000
384.558;  -22.800; -308.000; -275.000
384.687;  -45.500; -414.000; -334.000
384.817;   96.500;   75.000;   -2.000
384.947;   51.700; -234.000; -141.000
385.076;  583.900;  982.000;  912.000
385.206;  259.900;  369.000;  480.000
385.335;  -26.800; -549.000; -417.000
385.465; -106.800; -655.000; -663.000
385.594;  261.800;  -53.000;  -44.000
385.724;  664.400; -868.000; -838.000
385.853;  231.400; -296.000; -270.000
385.982; 2226.400; -743.000; -787.000
386.112; 3333.800;-1052.000; -871.000
386.241;  233.600; -307.000; -312.000
386.371;   70.400; -174.000;  -87.000
386.500;    2.400; -825.000; -789.000
386.629;   68.900; -874.000; -817.000
386.759;  175.500;  -43.000;   68.000
386.888;   47.800; -170.000; -250.000
387.017; -106.900; -648.000; -620.000
387.147;  -98.900; -771.000; -798.000
387.276;   26.900; -410.000; -397.000
387.405;   66.800; -398.000; -342.000
387.535;  -28.100; -452.000; -361.000
387.664;  -72.300; -692.000; -620.000
387.793;  120.700; -198.000; -113.000
387.922;  885.700;  255.000;  200.000
388.052;   36.000; -576.000; -423.000
388.181;   39.400; -342.000; -472.000
388.310;   28.100; -889.000; -710.000
388.439;  -27.400; -749.000; -742.000
388.568;  374.400;  365.000;  244.000
388.697; 1674.100; -756.000; -653.000
388.826;  310.200; -768.000; -666.000
388.956;  147.500; -285.000; -307.000
389.085;  -24.800; -347.000; -287.000
389.214; -185.100; -842.000; -872.000
389.343; -127.800; -645.000; -413.000
389.472;  859.000;  126.000;  149.000
389.601; 1006.100;   91.000;    0.000
389.730;   65.700; -568.000; -687.000
389.859;  145.400;  226.000;   46.000
389.988;  349.700; -423.000; -408.000
390.117;  243.100; -168.000; -146.000
390.246;   41.200; -331.000; -320.000
390.375;  184.600; -673.000; -626.000
390.504;  -90.700; -703.000; -621.000
390.633; -161.300; -672.000; -726.000
390.761;  -82.500; -732.000; -645.000
390.890;   93.100;   -4.000; -130.000
391.019;   40.000; -421.000; -441.000
391.148; -190.000; -826.000; -855.000
391.277;  -69.700; -576.000; -493.000
391.406; -131.400; -821.000; -805.000
391.534;  129.300;  574.000; -301.000
391.663;  -70.600; -583.000; -645.000
391.792; -128.600; -673.000; -701.000
391.921;  170.500;   -3.000;   15.000
392.050;  345.000; -287.000; -228.000
392.178;  -90.700;-1206.000;-1061.000
392.307;  239.900; -758.000; -712.000
392.436;  137.000; -427.000; -641.000
392.564;   63.400;  166.000;   -6.000
392.693; -166.400; -860.000; -682.000
392.822;  379.900; -529.000; -534.000
392.950;  146.800; -880.000; -714.000
393.079;  554.100; -188.000; -328.000
393.208;   16.900; -488.000; -511.000
393.336;   35.500; -170.000; -145.000
393.465;  -56.500; -317.000; -199.000
393.593;   59.000;   62.000;   79.000
393.722; -253.200;-1121.000; -916.000
393.850;   12.800; -188.000;  -61.000
393.979; -263.700; -926.000; -805.000
394.107;  -74.100; -517.000; -537.000
394.236;  -17.200; -570.000; -507.000
394.364;  544.600;  383.000;  206.000
394.493;  782.500; -911.000; -767.000
394.621;   26.700; -955.000; -916.000
394.750; 1480.800; -873.000; -923.000
394.878; 6066.100; -247.000; -149.000
395.007; 7700.100; -721.000; -807.000
395.135;  585.100; -790.000; -721.000
395.263; -116.000;-1038.000;-1040.000
395.392;   75.600;  -25.000; -107.000
395.520; -118.500; -818.000; -679.000
395.648; -126.200; -865.000; -915.000
395.777;   -3.800; -366.000; -405.000
395.905;  -27.000; -449.000; -564.000
396.033;   78.000;  217.000;  172.000
396.162; 1278.800; -399.000; -453.000
396.290; 1083.600;  -17.000;   -2.000
396.418;  188.000; -555.000; -514.000
396.546; -137.100; -571.000; -466.000
396.674; -143.800; -850.000; -878.000
396.803;   47.900;  -72.000;  -23.000
396.931;  222.200; -179.000; -199.000
397.059;   58.800;-1026.000; -989.000
397.187; -181.200;-1026.000; -975.000
397.315; -248.600; -884.000; -649.000
397.443; -115.800; -592.000; -443.000
397.572; -137.000; -578.000; -424.000
397.700;   11.300; -607.000; -614.000
397.828;   99.200;  120.000;  -90.000
397.956;  -20.600; -508.000; -478.000
398.084;  -87.100; -767.000; -626.000
398.212;  103.600;  137.000;  124.000
398.340;   87.200;  -56.000;  159.000
398.468;   62.700; -390.000; -169.000
398.596; -243.400; -993.000; -953.000
398.724; -198.800; -762.000; -767.000
398.852; -277.600;-1024.000; -976.000
398.980;  -64.500; -560.000; -560.000
399.108;  -74.800; -982.000; -735.000
399.236;  105.900;   13.000;    8.000
399.363;   81.100;  222.000;  196.000
399.491;  -76.700; -404.000; -398.000
399.619; -217.500; -829.000; -800.000
399.747; -160.000; -859.000; -771.000
399.875;  236.800;  220.000;  234.000
400.003;  -54.400; -359.000; -284.000
400.130; -126.400; -421.000; -341.000
400.258;   -7.900;  -83.000;   38.000
400.386;  -62.800; -352.000; -168.000
400.514;   -2.600; -526.000; -587.000
400.641; -131.200; -928.000; -802.000
400.769; -228.500; -979.000; -888.000
400.897; -160.600; -838.000; -793.000
401.025;   39.300; -166.000; -152.000
401.152;   39.800;  220.000;   38.000
401.280;  -99.300; -430.000; -429.000
401.408; -166.000; -712.000; -576.000
401.535; -160.900; -735.000; -758.000
401.663; -333.100;-1134.000;-1054.000
401.790; -112.600; -514.000; -525.000
401.918;  119.400;  436.000;  405.000
402.046;   50.200;  134.000;  122.000
402.173;  -28.200;  -18.000;    7.000
402.301;  -80.000; -519.000; -397.000
402.428;  133.600;  528.000;  383.000
402.556; -262.200;-1188.000; -913.000
402.683;  -16.500;  -20.000;   -1.000
402.811;   23.800;  -37.000; -206.000
402.938;   34.400;   20.000;   27.000
403.066;  355.200; -574.000; -558.000
403.193;  549.200;  299.000;  239.000
403.321;  431.300; -396.000; -574.000
403.448;  530.100;   83.000;   27.000
403.575;  258.400;  -90.000;  -46.000
403.703; -126.400; -732.000; -557.000
403.830;  -98.600; -531.000; -496.000
403.957; -238.500;-1117.000;-1023.000
404.085;  113.000;  -61.000; -172.000
404.212;  220.300;  -50.000;   63.000
404.339;  620.400; -566.000; -306.000
404.467;11986.800; -612.000; -524.000
404.594; 7115.500; -287.000; -227.000
404.721; 1572.300; -869.000; -764.000
404.848;  205.800; -113.000; -202.000
404.976; -154.600; -856.000; -783.000
405.103;   38.700;  -14.000;  -82.000
405.230;   47.600;  190.000;  226.000
405.357;  153.300;  117.000;   44.000
405.484;  577.100;  -49.000;    5.000
405.612;  164.100; -548.000; -563.000
405.739;  -54.400; -488.000; -243.000
405.866;  205.400;  669.000;  385.000
405.993;  -32.000; -398.000; -102.000
406.120; -198.600; -801.000; -887.000
406.247;  -66.300; -323.000; -342.000
406.374;  832.500;  540.000;  629.000
406.501;  180.500; -632.000; -702.000
406.628;  -74.800; -621.000; -589.000
406.755; -161.500; -803.000; -620.000
406.882;   29.300; -228.000; -277.000
407.009; -175.500; -719.000; -628.000
407.136;  147.600; -480.000; -401.000
407.263;  213.800; -939.000; -829.000
407.390;  -94.900; -692.000; -614.000
407.517; -282.300;-1139.000;-1187.000
407.644;  -85.700; -332.000; -256.000
407.771; -101.700; -249.000; -287.000
407.898;  107.500;  168.000;  328.000
408.025;  -68.000; -421.000; -313.000
408.151;   23.800;   82.000;  153.000
408.278;  -76.400; -267.000; -216.000
408.405; -179.800; -931.000; -899.000
408.532;  -67.900; -549.000; -542.000
408.659; -156.800; -677.000; -648.000
408.785; -362.500;-1298.000;-1170.000
408.912;  -88.700; -412.000; -296.000
409.039; -195.900; -610.000; -686.000
409.166; -162.000; -591.000; -555.000
409.292; -178.700; -571.000; -534.000
409.419; -158.600; -665.000; -649.000
409.546; -119.000; -431.000; -192.000
409.672; -145.100; -713.000; -545.000
409.799;   -7.500;  -36.000;   34.000
409.926;   -9.800; -180.000; -179.000
410.052; -304.300;-1127.000;-1091.000
410.179;  -36.900; -368.000; -392.000
410.305; -114.300; -375.000; -493.000
410.432;  -38.400; -220.000; -333.000
410.558; -113.800; -305.000; -380.000
410.685; -166.900; -688.000; -431.000
410.812; -132.100; -409.000; -588.000
410.938; -230.000; -964.000; -808.000
411.065; -150.300; -671.000; -645.000
411.191;   37.100; -189.000; -174.000
411.317; -247.900; -823.000; -742.000
411.444;  -70.100; -317.000; -246.000
411.570;  -76.100; -339.000; -294.000
411.697; -183.900; -758.000; -752.000
411.823; -295.700; -989.000; -999.000
411.949;    2.600;  -56.000;   17.000
412.076; -172.000; -539.000; -519.000
412.202; -169.800; -758.000; -757.000
412.329; -198.800; -798.000; -752.000
412.455; -190.900; -821.000; -657.000
412.581;   15.100;  -15.000;  172.000
412.707;  -82.500; -540.000; -457.000
412.834;   62.400;  156.000;  219.000
412.960; -106.500; -785.000; -784.000
413.086; -180.500; -743.000; -701.000
413.212;  339.800;  604.000;  578.000
413.339; -115.100; -685.000; -701.000
413.465;   31.500; -364.000; -310.000
413.591; -125.100; -757.000; -474.000
413.717;  -41.900; -358.000; -366.000
413.843; -252.800; -839.000; -861.000
413.969;  -49.100;  -47.000; -292.000
414.096; -148.100; -679.000; -679.000
414.222;   41.500;  -33.000;   85.000
414.348;  -40.200; -652.000; -385.000
414.474;  218.900;   38.000;  -52.000
414.600;   61.000; -126.000; -144.000
414.726;   56.400;  -96.000;  -55.000
414.852;  -46.700; -365.000; -342.000
414.978;  136.400;  104.000;  -18.000
415.104;  135.600;   38.000;   80.000
415.230;  116.400; -329.000; -330.000
415.356;  177.900; -409.000; -514.000
415.482;  418.800;   13.000;  -35.000
415.608;  587.300; -247.000; -323.000
415.734; 2073.500;   67.000;   38.000
415.860;41224.600; -875.000; -767.000
415.986;27062.700; -685.000; -607.000
416.111; 2263.800; -798.000; -652.000
416.237;  531.100; -424.000; -571.000
416.363; 2509.300; -765.000; -733.000
416.489; 8257.300; -324.000; -251.000
416.615;  877.700; -707.000; -742.000
416.741;  -11.500; -677.000; -784.000
416.866; -131.400; -673.000; -736.000
416.992; -161.400; -801.000; -818.000
417.118;  -28.500;  -41.000;  -80.000
417.244;  -93.100; -798.000; -531.000
417.369; -107.100; -801.000; -612.000
417.495;   31.300; -325.000; -254.000
417.621; -145.800;-1015.000; -803.000
417.746;   51.100; -579.000; -572.000
417.872;  132.600; -254.000; -144.000
417.998;  184.800; -515.000; -530.000
418.123; 2422.100;-1073.000; -845.000
418.249;10733.500; -512.000; -601.000
418.374; 1398.900; -916.000; -824.000
418.500;  266.500; -383.000; -482.000
418.626;  263.800;   70.000;  -59.000
418.751;  318.300; -549.000; -448.000
418.877;  408.500; -637.000; -643.000
419.002; 4045.000; -688.000; -560.000
419.128;25429.800; -930.000; -721.000
419.253; 5579.400; -967.000; -837.000
419.379;  792.400; -391.000; -338.000
419.504;  841.500;  325.000;  415.000
419.629; 1076.900; -393.000; -212.000
419.755; 7897.800; -317.000; -254.000
419.880;41981.600;  -98.000;   67.000
420.006;23438.000; -280.000; -221.000
420.131;56413.100; -662.000; -775.000
420.256; 7351.500; -315.000; -316.000
420.382; 1035.300; -665.000; -687.000
420.507;  175.500; -649.000; -778.000
420.632;  255.700; -337.000; -339.000
420.758;  427.500; -251.000; -425.000
420.883; -146.000; -876.000; -672.000
421.008; -132.400; -775.000; -619.000
421.133;  -82.500; -509.000; -467.000
421.259;  -45.500; -325.000; -259.000
421.384; -200.700; -834.000; -693.000
421.509;  -71.500;-1052.000; -862.000
421.634; 1849.600; -936.000; -820.000
421.759;  693.900; -359.000; -327.000
421.885;  -78.900; -717.000; -656.000
422.010;  -78.800; -673.000; -542.000
422.135; -244.800; -695.000; -727.000
422.260;  130.600;  340.000;  280.000
422.385;  -29.100;   12.000;  -98.000
422.510;  101.500;  151.000;  -26.000
422.635;   70.300;  -87.000;  -43.000
422.760;  231.600; -766.000; -791.000
422.885;  102.100;  -57.000;  -80.000
423.010;   20.200; -112.000; -169.000
423.135; -140.300; -481.000; -561.000
423.260;   -1.300; -150.000; -245.000
423.385;  164.200;  476.000;  222.000
423.510;  131.700;   71.000;  -22.000
423.635;  203.300;  133.000;   45.000
423.760;  213.000;  383.000;  328.000
423.885;  148.800;  336.000;  391.000
424.010;   54.400;  -68.000;  -13.000
424.135;   20.100;    5.000;  -33.000
424.259; -102.300; -654.000; -457.000
424.384;  -58.500; -279.000; -272.000
424.509;   28.700; -260.000; -186.000
424.634; -136.600; -761.000; -623.000
424.759;    5.700; -688.000; -544.000
424.883;   32.500; -506.000; -527.000
425.008;  398.000; -502.000; -410.000
425.133; 4161.700; -679.000; -653.000
425.258; 1774.600; -517.000; -381.000
425.382; 1791.500; -867.000; -774.000
425.507; 4118.000; -487.000; -543.000
425.632;  743.600; -802.000; -663.000
425.756;  983.000; -256.000; -146.000
425.881;14402.700; -831.000; -857.000
426.006;34809.900; -604.000; -355.000
426.130; 4965.400; -696.000; -508.000
426.255;  711.700; -611.000; -491.000
426.379;  369.000; -189.000; -577.000
426.504;  880.300;  660.000;  544.000
426.629; 8480.500; -519.000; -466.000
426.753; 5196.000;   64.000;  -46.000
426.878;  685.900; -252.000; -288.000
427.002;  378.400; -651.000; -668.000
427.127; 3486.300;  -35.000; -158.000
427.251;23202.100;  372.000;  401.000
427.375; 5779.900; -191.000; -173.000
427.500; 3901.900; -616.000; -610.000
427.624; 1168.800; -234.000; -400.000
427.749;  188.500; -216.000; -225.000
427.873;  -17.400; -499.000; -412.000
427.997;  -20.000; -222.000; -230.000
428.122;  235.300;  795.000;  703.000
428.246;  245.200;  433.000;  434.000
428.371; -217.200; -869.000; -773.000
428.495; -160.600; -624.000; -646.000
428.619;   -7.700; -186.000; -117.000
428.743;  123.200;   65.000;  132.000
428.868;   46.200; -732.000; -643.000
428.992; 2286.300; -219.000; -326.000
429.116;  857.300; -329.000; -357.000
429.240;  465.400;  419.000;  426.000
429.365;   17.200; -454.000; -574.000
429.489;    5.300; -638.000; -647.000
429.613;   84.600; -236.000; -177.000
429.737;  141.600; -563.000; -432.000
429.861;  621.100; -247.000; -133.000
429.985;11899.500; -425.000; -305.000
430.109;11669.500; -770.000; -908.000
430.234; 1336.100;   76.000;  -50.000
430.358;  179.500; -250.000; -160.000
430.482;  -80.300; -672.000; -564.000
430.606;  -71.500; -655.000; -375.000
430.730;   69.700; -437.000; -388.000
430.854;  217.600; -909.000; -835.000
430.978;  -96.100; -795.000; -764.000
431.102; -112.400; -499.000; -422.000
431.226; -152.000; -874.000; -815.000
431.350;  131.100;  345.000;  422.000
431.474;  -71.900; -661.000; -373.000
431.597; -247.000;-1060.000; -848.000
431.721;  -79.900; -276.000; -267.000
431.845; -209.500; -704.000; -472.000
431.969; -103.100; -304.000; -349.000
432.093; -145.100; -395.000; -317.000
432.217;   45.100;   32.000;   82.000
432.341; -153.200; -523.000; -518.000
432.464;   87.500;   96.000;   40.000
432.588;  359.200; -401.000; -329.000
432.712;  224.000;  -52.000;  -52.000
432.836;  156.900;  213.000;  263.000
432.959;   49.500; -372.000; -311.000
433.083;  249.600;   11.000;    2.000
433.207;  861.500;  285.000;  930.000
433.330;10889.800; -391.000; -200.000
433.454;12089.100; -654.000; -638.000
433.578; 7176.900;  583.000;  278.000
433.701; 1207.300; -623.000; -675.000
433.825;  278.900; -292.000; -299.000
433.949;  337.900;   28.000;  -72.000
434.072;  105.600; -410.000; -323.000
434.196;   41.800; -309.000; -117.000
434.319; 7737.200;25482.000;25124.000
434.443; 1573.300; -656.000; -603.000
434.566; 5351.200;  281.000;   62.000
434.690;  862.000; -637.000; -383.000
434.813;  141.400; -251.000; -173.000
434.937;  -96.500; -569.000; -696.000
435.060;  -17.300; -423.000; -332.000
435.184;  491.500; -492.000; -217.000
435.307;  278.100;  159.000;  102.000
435.431;   48.500;  -40.000;   24.000
435.554; -102.600; -399.000; -240.000
435.677;  -72.200; -350.000; -258.000
435.801;  -37.600;  -25.000;   49.000
435.924;   36.500;    1.000;  -67.000
436.048; -193.500;-1019.000; -732.000
436.171;  -53.200; -240.000;  -66.000
436.294;    0.400; -248.000; -229.000
436.417;  272.200; -963.000; -849.000
436.541; -119.200; -814.000; -840.000
436.664;  -34.700; -242.000; -316.000
436.787;   51.700;   13.000;  113.000
436.910; -160.400; -792.000; -422.000
437.034;   58.100;  142.000;  143.000
437.157;  148.600;  -11.000;    0.000
437.280;  -76.400; -392.000; -292.000
437.403; -108.300; -982.000; -869.000
437.526; 1024.900; -903.000; -865.000
437.649; 3303.800; -505.000; -332.000
437.772;  378.100; -692.000; -540.000
437.896;  235.400;  700.000;  544.000
438.019; -153.800; -758.000; -503.000
438.142; -108.100; -596.000; -506.000
438.265;   11.100; -639.000; -670.000
438.388;  917.600; -520.000; -410.000
438.511;  135.500; -597.000; -394.000
438.634;  -42.800; -247.000; -125.000
438.757; -226.700; -693.000; -619.000
438.880;   35.500;  -34.000;  -57.000
439.003; -103.100; -417.000; -437.000
439.126;  -64.000; -287.000; -167.000
439.248;  -77.600;  -98.000; -139.000
439.371;    0.800;    9.000;  -53.000
439.494;  132.100;  510.000;  439.000
439.617;  -40.900;   65.000;  -88.000
439.740; -292.200; -968.000; -816.000
439.863; -231.000; -755.000; -595.000
439.986; -189.200; -476.000; -431.000
440.108;  -44.700; -161.000; -112.000
440.231; -261.300; -950.000; -836.000
440.354;  -16.700;  -64.000; -150.000
440.477;   61.000; -566.000; -542.000
440.599;   54.600; -200.000; -225.000
440.722; -197.600; -709.000; -586.000
440.845;  252.100;  751.000;  928.000
440.968; -167.100; -415.000; -311.000
441.090;  -49.900; -199.000;  -33.000
441.213; -262.200;-1021.000; -825.000
441.336;   27.800; -159.000;   -5.000
441.458;  -87.700; -549.000; -396.000
441.581;  -98.100; -628.000; -629.000
441.703;  -81.700; -152.000;   13.000
441.826; -158.600; -557.000; -400.000
441.948;  -27.300;   56.000;   51.000
442.071;  133.400;  555.000;  424.000
442.193; -183.100; -531.000; -485.000
442.316;  117.000;  152.000;   97.000
442.438;  153.000; -233.000;  -10.000
442.561;  176.400;  272.000;  262.000
442.683;  891.300; -809.000; -522.000
442.806; 1752.600;   -8.000;   74.000
442.928;    7.100; -859.000; -604.000
443.051;  -97.400; -577.000; -373.000
443.173; -139.900; -341.000; -339.000
443.295; -107.600; -263.000; -371.000
443.418;  -74.700; -321.000;  -29.000
443.540;   39.600; -106.000;   -4.000
443.662; -193.100; -563.000; -465.000
443.785;   55.400;  335.000;  199.000
443.907; -185.500; -362.000; -208.000
444.029; -187.000; -767.000; -494.000
444.152; -226.400; -644.000; -554.000
444.274;    0.200;  -18.000;  -24.000
444.396; -149.300; -461.000; -221.000
444.518; -182.200; -691.000; -454.000
444.640; -152.400; -268.000; -111.000
444.763;   55.200;  388.000;  249.000
444.885; -163.500; -432.000; -392.000
445.007;    7.600;   35.000;   86.000
445.129; -172.000; -610.000; -515.000
445.251; -128.600; -372.000; -439.000
445.373; -211.700; -537.000; -386.000
445.495;   81.100;  242.000;  350.000
445.617;  201.100;  853.000;  753.000
445.739;  -63.600; -215.000;  -97.000
445.861;  -37.900; -245.000; -112.000
445.984;  -10.200; -267.000; -101.000
446.105;  346.300; -418.000; -251.000
446.227;  968.000; -176.000;  -19.000
446.349;  -14.500; -358.000; -249.000
446.471; -135.400; -615.000; -448.000
446.593;  -88.100; -316.000;   19.000
446.715;   37.400;  -67.000;   41.000
446.837;  204.000;  697.000;  832.000
446.959; -123.600; -457.000; -478.000
447.081; -224.300; -628.000; -518.000
447.203;  193.700;  862.000;  834.000
447.325; -110.600; -270.000;   42.000
447.446;   40.800;  286.000;  530.000
447.568; -253.100; -921.000; -803.000
447.690;  -80.700; -236.000; -245.000
447.812; -221.200; -798.000; -519.000
447.933;   13.000;  155.000;  127.000
448.055;  -48.900; -306.000; -261.000
448.177;  273.200;   31.000;   79.000
448.299;   95.100; -935.000; -727.000
448.420;  131.400;  -25.000;  159.000
448.542;  -32.400;   -3.000;   33.000
448.664;   46.000;  109.000;  322.000
448.785;  -11.700;  265.000;   83.000
448.907;  -87.600; -614.000; -353.000
449.028;  -58.700; -771.000; -471.000
449.150;  156.000;  492.000;  589.000
449.272; -301.300;-1044.000; -913.000
449.393;  114.600;  612.000;  694.000
449.515; -209.000; -634.000; -581.000
449.636;  -35.600; -264.000; -155.000
449.758;  226.900;  763.000;  622.000
449.879; -114.000; -498.000; -396.000
450.001; -111.400; -149.000;  -49.000
450.122;    3.400;  -95.000;  162.000
450.244;   18.400;   37.000;  364.000
450.365; -123.600; -495.000; -301.000
450.486;    1.000;   80.000;  268.000
450.608;  151.800;  393.000;  326.000
450.729;  224.600;  578.000;  645.000
450.850;  129.900; -574.000; -466.000
450.972; 1743.500; -552.000; -389.000
451.093;10380.200;  190.000;  588.000
451.214; 3939.800; -516.000; -337.000
451.336;  806.200;  773.000;  579.000
451.457;  205.100;  264.000;  393.000
451.578;  -25.700; -118.000;  -74.000
451.699; -190.700; -546.000; -540.000
451.821;  -49.000; -284.000;  -50.000
451.942;   76.100;  278.000;  285.000
452.063;  185.800;  228.000;  419.000
452.184; 1313.400;  -54.000;  -49.000
452.305; 2176.600;  103.000;  170.000
452.427;  264.300; -549.000; -301.000
452.548;   45.100;   23.000;   79.000
452.669;  -14.000; -257.000;  -89.000
452.790;  -12.800;    3.000;  -18.000
452.911;   65.600;  195.000;  259.000
453.032;  -60.900; -289.000;  -60.000
453.153;  -44.600;  -29.000;   81.000
453.274;  180.500;  737.000;  868.000
453.395;  -47.200;  -51.000;  175.000
453.516;  352.400; 1317.000; 1388.000
453.637;  -65.900; -205.000; -150.000
453.758;  -38.500;   15.000;   69.000
453.879; -167.100; -462.000; -250.000
454.000;  243.400; 1086.000;  948.000
454.121; -182.300; -554.000; -326.000
454.242; -155.000; -599.000; -383.000
454.362;  -37.500;  -99.000;  114.000
454.483;  -10.600; -309.000; -229.000
454.604;  179.600;  512.000;  580.000
454.725; -185.400; -627.000; -555.000
454.846; -165.000; -474.000; -406.000
454.967;   43.800;  230.000;  539.000
455.087;  -11.300;  179.000;  153.000
455.208;  126.400;  554.000;  856.000
455.329;  -52.400;  -22.000;   82.000
455.450;  167.800;  473.000;  633.000
455.570; -112.700; -234.000; -211.000
455.691;    0.200;  201.000;  407.000
455.812; -137.200; -270.000;  -92.000
455.932;  -52.600;  107.000;  -97.000
456.053;  -71.100;   36.000;   24.000
456.173; -143.900; -433.000; -355.000
456.294; -243.800; -476.000; -303.000
456.415;  -63.600;  -73.000;   70.000
456.535;    4.900;  297.000;  273.000
456.656;   -0.800;  132.000;  240.000
456.776;  -77.000;    3.000;  298.000
456.897;   89.800;  308.000;  513.000
457.017;  -69.900; -153.000;   -3.000
457.138; -152.200; -402.000; -249.000
457.258;   10.600;  263.000;  224.000
457.379;   32.000;  509.000;  521.000
457.499;   -1.600;  443.000;  432.000
457.620; -151.700; -407.000; -231.000
457.740; -123.500; -132.000;  -11.000
457.860;   -5.500;   87.000;   44.000
457.981;  -40.200;  132.000;  124.000
458.101;  -67.000;  -89.000;   40.000
458.221;   10.300;  336.000;  402.000
458.342;  -27.300;   -4.000;  -37.000
458.462;  120.400;  617.000;  352.000
458.582;   27.000; -302.000; -294.000
458.703;   74.500;  303.000;  154.000
458.823;   25.800;   22.000;  163.000
458.943;  118.400;  341.000;  467.000
459.063;   40.800; 1124.000;  192.000
459.183;   15.400;  328.000;  313.000
459.304;   84.500;  315.000;  517.000
459.424;  -62.800; -246.000;  -89.000
459.544;  813.600;  388.000;  764.000
459.664; 1751.300;  499.000;  506.000
459.784;  684.300; 1004.000; 1175.000
459.904;  202.400;  867.000;  744.000
460.024;  217.200;  867.000;  684.000
460.144;   49.200;  449.000;  554.000
460.264;   73.800;  515.000;  327.000
460.385; -132.700; -145.000; -119.000
460.505;  166.200;  905.000;  858.000
460.625; -156.700;  -17.000;  -68.000
460.745;   58.800;  396.000;  541.000
460.864;  -30.800;  153.000;  469.000
460.984;  100.400;  499.000;  573.000
461.104;  352.000; 1656.000; 1775.000
461.224;  172.800;  657.000;  650.000
461.344;   24.200;  431.000;  360.000
461.464;   -9.500;  258.000;  513.000
461.584;    8.000;  283.000;  466.000
461.704;  -37.400;   58.000;  108.000
461.824;  -65.000;  238.000;  259.000
461.943;  -11.800;  191.000;  130.000
462.063;  -65.800;    2.000;  324.000
462.183;  168.100;  639.000;  717.000
462.303;  276.400; 1678.000; 1230.000
462.422;  123.200;  781.000;  840.000
462.542;    8.800;  271.000;  391.000
462.662;  154.800;  353.000;  380.000
462.782;  577.900;  833.000;  572.000
462.901; 1037.700;  545.000;  717.000
463.021;  575.300; 1702.000; 1638.000
463.141;   76.900;  337.000;  770.000
463.260;   28.900;  614.000;  474.000
463.380;  107.200;  902.000;  884.000
463.499;   -7.400;  342.000;  332.000
463.619;   10.200;  581.000;  559.000
463.738;  332.600; 1644.000;  903.000
463.858;  117.100;  657.000;  811.000
463.978;    3.800;  542.000;  396.000
464.097;  202.200;  921.000; 1114.000
464.217;  320.000; 1196.000; 1143.000
464.336;  325.500; 1068.000; 1130.000
464.455;    1.900;  328.000;  659.000
464.575;  151.700;  597.000;  602.000
464.694;  359.200; 1204.000; 1179.000
464.814;  296.800; 1190.000; 1138.000
464.933;  208.200; 1095.000; 1027.000
465.052;  296.500; 1412.000; 1054.000
465.172;  240.100;  922.000;  799.000
465.291;  340.900; 1376.000; 1320.000
465.410;   96.900;  462.000;  735.000
465.530;  254.200; 1355.000; 1310.000
465.649;  221.900; 1209.000; 1273.000
465.768;  352.100; 1673.000; 1508.000
465.888;  138.600;  941.000; 1174.000
466.007;  277.600; 1335.000; 1440.000
466.126;   97.900;  721.000;  641.000
466.245;  198.800; 1176.000; 1187.000
466.364;  131.400;  950.000; 1060.000
466.484;  222.000; 1024.000; 1213.000
466.603;  129.600; 1101.000; 1222.000
466.722;  335.900; 1490.000; 1769.000
466.841;  207.700; 1151.000; 1401.000
466.960;  175.600; 1069.000;  972.000
467.079;  353.100; 1971.000; 1786.000
467.198;  196.200; 1238.000; 1181.000
467.317;  256.500; 1768.000; 1162.000
467.436;  218.400; 1709.000; 1261.000
467.555;  329.900; 1796.000; 1746.000
467.674;  234.400; 1227.000; 1329.000
467.793;  191.500; 1376.000; 1374.000
467.912;  255.200; 1658.000; 1539.000
468.031;  355.600; 2038.000; 1930.000
468.150;  367.600; 1842.000; 1837.000
468.269;  461.200; 2313.000; 2090.000
468.388;  477.500; 2168.000; 2339.000
468.507;  608.800; 2884.000; 2903.000
468.626;  659.600; 2555.000; 2541.000
468.744;  349.800; 2018.000; 2174.000
468.863;  530.300; 2312.000; 2523.000
468.982;  245.600; 1503.000; 1555.000
469.101;  560.800; 2788.000; 2692.000
469.220;  365.400; 2333.000; 2176.000
469.338;  577.200; 2935.000; 3051.000
469.457;  446.900; 2719.000; 2545.000
469.576;  807.100; 3953.000; 3784.000
469.695;  578.600; 2877.000; 3066.000
469.813;  933.400; 4148.000; 4192.000
469.932;  913.300; 4255.000; 4485.000
470.051;  925.800; 4075.000; 4161.000
470.169; 1898.300; 4470.000; 4338.000
470.288; 3064.200; 4700.000; 4809.000
470.406; 1773.300; 5059.000; 5194.000
470.525; 1335.200; 6101.000; 5787.000
470.644; 1406.600; 6847.000; 6794.000
470.762; 1735.400; 8397.000; 7873.000
470.881; 1938.200; 8651.000; 8464.000
470.999; 2241.400; 9685.000; 9151.000
471.118; 2236.200;11174.000;10711.000

