
Integration time [ms]: 100.000
Averaging Nr. [scans]: 40
Smoothing Nr. [pixels]: 0
Data measured with spectrometer [name]: 2101012U2
Wave   ;Sample   ;Dark     ;Reference
[nm]   ;[counts] ;[counts] ;[counts] 

197.733;   62.800;  516.000;  404.000
197.879;  -83.425; -610.000; -634.000
198.025;  -55.100; -475.000; -420.000
198.171;  -67.400; -602.000; -612.000
198.317;  -25.050; -401.000; -316.000
198.463;  -55.900; -655.000; -404.000
198.609;   23.450;  181.000; -137.000
198.755;  -82.975; -644.000; -410.000
198.901;  -69.500; -505.000; -424.000
199.047;  -66.650; -615.000; -488.000
199.193;  -31.450; -230.000; -468.000
199.339;  -42.100; -222.000; -369.000
199.485;   39.925;  330.000;  271.000
199.631;   14.925;  227.000;  310.000
199.777;  -47.800; -466.000; -398.000
199.923;  -61.100; -610.000; -424.000
200.069;  -12.750; -141.000;  -58.000
200.215;   55.225;  128.000;  453.000
200.361;   46.475;  243.000;  477.000
200.507;  -70.700; -600.000; -373.000
200.653;  -23.650; -371.000; -194.000
200.798;  -31.600; -215.000; -125.000
200.944;    0.950; -146.000;  -41.000
201.090;   35.425;   61.000;  222.000
201.236;    0.075; -116.000; -158.000
201.382;  136.250;  874.000;  903.000
201.528;   -4.300;  -58.000;  -48.000
201.674;  -66.000; -386.000; -293.000
201.819;  -56.025; -540.000; -439.000
201.965;  -70.825; -699.000; -447.000
202.111;  -35.275; -273.000; -226.000
202.257;  -35.400; -250.000; -238.000
202.402;   10.500;   13.000;  -36.000
202.548;  -24.750; -169.000; -116.000
202.694;   89.900;  410.000; -183.000
202.840;  -65.875; -603.000; -531.000
202.985;  -87.875; -681.000; -639.000
203.131; -106.325; -832.000; -666.000
203.277;  -18.650; -199.000; -262.000
203.423;  -53.625; -434.000; -520.000
203.568;  -51.350; -462.000; -237.000
203.714;  -57.650; -535.000; -542.000
203.860;  -84.050; -682.000; -641.000
204.005;    3.325;  112.000;  167.000
204.151;   79.975;  561.000;  556.000
204.296;  -37.925; -354.000; -221.000
204.442;  -64.400; -600.000; -547.000
204.588;  -69.050; -592.000; -579.000
204.733;   26.200;  178.000;  168.000
204.879; -134.275;-1018.000; -822.000
205.025;   18.100;  -99.000;  126.000
205.170;   12.275;  -17.000;   94.000
205.316;   81.450;  438.000;  661.000
205.461;  -81.075; -698.000; -554.000
205.607;   84.300;  609.000;  665.000
205.752;  -87.325; -626.000; -551.000
205.898;  -56.875; -501.000; -391.000
206.043;  -62.175; -578.000; -506.000
206.189;  -38.000; -243.000; -285.000
206.334;   81.425;  554.000;  606.000
206.480;   80.950;  409.000;  239.000
206.625;  -81.200; -529.000; -552.000
206.771;  -45.650; -451.000; -373.000
206.916;  -38.250; -210.000; -537.000
207.062;  -72.300; -545.000; -591.000
207.207;  -54.075; -546.000; -443.000
207.353;   58.200;  185.000;  460.000
207.498;    9.325;  196.000;   85.000
207.643;  -48.950; -501.000; -370.000
207.789; -137.875;-1069.000; -910.000
207.934;  -99.700; -665.000; -713.000
208.080;  -26.575; -154.000;   66.000
208.225;  -12.475;  -22.000;  -57.000
208.370;  -87.325; -727.000; -619.000
208.516;  -86.150; -741.000; -487.000
208.661;  -31.425; -127.000;  -69.000
208.806;  -18.800; -165.000; -171.000
208.952; -120.275;-1044.000; -731.000
209.097;   72.925;  378.000;  349.000
209.242;  -37.825; -307.000; -382.000
209.387;   73.450;  392.000;  350.000
209.533;  -50.350; -321.000; -350.000
209.678;   86.150;  472.000;  543.000
209.823;  -61.100; -408.000; -310.000
209.969; -115.300; -860.000; -757.000
210.114; -104.350; -907.000; -719.000
210.259; -114.675; -939.000; -889.000
210.404;  -14.875; -171.000;  103.000
210.549;    9.225;  108.000;    3.000
210.695;  -19.025;   -3.000;  -95.000
210.840;   41.700;   94.000;   67.000
210.985;  -60.625; -484.000; -303.000
211.130;   59.250;  268.000;  406.000
211.275;   22.175;  207.000;  199.000
211.420;  -58.075; -300.000; -289.000
211.566;  -74.425; -536.000; -489.000
211.711;   22.750;  218.000;  157.000
211.856;  -75.500; -545.000; -519.000
212.001;    9.550;  151.000;   44.000
212.146;   31.975;  153.000;   49.000
212.291;  -17.375; -210.000; -186.000
212.436;  -28.575; -280.000;   -6.000
212.581;  -88.800; -685.000; -653.000
212.726;  -72.375; -487.000; -538.000
212.871;  -43.900; -552.000; -217.000
213.016; -148.950;-1172.000;-1029.000
213.161;   72.975;  406.000;  291.000
213.306;  -77.600; -435.000; -577.000
213.451; -102.650; -778.000; -689.000
213.596;  -39.375; -455.000; -347.000
213.741;  -60.800; -448.000; -538.000
213.886;  -76.450; -498.000; -517.000
214.031;  -26.550; -294.000; -124.000
214.176;  -51.450; -408.000; -341.000
214.321;  -11.400; -296.000; -157.000
214.466;  -17.675; -163.000;  -43.000
214.611;    3.175;  -61.000;  -10.000
214.756; -120.675; -948.000; -858.000
214.901;  -25.100; -388.000; -226.000
215.046; -133.475; -797.000; -825.000
215.191;   32.900;  128.000;   35.000
215.336;    1.675; -157.000;  -19.000
215.480;  -74.300; -684.000; -505.000
215.625;  -21.425; -175.000;  -19.000
215.770;  -78.300; -757.000; -662.000
215.915;  -16.100;   -5.000;  -97.000
216.060;   -0.450; -113.000;  -21.000
216.205; -115.000; -731.000; -779.000
216.349;  -72.525; -470.000; -533.000
216.494; -127.650; -939.000; -867.000
216.639; -128.175; -823.000; -888.000
216.784;  -95.950; -577.000; -525.000
216.929;   46.175;  392.000;  281.000
217.073;  -20.100; -244.000;  -31.000
217.218;   21.900;   78.000;  -47.000
217.363;  -94.500; -656.000; -618.000
217.507;  -66.625; -623.000; -588.000
217.652; -117.125; -845.000; -874.000
217.797;  -99.750; -708.000; -659.000
217.942; -127.075; -856.000; -720.000
218.086;   79.400;  608.000;  539.000
218.231;  -29.650; -174.000;  -26.000
218.376;  -31.200; -337.000; -229.000
218.520;    8.575;  -41.000;   96.000
218.665;  -41.900; -338.000; -204.000
218.810;  -54.725; -275.000; -233.000
218.954;   30.650;  201.000;   35.000
219.099; -112.450; -713.000; -963.000
219.243;  -88.250; -589.000; -554.000
219.388;  -39.600; -264.000; -136.000
219.532;  -20.750; -116.000; -116.000
219.677;  -82.400; -564.000; -521.000
219.822;   -2.400;   33.000;   89.000
219.966;   -2.925;   17.000;  -99.000
220.111;  -33.000; -328.000;  -40.000
220.255;  -95.925; -797.000; -750.000
220.400;  -16.825; -180.000; -146.000
220.544;  -77.125; -516.000; -450.000
220.689;  -48.950; -422.000; -451.000
220.833;  -23.525; -123.000;  -58.000
220.978;  -52.325; -393.000; -563.000
221.122;   33.500;  319.000;  307.000
221.267; -118.550; -906.000; -837.000
221.411;  -56.850; -478.000; -394.000
221.555;   -3.200; -104.000;  -23.000
221.700;  -50.725; -329.000; -222.000
221.844;   30.875;  255.000;  272.000
221.989;  -43.125; -328.000; -311.000
222.133;  -43.550; -289.000; -307.000
222.277;  -21.000;    5.000;   78.000
222.422;   18.500;  227.000;  113.000
222.566;  -34.400; -381.000; -214.000
222.711;  -63.175; -414.000; -479.000
222.855;  -85.450; -643.000; -586.000
222.999;  -86.175; -642.000; -717.000
223.144;  -21.375; -195.000; -194.000
223.288;   48.925;  423.000;  251.000
223.432;   34.475;  184.000;  230.000
223.576;   18.425;  152.000;  -21.000
223.721;   44.725;  364.000;  273.000
223.865;  -50.600; -472.000; -475.000
224.009;  225.500; 1673.000; 1631.000
224.153;  -77.525; -660.000; -671.000
224.298;  -56.750; -531.000; -489.000
224.442;   -4.650;  -74.000;  -33.000
224.586;  -22.525; -169.000; -106.000
224.730; -102.225; -858.000; -670.000
224.875; -110.825; -739.000; -688.000
225.019;   12.950;  102.000;  188.000
225.163;   58.175;  208.000;  341.000
225.307;   16.750;   97.000;  -91.000
225.451;   37.275;  360.000;  481.000
225.595;   28.350;  264.000;  176.000
225.739;   -8.850; -170.000;  -94.000
225.884;    8.050;   86.000;    5.000
226.028;  -98.750; -760.000; -626.000
226.172;  -33.950; -260.000; -273.000
226.316; -122.500; -941.000; -902.000
226.460;  -62.300; -645.000; -493.000
226.604;  -57.100; -406.000; -400.000
226.748; -102.325; -836.000; -733.000
226.892;  -38.550; -227.000; -181.000
227.036;  -32.450; -537.000; -447.000
227.180;  -64.125; -551.000; -375.000
227.324;  -76.325; -561.000; -580.000
227.468; -107.400; -819.000; -717.000
227.612;   22.825;  242.000;  -28.000
227.756; -102.250; -845.000; -698.000
227.900;   54.600;  342.000;  441.000
228.044;  -65.725; -509.000; -290.000
228.188;   50.450;  448.000;  568.000
228.332;  -90.200; -546.000; -472.000
228.476;  -21.850; -223.000; -149.000
228.620;  -36.725; -210.000; -150.000
228.764;   59.600;  431.000;  349.000
228.908;  -20.200; -155.000;   30.000
229.052;  -75.150; -615.000; -528.000
229.195;  -21.050; -172.000;   13.000
229.339;  -35.775; -235.000; -305.000
229.483;  -29.800;    5.000; -162.000
229.627;   -9.625; -156.000;  139.000
229.771;  -54.100; -218.000; -294.000
229.915;    8.950;  230.000;   79.000
230.059;  -93.850; -648.000; -663.000
230.202;  -29.275; -370.000; -317.000
230.346;  -14.850; -107.000;  107.000
230.490;  -59.950; -489.000; -521.000
230.634; -111.950; -736.000; -553.000
230.777;   73.025;  478.000;  509.000
230.921;  -58.725; -450.000; -359.000
231.065;  -40.625; -246.000; -286.000
231.209;   29.150;  261.000;  265.000
231.352;   12.525;   54.000;   40.000
231.496;   20.400;  568.000;  188.000
231.640;  -80.550; -693.000; -621.000
231.783;   72.975;  546.000;  525.000
231.927;  -52.475; -294.000; -365.000
232.071; -122.150; -962.000; -736.000
232.214; -108.150; -980.000; -764.000
232.358;  -95.800; -683.000; -599.000
232.502;    9.300;  -19.000;    7.000
232.645; -136.500;-1090.000; -927.000
232.789;  -27.950; -257.000; -218.000
232.933;  -56.625; -407.000; -224.000
233.076; -144.325;-1038.000; -897.000
233.220; -100.275; -752.000; -777.000
233.363;  -69.000; -669.000; -477.000
233.507;   60.550;  371.000;  129.000
233.650;  -94.175; -764.000; -834.000
233.794;   42.325;  438.000;  461.000
233.938;  -53.800; -530.000; -362.000
234.081;  -26.375;  -93.000;   31.000
234.225;  -75.350; -631.000; -539.000
234.368; -120.375; -773.000; -723.000
234.512;  -34.775; -385.000; -299.000
234.655;  -81.625; -582.000; -555.000
234.798;  -77.125; -493.000; -466.000
234.942; -135.600; -884.000;-1002.000
235.085;  -75.700; -651.000; -443.000
235.229;  -68.000; -405.000; -410.000
235.372;  -48.150; -247.000; -191.000
235.516;  -66.525; -397.000; -321.000
235.659;   19.475;   92.000;  121.000
235.802;  -20.850;  -38.000;  -22.000
235.946;   22.725;  335.000;  215.000
236.089;   32.075;  126.000;  250.000
236.233;   51.300;  275.000;  298.000
236.376;  -40.125; -235.000; -378.000
236.519;  -50.000; -297.000; -319.000
236.663;  -19.075; -215.000; -117.000
236.806; -134.325;-1029.000; -999.000
236.949;   44.325;  543.000;  431.000
237.092;   55.525;  412.000;  391.000
237.236;  -86.300; -589.000; -502.000
237.379;   66.500;  352.000;  428.000
237.522; -118.675; -879.000; -768.000
237.666;  -21.725; -271.000;   18.000
237.809; -135.725; -851.000; -823.000
237.952;   43.375;  469.000;  271.000
238.095;  -58.375; -447.000; -442.000
238.238;   80.850;  688.000;  700.000
238.382;   -5.125;  166.000;  103.000
238.525;  -64.475; -598.000; -511.000
238.668; -138.775;-1060.000; -985.000
238.811;  -83.300; -638.000; -643.000
238.954;  -71.350; -483.000; -334.000
239.097;   85.825;  617.000;  664.000
239.241;   17.600;  394.000;  326.000
239.384;  -36.275; -254.000; -214.000
239.527;  -65.200; -424.000; -224.000
239.670; -142.850; -994.000;-1091.000
239.813; -103.175; -696.000; -658.000
239.956;   76.375;  579.000;  473.000
240.099; -113.475; -778.000; -725.000
240.242;   59.075;  428.000;  432.000
240.385;   29.475;  466.000;  450.000
240.528;  -73.500; -706.000; -473.000
240.671;   21.750;  189.000;  134.000
240.814;  -56.600; -441.000; -158.000
240.957; -109.075; -767.000; -578.000
241.100;  -97.575; -779.000; -755.000
241.243; -151.500;-1234.000; -893.000
241.386;  -74.000; -508.000; -379.000
241.529;  -90.850; -735.000; -547.000
241.672;  -68.375; -566.000; -495.000
241.815; -115.925; -832.000; -808.000
241.958;  -42.300; -125.000; -182.000
242.101;  -73.375; -545.000; -390.000
242.244;  -45.725; -270.000; -325.000
242.387;  -33.250; -304.000; -246.000
242.530;   65.450;  470.000;  134.000
242.673;  -31.625; -381.000; -309.000
242.815; -122.925; -925.000; -899.000
242.958;  -67.050; -482.000; -381.000
243.101;    1.500;  132.000;  187.000
243.244;  -88.575; -564.000; -521.000
243.387;  -50.625; -313.000; -316.000
243.530; -102.300; -657.000; -674.000
243.672;   -4.850;   43.000;  -92.000
243.815;  -47.675; -355.000; -283.000
243.958;    2.750;   98.000;  -26.000
244.101;    2.775;   59.000;  -16.000
244.243;   -7.200;  -47.000;  101.000
244.386; -117.650; -761.000; -630.000
244.529;  -26.250; -132.000; -139.000
244.672; -151.175;-1154.000; -951.000
244.814;  -96.250; -621.000; -794.000
244.957;  -63.425; -380.000; -304.000
245.100;  -75.725; -489.000; -489.000
245.242;  -63.600; -387.000; -374.000
245.385;    4.725;  -59.000;  -39.000
245.528; -128.250; -871.000; -705.000
245.670;  104.850;  612.000;  634.000
245.813;  -86.850; -599.000; -547.000
245.956;  -30.250; -324.000; -275.000
246.098;  -80.000; -508.000; -650.000
246.241;   -2.100;  194.000;   48.000
246.383;  -15.550; -119.000;  -73.000
246.526;  -77.150; -454.000; -525.000
246.669; -118.350; -889.000; -780.000
246.811;   14.350;  172.000;   -1.000
246.954;  -61.400; -512.000; -426.000
247.096;  -22.525;  -84.000;   -6.000
247.239;  -66.125; -482.000; -445.000
247.381;  -71.800; -647.000; -488.000
247.524;   92.350;  645.000;  679.000
247.666;  -11.550;   58.000;   11.000
247.809; -121.325; -887.000; -691.000
247.951;   -9.775;  -75.000;  138.000
248.094;   30.075;  432.000;  308.000
248.236; -151.925;-1262.000;-1238.000
248.378;    1.750; -356.000;  -81.000
248.521;  -18.825; -334.000; -337.000
248.663;  -39.375; -236.000; -267.000
248.806;  -21.625; -300.000; -266.000
248.948;  -97.525; -886.000; -763.000
249.090;  -39.125; -428.000; -398.000
249.233;  -48.300; -344.000; -381.000
249.375;  -75.675; -474.000; -451.000
249.518;  -19.400;  -83.000; -133.000
249.660;  -23.575; -103.000;    3.000
249.802; -186.800;-1303.000;-1189.000
249.945;  -89.475; -612.000; -540.000
250.087; -122.150; -834.000; -768.000
250.229;  -59.600; -362.000; -480.000
250.371;  -68.425; -494.000; -439.000
250.514;  -56.075; -310.000; -244.000
250.656;  -73.525;   69.000;  102.000
250.798; -117.950; -849.000; -800.000
250.940;  -71.375; -322.000; -322.000
251.083;  -25.300; -335.000; -111.000
251.225;   52.525;  338.000;  310.000
251.367;  -47.625; -274.000; -373.000
251.509;  -27.575; -265.000; -210.000
251.651; -111.175; -731.000; -671.000
251.794;   58.250;  538.000;  632.000
251.936; -115.550; -821.000; -747.000
252.078;  -72.800; -540.000; -461.000
252.220;  -81.525; -645.000; -477.000
252.362;   82.925;  344.000;  462.000
252.504;  -73.575; -677.000; -584.000
252.646; -116.675; -875.000; -722.000
252.788;   -2.900;   14.000; -128.000
252.931;  -36.825; -257.000; -253.000
253.073;  -36.550; -376.000; -317.000
253.215;    4.625;  141.000;  122.000
253.357;  -23.175;   82.000; -153.000
253.499;  -51.050; -374.000; -234.000
253.641;  -90.900; -749.000; -594.000
253.783;  -92.525; -609.000; -527.000
253.925;  -82.900; -586.000; -591.000
254.067; -110.350; -744.000; -667.000
254.209;  -44.500; -391.000; -259.000
254.351; -134.425; -865.000; -883.000
254.493;  -55.525; -441.000; -417.000
254.635; -135.175; -936.000; -818.000
254.777;  -88.125; -752.000; -687.000
254.918;  -72.575; -512.000; -430.000
255.060;  -65.900; -551.000; -395.000
255.202;  -51.125; -473.000; -261.000
255.344;  -78.300; -658.000; -455.000
255.486;  -77.425; -471.000; -406.000
255.628;  -99.350; -780.000; -781.000
255.770;  -83.400; -676.000; -536.000
255.912;  -67.650; -559.000; -468.000
256.053;  -90.450; -730.000; -508.000
256.195;  171.800; 1008.000;  903.000
256.337;  -96.075; -861.000; -595.000
256.479;   57.425;  532.000;  416.000
256.621;  -48.000; -394.000; -212.000
256.762; -102.500; -789.000; -742.000
256.904;   45.450;  485.000;  487.000
257.046;  -51.075; -381.000; -271.000
257.188;  -47.650; -351.000; -264.000
257.329;  -74.100; -525.000; -464.000
257.471; -116.275; -939.000; -807.000
257.613;  -61.750; -584.000; -498.000
257.755; -147.925;-1073.000; -982.000
257.896;   35.025;  286.000;  392.000
258.038;  -79.450; -403.000; -352.000
258.180;  -40.400; -354.000; -279.000
258.321;  -80.250; -581.000; -457.000
258.463;    0.250;  -71.000;  133.000
258.605; -101.925; -562.000; -570.000
258.746; -111.200; -886.000; -772.000
258.888; -157.250;-1026.000;-1020.000
259.029;   14.800;  121.000;   -8.000
259.171;  -88.200; -614.000; -550.000
259.313;    5.775;  -49.000;  -47.000
259.454;  -94.275; -536.000; -414.000
259.596;  -56.150; -483.000; -390.000
259.737;  -92.500; -590.000; -474.000
259.879;   43.150;  217.000;  311.000
260.020;   69.025;  901.000;  636.000
260.162;  -32.150; -146.000; -253.000
260.303; -104.500; -768.000; -687.000
260.445;  -88.325; -609.000; -613.000
260.586;   28.650;  392.000;  157.000
260.728;  -48.675; -360.000; -248.000
260.869; -114.475; -350.000; -343.000
261.011;   91.525;  706.000;  537.000
261.152;  -66.700; -479.000; -319.000
261.293;  -78.150; -576.000; -595.000
261.435;  -40.625; -219.000; -184.000
261.576;  -49.625; -455.000; -325.000
261.718;   51.075;  420.000;  470.000
261.859; -131.875; -940.000; -949.000
262.000; -124.450; -951.000;-1016.000
262.142;  -17.000;  -52.000;  -60.000
262.283; -108.400; -808.000; -691.000
262.424;  -93.650; -666.000; -625.000
262.566; -156.475;-1161.000; -983.000
262.707; -113.575; -840.000; -830.000
262.848; -116.475; -769.000; -726.000
262.990;  -46.550; -362.000; -345.000
263.131;   84.775;  650.000;  681.000
263.272;   -0.425;  -61.000;  -41.000
263.413; -101.850; -589.000; -561.000
263.555;  -74.625; -669.000; -143.000
263.696;  -92.650; -550.000; -641.000
263.837;  -54.900; -449.000; -551.000
263.978;   -9.150;   -5.000;  -77.000
264.119;  -55.000; -283.000; -264.000
264.261; -112.975; -847.000; -630.000
264.402;    4.350;   33.000;   40.000
264.543;  -87.100; -509.000; -524.000
264.684;  -16.350;   61.000;  -50.000
264.825;  -64.975; -816.000; -538.000
264.966;   -4.825;  -84.000;  -67.000
265.107; -116.025; -646.000; -670.000
265.248; -123.100; -825.000; -812.000
265.390;  -24.725;  152.000;   -9.000
265.531;  -37.025; -238.000; -107.000
265.672;  -94.175; -557.000; -630.000
265.813;   68.700;  563.000;  439.000
265.954; -146.925; -959.000; -940.000
266.095;  -12.200; -372.000; -322.000
266.236;  -96.850; -686.000; -548.000
266.377;  -30.275; -243.000; -297.000
266.518;  -75.300; -619.000; -547.000
266.659;   22.575;  170.000;  268.000
266.800;   12.225;   83.000;   85.000
266.941;  -84.875; -487.000; -478.000
267.082;   26.925;  354.000;   99.000
267.223;  -51.575; -344.000; -273.000
267.364; -117.525; -892.000; -686.000
267.504;  -24.675;    3.000;  135.000
267.645;  -11.400;  160.000;   67.000
267.786;  -36.100; -147.000;  -86.000
267.927;  -77.125; -473.000; -379.000
268.068;  -24.850; -186.000;  -61.000
268.209;  -36.175; -175.000; -413.000
268.350;  -73.300; -388.000; -532.000
268.490;  -95.550; -648.000; -521.000
268.631;   32.125;  127.000;  225.000
268.772; -116.975; -874.000; -647.000
268.913;  -58.250; -328.000; -476.000
269.054;  -22.000; -117.000;   12.000
269.194;  -46.500; -418.000; -402.000
269.335; -157.850;-1137.000;-1074.000
269.476;  -32.675;   33.000;  -35.000
269.617;  -39.350; -347.000; -392.000
269.757; -104.000; -713.000; -646.000
269.898; -113.100; -856.000; -613.000
270.039;  -54.400; -415.000; -405.000
270.180; -155.050; -952.000; -816.000
270.320;  -36.775; -190.000; -250.000
270.461;  -37.950; -277.000; -249.000
270.602;  -13.625; -186.000; -156.000
270.742; -138.875; -868.000; -943.000
270.883;  -62.750; -442.000; -390.000
271.023;  -56.150; -358.000; -357.000
271.164;  -79.775; -607.000; -528.000
271.305;  -97.475; -666.000; -654.000
271.445;  -88.950; -722.000; -683.000
271.586;  -71.550; -462.000; -283.000
271.726;  -57.175; -397.000; -322.000
271.867;  -66.375; -594.000; -534.000
272.008;  167.375; -473.000; -285.000
272.148;  121.825;  462.000;  468.000
272.289;    4.800; -113.000; -181.000
272.429;   19.150;   19.000;  185.000
272.570;  -94.600; -633.000; -737.000
272.710; -116.200; -825.000; -775.000
272.851;  -43.675;  113.000; -130.000
272.991; -162.125;-1173.000;-1077.000
273.131;  -61.625; -419.000; -459.000
273.272; -122.550; -683.000; -723.000
273.412;   -4.700; -143.000;  -31.000
273.553;  -62.350; -488.000; -507.000
273.693;  122.900;  913.000;  858.000
273.834; -101.300; -894.000; -692.000
273.974;  -76.575; -664.000; -615.000
274.114; -102.875; -772.000; -560.000
274.255;   65.375;  414.000;  373.000
274.395;    3.725; -180.000; -125.000
274.535;   35.775;  199.000;  350.000
274.676;   24.225;  225.000;   94.000
274.816;    5.425;  110.000;   34.000
274.956;  -88.925; -624.000; -690.000
275.097;  -66.500;-1014.000; -922.000
275.237; -111.600; -913.000; -803.000
275.377;  -99.750; -778.000; -689.000
275.517; -152.575; -878.000; -937.000
275.658;  -67.450; -590.000; -555.000
275.798;  -69.950; -606.000; -413.000
275.938;   18.350;  215.000;  323.000
276.078; -101.875; -626.000; -395.000
276.218;   -4.700;   99.000;  104.000
276.359; -132.275;-1026.000;-1024.000
276.499;  -79.800; -605.000; -446.000
276.639;  -40.875; -305.000; -151.000
276.779;  -53.675; -475.000; -357.000
276.919; -105.550; -783.000; -624.000
277.059;  -45.150; -261.000; -212.000
277.199;  -41.375; -357.000; -259.000
277.340;   38.700;  287.000;  175.000
277.480; -116.300; -840.000; -693.000
277.620;   25.125;  192.000;   16.000
277.760; -203.250;-1533.000;-1294.000
277.900;   11.625;  113.000;   33.000
278.040;    2.400;  137.000;  159.000
278.180;   36.500;  270.000;  170.000
278.320;    0.375;   21.000;   56.000
278.460;  -69.800; -443.000; -469.000
278.600;  -86.025; -708.000; -598.000
278.740;   38.525;  448.000;  224.000
278.880;  -73.000; -768.000; -791.000
279.020;  -19.100; -194.000; -144.000
279.160;  -98.875; -672.000; -595.000
279.300; -113.475; -926.000; -873.000
279.440;  -96.075; -709.000; -622.000
279.579;  -36.550;-1014.000; -929.000
279.719;  -62.775; -410.000; -394.000
279.859;   61.775;   -4.000;   41.000
279.999;    9.500; -208.000;  101.000
280.139;  -33.950; -435.000; -387.000
280.279;  -79.050; -708.000; -745.000
280.419;  -15.675; -229.000; -147.000
280.559;  -37.100; -259.000; -180.000
280.698;  -87.475; -790.000; -639.000
280.838; -107.350; -778.000; -800.000
280.978; -118.800; -846.000; -790.000
281.118; -120.425; -811.000; -704.000
281.257;   -1.375;   24.000;    6.000
281.397; -133.750;-1094.000; -960.000
281.537;  -96.475; -599.000; -712.000
281.677;  -30.375; -150.000; -101.000
281.816;  -95.375; -700.000; -630.000
281.956;  -29.700; -193.000; -257.000
282.096;  -66.850; -539.000; -396.000
282.235; -121.250; -672.000; -638.000
282.375;  -32.150; -243.000;  -98.000
282.515; -112.375; -715.000; -707.000
282.654;   23.300;   29.000;  106.000
282.794;   32.000;  388.000;  244.000
282.934;  -61.075; -530.000; -491.000
283.073; -146.350;-1030.000; -857.000
283.213;  -54.800; -460.000; -467.000
283.353;  -35.375; -408.000; -349.000
283.492;  -40.950; -264.000; -296.000
283.632;  -43.300; -254.000; -168.000
283.771;  -95.500; -859.000; -730.000
283.911;  -60.125; -369.000; -260.000
284.050; -115.225; -794.000; -748.000
284.190; -157.650;-1229.000;-1096.000
284.329; -162.750;-1055.000; -964.000
284.469;  -72.100; -516.000; -591.000
284.608;  -51.725; -559.000; -598.000
284.748;  -92.250; -614.000; -570.000
284.887;  -10.100;  -87.000;  -20.000
285.027; -118.825; -844.000; -892.000
285.166;  -32.550; -192.000; -249.000
285.306;   -2.825; -116.000;  -33.000
285.445;  -43.325; -229.000; -343.000
285.584;  -98.325; -630.000; -494.000
285.724;  -53.625; -282.000; -322.000
285.863; -122.700; -857.000; -507.000
286.002;  -55.725; -366.000; -276.000
286.142; -110.900; -715.000; -622.000
286.281;  -66.875; -525.000; -493.000
286.420;  -70.000; -554.000; -417.000
286.560;  112.225;  653.000;  623.000
286.699; -136.200; -958.000; -912.000
286.838;  -87.800; -590.000; -591.000
286.978; -102.275; -533.000; -537.000
287.117; -149.350;-1085.000; -950.000
287.256;  -37.700; -228.000; -211.000
287.395;  -43.900; -197.000; -378.000
287.535;  -67.825; -370.000; -298.000
287.674;  -92.200; -509.000; -484.000
287.813;   53.050;  661.000;  533.000
287.952; -150.525;-1010.000; -871.000
288.091; -147.800;-1049.000; -915.000
288.231;    8.575;   13.000;   15.000
288.370; -176.225;-1217.000;-1200.000
288.509; -105.375; -728.000; -645.000
288.648;  -87.475; -770.000; -548.000
288.787;  -33.475; -243.000;  -87.000
288.926;  -68.425; -454.000; -475.000
289.065;  112.825;  859.000;  672.000
289.204;  -62.725; -377.000; -217.000
289.344;  -96.250; -791.000; -690.000
289.483;   22.175;  416.000;  304.000
289.622;  -28.050; -291.000; -149.000
289.761;  -20.275; -309.000; -166.000
289.900; -123.225; -785.000; -626.000
290.039;  -22.300;  -12.000;  -95.000
290.178;  -41.425; -274.000; -180.000
290.317;  -85.950; -618.000; -479.000
290.456;  -62.600; -463.000; -451.000
290.595; -144.175; -961.000; -833.000
290.734; -144.675; -904.000; -891.000
290.873;  -73.100; -456.000; -420.000
291.011; -114.775; -833.000; -843.000
291.150; -116.150; -770.000; -682.000
291.289;  -29.950; -343.000; -110.000
291.428;  -94.950; -599.000; -480.000
291.567;  -68.500; -370.000; -442.000
291.706;   -8.600;  109.000;  154.000
291.845;  -83.375; -597.000; -505.000
291.984; -168.900;-1234.000;-1061.000
292.122;   72.825;  602.000;  582.000
292.261;   31.550;  620.000;  463.000
292.400;    7.450; -144.000;  211.000
292.539; -123.350; -959.000; -813.000
292.678;  -35.600; -325.000; -300.000
292.816; -152.525;-1136.000; -965.000
292.955;  -92.325; -844.000; -684.000
293.094;  -33.200; -173.000; -337.000
293.233;  -65.075; -556.000; -400.000
293.371;  -54.525; -225.000;  -84.000
293.510; -127.725; -866.000; -780.000
293.649; -131.200; -959.000; -924.000
293.787;  -87.300;-1083.000;-1012.000
293.926;   -8.550; -113.000;  -32.000
294.065;  -51.275; -379.000; -290.000
294.203;   31.575;  298.000;  406.000
294.342;    5.375;   74.000;  156.000
294.481; 5508.625;51180.000; -836.000
294.619;  -44.575; -425.000; -582.000
294.758; -158.150;-1230.000;-1137.000
294.896;   54.650; -125.000;    5.000
295.035; -124.750;-1040.000;-1006.000
295.174; -134.550;-1082.000; -954.000
295.312;  -50.225; -323.000; -203.000
295.451;  -26.825; -307.000; -428.000
295.589;  -66.525; -389.000; -518.000
295.728;   19.725; -292.000; -165.000
295.866;    6.025;  -36.000;  -51.000
296.005;  -70.800; -584.000; -341.000
296.143;  -82.000; -558.000; -596.000
296.282; -112.175; -957.000; -881.000
296.420;  -91.600; -657.000; -557.000
296.559;  -87.900; -892.000; -633.000
296.697;   -9.725; -847.000; -665.000
296.835;   17.850;-1141.000;-1002.000
296.974;   29.025;  -23.000;   39.000
297.112;   -2.700; -443.000; -504.000
297.251;  -92.225; -815.000; -755.000
297.389;   63.550; -576.000; -438.000
297.527;   29.800; -145.000;  -83.000
297.666;  -70.475; -486.000; -438.000
297.804;  -64.325; -404.000; -264.000
297.942;  -13.100; -136.000; -161.000
298.081;   -9.925; -183.000;   63.000
298.219;   47.925;  -17.000;  -19.000
298.357;   37.775; -144.000;  -71.000
298.495;    1.300; -810.000; -812.000
298.634;   56.325;  245.000;  219.000
298.772;   28.125; -220.000; -338.000
298.910;  -46.750; -309.000; -182.000
299.048;  -17.250; -130.000; -153.000
299.187;  -39.975; -350.000; -250.000
299.325;   -3.875;   52.000;  122.000
299.463;    3.800; -389.000; -299.000
299.601;   87.275; -327.000; -271.000
299.739; -116.850; -908.000; -883.000
299.877;  -98.775; -791.000; -703.000
300.016;  -50.325;-1095.000; -935.000
300.154;  134.150;  -19.000; -161.000
300.292;   16.525; -428.000; -348.000
300.430;   13.150; -408.000; -291.000
300.568; -119.450; -940.000; -874.000
300.706;  -72.125; -366.000; -469.000
300.844;  -97.975;-1108.000; -979.000
300.982;  108.075;  246.000;  282.000
301.120; -111.050; -965.000; -866.000
301.258;  -74.425; -812.000; -705.000
301.396;   22.475;  104.000;  -41.000
301.534;   50.400; -218.000; -293.000
301.672;  -27.800; -664.000; -521.000
301.810;    6.775; -613.000; -545.000
301.948;   99.000;   53.000;  149.000
302.086;  512.900; -250.000;  -32.000
302.224;  778.100; -610.000; -585.000
302.362;    1.800; -558.000; -622.000
302.500;  -48.950; -923.000; -893.000
302.638;   97.475;  128.000;  245.000
302.776;  -13.475; -352.000; -408.000
302.913;   28.700;  447.000;  236.000
303.051;  -11.550;  -86.000;  -23.000
303.189;   42.425;   90.000;  118.000
303.327;  -39.400; -341.000; -256.000
303.465;  -86.750; -832.000; -588.000
303.603; -108.700; -805.000; -604.000
303.740;   87.225;  417.000;  241.000
303.878;  -10.725; -800.000; -759.000
304.016;  -95.900; -915.000; -790.000
304.154; -141.125;-1123.000;-1152.000
304.291;  -44.975; -505.000; -554.000
304.429;    8.000;  102.000;   74.000
304.567; -132.775; -908.000; -893.000
304.705;  -54.425; -408.000; -515.000
304.842;   65.075; -616.000; -540.000
304.980;   36.050;  215.000;   35.000
305.118;   20.425; -367.000; -365.000
305.255;  -89.075; -945.000; -927.000
305.393;   53.175;  178.000;  239.000
305.531; -125.750;-1173.000; -956.000
305.668;  -81.600; -663.000; -582.000
305.806;   76.275; -358.000; -439.000
305.943;   73.475; -629.000; -637.000
306.081;   27.575; -378.000; -267.000
306.219; -112.875; -863.000; -748.000
306.356;   -0.500;  158.000;   27.000
306.494;  118.425;  981.000;  761.000
306.631;    9.125;  -11.000;  -55.000
306.769;   -9.800; -613.000; -485.000
306.906;  -29.675; -284.000; -258.000
307.044;  -75.425; -473.000; -488.000
307.181;  -68.600; -410.000; -332.000
307.319;   15.825;  112.000;   87.000
307.456; -180.700;-1191.000;-1153.000
307.594; -103.075; -980.000; -727.000
307.731;  -16.100; -371.000; -164.000
307.868;    1.950;  -15.000;   20.000
308.006; -136.375; -961.000; -847.000
308.143;  -86.275; -618.000; -330.000
308.281;  106.600;  -37.000; -254.000
308.418;  -37.950; -748.000; -640.000
308.555;  -90.675; -400.000; -250.000
308.693;  -75.050; -577.000; -573.000
308.830; -113.650; -712.000; -657.000
308.967;  -19.450; -215.000;  -95.000
309.105;  -59.875; -507.000; -396.000
309.242;   -5.975; -468.000; -367.000
309.379;  179.425; -577.000; -655.000
309.517;  -97.425; -936.000; -948.000
309.654; -122.700; -910.000; -734.000
309.791;  -75.325; -662.000; -580.000
309.928; -127.150; -977.000; -914.000
310.065;  155.875;  819.000;  697.000
310.203;  -43.400; -825.000; -850.000
310.340;  -10.825; -465.000; -321.000
310.477;  -65.525; -412.000; -516.000
310.614;  -73.850; -383.000; -473.000
310.751;  -93.775; -427.000; -518.000
310.889;  -32.575;    1.000;   11.000
311.026; -166.950;-1161.000; -939.000
311.163;  -58.500; -386.000; -380.000
311.300;  -81.100; -512.000; -479.000
311.437;  -81.100; -658.000; -619.000
311.574; -156.500;-1226.000; -985.000
311.711;  -64.325; -595.000; -433.000
311.848;  -43.600; -380.000; -388.000
311.985;   15.400;  270.000;   93.000
312.122; -117.225; -932.000; -762.000
312.259; -127.150; -941.000; -994.000
312.396;  -92.375; -508.000; -551.000
312.533;  -93.025; -812.000; -790.000
312.670; -135.475;-1070.000; -898.000
312.807;  -41.475; -352.000; -367.000
312.944;  -76.525; -513.000; -611.000
313.081;  -41.900; -150.000; -415.000
313.218; -116.625;-1111.000; -867.000
313.355;    8.100; -531.000; -449.000
313.492;    6.100; -455.000; -292.000
313.629;  124.225;  815.000;  735.000
313.766; -174.150;-1176.000;-1008.000
313.902;  -26.725; -186.000;   21.000
314.039;  -51.800; -372.000; -289.000
314.176;   24.750;  286.000;  192.000
314.313;  -87.275; -569.000; -473.000
314.450;  -85.675; -788.000; -684.000
314.587;  -72.300; -468.000; -480.000
314.723;    0.800;  -78.000;  130.000
314.860;   39.450;  318.000;  332.000
314.997;   25.175;  223.000;  142.000
315.134;  -53.550; -385.000; -368.000
315.270;  -31.475; -480.000; -496.000
315.407; -136.525;-1094.000; -967.000
315.544;  -64.825; -657.000; -538.000
315.681;  -64.775; -681.000; -565.000
315.817;   16.075; -133.000; -176.000
315.954;    1.450; -613.000; -392.000
316.091; -134.900;-1045.000;-1023.000
316.227;  -35.050;  -71.000; -179.000
316.364;   -4.950;   23.000;    6.000
316.500;  -32.800; -113.000; -300.000
316.637;  -44.125; -181.000; -302.000
316.774;  -99.900; -625.000; -358.000
316.910; -104.250; -598.000; -629.000
317.047;  -66.225; -487.000; -351.000
317.183;  -53.025; -435.000; -566.000
317.320;  -19.800; -367.000; -321.000
317.456;  -65.500; -733.000; -805.000
317.593;  -85.600; -598.000; -641.000
317.729;   -3.250;  168.000;  -67.000
317.866; -205.925;-1434.000;-1285.000
318.002;  -88.400; -708.000; -948.000
318.139; -114.450; -883.000; -867.000
318.275;  -98.350;-1003.000; -738.000
318.412;  -83.650; -517.000; -336.000
318.548;  -62.000; -751.000; -720.000
318.685; -100.750; -985.000; -888.000
318.821;  -94.475; -762.000; -735.000
318.957;  -12.925;   34.000;  -23.000
319.094;   30.900;  297.000;  154.000
319.230;  -83.475; -756.000; -742.000
319.367;   96.475; -471.000; -520.000
319.503;   34.350; -538.000; -436.000
319.639; -106.050; -877.000; -793.000
319.775;  -70.900; -750.000; -685.000
319.912;  -51.475; -424.000; -519.000
320.048; -103.550;-1184.000;-1184.000
320.184;   67.450;   59.000;   70.000
320.321;  -63.050; -497.000; -467.000
320.457;   64.300;  475.000;  662.000
320.593;  -71.175; -375.000; -382.000
320.729; -107.275; -732.000; -734.000
320.866;  -70.325; -577.000; -635.000
321.002;  -84.875; -759.000; -809.000
321.138;  -28.050; -135.000; -211.000
321.274;   71.200; -148.000; -115.000
321.410;  -15.500; -585.000; -353.000
321.546;  -55.775;-1011.000; -911.000
321.683;   58.300;  400.000;  185.000
321.819;    3.750;  -48.000; -117.000
321.955; -117.325; -743.000; -722.000
322.091;  -49.575; -585.000; -540.000
322.227;  -15.050; -382.000; -202.000
322.363;  -22.225; -320.000; -215.000
322.499;  -54.350; -343.000; -331.000
322.635;  143.950;  636.000;  443.000
322.771;   12.425; -139.000;   12.000
322.907;   79.350;  129.000;  327.000
323.043;  -28.850; -115.000; -206.000
323.179;  -41.125; -394.000; -363.000
323.315;  -11.475; -401.000; -371.000
323.451;   51.375; -328.000; -236.000
323.587;   43.175;  -60.000;  -77.000
323.723;   -1.850; -682.000; -601.000
323.859;  -22.925; -258.000;  -76.000
323.995;  -54.025; -467.000; -409.000
324.131; -129.875; -967.000; -892.000
324.267;  -46.100; -254.000; -276.000
324.402; -136.575; -960.000; -983.000
324.538;  -22.050; -279.000; -104.000
324.674;    1.600;  164.000;   77.000
324.810;   91.425;  226.000;  308.000
324.946;  -17.350; -810.000; -658.000
325.082;  -84.450; -568.000; -475.000
325.217;   -2.050;  -62.000;   16.000
325.353; -114.025; -764.000; -659.000
325.489; -102.975; -540.000; -506.000
325.625;  -90.825; -579.000; -525.000
325.760;   64.450;  517.000;  376.000
325.896;  -25.675; -515.000; -702.000
326.032;  -67.350; -403.000; -352.000
326.168;  -73.725; -462.000; -369.000
326.303;  -76.275; -352.000; -461.000
326.439;  -12.250; -336.000; -276.000
326.575;  -12.850; -190.000;  -29.000
326.710;   -3.650; -156.000;  -30.000
326.846;  -14.000;  146.000;  103.000
326.982;  -81.325; -530.000; -548.000
327.117;  -84.125; -481.000; -442.000
327.253;  -81.950; -745.000; -742.000
327.388; -134.250;-1137.000;-1153.000
327.524;  -74.400; -811.000; -578.000
327.659;  -26.950;  -58.000;  -22.000
327.795;  -18.075;   69.000;   45.000
327.931;  -76.350; -723.000; -499.000
328.066;  -31.525; -417.000; -276.000
328.202;  -10.775;   12.000; -129.000
328.337;   96.800;  957.000;  713.000
328.473;   45.225;  -12.000;  -74.000
328.608;  -28.150; -256.000; -267.000
328.743;  -89.675; -799.000; -664.000
328.879;   19.425;  214.000;  114.000
329.014;  -52.775; -102.000; -122.000
329.150;  -83.350; -358.000; -483.000
329.285;  -84.600; -465.000; -466.000
329.421;  -61.075; -548.000; -246.000
329.556;  -24.725;  -36.000;   85.000
329.691;  -93.950; -633.000; -615.000
329.827;  -88.350; -626.000; -480.000
329.962;  -32.700;  131.000; -301.000
330.097; -103.325; -673.000; -585.000
330.233;  -60.125; -410.000; -223.000
330.368; -125.025; -839.000; -628.000
330.503;  -23.550;    3.000;   98.000
330.638;    5.000;  -93.000; -125.000
330.774;  -64.300; -609.000; -530.000
330.909;  -45.700; -434.000; -244.000
331.044;  -97.750; -714.000; -708.000
331.179; -193.550;-1217.000;-1109.000
331.315;   10.525;   77.000;   20.000
331.450;    9.000;  157.000;  285.000
331.585;  -81.550; -805.000; -706.000
331.720;  -82.325; -510.000; -460.000
331.855;   -4.025;  -35.000; -102.000
331.990;  252.725;   62.000;  138.000
332.126;  132.650; -110.000;   71.000
332.261;  -19.675; -379.000; -265.000
332.396;    9.575; -135.000; -242.000
332.531; -110.625;-1074.000;-1031.000
332.666;   22.075; -519.000; -363.000
332.801; -107.975; -726.000; -807.000
332.936;  -36.400; -192.000; -122.000
333.071; -139.825; -870.000; -817.000
333.206;   14.900;  307.000;  379.000
333.341;   21.675;  344.000;  418.000
333.476;  -93.700; -627.000; -623.000
333.611;  -54.925; -251.000; -173.000
333.746;  -51.450; -381.000; -464.000
333.881; -128.000; -973.000; -935.000
334.016; -141.225; -936.000; -917.000
334.151; -124.550; -746.000; -702.000
334.286;    5.700;  152.000;  186.000
334.421;  -27.750; -125.000; -178.000
334.556;  -84.775; -611.000; -567.000
334.690;  -99.650; -631.000; -577.000
334.825;   41.400;  381.000;   83.000
334.960;  -79.075; -285.000; -413.000
335.095;   -4.100;  135.000;  -91.000
335.230; -112.350; -722.000; -738.000
335.365; -142.725;-1084.000; -990.000
335.499; -139.125;-1108.000;-1037.000
335.634;    6.175;    9.000;  534.000
335.769;  -98.000; -755.000; -720.000
335.904;  -69.150; -603.000; -561.000
336.038;  -64.450; -735.000; -657.000
336.173; -130.550;-1206.000;-1194.000
336.308;   -1.425; -116.000; -189.000
336.443;   23.600; -544.000; -634.000
336.577;  -83.275; -936.000; -787.000
336.712;   50.350;   -4.000;  -12.000
336.847;  -57.500; -724.000; -607.000
336.981;   31.275; -272.000; -208.000
337.116;  262.500;  615.000;  501.000
337.250;  114.175; -434.000; -421.000
337.385;  276.275; -297.000; -208.000
337.520;   92.600; -632.000; -603.000
337.654;  -44.250; -215.000; -126.000
337.789; -127.125; -989.000; -933.000
337.923;  -30.600; -104.000; -205.000
338.058;  -95.825; -673.000; -738.000
338.192;  -57.300; -611.000; -488.000
338.327;  -19.075;  -18.000; -155.000
338.461;  -83.075; -299.000; -469.000
338.596; -105.750; -780.000; -638.000
338.730; -104.925; -767.000; -803.000
338.865;   86.950;  -46.000; -140.000
338.999;  -42.575; -846.000; -702.000
339.134;  -26.575; -634.000; -536.000
339.268;    3.375; -741.000; -603.000
339.403;  362.625; -740.000; -775.000
339.537;  126.025; -894.000; -820.000
339.671; -113.600; -829.000; -813.000
339.806;  -60.350; -556.000; -512.000
339.940;   10.775; -261.000; -235.000
340.074; -106.900; -685.000; -510.000
340.209;  -52.150; -351.000; -230.000
340.343;  -88.200; -517.000; -573.000
340.477;  148.325;  998.000; 1036.000
340.612;  -48.275;-1033.000; -900.000
340.746;  153.625; -199.000; -243.000
340.880;  -75.850; -924.000; -785.000
341.014;  -16.600;  -45.000; -154.000
341.149; -117.575; -756.000; -718.000
341.283; -111.850; -839.000; -754.000
341.417; -121.450;-1124.000; -938.000
341.551;   73.075; -768.000; -708.000
341.685;  -48.050; -633.000; -611.000
341.820;  -61.750; -562.000; -493.000
341.954;  -48.675; -218.000; -349.000
342.088; -162.725;-1102.000;-1019.000
342.222;   49.325;  565.000;  618.000
342.356;  -69.525; -395.000; -335.000
342.490; -113.350; -880.000; -841.000
342.624;  -47.950; -339.000; -242.000
342.758;  -23.225; -364.000; -312.000
342.892;  -74.725; -710.000; -585.000
343.026;  -28.850;  -58.000; -116.000
343.160;  -72.625; -426.000; -376.000
343.294;  -78.875; -474.000; -337.000
343.428;  -33.550; -488.000; -448.000
343.562;   -0.875; -172.000;  -23.000
343.696;  -39.250; -385.000; -314.000
343.830;  -37.125; -362.000; -356.000
343.964;   -6.600; -231.000; -168.000
344.098;  759.750;  199.000;   70.000
344.232;  632.975; -266.000; -127.000
344.366;   60.800; -567.000; -453.000
344.500;   15.575; -665.000; -744.000
344.634;   23.200; -324.000; -164.000
344.768;  -29.175; -531.000; -341.000
344.902;    8.100;  278.000;  256.000
345.035;  -66.850; -556.000; -496.000
345.169; -149.525; -933.000; -656.000
345.303;  -40.325; -308.000; -482.000
345.437;  -83.675; -826.000; -717.000
345.571;  -76.500; -675.000; -594.000
345.704;  -66.000; -309.000; -532.000
345.838;  -20.050; -331.000; -284.000
345.972;  -45.300; -543.000; -495.000
346.106;  160.725; -179.000; -190.000
346.239;  397.050; -312.000; -243.000
346.373;   -9.475; -343.000; -302.000
346.507; -148.700; -950.000; -962.000
346.640;   92.650;  -30.000;   13.000
346.774;  -79.575; -650.000; -797.000
346.908;  -13.500; -138.000;  -11.000
347.041; -115.100; -646.000; -593.000
347.175;    5.825;  259.000;   27.000
347.309;  -79.450; -698.000; -628.000
347.442; -112.550; -883.000; -732.000
347.576;  237.725;  670.000;  668.000
347.709;  150.800; -123.000;  -52.000
347.843; -107.225; -933.000; -825.000
347.976;   27.075;  235.000;  294.000
348.110; -196.650;-1268.000;-1186.000
348.243; -101.600; -679.000; -772.000
348.377;   -7.425;  -26.000;   60.000
348.510;   60.800;  403.000;  540.000
348.644;  -27.925;  -37.000; -159.000
348.777;   -7.500;  180.000;  191.000
348.911;  -52.750; -142.000; -112.000
349.044;  146.600;  471.000;  448.000
349.178;   94.550;-1069.000;-1006.000
349.311;  120.200;  141.000;  255.000
349.444;  -14.975; -927.000; -813.000
349.578;  -30.475; -347.000; -200.000
349.711; -114.600; -959.000; -862.000
349.845;  -25.375; -661.000; -591.000
349.978; -145.750;-1224.000;-1137.000
350.111;  -96.825; -546.000; -612.000
350.244;  -93.550; -596.000; -700.000
350.378;  -10.125; -392.000; -393.000
350.511;  -76.450; -393.000; -426.000
350.644; -114.875; -808.000; -806.000
350.778;   -0.475;  168.000;  104.000
350.911;   11.925;  134.000;  140.000
351.044; -105.600; -685.000; -615.000
351.177;  -50.450; -321.000; -281.000
351.310;  -37.500;    3.000; -131.000
351.444;  -95.725; -888.000; -788.000
351.577;   99.475;  140.000;   90.000
351.710;   88.350;  593.000;  417.000
351.843;  -33.800; -165.000;  -77.000
351.976;  -10.900;  149.000;  -79.000
352.109; -104.400; -621.000; -612.000
352.242;  -23.825; -464.000; -419.000
352.376;  -78.725; -580.000; -636.000
352.509;  125.900; -437.000; -356.000
352.642;  -21.950; -654.000; -604.000
352.775;   36.975; -141.000;  -98.000
352.908; -133.025; -933.000; -904.000
353.041;  -97.300; -814.000; -824.000
353.174;  -77.775; -551.000; -424.000
353.307;  -89.350; -753.000; -764.000
353.440;   65.925;  541.000;  453.000
353.573; -118.350; -957.000;-1008.000
353.706;  -60.800; -384.000; -558.000
353.839;  -25.300; -264.000; -220.000
353.971;  -98.975; -657.000; -512.000
354.104;  -96.550; -896.000; -835.000
354.237;  -49.425; -627.000; -662.000
354.370;  -90.600; -846.000; -879.000
354.503; -186.425;-1231.000;-1308.000
354.636;  -47.575; -529.000; -348.000
354.769; -143.825; -937.000; -860.000
354.902;  -19.500; -230.000; -139.000
355.034;  -42.650; -164.000; -220.000
355.167;  -30.100; -262.000; -162.000
355.300;  -99.475;-1061.000; -880.000
355.433;  970.425;  -71.000;  -14.000
355.565; 1532.775; -402.000; -384.000
355.698;  367.275; -356.000; -296.000
355.831;  -26.525; -882.000; -801.000
355.964;   52.475; -285.000; -170.000
356.096; -103.800; -856.000; -843.000
356.229;  -10.550; -523.000; -530.000
356.362;  320.025; -373.000; -266.000
356.494;  617.600; -229.000; -162.000
356.627;  431.750;  269.000;  377.000
356.760;  679.050;  120.000;   53.000
356.892;  989.775; -286.000; -601.000
357.025;  567.225;  403.000;  389.000
357.157;  494.025; -167.000; -179.000
357.290;  724.750; -856.000; -713.000
357.423;  181.175; -667.000; -556.000
357.555;   91.175; -217.000; -228.000
357.688;   81.725; -483.000; -364.000
357.820;  379.500; -870.000; -877.000
357.953; 3292.375; -563.000; -589.000
358.085;  663.900; -632.000; -612.000
358.218;  846.775;-1131.000; -932.000
358.350;  157.400;  -58.000;  312.000
358.483; -142.525;-1300.000;-1187.000
358.615;  -44.725;-1182.000;-1078.000
358.747;  -89.600;-1187.000;-1058.000
358.880;  -15.075; -810.000; -744.000
359.012;  -16.275; -376.000; -202.000
359.145;  -46.250; -480.000; -511.000
359.277;   30.100; -962.000; -913.000
359.409; 2737.475;  536.000;  231.000
359.542;  666.400; -738.000; -688.000
359.674;   57.400;   46.000;   13.000
359.806;  -71.375; -565.000; -438.000
359.939;  -58.350; -617.000; -516.000
360.071;  -17.225; -583.000; -579.000
360.203;  -37.700; -411.000; -364.000
360.335;   27.850;  164.000;  -16.000
360.468;  171.425; -249.000; -307.000
360.600; 2237.225; -547.000; -454.000
360.732; 2908.450; -546.000; -423.000
360.864;  381.650;-1216.000;-1044.000
360.996;  198.850; -516.000; -554.000
361.129;   12.125; -389.000; -598.000
361.261;   11.050;  110.000; -113.000
361.393;  -35.875; -252.000; -214.000
361.525;   13.375;   94.000;  244.000
361.657;  -63.450; -821.000; -703.000
361.789;    3.475; -139.000; -155.000
361.921;  154.750; -642.000; -593.000
362.053;  218.475;  524.000;  541.000
362.185;   35.575;  288.000;   72.000
362.318;  -97.075; -709.000; -705.000
362.450;   85.750;  294.000;  444.000
362.582;   32.425; -913.000; -870.000
362.714;  -54.600; -353.000; -332.000
362.846;  -89.375; -606.000; -490.000
362.978; -141.575; -941.000; -811.000
363.109;   30.750; -161.000; -260.000
363.241;  337.050; -739.000; -749.000
363.373;  427.925; -649.000; -564.000
363.505;  685.375; -186.000;  -91.000
363.637;  130.925; -787.000; -601.000
363.769; -142.075;-1067.000;-1080.000
363.901;  -77.150; -596.000; -654.000
364.033; -140.325;-1103.000;-1062.000
364.165;  -16.575; -283.000; -283.000
364.296;   54.275; -316.000; -177.000
364.428;   73.825;-1344.000;-1220.000
364.560;  -69.700; -679.000; -661.000
364.692;  -74.675; -738.000; -835.000
364.824;  189.975; -588.000; -456.000
364.955;  420.650; -402.000; -564.000
365.087;  968.500;-1097.000; -852.000
365.219;   17.200; -686.000; -816.000
365.351;  -80.775; -526.000; -572.000
365.482;   44.975;  300.000;  240.000
365.614;  -58.075; -402.000; -314.000
365.746; -102.050; -729.000; -752.000
365.877; -105.850; -706.000; -672.000
366.009;  273.325;  -35.000;  -62.000
366.141;  -87.075;-1249.000;-1134.000
366.272; -112.825; -803.000; -719.000
366.404; -124.275;-1005.000; -874.000
366.535;  -17.350; -139.000;  -12.000
366.667; -112.200; -644.000; -649.000
366.799;   36.450;  353.000;  203.000
366.930; -142.000; -862.000; -996.000
367.062;  111.675; -639.000; -613.000
367.193;  159.875; -872.000; -842.000
367.325;  -67.175; -580.000; -684.000
367.456;   39.975; -246.000;   31.000
367.588;  158.975; -371.000; -318.000
367.719;   12.850;  -44.000;  -45.000
367.851;  -30.225; -222.000; -241.000
367.982;  -82.825; -875.000; -732.000
368.113;   66.200; -475.000; -358.000
368.245; -138.825; -960.000; -841.000
368.376;  -17.200; -254.000; -302.000
368.508;  -53.475; -188.000; -263.000
368.639; -152.200;-1166.000;-1034.000
368.770;  -34.975; -670.000; -589.000
368.902;  -74.675; -836.000; -926.000
369.033; -118.475; -906.000; -855.000
369.164;  -67.000; -720.000; -653.000
369.296; -104.150; -452.000; -601.000
369.427;  -17.700; -209.000; -144.000
369.558;  -61.825; -593.000; -377.000
369.689;  -75.600; -721.000; -569.000
369.821; -144.650; -951.000; -845.000
369.952;  -26.500;   42.000; -108.000
370.083;  -53.575; -229.000; -108.000
370.214;  -97.200; -735.000; -650.000
370.345;   -7.000;   65.000;   81.000
370.477; -101.225; -810.000; -790.000
370.608;  167.775; -328.000; -264.000
370.739;  -84.775;-1233.000;-1292.000
370.870;  -81.050;-1102.000; -923.000
371.001;   55.225; -378.000; -467.000
371.132;  -92.750; -754.000; -735.000
371.263;  -34.700;  -42.000; -148.000
371.394; -147.175; -841.000; -748.000
371.525;   33.300;  345.000;  225.000
371.657;  -96.675; -808.000; -670.000
371.788;   59.125;  103.000;  199.000
371.919;  120.075; -384.000; -304.000
372.050; 3144.650;  -91.000; -156.000
372.181;  903.725; -188.000; -294.000
372.311;  301.200;   42.000; -127.000
372.442;   11.525; -457.000; -451.000
372.573;  -35.875; -444.000; -340.000
372.704; -140.250;-1008.000; -980.000
372.835;   62.650; -228.000; -289.000
372.966;  -81.325; -646.000; -554.000
373.097;  -83.925; -575.000; -711.000
373.228;  -62.000; -717.000; -542.000
373.359;   72.825; -824.000; -536.000
373.490;  744.225; -881.000; -727.000
373.620;  928.050;-1001.000; -803.000
373.751; 1462.375; -332.000; -396.000
373.882;  654.375; -663.000; -733.000
374.013;   34.125; -449.000; -262.000
374.143;  -57.875; -581.000; -659.000
374.274; -120.100; -987.000; -908.000
374.405;  135.025; -388.000; -276.000
374.536;  345.425; -526.000; -387.000
374.666;  899.775; -759.000; -807.000
374.797;  162.475; -817.000; -868.000
374.928;  695.700; -710.000; -560.000
375.058;  721.050; -535.000; -500.000
375.189;   56.100;  -59.000;  -93.000
375.320; -128.475; -928.000;-1034.000
375.450;  -54.075; -625.000; -616.000
375.581;  -66.850; -526.000; -436.000
375.712;  -32.000; -574.000; -250.000
375.842;  226.250; -438.000; -415.000
375.973;  147.300; -554.000; -513.000
376.103;  -68.850; -665.000; -648.000
376.234;  -89.625; -531.000; -552.000
376.364;  -59.500; -944.000; -867.000
376.495;  290.525;  925.000;  529.000
376.625;  -26.250; -472.000; -485.000
376.756;    8.525; -709.000; -678.000
376.886;  -97.025;-1178.000;-1026.000
377.017;   65.625;-1048.000;-1061.000
377.147;  373.275; -786.000; -782.000
377.278;   46.175;  174.000;  228.000
377.408; -134.400; -801.000; -815.000
377.538; -111.450; -707.000; -693.000
377.669;  -84.700; -537.000; -613.000
377.799; -103.550; -645.000; -635.000
377.929;  -81.225; -610.000; -428.000
378.060; -135.400; -781.000; -847.000
378.190;  -70.525; -726.000; -531.000
378.320;  -69.450; -401.000; -406.000
378.451;  -13.700; -131.000;  -22.000
378.581;  -18.400;  -67.000; -110.000
378.711;  137.575; 1035.000;  866.000
378.841;  -34.925; -533.000; -675.000
378.972;  -89.200; -871.000; -751.000
379.102;  -40.900; -652.000; -579.000
379.232;  -45.150; -126.000;  -73.000
379.362; -114.500;-1001.000; -885.000
379.492;  -18.975; -373.000; -424.000
379.623;   73.100;    0.000;  111.000
379.753; -112.800;-1107.000; -974.000
379.883;  135.000;   59.000;  156.000
380.013;  -25.050;-1081.000;-1017.000
380.143; -127.075;-1097.000;-1056.000
380.273; -124.375; -985.000; -861.000
380.403;  -12.750; -344.000; -257.000
380.533;  -44.875; -651.000; -664.000
380.663;   39.825;  173.000;  128.000
380.793; -113.525;-1027.000;-1074.000
380.923;  -25.675; -103.000;  -34.000
381.053; -113.025; -613.000; -623.000
381.183;  -31.550; -106.000; -248.000
381.313;  -12.150; -656.000; -470.000
381.443;    7.050; -692.000; -473.000
381.573;  131.025; -402.000; -409.000
381.703;  177.250;-1249.000;-1095.000
381.833; -143.450;-1454.000;-1336.000
381.963;   95.250; -134.000;  -87.000
382.093; 1211.425; -925.000; -909.000
382.223;  325.275; -713.000; -602.000
382.353;  -39.375; -801.000; -608.000
382.482;  287.125;-1091.000; -964.000
382.612;  638.650; -872.000; -644.000
382.742;  343.800; -695.000; -622.000
382.872;  177.900; -565.000; -551.000
383.002;   48.950;  347.000; -132.000
383.131;  -33.575; -226.000; -160.000
383.261;  -61.575; -706.000; -768.000
383.391;  272.800; -552.000; -377.000
383.521; 3383.825;  451.000;  263.000
383.650;  786.275; -947.000; -904.000
383.780;  -21.975; -783.000; -656.000
383.910;  108.700;  880.000;  802.000
384.039;  -10.300; -794.000; -656.000
384.169;  138.025;-1205.000;-1017.000
384.299;  -52.100; -650.000; -662.000
384.428; -121.775; -764.000; -680.000
384.558;  -64.525; -308.000; -275.000
384.687;  -60.850; -414.000; -334.000
384.817;    8.550;   75.000;   -2.000
384.947;   -3.925; -234.000; -141.000
385.076;  252.100;  982.000;  912.000
385.206;   68.025;  369.000;  480.000
385.335;  -45.325; -549.000; -417.000
385.465;  -96.525; -655.000; -663.000
385.594;   91.800;  -53.000;  -44.000
385.724;  318.325; -868.000; -838.000
385.853;   87.575; -296.000; -270.000
385.982; 1140.425; -743.000; -787.000
386.112; 1754.750;-1052.000; -871.000
386.241;   93.800; -307.000; -312.000
386.371;   10.075; -174.000;  -87.000
386.500;  -13.000; -825.000; -789.000
386.629;    2.300; -874.000; -817.000
386.759;   48.425;  -43.000;   68.000
386.888;  -19.250; -170.000; -250.000
387.017;  -85.950; -648.000; -620.000
387.147; -112.225; -771.000; -798.000
387.276;   -9.275; -410.000; -397.000
387.405;   -8.575; -398.000; -342.000
387.535;  -70.850; -452.000; -361.000
387.664;  -73.800; -692.000; -620.000
387.793;   32.500; -198.000; -113.000
387.922;  412.325;  255.000;  200.000
388.052;   -8.375; -576.000; -423.000
388.181;   -9.275; -342.000; -472.000
388.310;  -46.775; -889.000; -710.000
388.439;  -66.900; -749.000; -742.000
388.568;  151.500;  365.000;  244.000
388.697;  844.325; -756.000; -653.000
388.826;  145.575; -768.000; -666.000
388.956;   31.400; -285.000; -307.000
389.085;  -43.275; -347.000; -287.000
389.214; -115.875; -842.000; -872.000
389.343;  -90.250; -645.000; -413.000
389.472;  403.675;  126.000;  149.000
389.601;  494.550;   91.000;    0.000
389.730;  -11.625; -568.000; -687.000
389.859;   40.800;  226.000;   46.000
389.988;  135.225; -423.000; -408.000
390.117;   96.475; -168.000; -146.000
390.246;  -21.200; -331.000; -320.000
390.375;   48.125; -673.000; -626.000
390.504;  -80.450; -703.000; -621.000
390.633; -112.575; -672.000; -726.000
390.761;  -73.350; -732.000; -645.000
390.890;    5.525;   -4.000; -130.000
391.019;  -41.950; -421.000; -441.000
391.148; -124.450; -826.000; -855.000
391.277;  -87.500; -576.000; -493.000
391.406; -111.075; -821.000; -805.000
391.534;    1.975;  574.000; -301.000
391.663;  -82.625; -583.000; -645.000
391.792;  -95.675; -673.000; -701.000
391.921;   76.400;   -3.000;   15.000
392.050;  114.775; -287.000; -228.000
392.178;  -84.150;-1206.000;-1061.000
392.307;   95.575; -758.000; -712.000
392.436;   40.225; -427.000; -641.000
392.564;    9.650;  166.000;   -6.000
392.693;  -90.925; -860.000; -682.000
392.822;  152.600; -529.000; -534.000
392.950;   48.300; -880.000; -714.000
393.079;  245.825; -188.000; -328.000
393.208;  -16.150; -488.000; -511.000
393.336;  -20.300; -170.000; -145.000
393.465;  -51.075; -317.000; -199.000
393.593;  -11.050;   62.000;   79.000
393.722; -156.825;-1121.000; -916.000
393.850;  -31.500; -188.000;  -61.000
393.979; -161.200; -926.000; -805.000
394.107;  -65.100; -517.000; -537.000
394.236;  -53.275; -570.000; -507.000
394.364;  168.850;  383.000;  206.000
394.493;  190.875; -911.000; -767.000
394.621;  -45.675; -955.000; -916.000
394.750;  737.275; -873.000; -923.000
394.878; 3068.025; -247.000; -149.000
395.007; 4061.625; -721.000; -807.000
395.135;  279.000; -790.000; -721.000
395.263;  -97.750;-1038.000;-1040.000
395.392;   -6.325;  -25.000; -107.000
395.520; -147.000; -818.000; -679.000
395.648; -105.750; -865.000; -915.000
395.777;  -32.450; -366.000; -405.000
395.905;  -59.325; -449.000; -564.000
396.033;    1.950;  217.000;  172.000
396.162;  352.825; -399.000; -453.000
396.290;  320.750;  -17.000;   -2.000
396.418;   33.525; -555.000; -514.000
396.546;  -88.025; -571.000; -466.000
396.674; -112.500; -850.000; -878.000
396.803;   -0.600;  -72.000;  -23.000
396.931;   64.100; -179.000; -199.000
397.059;  -14.975;-1026.000; -989.000
397.187; -112.375;-1026.000; -975.000
397.315; -145.575; -884.000; -649.000
397.443; -112.625; -592.000; -443.000
397.572; -108.625; -578.000; -424.000
397.700;  -43.675; -607.000; -614.000
397.828;   -3.050;  120.000;  -90.000
397.956;  -61.850; -508.000; -478.000
398.084;  -69.025; -767.000; -626.000
398.212;   29.425;  137.000;  124.000
398.340;  -10.500;  -56.000;  159.000
398.468;    4.525; -390.000; -169.000
398.596; -147.925; -993.000; -953.000
398.724; -117.100; -762.000; -767.000
398.852; -173.900;-1024.000; -976.000
398.980;  -70.950; -560.000; -560.000
399.108;  -68.825; -982.000; -735.000
399.236;    3.750;   13.000;    8.000
399.363;    5.750;  222.000;  196.000
399.491;  -84.525; -404.000; -398.000
399.619; -134.825; -829.000; -800.000
399.747; -108.550; -859.000; -771.000
399.875;   46.075;  220.000;  234.000
400.003;  -63.200; -359.000; -284.000
400.130; -103.225; -421.000; -341.000
400.258;  -33.975;  -83.000;   38.000
400.386;  -60.600; -352.000; -168.000
400.514;  -61.575; -526.000; -587.000
400.641; -133.525; -928.000; -802.000
400.769; -147.000; -979.000; -888.000
400.897; -136.200; -838.000; -793.000
401.025;  -45.550; -166.000; -152.000
401.152;  -11.350;  220.000;   38.000
401.280;  -90.625; -430.000; -429.000
401.408; -114.300; -712.000; -576.000
401.535; -111.325; -735.000; -758.000
401.663; -193.625;-1134.000;-1054.000
401.790;  -83.950; -514.000; -525.000
401.918;   31.325;  436.000;  405.000
402.046;  -21.525;  134.000;  122.000
402.173;  -49.150;  -18.000;    7.000
402.301;  -85.825; -519.000; -397.000
402.428;   19.275;  528.000;  383.000
402.556; -174.525;-1188.000; -913.000
402.683;  -49.300;  -20.000;   -1.000
402.811;  -32.200;  -37.000; -206.000
402.938;  -27.775;   20.000;   27.000
403.066;  146.375; -574.000; -558.000
403.193;  269.250;  299.000;  239.000
403.321;  209.475; -396.000; -574.000
403.448;  245.550;   83.000;   27.000
403.575;  110.875;  -90.000;  -46.000
403.703; -114.925; -732.000; -557.000
403.830;  -84.900; -531.000; -496.000
403.957; -139.200;-1117.000;-1023.000
404.085;  -10.350;  -61.000; -172.000
404.212;   78.350;  -50.000;   63.000
404.339;  276.250; -566.000; -306.000
404.467; 6010.850; -612.000; -524.000
404.594; 3742.275; -287.000; -227.000
404.721;  793.950; -869.000; -764.000
404.848;   64.925; -113.000; -202.000
404.976; -118.650; -856.000; -783.000
405.103;  -11.975;  -14.000;  -82.000
405.230;   -8.000;  190.000;  226.000
405.357;   20.800;  117.000;   44.000
405.484;  280.725;  -49.000;    5.000
405.612;   26.950; -548.000; -563.000
405.739;  -74.250; -488.000; -243.000
405.866;   80.350;  669.000;  385.000
405.993;  -55.400; -398.000; -102.000
406.120; -138.625; -801.000; -887.000
406.247;  -65.925; -323.000; -342.000
406.374;  343.500;  540.000;  629.000
406.501;   39.400; -632.000; -702.000
406.628;  -95.775; -621.000; -589.000
406.755; -107.125; -803.000; -620.000
406.882;  -47.650; -228.000; -277.000
407.009; -128.400; -719.000; -628.000
407.136;   22.825; -480.000; -401.000
407.263;   72.800; -939.000; -829.000
407.390; -101.800; -692.000; -614.000
407.517; -195.100;-1139.000;-1187.000
407.644;  -75.600; -332.000; -256.000
407.771;  -82.225; -249.000; -287.000
407.898;    1.450;  168.000;  328.000
408.025;  -72.225; -421.000; -313.000
408.151;  -20.625;   82.000;  153.000
408.278;  -86.250; -267.000; -216.000
408.405; -127.075; -931.000; -899.000
408.532;  -89.050; -549.000; -542.000
408.659; -122.650; -677.000; -648.000
408.785; -202.600;-1298.000;-1170.000
408.912;  -71.700; -412.000; -296.000
409.039; -122.475; -610.000; -686.000
409.166; -124.375; -591.000; -555.000
409.292; -109.375; -571.000; -534.000
409.419; -129.425; -665.000; -649.000
409.546;  -95.175; -431.000; -192.000
409.672; -112.625; -713.000; -545.000
409.799;  -20.325;  -36.000;   34.000
409.926;  -45.725; -180.000; -179.000
410.052; -197.350;-1127.000;-1091.000
410.179;  -73.275; -368.000; -392.000
410.305;  -87.475; -375.000; -493.000
410.432;  -57.875; -220.000; -333.000
410.558;  -96.875; -305.000; -380.000
410.685; -109.075; -688.000; -431.000
410.812; -115.575; -409.000; -588.000
410.938; -141.575; -964.000; -808.000
411.065; -109.400; -671.000; -645.000
411.191;  -24.125; -189.000; -174.000
411.317; -127.675; -823.000; -742.000
411.444;  -68.825; -317.000; -246.000
411.570;  -76.975; -339.000; -294.000
411.697; -138.925; -758.000; -752.000
411.823; -182.425; -989.000; -999.000
411.949;  -37.000;  -56.000;   17.000
412.076; -124.425; -539.000; -519.000
412.202; -137.375; -758.000; -757.000
412.329; -134.700; -798.000; -752.000
412.455; -138.475; -821.000; -657.000
412.581;  -26.500;  -15.000;  172.000
412.707;  -76.175; -540.000; -457.000
412.834;    7.025;  156.000;  219.000
412.960;  -89.125; -785.000; -784.000
413.086; -106.000; -743.000; -701.000
413.212;  131.800;  604.000;  578.000
413.339;  -80.550; -685.000; -701.000
413.465;  -30.025; -364.000; -310.000
413.591; -112.700; -757.000; -474.000
413.717;  -72.275; -358.000; -366.000
413.843; -149.975; -839.000; -861.000
413.969;  -76.125;  -47.000; -292.000
414.096; -104.150; -679.000; -679.000
414.222;  -14.850;  -33.000;   85.000
414.348;  -62.850; -652.000; -385.000
414.474;   61.375;   38.000;  -52.000
414.600;  -37.150; -126.000; -144.000
414.726;  -25.500;  -96.000;  -55.000
414.852;  -70.250; -365.000; -342.000
414.978;   14.275;  104.000;  -18.000
415.104;   46.200;   38.000;   80.000
415.230;    4.025; -329.000; -330.000
415.356;   21.825; -409.000; -514.000
415.482;  191.850;   13.000;  -35.000
415.608;  271.950; -247.000; -323.000
415.734;  985.000;   67.000;   38.000
415.860;20605.575; -875.000; -767.000
415.986;14370.100; -685.000; -607.000
416.111; 1235.925; -798.000; -652.000
416.237;  257.550; -424.000; -571.000
416.363; 1239.200; -765.000; -733.000
416.489; 4325.750; -324.000; -251.000
416.615;  440.150; -707.000; -742.000
416.741;  -20.000; -677.000; -784.000
416.866;  -95.375; -673.000; -736.000
416.992; -125.000; -801.000; -818.000
417.118;  -29.175;  -41.000;  -80.000
417.244;  -81.200; -798.000; -531.000
417.369;  -97.950; -801.000; -612.000
417.495;  -24.475; -325.000; -254.000
417.621; -111.275;-1015.000; -803.000
417.746;   -6.400; -579.000; -572.000
417.872;   49.400; -254.000; -144.000
417.998;   41.550; -515.000; -530.000
418.123; 1107.050;-1073.000; -845.000
418.249; 5543.025; -512.000; -601.000
418.374;  737.675; -916.000; -824.000
418.500;   97.300; -383.000; -482.000
418.626;   95.025;   70.000;  -59.000
418.751;   98.775; -549.000; -448.000
418.877;  190.725; -637.000; -643.000
419.002; 1918.350; -688.000; -560.000
419.128;13099.150; -930.000; -721.000
419.253; 3071.650; -967.000; -837.000
419.379;  393.100; -391.000; -338.000
419.504;  396.925;  325.000;  415.000
419.629;  513.725; -393.000; -212.000
419.755; 3875.825; -317.000; -254.000
419.880;22365.575;  -98.000;   67.000
420.006;11989.250; -280.000; -221.000
420.131;30163.900; -662.000; -775.000
420.256; 4199.525; -315.000; -316.000
420.382;  536.125; -665.000; -687.000
420.507;   66.575; -649.000; -778.000
420.632;   90.225; -337.000; -339.000
420.758;  176.050; -251.000; -425.000
420.883;  -92.700; -876.000; -672.000
421.008; -108.850; -775.000; -619.000
421.133;  -88.625; -509.000; -467.000
421.259;  -65.425; -325.000; -259.000
421.384; -125.400; -834.000; -693.000
421.509;  -57.275;-1052.000; -862.000
421.634;  871.275; -936.000; -820.000
421.759;  374.750; -359.000; -327.000
421.885;  -76.675; -717.000; -656.000
422.010;  -92.950; -673.000; -542.000
422.135; -148.750; -695.000; -727.000
422.260;   25.050;  340.000;  280.000
422.385;  -54.625;   12.000;  -98.000
422.510;   15.000;  151.000;  -26.000
422.635;   12.000;  -87.000;  -43.000
422.760;   58.300; -766.000; -791.000
422.885;   36.625;  -57.000;  -80.000
423.010;  -40.225; -112.000; -169.000
423.135; -101.875; -481.000; -561.000
423.260;  -32.150; -150.000; -245.000
423.385;   65.500;  476.000;  222.000
423.510;   25.500;   71.000;  -22.000
423.635;   50.475;  133.000;   45.000
423.760;   50.300;  383.000;  328.000
423.885;   46.575;  336.000;  391.000
424.010;    6.550;  -68.000;  -13.000
424.135;  -26.550;    5.000;  -33.000
424.259;  -83.775; -654.000; -457.000
424.384;  -77.750; -279.000; -272.000
424.509;  -32.275; -260.000; -186.000
424.634; -106.250; -761.000; -623.000
424.759;  -39.900; -688.000; -544.000
424.883;  -28.750; -506.000; -527.000
425.008;  160.000; -502.000; -410.000
425.133; 2093.725; -679.000; -653.000
425.258;  919.675; -517.000; -381.000
425.382;  919.700; -867.000; -774.000
425.507; 2246.350; -487.000; -543.000
425.632;  389.375; -802.000; -663.000
425.756;  478.750; -256.000; -146.000
425.881; 7150.825; -831.000; -857.000
426.006;18851.650; -604.000; -355.000
426.130; 2831.425; -696.000; -508.000
426.255;  356.950; -611.000; -491.000
426.379;  160.975; -189.000; -577.000
426.504;  379.575;  660.000;  544.000
426.629; 4127.225; -519.000; -466.000
426.753; 2728.700;   64.000;  -46.000
426.878;  311.750; -252.000; -288.000
427.002;  175.325; -651.000; -668.000
427.127; 1660.900;  -35.000; -158.000
427.251;11858.100;  372.000;  401.000
427.375; 3201.775; -191.000; -173.000
427.500; 2035.075; -616.000; -610.000
427.624;  643.775; -234.000; -400.000
427.749;   65.075; -216.000; -225.000
427.873;  -69.675; -499.000; -412.000
427.997;  -48.750; -222.000; -230.000
428.122;   49.050;  795.000;  703.000
428.246;   50.900;  433.000;  434.000
428.371; -150.650; -869.000; -773.000
428.495; -117.775; -624.000; -646.000
428.619;  -48.925; -186.000; -117.000
428.743;    4.050;   65.000;  132.000
428.868;  -19.525; -732.000; -643.000
428.992; 1172.550; -219.000; -326.000
429.116;  441.225; -329.000; -357.000
429.240;  204.375;  419.000;  426.000
429.365;  -41.875; -454.000; -574.000
429.489;  -51.800; -638.000; -647.000
429.613;   12.025; -236.000; -177.000
429.737;   25.775; -563.000; -432.000
429.861;  277.450; -247.000; -133.000
429.985; 5842.125; -425.000; -305.000
430.109; 6184.450; -770.000; -908.000
430.234;  683.600;   76.000;  -50.000
430.358;   46.925; -250.000; -160.000
430.482;  -74.975; -672.000; -564.000
430.606;  -75.550; -655.000; -375.000
430.730;  -28.600; -437.000; -388.000
430.854;   46.525; -909.000; -835.000
430.978;  -97.000; -795.000; -764.000
431.102;  -97.600; -499.000; -422.000
431.226; -129.600; -874.000; -815.000
431.350;   17.025;  345.000;  422.000
431.474;  -86.975; -661.000; -373.000
431.597; -157.700;-1060.000; -848.000
431.721;  -84.100; -276.000; -267.000
431.845; -134.275; -704.000; -472.000
431.969; -103.125; -304.000; -349.000
432.093;  -88.125; -395.000; -317.000
432.217;  -25.450;   32.000;   82.000
432.341;  -96.350; -523.000; -518.000
432.464;   -9.225;   96.000;   40.000
432.588;  133.900; -401.000; -329.000
432.712;   53.175;  -52.000;  -52.000
432.836;   35.375;  213.000;  263.000
432.959;  -13.125; -372.000; -311.000
433.083;   87.300;   11.000;    2.000
433.207;  372.000;  285.000;  930.000
433.330; 5348.200; -391.000; -200.000
433.454; 6398.450; -654.000; -638.000
433.578; 3712.450;  583.000;  278.000
433.701;  647.575; -623.000; -675.000
433.825;  104.450; -292.000; -299.000
433.949;  111.750;   28.000;  -72.000
434.072;   11.075; -410.000; -323.000
434.196;  -30.000; -309.000; -117.000
434.319; 3775.150;25482.000;25124.000
434.443;  710.800; -656.000; -603.000
434.566; 2742.500;  281.000;   62.000
434.690;  415.400; -637.000; -383.000
434.813;   32.775; -251.000; -173.000
434.937;  -81.800; -569.000; -696.000
435.060;  -65.625; -423.000; -332.000
435.184;  172.425; -492.000; -217.000
435.307;   81.450;  159.000;  102.000
435.431;  -31.300;  -40.000;   24.000
435.554;  -80.900; -399.000; -240.000
435.677;  -98.350; -350.000; -258.000
435.801;  -54.825;  -25.000;   49.000
435.924;  -19.000;    1.000;  -67.000
436.048; -141.525;-1019.000; -732.000
436.171;  -75.425; -240.000;  -66.000
436.294;  -37.800; -248.000; -229.000
436.417;   91.150; -963.000; -849.000
436.541;  -94.050; -814.000; -840.000
436.664;  -52.775; -242.000; -316.000
436.787;  -39.700;   13.000;  113.000
436.910; -115.275; -792.000; -422.000
437.034;   -5.350;  142.000;  143.000
437.157;   37.800;  -11.000;    0.000
437.280;  -72.150; -392.000; -292.000
437.403;  -97.875; -982.000; -869.000
437.526;  441.225; -903.000; -865.000
437.649; 1679.225; -505.000; -332.000
437.772;  178.825; -692.000; -540.000
437.896;   90.625;  700.000;  544.000
438.019; -108.350; -758.000; -503.000
438.142; -105.450; -596.000; -506.000
438.265;  -50.425; -639.000; -670.000
438.388;  393.075; -520.000; -410.000
438.511;   13.375; -597.000; -394.000
438.634;  -69.475; -247.000; -125.000
438.757; -146.425; -693.000; -619.000
438.880;  -27.775;  -34.000;  -57.000
439.003; -109.000; -417.000; -437.000
439.126;  -77.000; -287.000; -167.000
439.248;  -59.425;  -98.000; -139.000
439.371;  -61.450;    9.000;  -53.000
439.494;   22.700;  510.000;  439.000
439.617;  -47.050;   65.000;  -88.000
439.740; -188.425; -968.000; -816.000
439.863; -149.475; -755.000; -595.000
439.986; -128.675; -476.000; -431.000
440.108;  -51.200; -161.000; -112.000
440.231; -169.525; -950.000; -836.000
440.354;  -66.000;  -64.000; -150.000
440.477;  -33.200; -566.000; -542.000
440.599;  -32.975; -200.000; -225.000
440.722; -135.375; -709.000; -586.000
440.845;   67.700;  751.000;  928.000
440.968; -121.750; -415.000; -311.000
441.090;  -79.300; -199.000;  -33.000
441.213; -177.925;-1021.000; -825.000
441.336;  -60.975; -159.000;   -5.000
441.458;  -89.900; -549.000; -396.000
441.581; -107.275; -628.000; -629.000
441.703;  -83.425; -152.000;   13.000
441.826; -117.050; -557.000; -400.000
441.948;  -60.850;   56.000;   51.000
442.071;    8.625;  555.000;  424.000
442.193; -121.250; -531.000; -485.000
442.316;    2.350;  152.000;   97.000
442.438;   40.775; -233.000;  -10.000
442.561;   65.050;  272.000;  262.000
442.683;  373.025; -809.000; -522.000
442.806;  877.500;   -8.000;   74.000
442.928;  -41.000; -859.000; -604.000
443.051;  -83.200; -577.000; -373.000
443.173; -111.000; -341.000; -339.000
443.295; -106.075; -263.000; -371.000
443.418;  -69.425; -321.000;  -29.000
443.540;  -24.975; -106.000;   -4.000
443.662; -132.775; -563.000; -465.000
443.785;  -24.050;  335.000;  199.000
443.907; -122.825; -362.000; -208.000
444.029; -133.050; -767.000; -494.000
444.152; -158.100; -644.000; -554.000
444.274;  -49.775;  -18.000;  -24.000
444.396; -127.550; -461.000; -221.000
444.518; -145.675; -691.000; -454.000
444.640; -108.375; -268.000; -111.000
444.763;  -19.375;  388.000;  249.000
444.885; -133.300; -432.000; -392.000
445.007;  -44.975;   35.000;   86.000
445.129; -126.600; -610.000; -515.000
445.251; -104.175; -372.000; -439.000
445.373; -145.225; -537.000; -386.000
445.495;   -2.900;  242.000;  350.000
445.617;   31.800;  853.000;  753.000
445.739;  -73.250; -215.000;  -97.000
445.861;  -46.050; -245.000; -112.000
445.984;  -55.400; -267.000; -101.000
446.105;  136.275; -418.000; -251.000
446.227;  448.500; -176.000;  -19.000
446.349;  -30.100; -358.000; -249.000
446.471; -114.600; -615.000; -448.000
446.593;  -83.050; -316.000;   19.000
446.715;  -11.350;  -67.000;   41.000
446.837;   34.750;  697.000;  832.000
446.959; -108.075; -457.000; -478.000
447.081; -140.150; -628.000; -518.000
447.203;   45.100;  862.000;  834.000
447.325;  -92.050; -270.000;   42.000
447.446;  -10.550;  286.000;  530.000
447.568; -166.825; -921.000; -803.000
447.690;  -89.925; -236.000; -245.000
447.812; -158.425; -798.000; -519.000
447.933;  -32.350;  155.000;  127.000
448.055;  -76.550; -306.000; -261.000
448.177;  109.375;   31.000;   79.000
448.299;   23.525; -935.000; -727.000
448.420;   18.300;  -25.000;  159.000
448.542;  -56.100;   -3.000;   33.000
448.664;  -22.425;  109.000;  322.000
448.785;  -48.725;  265.000;   83.000
448.907;  -97.875; -614.000; -353.000
449.028;  -52.900; -771.000; -471.000
449.150;   45.200;  492.000;  589.000
449.272; -188.150;-1044.000; -913.000
449.393;   27.175;  612.000;  694.000
449.515; -154.000; -634.000; -581.000
449.636;  -71.850; -264.000; -155.000
449.758;   72.450;  763.000;  622.000
449.879; -101.525; -498.000; -396.000
450.001;  -87.175; -149.000;  -49.000
450.122;  -46.225;  -95.000;  162.000
450.244;  -33.625;   37.000;  364.000
450.365;  -93.250; -495.000; -301.000
450.486;  -40.075;   80.000;  268.000
450.608;   23.400;  393.000;  326.000
450.729;   50.875;  578.000;  645.000
450.850;    0.425; -574.000; -466.000
450.972;  811.825; -552.000; -389.000
451.093; 5235.525;  190.000;  588.000
451.214; 2163.075; -516.000; -337.000
451.336;  392.375;  773.000;  579.000
451.457;   59.575;  264.000;  393.000
451.578;  -41.850; -118.000;  -74.000
451.699; -123.975; -546.000; -540.000
451.821;  -63.600; -284.000;  -50.000
451.942;   -7.225;  278.000;  285.000
452.063;   29.650;  228.000;  419.000
452.184;  606.500;  -54.000;  -49.000
452.305; 1111.725;  103.000;  170.000
452.427;  126.525; -549.000; -301.000
452.548;  -23.150;   23.000;   79.000
452.669;  -76.075; -257.000;  -89.000
452.790;  -43.700;    3.000;  -18.000
452.911;   -6.000;  195.000;  259.000
453.032;  -68.500; -289.000;  -60.000
453.153;  -60.050;  -29.000;   81.000
453.274;   41.650;  737.000;  868.000
453.395;  -61.575;  -51.000;  175.000
453.516;  114.125; 1317.000; 1388.000
453.637;  -80.475; -205.000; -150.000
453.758;  -80.325;   15.000;   69.000
453.879; -126.750; -462.000; -250.000
454.000;   70.475; 1086.000;  948.000
454.121; -120.400; -554.000; -326.000
454.242; -132.200; -599.000; -383.000
454.362;  -57.550;  -99.000;  114.000
454.483;  -53.900; -309.000; -229.000
454.604;   42.125;  512.000;  580.000
454.725; -131.000; -627.000; -555.000
454.846; -138.950; -474.000; -406.000
454.967;  -29.925;  230.000;  539.000
455.087;  -59.325;  179.000;  153.000
455.208;   16.375;  554.000;  856.000
455.329;  -74.100;  -22.000;   82.000
455.450;   30.700;  473.000;  633.000
455.570;  -97.150; -234.000; -211.000
455.691;  -53.200;  201.000;  407.000
455.812; -115.800; -270.000;  -92.000
455.932;  -66.725;  107.000;  -97.000
456.053;  -89.125;   36.000;   24.000
456.173; -129.400; -433.000; -355.000
456.294; -148.275; -476.000; -303.000
456.415;  -77.825;  -73.000;   70.000
456.535;  -38.575;  297.000;  273.000
456.656;  -55.375;  132.000;  240.000
456.776;  -75.925;    3.000;  298.000
456.897;   -2.625;  308.000;  513.000
457.017;  -99.125; -153.000;   -3.000
457.138; -122.625; -402.000; -249.000
457.258;  -25.325;  263.000;  224.000
457.379;  -15.975;  509.000;  521.000
457.499;  -31.250;  443.000;  432.000
457.620; -120.475; -407.000; -231.000
457.740;  -98.625; -132.000;  -11.000
457.860;  -69.250;   87.000;   44.000
457.981;  -65.925;  132.000;  124.000
458.101;  -83.600;  -89.000;   40.000
458.221;  -19.675;  336.000;  402.000
458.342;  -67.875;   -4.000;  -37.000
458.462;    7.750;  617.000;  352.000
458.582;  -26.200; -302.000; -294.000
458.703;    5.325;  303.000;  154.000
458.823;  -16.475;   22.000;  163.000
458.943;    9.550;  341.000;  467.000
459.063;   -6.125; 1124.000;  192.000
459.183;  -29.875;  328.000;  313.000
459.304;   11.025;  315.000;  517.000
459.424;  -68.500; -246.000;  -89.000
459.544;  339.925;  388.000;  764.000
459.664;  871.900;  499.000;  506.000
459.784;  298.575; 1004.000; 1175.000
459.904;   51.700;  867.000;  744.000
460.024;   53.675;  867.000;  684.000
460.144;   -7.875;  449.000;  554.000
460.264;  -15.475;  515.000;  327.000
460.385;  -95.550; -145.000; -119.000
460.505;   17.325;  905.000;  858.000
460.625;  -90.000;  -17.000;  -68.000
460.745;  -21.650;  396.000;  541.000
460.864;  -54.775;  153.000;  469.000
460.984;   -4.975;  499.000;  573.000
461.104;  136.800; 1656.000; 1775.000
461.224;   20.100;  657.000;  650.000
461.344;  -42.400;  431.000;  360.000
461.464;  -47.400;  258.000;  513.000
461.584;  -32.950;  283.000;  466.000
461.704;  -67.275;   58.000;  108.000
461.824;  -73.300;  238.000;  259.000
461.943;  -39.800;  191.000;  130.000
462.063;  -69.925;    2.000;  324.000
462.183;   31.975;  639.000;  717.000
462.303;   90.025; 1678.000; 1230.000
462.422;   22.600;  781.000;  840.000
462.542;  -52.025;  271.000;  391.000
462.662;   19.750;  353.000;  380.000
462.782;  257.950;  833.000;  572.000
462.901;  499.000;  545.000;  717.000
463.021;  275.375; 1702.000; 1638.000
463.141;  -10.925;  337.000;  770.000
463.260;  -29.725;  614.000;  474.000
463.380;    5.075;  902.000;  884.000
463.499;  -31.400;  342.000;  332.000
463.619;  -43.750;  581.000;  559.000
463.738;  118.400; 1644.000;  903.000
463.858;    3.400;  657.000;  811.000
463.978;  -33.175;  542.000;  396.000
464.097;   45.375;  921.000; 1114.000
464.217;  120.900; 1196.000; 1143.000
464.336;  102.600; 1068.000; 1130.000
464.455;  -56.250;  328.000;  659.000
464.575;   29.675;  597.000;  602.000
464.694;  159.850; 1204.000; 1179.000
464.814;  113.750; 1190.000; 1138.000
464.933;   63.125; 1095.000; 1027.000
465.052;  104.400; 1412.000; 1054.000
465.172;   69.950;  922.000;  799.000
465.291;  108.450; 1376.000; 1320.000
465.410;    4.050;  462.000;  735.000
465.530;   79.900; 1355.000; 1310.000
465.649;   52.825; 1209.000; 1273.000
465.768;  121.550; 1673.000; 1508.000
465.888;   51.475;  941.000; 1174.000
466.007;   90.325; 1335.000; 1440.000
466.126;   -9.625;  721.000;  641.000
466.245;   54.650; 1176.000; 1187.000
466.364;   13.825;  950.000; 1060.000
466.484;   51.925; 1024.000; 1213.000
466.603;   30.375; 1101.000; 1222.000
466.722;  133.800; 1490.000; 1769.000
466.841;   50.000; 1151.000; 1401.000
466.960;   24.300; 1069.000;  972.000
467.079;  120.875; 1971.000; 1786.000
467.198;   29.450; 1238.000; 1181.000
467.317;   82.100; 1768.000; 1162.000
467.436;   60.025; 1709.000; 1261.000
467.555;  122.150; 1796.000; 1746.000
467.674;   56.175; 1227.000; 1329.000
467.793;   44.900; 1376.000; 1374.000
467.912;   84.050; 1658.000; 1539.000
468.031;  135.400; 2038.000; 1930.000
468.150;  127.475; 1842.000; 1837.000
468.269;  204.625; 2313.000; 2090.000
468.388;  174.225; 2168.000; 2339.000
468.507;  240.575; 2884.000; 2903.000
468.626;  221.325; 2555.000; 2541.000
468.744;  133.375; 2018.000; 2174.000
468.863;  186.550; 2312.000; 2523.000
468.982;   85.700; 1503.000; 1555.000
469.101;  203.525; 2788.000; 2692.000
469.220;  150.625; 2333.000; 2176.000
469.338;  249.700; 2935.000; 3051.000
469.457;  187.025; 2719.000; 2545.000
469.576;  337.100; 3953.000; 3784.000
469.695;  241.375; 2877.000; 3066.000
469.813;  431.325; 4148.000; 4192.000
469.932;  420.050; 4255.000; 4485.000
470.051;  420.925; 4075.000; 4161.000
470.169;  883.900; 4470.000; 4338.000
470.288; 1520.000; 4700.000; 4809.000
470.406;  887.725; 5059.000; 5194.000
470.525;  627.875; 6101.000; 5787.000
470.644;  660.075; 6847.000; 6794.000
470.762;  841.250; 8397.000; 7873.000
470.881;  917.325; 8651.000; 8464.000
470.999; 1055.100; 9685.000; 9151.000
471.118; 1102.850;11174.000;10711.000

