
Integration time [ms]: 100.000
Averaging Nr. [scans]: 40
Smoothing Nr. [pixels]: 0
Data measured with spectrometer [name]: 2101012U2
Wave   ;Sample   ;Dark     ;Reference
[nm]   ;[counts] ;[counts] ;[counts] 

197.733;   72.850;  516.000;  404.000
197.879;  -84.350; -610.000; -634.000
198.025;  -40.300; -475.000; -420.000
198.171;  -60.900; -602.000; -612.000
198.317;  -38.600; -401.000; -316.000
198.463;  -62.150; -655.000; -404.000
198.609;   40.475;  181.000; -137.000
198.755;  -79.425; -644.000; -410.000
198.901;  -45.325; -505.000; -424.000
199.047;  -77.425; -615.000; -488.000
199.193;  -39.900; -230.000; -468.000
199.339;  -37.125; -222.000; -369.000
199.485;   44.925;  330.000;  271.000
199.631;   20.600;  227.000;  310.000
199.777;  -32.450; -466.000; -398.000
199.923;  -62.950; -610.000; -424.000
200.069;    0.875; -141.000;  -58.000
200.215;   63.625;  128.000;  453.000
200.361;   57.925;  243.000;  477.000
200.507;  -48.575; -600.000; -373.000
200.653;  -16.250; -371.000; -194.000
200.798;  -34.975; -215.000; -125.000
200.944;    0.775; -146.000;  -41.000
201.090;   33.950;   61.000;  222.000
201.236;   -1.625; -116.000; -158.000
201.382;  127.450;  874.000;  903.000
201.528;   11.000;  -58.000;  -48.000
201.674;  -57.750; -386.000; -293.000
201.819;  -54.325; -540.000; -439.000
201.965;  -84.775; -699.000; -447.000
202.111;  -24.225; -273.000; -226.000
202.257;  -40.150; -250.000; -238.000
202.402;   20.925;   13.000;  -36.000
202.548;  -30.550; -169.000; -116.000
202.694;   82.400;  410.000; -183.000
202.840;  -77.250; -603.000; -531.000
202.985;  -73.575; -681.000; -639.000
203.131;  -98.525; -832.000; -666.000
203.277;  -18.325; -199.000; -262.000
203.423;  -51.125; -434.000; -520.000
203.568;  -42.075; -462.000; -237.000
203.714;  -57.450; -535.000; -542.000
203.860;  -73.175; -682.000; -641.000
204.005;   28.250;  112.000;  167.000
204.151;   82.250;  561.000;  556.000
204.296;  -48.950; -354.000; -221.000
204.442;  -69.150; -600.000; -547.000
204.588;  -79.775; -592.000; -579.000
204.733;   13.200;  178.000;  168.000
204.879; -125.875;-1018.000; -822.000
205.025;    4.175;  -99.000;  126.000
205.170;  -13.075;  -17.000;   94.000
205.316;   88.475;  438.000;  661.000
205.461;  -86.075; -698.000; -554.000
205.607;  101.500;  609.000;  665.000
205.752;  -73.475; -626.000; -551.000
205.898;  -44.350; -501.000; -391.000
206.043;  -77.875; -578.000; -506.000
206.189;  -36.575; -243.000; -285.000
206.334;   86.325;  554.000;  606.000
206.480;   91.325;  409.000;  239.000
206.625;  -78.700; -529.000; -552.000
206.771;  -33.100; -451.000; -373.000
206.916;  -34.225; -210.000; -537.000
207.062;  -77.650; -545.000; -591.000
207.207;  -60.825; -546.000; -443.000
207.353;   54.850;  185.000;  460.000
207.498;   22.175;  196.000;   85.000
207.643;  -44.250; -501.000; -370.000
207.789; -141.125;-1069.000; -910.000
207.934;  -84.500; -665.000; -713.000
208.080;  -21.725; -154.000;   66.000
208.225;    4.800;  -22.000;  -57.000
208.370;  -94.775; -727.000; -619.000
208.516;  -75.900; -741.000; -487.000
208.661;  -30.400; -127.000;  -69.000
208.806;  -22.775; -165.000; -171.000
208.952; -125.850;-1044.000; -731.000
209.097;   97.175;  378.000;  349.000
209.242;  -32.325; -307.000; -382.000
209.387;   75.050;  392.000;  350.000
209.533;  -52.775; -321.000; -350.000
209.678;   98.450;  472.000;  543.000
209.823;  -55.525; -408.000; -310.000
209.969;  -99.425; -860.000; -757.000
210.114; -106.400; -907.000; -719.000
210.259; -116.000; -939.000; -889.000
210.404;  -15.575; -171.000;  103.000
210.549;   17.025;  108.000;    3.000
210.695;  -10.675;   -3.000;  -95.000
210.840;   33.575;   94.000;   67.000
210.985;  -67.875; -484.000; -303.000
211.130;   68.625;  268.000;  406.000
211.275;    8.125;  207.000;  199.000
211.420;  -47.125; -300.000; -289.000
211.566;  -73.275; -536.000; -489.000
211.711;   27.125;  218.000;  157.000
211.856;  -72.950; -545.000; -519.000
212.001;    5.050;  151.000;   44.000
212.146;   18.200;  153.000;   49.000
212.291;  -11.725; -210.000; -186.000
212.436;  -15.450; -280.000;   -6.000
212.581;  -80.000; -685.000; -653.000
212.726;  -79.750; -487.000; -538.000
212.871;  -44.175; -552.000; -217.000
213.016; -154.475;-1172.000;-1029.000
213.161;   76.700;  406.000;  291.000
213.306;  -60.700; -435.000; -577.000
213.451;  -89.425; -778.000; -689.000
213.596;  -37.300; -455.000; -347.000
213.741;  -55.375; -448.000; -538.000
213.886;  -75.125; -498.000; -517.000
214.031;  -23.600; -294.000; -124.000
214.176;  -52.650; -408.000; -341.000
214.321;   -1.650; -296.000; -157.000
214.466;  -23.950; -163.000;  -43.000
214.611;   -3.600;  -61.000;  -10.000
214.756; -123.350; -948.000; -858.000
214.901;  -21.100; -388.000; -226.000
215.046; -123.575; -797.000; -825.000
215.191;   27.225;  128.000;   35.000
215.336;  -17.425; -157.000;  -19.000
215.480;  -79.225; -684.000; -505.000
215.625;  -16.250; -175.000;  -19.000
215.770;  -74.750; -757.000; -662.000
215.915;   -1.675;   -5.000;  -97.000
216.060;   -4.675; -113.000;  -21.000
216.205; -111.125; -731.000; -779.000
216.349;  -79.500; -470.000; -533.000
216.494; -134.675; -939.000; -867.000
216.639; -119.450; -823.000; -888.000
216.784;  -86.450; -577.000; -525.000
216.929;   58.925;  392.000;  281.000
217.073;  -11.050; -244.000;  -31.000
217.218;   10.500;   78.000;  -47.000
217.363;  -84.575; -656.000; -618.000
217.507;  -80.275; -623.000; -588.000
217.652; -129.650; -845.000; -874.000
217.797;  -88.200; -708.000; -659.000
217.942; -101.600; -856.000; -720.000
218.086;   77.950;  608.000;  539.000
218.231;   -7.425; -174.000;  -26.000
218.376;  -31.925; -337.000; -229.000
218.520;    2.875;  -41.000;   96.000
218.665;  -30.750; -338.000; -204.000
218.810;  -40.475; -275.000; -233.000
218.954;   21.975;  201.000;   35.000
219.099; -116.750; -713.000; -963.000
219.243;  -69.675; -589.000; -554.000
219.388;  -24.725; -264.000; -136.000
219.532;   -4.425; -116.000; -116.000
219.677;  -83.100; -564.000; -521.000
219.822;   21.775;   33.000;   89.000
219.966;    4.000;   17.000;  -99.000
220.111;  -26.200; -328.000;  -40.000
220.255;  -94.400; -797.000; -750.000
220.400;   -9.950; -180.000; -146.000
220.544;  -62.000; -516.000; -450.000
220.689;  -61.475; -422.000; -451.000
220.833;  -18.800; -123.000;  -58.000
220.978;  -54.725; -393.000; -563.000
221.122;   32.125;  319.000;  307.000
221.267; -110.150; -906.000; -837.000
221.411;  -69.225; -478.000; -394.000
221.555;    4.975; -104.000;  -23.000
221.700;  -56.975; -329.000; -222.000
221.844;   57.475;  255.000;  272.000
221.989;  -54.750; -328.000; -311.000
222.133;  -27.300; -289.000; -307.000
222.277;   -2.950;    5.000;   78.000
222.422;   21.600;  227.000;  113.000
222.566;  -35.950; -381.000; -214.000
222.711;  -41.525; -414.000; -479.000
222.855;  -82.475; -643.000; -586.000
222.999;  -79.900; -642.000; -717.000
223.144;  -25.825; -195.000; -194.000
223.288;   62.350;  423.000;  251.000
223.432;   30.625;  184.000;  230.000
223.576;   25.550;  152.000;  -21.000
223.721;   37.350;  364.000;  273.000
223.865;  -64.825; -472.000; -475.000
224.009;  266.300; 1673.000; 1631.000
224.153;  -90.375; -660.000; -671.000
224.298;  -64.600; -531.000; -489.000
224.442;   -2.450;  -74.000;  -33.000
224.586;  -11.300; -169.000; -106.000
224.730; -100.300; -858.000; -670.000
224.875; -104.075; -739.000; -688.000
225.019;   10.800;  102.000;  188.000
225.163;   61.525;  208.000;  341.000
225.307;   25.525;   97.000;  -91.000
225.451;   48.575;  360.000;  481.000
225.595;   31.050;  264.000;  176.000
225.739;  -18.150; -170.000;  -94.000
225.884;   11.675;   86.000;    5.000
226.028;  -92.925; -760.000; -626.000
226.172;  -35.800; -260.000; -273.000
226.316; -112.550; -941.000; -902.000
226.460;  -65.625; -645.000; -493.000
226.604;  -56.625; -406.000; -400.000
226.748;  -91.725; -836.000; -733.000
226.892;  -41.100; -227.000; -181.000
227.036;  -41.450; -537.000; -447.000
227.180;  -73.000; -551.000; -375.000
227.324;  -62.275; -561.000; -580.000
227.468; -118.425; -819.000; -717.000
227.612;   12.700;  242.000;  -28.000
227.756; -108.825; -845.000; -698.000
227.900;   54.800;  342.000;  441.000
228.044;  -54.025; -509.000; -290.000
228.188;   59.100;  448.000;  568.000
228.332;  -86.225; -546.000; -472.000
228.476;  -26.250; -223.000; -149.000
228.620;  -30.375; -210.000; -150.000
228.764;   71.125;  431.000;  349.000
228.908;  -26.275; -155.000;   30.000
229.052;  -59.700; -615.000; -528.000
229.195;  -13.725; -172.000;   13.000
229.339;  -15.400; -235.000; -305.000
229.483;  -19.925;    5.000; -162.000
229.627;    8.600; -156.000;  139.000
229.771;  -58.725; -218.000; -294.000
229.915;    9.875;  230.000;   79.000
230.059;  -78.825; -648.000; -663.000
230.202;  -37.675; -370.000; -317.000
230.346;  -14.975; -107.000;  107.000
230.490;  -50.425; -489.000; -521.000
230.634; -103.775; -736.000; -553.000
230.777;   92.150;  478.000;  509.000
230.921;  -58.700; -450.000; -359.000
231.065;  -38.975; -246.000; -286.000
231.209;   24.075;  261.000;  265.000
231.352;   26.375;   54.000;   40.000
231.496;   19.875;  568.000;  188.000
231.640;  -75.525; -693.000; -621.000
231.783;   61.275;  546.000;  525.000
231.927;  -36.300; -294.000; -365.000
232.071; -119.375; -962.000; -736.000
232.214;  -97.475; -980.000; -764.000
232.358;  -92.550; -683.000; -599.000
232.502;    6.625;  -19.000;    7.000
232.645; -132.825;-1090.000; -927.000
232.789;  -16.375; -257.000; -218.000
232.933;  -31.675; -407.000; -224.000
233.076; -125.100;-1038.000; -897.000
233.220; -119.575; -752.000; -777.000
233.363;  -60.150; -669.000; -477.000
233.507;   53.850;  371.000;  129.000
233.650;  -89.350; -764.000; -834.000
233.794;   46.400;  438.000;  461.000
233.938;  -48.525; -530.000; -362.000
234.081;  -20.225;  -93.000;   31.000
234.225;  -65.000; -631.000; -539.000
234.368; -111.175; -773.000; -723.000
234.512;  -37.275; -385.000; -299.000
234.655;  -94.600; -582.000; -555.000
234.798;  -61.550; -493.000; -466.000
234.942; -144.350; -884.000;-1002.000
235.085;  -73.275; -651.000; -443.000
235.229;  -75.300; -405.000; -410.000
235.372;  -58.000; -247.000; -191.000
235.516;  -65.100; -397.000; -321.000
235.659;   26.650;   92.000;  121.000
235.802;  -12.450;  -38.000;  -22.000
235.946;   40.675;  335.000;  215.000
236.089;   22.650;  126.000;  250.000
236.233;   54.475;  275.000;  298.000
236.376;  -45.650; -235.000; -378.000
236.519;  -43.475; -297.000; -319.000
236.663;  -22.500; -215.000; -117.000
236.806; -131.175;-1029.000; -999.000
236.949;   31.000;  543.000;  431.000
237.092;   51.125;  412.000;  391.000
237.236;  -95.075; -589.000; -502.000
237.379;   78.450;  352.000;  428.000
237.522; -115.850; -879.000; -768.000
237.666;    3.600; -271.000;   18.000
237.809; -131.100; -851.000; -823.000
237.952;   47.525;  469.000;  271.000
238.095;  -63.025; -447.000; -442.000
238.238;   82.925;  688.000;  700.000
238.382;  -10.650;  166.000;  103.000
238.525;  -79.700; -598.000; -511.000
238.668; -142.075;-1060.000; -985.000
238.811;  -77.100; -638.000; -643.000
238.954;  -57.850; -483.000; -334.000
239.097;  105.075;  617.000;  664.000
239.241;   13.100;  394.000;  326.000
239.384;  -24.575; -254.000; -214.000
239.527;  -68.025; -424.000; -224.000
239.670; -137.625; -994.000;-1091.000
239.813; -119.575; -696.000; -658.000
239.956;   93.775;  579.000;  473.000
240.099; -115.825; -778.000; -725.000
240.242;   62.975;  428.000;  432.000
240.385;   52.550;  466.000;  450.000
240.528;  -57.200; -706.000; -473.000
240.671;   19.025;  189.000;  134.000
240.814;  -42.975; -441.000; -158.000
240.957; -102.650; -767.000; -578.000
241.100;  -89.475; -779.000; -755.000
241.243; -145.175;-1234.000; -893.000
241.386;  -60.425; -508.000; -379.000
241.529;  -92.125; -735.000; -547.000
241.672;  -49.325; -566.000; -495.000
241.815; -125.400; -832.000; -808.000
241.958;  -26.850; -125.000; -182.000
242.101;  -87.050; -545.000; -390.000
242.244;  -28.500; -270.000; -325.000
242.387;  -38.050; -304.000; -246.000
242.530;   79.875;  470.000;  134.000
242.673;  -39.900; -381.000; -309.000
242.815; -112.025; -925.000; -899.000
242.958;  -65.050; -482.000; -381.000
243.101;    7.900;  132.000;  187.000
243.244;  -80.100; -564.000; -521.000
243.387;  -52.850; -313.000; -316.000
243.530; -100.225; -657.000; -674.000
243.672;   13.125;   43.000;  -92.000
243.815;  -44.450; -355.000; -283.000
243.958;    9.075;   98.000;  -26.000
244.101;    3.500;   59.000;  -16.000
244.243;  -15.500;  -47.000;  101.000
244.386; -117.750; -761.000; -630.000
244.529;  -22.825; -132.000; -139.000
244.672; -157.500;-1154.000; -951.000
244.814;  -88.950; -621.000; -794.000
244.957;  -45.575; -380.000; -304.000
245.100;  -76.275; -489.000; -489.000
245.242;  -58.975; -387.000; -374.000
245.385;    5.350;  -59.000;  -39.000
245.528; -128.650; -871.000; -705.000
245.670;  102.925;  612.000;  634.000
245.813;  -80.250; -599.000; -547.000
245.956;  -30.975; -324.000; -275.000
246.098;  -73.675; -508.000; -650.000
246.241;   10.500;  194.000;   48.000
246.383;  -22.475; -119.000;  -73.000
246.526;  -63.950; -454.000; -525.000
246.669; -114.375; -889.000; -780.000
246.811;   24.575;  172.000;   -1.000
246.954;  -70.950; -512.000; -426.000
247.096;  -14.600;  -84.000;   -6.000
247.239;  -78.625; -482.000; -445.000
247.381;  -67.250; -647.000; -488.000
247.524;   86.625;  645.000;  679.000
247.666;    1.625;   58.000;   11.000
247.809; -114.850; -887.000; -691.000
247.951;  -15.200;  -75.000;  138.000
248.094;   29.200;  432.000;  308.000
248.236; -154.875;-1262.000;-1238.000
248.378;    0.025; -356.000;  -81.000
248.521;  -17.075; -334.000; -337.000
248.663;  -53.375; -236.000; -267.000
248.806;  -19.300; -300.000; -266.000
248.948;  -95.500; -886.000; -763.000
249.090;  -50.325; -428.000; -398.000
249.233;  -58.550; -344.000; -381.000
249.375;  -55.350; -474.000; -451.000
249.518;  -36.850;  -83.000; -133.000
249.660;    0.375; -103.000;    3.000
249.802; -169.175;-1303.000;-1189.000
249.945;  -78.250; -612.000; -540.000
250.087; -122.650; -834.000; -768.000
250.229;  -49.375; -362.000; -480.000
250.371;  -82.800; -494.000; -439.000
250.514;  -53.750; -310.000; -244.000
250.656;   -4.925;   69.000;  102.000
250.798; -110.500; -849.000; -800.000
250.940;  -74.600; -322.000; -322.000
251.083;  -22.325; -335.000; -111.000
251.225;   77.875;  338.000;  310.000
251.367;  -32.575; -274.000; -373.000
251.509;  -37.625; -265.000; -210.000
251.651;  -97.475; -731.000; -671.000
251.794;   67.950;  538.000;  632.000
251.936;  -95.125; -821.000; -747.000
252.078;  -93.775; -540.000; -461.000
252.220;  -63.300; -645.000; -477.000
252.362;   79.400;  344.000;  462.000
252.504;  -69.150; -677.000; -584.000
252.646; -106.925; -875.000; -722.000
252.788;    1.075;   14.000; -128.000
252.931;  -43.875; -257.000; -253.000
253.073;  -37.300; -376.000; -317.000
253.215;   -5.525;  141.000;  122.000
253.357;   -6.450;   82.000; -153.000
253.499;  -67.500; -374.000; -234.000
253.641;  -96.300; -749.000; -594.000
253.783; -108.800; -609.000; -527.000
253.925;  -86.250; -586.000; -591.000
254.067; -119.150; -744.000; -667.000
254.209;  -33.900; -391.000; -259.000
254.351; -143.175; -865.000; -883.000
254.493;  -66.925; -441.000; -417.000
254.635; -131.950; -936.000; -818.000
254.777;  -88.900; -752.000; -687.000
254.918;  -69.875; -512.000; -430.000
255.060;  -57.350; -551.000; -395.000
255.202;  -69.200; -473.000; -261.000
255.344;  -85.450; -658.000; -455.000
255.486;  -80.075; -471.000; -406.000
255.628; -109.425; -780.000; -781.000
255.770;  -85.475; -676.000; -536.000
255.912;  -65.975; -559.000; -468.000
256.053;  -87.775; -730.000; -508.000
256.195;  158.175; 1008.000;  903.000
256.337; -106.650; -861.000; -595.000
256.479;   75.225;  532.000;  416.000
256.621;  -50.400; -394.000; -212.000
256.762;  -93.725; -789.000; -742.000
256.904;   46.850;  485.000;  487.000
257.046;  -46.950; -381.000; -271.000
257.188;  -43.800; -351.000; -264.000
257.329;  -76.350; -525.000; -464.000
257.471; -119.575; -939.000; -807.000
257.613;  -66.025; -584.000; -498.000
257.755; -147.600;-1073.000; -982.000
257.896;   38.225;  286.000;  392.000
258.038;  -80.600; -403.000; -352.000
258.180;  -38.050; -354.000; -279.000
258.321;  -87.300; -581.000; -457.000
258.463;   -6.275;  -71.000;  133.000
258.605;  -96.525; -562.000; -570.000
258.746;  -98.475; -886.000; -772.000
258.888; -161.375;-1026.000;-1020.000
259.029;   26.600;  121.000;   -8.000
259.171;  -90.450; -614.000; -550.000
259.313;   20.200;  -49.000;  -47.000
259.454;  -85.725; -536.000; -414.000
259.596;  -49.350; -483.000; -390.000
259.737;  -93.125; -590.000; -474.000
259.879;   37.875;  217.000;  311.000
260.020;   91.875;  901.000;  636.000
260.162;  -34.900; -146.000; -253.000
260.303; -131.525; -768.000; -687.000
260.445;  -75.350; -609.000; -613.000
260.586;   27.225;  392.000;  157.000
260.728;  -39.275; -360.000; -248.000
260.869; -114.850; -350.000; -343.000
261.011;   94.800;  706.000;  537.000
261.152;  -66.275; -479.000; -319.000
261.293;  -67.050; -576.000; -595.000
261.435;  -35.875; -219.000; -184.000
261.576;  -44.475; -455.000; -325.000
261.718;   57.425;  420.000;  470.000
261.859; -120.725; -940.000; -949.000
262.000; -132.150; -951.000;-1016.000
262.142;   -9.175;  -52.000;  -60.000
262.283; -116.275; -808.000; -691.000
262.424;  -91.875; -666.000; -625.000
262.566; -161.225;-1161.000; -983.000
262.707; -116.350; -840.000; -830.000
262.848; -124.425; -769.000; -726.000
262.990;  -38.050; -362.000; -345.000
263.131;   83.975;  650.000;  681.000
263.272;    6.275;  -61.000;  -41.000
263.413;  -89.900; -589.000; -561.000
263.555;  -66.125; -669.000; -143.000
263.696;  -83.975; -550.000; -641.000
263.837;  -59.300; -449.000; -551.000
263.978;    0.600;   -5.000;  -77.000
264.119;  -51.225; -283.000; -264.000
264.261; -121.350; -847.000; -630.000
264.402;    7.850;   33.000;   40.000
264.543;  -80.675; -509.000; -524.000
264.684;   -0.850;   61.000;  -50.000
264.825;  -76.625; -816.000; -538.000
264.966;   -1.500;  -84.000;  -67.000
265.107; -123.275; -646.000; -670.000
265.248; -114.550; -825.000; -812.000
265.390;   -7.800;  152.000;   -9.000
265.531;  -27.325; -238.000; -107.000
265.672;  -89.250; -557.000; -630.000
265.813;   74.225;  563.000;  439.000
265.954; -145.100; -959.000; -940.000
266.095;  -15.375; -372.000; -322.000
266.236;  -99.975; -686.000; -548.000
266.377;  -43.500; -243.000; -297.000
266.518;  -65.950; -619.000; -547.000
266.659;   17.250;  170.000;  268.000
266.800;   16.400;   83.000;   85.000
266.941;  -69.700; -487.000; -478.000
267.082;   21.425;  354.000;   99.000
267.223;  -46.100; -344.000; -273.000
267.364; -120.550; -892.000; -686.000
267.504;  -17.750;    3.000;  135.000
267.645;   -5.800;  160.000;   67.000
267.786;  -24.400; -147.000;  -86.000
267.927;  -86.425; -473.000; -379.000
268.068;   -1.675; -186.000;  -61.000
268.209;  -39.725; -175.000; -413.000
268.350;  -51.975; -388.000; -532.000
268.490;  -86.400; -648.000; -521.000
268.631;   46.650;  127.000;  225.000
268.772; -111.000; -874.000; -647.000
268.913;  -41.775; -328.000; -476.000
269.054;  -23.425; -117.000;   12.000
269.194;  -49.675; -418.000; -402.000
269.335; -151.050;-1137.000;-1074.000
269.476;  -25.900;   33.000;  -35.000
269.617;  -50.825; -347.000; -392.000
269.757;  -87.625; -713.000; -646.000
269.898; -119.150; -856.000; -613.000
270.039;  -50.900; -415.000; -405.000
270.180; -144.425; -952.000; -816.000
270.320;  -11.800; -190.000; -250.000
270.461;  -51.000; -277.000; -249.000
270.602;  -21.875; -186.000; -156.000
270.742; -140.800; -868.000; -943.000
270.883;  -54.400; -442.000; -390.000
271.023;  -66.775; -358.000; -357.000
271.164;  -72.775; -607.000; -528.000
271.305; -108.275; -666.000; -654.000
271.445;  -88.150; -722.000; -683.000
271.586;  -73.425; -462.000; -283.000
271.726;  -47.725; -397.000; -322.000
271.867;  -70.625; -594.000; -534.000
272.008;  173.875; -473.000; -285.000
272.148;  109.675;  462.000;  468.000
272.289;   13.475; -113.000; -181.000
272.429;   19.025;   19.000;  185.000
272.570;  -88.825; -633.000; -737.000
272.710; -109.650; -825.000; -775.000
272.851;  -25.225;  113.000; -130.000
272.991; -170.450;-1173.000;-1077.000
273.131;  -57.675; -419.000; -459.000
273.272; -108.250; -683.000; -723.000
273.412;    5.550; -143.000;  -31.000
273.553;  -62.100; -488.000; -507.000
273.693;  152.000;  913.000;  858.000
273.834; -107.900; -894.000; -692.000
273.974;  -74.600; -664.000; -615.000
274.114;  -93.550; -772.000; -560.000
274.255;   73.675;  414.000;  373.000
274.395;   -7.475; -180.000; -125.000
274.535;   38.175;  199.000;  350.000
274.676;   17.250;  225.000;   94.000
274.816;   -3.350;  110.000;   34.000
274.956;  -87.425; -624.000; -690.000
275.097;  -72.100;-1014.000; -922.000
275.237; -114.550; -913.000; -803.000
275.377;  -97.100; -778.000; -689.000
275.517; -155.200; -878.000; -937.000
275.658;  -59.950; -590.000; -555.000
275.798;  -82.375; -606.000; -413.000
275.938;   16.800;  215.000;  323.000
276.078; -111.125; -626.000; -395.000
276.218;    8.925;   99.000;  104.000
276.359; -132.525;-1026.000;-1024.000
276.499;  -59.650; -605.000; -446.000
276.639;  -22.475; -305.000; -151.000
276.779;  -47.800; -475.000; -357.000
276.919; -111.250; -783.000; -624.000
277.059;  -19.500; -261.000; -212.000
277.199;  -45.850; -357.000; -259.000
277.340;   37.925;  287.000;  175.000
277.480; -118.775; -840.000; -693.000
277.620;   19.825;  192.000;   16.000
277.760; -213.725;-1533.000;-1294.000
277.900;   18.275;  113.000;   33.000
278.040;   11.750;  137.000;  159.000
278.180;   37.850;  270.000;  170.000
278.320;    7.300;   21.000;   56.000
278.460;  -53.925; -443.000; -469.000
278.600;  -99.450; -708.000; -598.000
278.740;   32.400;  448.000;  224.000
278.880;  -86.175; -768.000; -791.000
279.020;  -13.200; -194.000; -144.000
279.160;  -85.675; -672.000; -595.000
279.300; -122.150; -926.000; -873.000
279.440; -100.475; -709.000; -622.000
279.579;  -25.475;-1014.000; -929.000
279.719;  -59.800; -410.000; -394.000
279.859;   63.575;   -4.000;   41.000
279.999;   22.050; -208.000;  101.000
280.139;  -36.525; -435.000; -387.000
280.279;  -77.600; -708.000; -745.000
280.419;  -12.525; -229.000; -147.000
280.559;  -37.375; -259.000; -180.000
280.698;  -97.675; -790.000; -639.000
280.838; -102.200; -778.000; -800.000
280.978;  -93.100; -846.000; -790.000
281.118; -116.175; -811.000; -704.000
281.257;    1.575;   24.000;    6.000
281.397; -121.725;-1094.000; -960.000
281.537;  -88.475; -599.000; -712.000
281.677;  -29.450; -150.000; -101.000
281.816;  -81.850; -700.000; -630.000
281.956;  -48.900; -193.000; -257.000
282.096;  -62.900; -539.000; -396.000
282.235; -103.825; -672.000; -638.000
282.375;  -21.575; -243.000;  -98.000
282.515; -122.175; -715.000; -707.000
282.654;   28.550;   29.000;  106.000
282.794;   26.850;  388.000;  244.000
282.934;  -51.700; -530.000; -491.000
283.073; -134.425;-1030.000; -857.000
283.213;  -66.025; -460.000; -467.000
283.353;  -40.175; -408.000; -349.000
283.492;  -32.975; -264.000; -296.000
283.632;  -51.200; -254.000; -168.000
283.771; -100.575; -859.000; -730.000
283.911;  -56.475; -369.000; -260.000
284.050; -102.275; -794.000; -748.000
284.190; -163.400;-1229.000;-1096.000
284.329; -147.575;-1055.000; -964.000
284.469;  -68.175; -516.000; -591.000
284.608;  -64.000; -559.000; -598.000
284.748;  -88.175; -614.000; -570.000
284.887;    0.175;  -87.000;  -20.000
285.027; -146.825; -844.000; -892.000
285.166;  -23.500; -192.000; -249.000
285.306;  -12.825; -116.000;  -33.000
285.445;  -41.025; -229.000; -343.000
285.584; -102.575; -630.000; -494.000
285.724;  -47.525; -282.000; -322.000
285.863; -120.525; -857.000; -507.000
286.002;  -44.275; -366.000; -276.000
286.142; -120.525; -715.000; -622.000
286.281;  -60.575; -525.000; -493.000
286.420;  -74.825; -554.000; -417.000
286.560;  102.000;  653.000;  623.000
286.699; -151.825; -958.000; -912.000
286.838;  -79.250; -590.000; -591.000
286.978;  -96.900; -533.000; -537.000
287.117; -133.475;-1085.000; -950.000
287.256;  -32.975; -228.000; -211.000
287.395;  -44.400; -197.000; -378.000
287.535;  -49.300; -370.000; -298.000
287.674;  -87.250; -509.000; -484.000
287.813;   67.350;  661.000;  533.000
287.952; -135.700;-1010.000; -871.000
288.091; -154.475;-1049.000; -915.000
288.231;   15.575;   13.000;   15.000
288.370; -185.550;-1217.000;-1200.000
288.509;  -85.850; -728.000; -645.000
288.648;  -90.725; -770.000; -548.000
288.787;  -29.400; -243.000;  -87.000
288.926;  -77.100; -454.000; -475.000
289.065;  114.800;  859.000;  672.000
289.204;  -56.450; -377.000; -217.000
289.344;  -93.600; -791.000; -690.000
289.483;   19.450;  416.000;  304.000
289.622;  -29.825; -291.000; -149.000
289.761;  -13.600; -309.000; -166.000
289.900; -115.225; -785.000; -626.000
290.039;  -23.500;  -12.000;  -95.000
290.178;  -39.650; -274.000; -180.000
290.317;  -79.275; -618.000; -479.000
290.456;  -61.900; -463.000; -451.000
290.595; -157.425; -961.000; -833.000
290.734; -150.975; -904.000; -891.000
290.873;  -77.000; -456.000; -420.000
291.011; -109.600; -833.000; -843.000
291.150; -121.725; -770.000; -682.000
291.289;  -31.475; -343.000; -110.000
291.428;  -94.600; -599.000; -480.000
291.567;  -73.275; -370.000; -442.000
291.706;  -16.800;  109.000;  154.000
291.845;  -78.700; -597.000; -505.000
291.984; -165.550;-1234.000;-1061.000
292.122;   80.775;  602.000;  582.000
292.261;   31.800;  620.000;  463.000
292.400;   11.000; -144.000;  211.000
292.539; -126.300; -959.000; -813.000
292.678;  -41.475; -325.000; -300.000
292.816; -156.900;-1136.000; -965.000
292.955;  -81.325; -844.000; -684.000
293.094;  -23.475; -173.000; -337.000
293.233;  -54.800; -556.000; -400.000
293.371;  -47.050; -225.000;  -84.000
293.510; -105.550; -866.000; -780.000
293.649; -136.975; -959.000; -924.000
293.787;  -66.750;-1083.000;-1012.000
293.926;  -17.850; -113.000;  -32.000
294.065;  -57.975; -379.000; -290.000
294.203;   25.400;  298.000;  406.000
294.342;   27.625;   74.000;  156.000
294.481; 7058.150;51180.000; -836.000
294.619;  -22.150; -425.000; -582.000
294.758; -147.725;-1230.000;-1137.000
294.896;   61.300; -125.000;    5.000
295.035; -123.375;-1040.000;-1006.000
295.174; -121.825;-1082.000; -954.000
295.312;  -52.500; -323.000; -203.000
295.451;  -17.050; -307.000; -428.000
295.589;  -60.875; -389.000; -518.000
295.728;   16.475; -292.000; -165.000
295.866;    5.300;  -36.000;  -51.000
296.005;  -53.425; -584.000; -341.000
296.143;  -81.100; -558.000; -596.000
296.282; -110.500; -957.000; -881.000
296.420;  -99.875; -657.000; -557.000
296.559;  -79.375; -892.000; -633.000
296.697;    5.875; -847.000; -665.000
296.835;   29.300;-1141.000;-1002.000
296.974;   31.900;  -23.000;   39.000
297.112;    3.900; -443.000; -504.000
297.251;  -87.400; -815.000; -755.000
297.389;   72.125; -576.000; -438.000
297.527;   14.575; -145.000;  -83.000
297.666;  -56.100; -486.000; -438.000
297.804;  -43.400; -404.000; -264.000
297.942;   -5.750; -136.000; -161.000
298.081;  -26.875; -183.000;   63.000
298.219;   58.250;  -17.000;  -19.000
298.357;   39.750; -144.000;  -71.000
298.495;   18.275; -810.000; -812.000
298.634;   69.350;  245.000;  219.000
298.772;   38.225; -220.000; -338.000
298.910;  -48.800; -309.000; -182.000
299.048;  -22.100; -130.000; -153.000
299.187;  -37.275; -350.000; -250.000
299.325;   27.500;   52.000;  122.000
299.463;   26.050; -389.000; -299.000
299.601;   87.025; -327.000; -271.000
299.739; -120.725; -908.000; -883.000
299.877;  -79.475; -791.000; -703.000
300.016;  -66.475;-1095.000; -935.000
300.154;  132.575;  -19.000; -161.000
300.292;   29.750; -428.000; -348.000
300.430;   25.475; -408.000; -291.000
300.568; -125.425; -940.000; -874.000
300.706;  -48.700; -366.000; -469.000
300.844;  -94.375;-1108.000; -979.000
300.982;  122.125;  246.000;  282.000
301.120; -113.325; -965.000; -866.000
301.258;  -56.550; -812.000; -705.000
301.396;   27.450;  104.000;  -41.000
301.534;   52.650; -218.000; -293.000
301.672;  -22.250; -664.000; -521.000
301.810;    7.975; -613.000; -545.000
301.948;  100.775;   53.000;  149.000
302.086;  544.150; -250.000;  -32.000
302.224;  826.400; -610.000; -585.000
302.362;   28.700; -558.000; -622.000
302.500;  -41.700; -923.000; -893.000
302.638;   93.400;  128.000;  245.000
302.776;  -13.475; -352.000; -408.000
302.913;   56.925;  447.000;  236.000
303.051;  -23.350;  -86.000;  -23.000
303.189;   47.300;   90.000;  118.000
303.327;  -48.675; -341.000; -256.000
303.465;  -66.550; -832.000; -588.000
303.603; -102.750; -805.000; -604.000
303.740;   92.400;  417.000;  241.000
303.878;    7.850; -800.000; -759.000
304.016;  -92.500; -915.000; -790.000
304.154; -129.875;-1123.000;-1152.000
304.291;  -50.275; -505.000; -554.000
304.429;   15.275;  102.000;   74.000
304.567; -128.375; -908.000; -893.000
304.705;  -47.900; -408.000; -515.000
304.842;   83.975; -616.000; -540.000
304.980;   50.275;  215.000;   35.000
305.118;   14.900; -367.000; -365.000
305.255;  -96.525; -945.000; -927.000
305.393;   57.225;  178.000;  239.000
305.531; -118.950;-1173.000; -956.000
305.668;  -79.950; -663.000; -582.000
305.806;   82.525; -358.000; -439.000
305.943;   82.125; -629.000; -637.000
306.081;   41.500; -378.000; -267.000
306.219; -101.425; -863.000; -748.000
306.356;   -4.700;  158.000;   27.000
306.494;  117.000;  981.000;  761.000
306.631;    0.000;  -11.000;  -55.000
306.769;   18.225; -613.000; -485.000
306.906;  -13.500; -284.000; -258.000
307.044;  -67.550; -473.000; -488.000
307.181;  -69.575; -410.000; -332.000
307.319;    7.025;  112.000;   87.000
307.456; -181.975;-1191.000;-1153.000
307.594; -103.200; -980.000; -727.000
307.731;  -15.425; -371.000; -164.000
307.868;   -2.500;  -15.000;   20.000
308.006; -145.200; -961.000; -847.000
308.143;  -60.300; -618.000; -330.000
308.281;   92.600;  -37.000; -254.000
308.418;  -26.400; -748.000; -640.000
308.555;  -77.300; -400.000; -250.000
308.693;  -82.425; -577.000; -573.000
308.830; -121.000; -712.000; -657.000
308.967;  -12.975; -215.000;  -95.000
309.105;  -52.300; -507.000; -396.000
309.242;    7.700; -468.000; -367.000
309.379;  190.375; -577.000; -655.000
309.517;  -89.300; -936.000; -948.000
309.654; -109.475; -910.000; -734.000
309.791;  -81.625; -662.000; -580.000
309.928; -124.500; -977.000; -914.000
310.065;  168.950;  819.000;  697.000
310.203;  -33.900; -825.000; -850.000
310.340;  -15.725; -465.000; -321.000
310.477;  -88.675; -412.000; -516.000
310.614;  -74.125; -383.000; -473.000
310.751;  -94.900; -427.000; -518.000
310.889;  -24.425;    1.000;   11.000
311.026; -151.450;-1161.000; -939.000
311.163;  -52.575; -386.000; -380.000
311.300;  -73.400; -512.000; -479.000
311.437;  -76.550; -658.000; -619.000
311.574; -158.050;-1226.000; -985.000
311.711;  -61.475; -595.000; -433.000
311.848;  -47.550; -380.000; -388.000
311.985;    9.925;  270.000;   93.000
312.122; -134.075; -932.000; -762.000
312.259; -121.400; -941.000; -994.000
312.396;  -88.500; -508.000; -551.000
312.533;  -95.500; -812.000; -790.000
312.670; -138.725;-1070.000; -898.000
312.807;  -44.750; -352.000; -367.000
312.944;  -87.850; -513.000; -611.000
313.081;  -18.725; -150.000; -415.000
313.218; -111.575;-1111.000; -867.000
313.355;    6.325; -531.000; -449.000
313.492;  -13.525; -455.000; -292.000
313.629;  138.875;  815.000;  735.000
313.766; -167.675;-1176.000;-1008.000
313.902;   -5.850; -186.000;   21.000
314.039;  -60.575; -372.000; -289.000
314.176;   23.625;  286.000;  192.000
314.313;  -91.625; -569.000; -473.000
314.450;  -75.550; -788.000; -684.000
314.587;  -62.375; -468.000; -480.000
314.723;   12.875;  -78.000;  130.000
314.860;   18.000;  318.000;  332.000
314.997;   41.175;  223.000;  142.000
315.134;  -51.400; -385.000; -368.000
315.270;  -34.400; -480.000; -496.000
315.407; -124.625;-1094.000; -967.000
315.544;  -60.925; -657.000; -538.000
315.681;  -75.325; -681.000; -565.000
315.817;   20.100; -133.000; -176.000
315.954;    0.300; -613.000; -392.000
316.091; -126.200;-1045.000;-1023.000
316.227;  -26.325;  -71.000; -179.000
316.364;    8.625;   23.000;    6.000
316.500;  -48.250; -113.000; -300.000
316.637;  -46.150; -181.000; -302.000
316.774;  -93.050; -625.000; -358.000
316.910;  -90.475; -598.000; -629.000
317.047;  -65.250; -487.000; -351.000
317.183;  -41.950; -435.000; -566.000
317.320;  -20.175; -367.000; -321.000
317.456;  -74.525; -733.000; -805.000
317.593;  -90.450; -598.000; -641.000
317.729;   -3.100;  168.000;  -67.000
317.866; -202.800;-1434.000;-1285.000
318.002; -102.550; -708.000; -948.000
318.139;  -99.075; -883.000; -867.000
318.275; -103.450;-1003.000; -738.000
318.412;  -70.250; -517.000; -336.000
318.548;  -57.175; -751.000; -720.000
318.685; -102.275; -985.000; -888.000
318.821;  -96.825; -762.000; -735.000
318.957;  -16.775;   34.000;  -23.000
319.094;   30.325;  297.000;  154.000
319.230;  -82.325; -756.000; -742.000
319.367;  102.175; -471.000; -520.000
319.503;   31.250; -538.000; -436.000
319.639;  -94.125; -877.000; -793.000
319.775;  -85.525; -750.000; -685.000
319.912;  -60.675; -424.000; -519.000
320.048;  -94.200;-1184.000;-1184.000
320.184;   86.650;   59.000;   70.000
320.321;  -64.500; -497.000; -467.000
320.457;   58.225;  475.000;  662.000
320.593;  -60.250; -375.000; -382.000
320.729; -110.675; -732.000; -734.000
320.866;  -74.625; -577.000; -635.000
321.002;  -68.350; -759.000; -809.000
321.138;  -22.875; -135.000; -211.000
321.274;   72.750; -148.000; -115.000
321.410;  -37.500; -585.000; -353.000
321.546;  -40.100;-1011.000; -911.000
321.683;   36.075;  400.000;  185.000
321.819;   -6.025;  -48.000; -117.000
321.955; -121.350; -743.000; -722.000
322.091;  -41.900; -585.000; -540.000
322.227;  -21.200; -382.000; -202.000
322.363;  -29.800; -320.000; -215.000
322.499;  -39.325; -343.000; -331.000
322.635;  147.000;  636.000;  443.000
322.771;   13.050; -139.000;   12.000
322.907;   80.275;  129.000;  327.000
323.043;  -33.975; -115.000; -206.000
323.179;  -35.225; -394.000; -363.000
323.315;   -8.075; -401.000; -371.000
323.451;   67.425; -328.000; -236.000
323.587;   55.400;  -60.000;  -77.000
323.723;  -11.125; -682.000; -601.000
323.859;  -31.750; -258.000;  -76.000
323.995;  -25.750; -467.000; -409.000
324.131; -128.350; -967.000; -892.000
324.267;  -39.325; -254.000; -276.000
324.402; -137.550; -960.000; -983.000
324.538;  -18.775; -279.000; -104.000
324.674;    7.925;  164.000;   77.000
324.810;  106.525;  226.000;  308.000
324.946;  -12.600; -810.000; -658.000
325.082;  -69.625; -568.000; -475.000
325.217;  -14.525;  -62.000;   16.000
325.353;  -92.400; -764.000; -659.000
325.489;  -91.875; -540.000; -506.000
325.625;  -75.600; -579.000; -525.000
325.760;   62.300;  517.000;  376.000
325.896;  -36.050; -515.000; -702.000
326.032;  -71.125; -403.000; -352.000
326.168;  -60.975; -462.000; -369.000
326.303;  -69.800; -352.000; -461.000
326.439;  -17.250; -336.000; -276.000
326.575;  -18.025; -190.000;  -29.000
326.710;  -16.150; -156.000;  -30.000
326.846;  -12.975;  146.000;  103.000
326.982; -106.600; -530.000; -548.000
327.117;  -79.525; -481.000; -442.000
327.253;  -88.575; -745.000; -742.000
327.388; -188.300;-1137.000;-1153.000
327.524;  -75.225; -811.000; -578.000
327.659;  -33.700;  -58.000;  -22.000
327.795;   -9.475;   69.000;   45.000
327.931;  -87.425; -723.000; -499.000
328.066;  -28.550; -417.000; -276.000
328.202;  -45.100;   12.000; -129.000
328.337;   95.400;  957.000;  713.000
328.473;   38.000;  -12.000;  -74.000
328.608;  -24.775; -256.000; -267.000
328.743;  -90.100; -799.000; -664.000
328.879;   23.075;  214.000;  114.000
329.014;  -51.975; -102.000; -122.000
329.150;  -78.925; -358.000; -483.000
329.285;  -70.200; -465.000; -466.000
329.421;  -37.775; -548.000; -246.000
329.556;  -15.250;  -36.000;   85.000
329.691;  -98.300; -633.000; -615.000
329.827;  -79.575; -626.000; -480.000
329.962;  -45.775;  131.000; -301.000
330.097;  -89.575; -673.000; -585.000
330.233;  -56.000; -410.000; -223.000
330.368; -131.800; -839.000; -628.000
330.503;   -2.450;    3.000;   98.000
330.638;   -8.425;  -93.000; -125.000
330.774;  -60.475; -609.000; -530.000
330.909;  -45.850; -434.000; -244.000
331.044; -101.100; -714.000; -708.000
331.179; -180.425;-1217.000;-1109.000
331.315;    8.775;   77.000;   20.000
331.450;    4.200;  157.000;  285.000
331.585;  -99.575; -805.000; -706.000
331.720;  -88.000; -510.000; -460.000
331.855;  -13.475;  -35.000; -102.000
331.990;  261.050;   62.000;  138.000
332.126;  146.725; -110.000;   71.000
332.261;  -18.375; -379.000; -265.000
332.396;   -5.150; -135.000; -242.000
332.531;  -98.625;-1074.000;-1031.000
332.666;   56.000; -519.000; -363.000
332.801; -109.950; -726.000; -807.000
332.936;  -23.225; -192.000; -122.000
333.071; -130.975; -870.000; -817.000
333.206;   13.875;  307.000;  379.000
333.341;   19.625;  344.000;  418.000
333.476;  -89.925; -627.000; -623.000
333.611;  -38.675; -251.000; -173.000
333.746;  -46.975; -381.000; -464.000
333.881; -116.350; -973.000; -935.000
334.016; -114.825; -936.000; -917.000
334.151; -126.700; -746.000; -702.000
334.286;   10.175;  152.000;  186.000
334.421;  -23.750; -125.000; -178.000
334.556;  -86.900; -611.000; -567.000
334.690;  -92.575; -631.000; -577.000
334.825;   51.775;  381.000;   83.000
334.960;  -76.875; -285.000; -413.000
335.095;   -1.375;  135.000;  -91.000
335.230; -100.200; -722.000; -738.000
335.365; -148.100;-1084.000; -990.000
335.499; -143.550;-1108.000;-1037.000
335.634;   15.875;    9.000;  534.000
335.769; -106.750; -755.000; -720.000
335.904;  -74.050; -603.000; -561.000
336.038;  -74.875; -735.000; -657.000
336.173; -116.075;-1206.000;-1194.000
336.308;   -1.950; -116.000; -189.000
336.443;  -11.200; -544.000; -634.000
336.577;  -87.500; -936.000; -787.000
336.712;   73.600;   -4.000;  -12.000
336.847;  -52.825; -724.000; -607.000
336.981;   60.900; -272.000; -208.000
337.116;  252.075;  615.000;  501.000
337.250;  114.325; -434.000; -421.000
337.385;  261.675; -297.000; -208.000
337.520;  109.200; -632.000; -603.000
337.654;  -53.750; -215.000; -126.000
337.789; -125.975; -989.000; -933.000
337.923;  -43.775; -104.000; -205.000
338.058;  -87.500; -673.000; -738.000
338.192;  -53.025; -611.000; -488.000
338.327;    1.225;  -18.000; -155.000
338.461;  -63.775; -299.000; -469.000
338.596;  -90.425; -780.000; -638.000
338.730; -115.300; -767.000; -803.000
338.865;  104.700;  -46.000; -140.000
338.999;  -51.350; -846.000; -702.000
339.134;  -24.925; -634.000; -536.000
339.268;   -2.600; -741.000; -603.000
339.403;  378.625; -740.000; -775.000
339.537;  131.775; -894.000; -820.000
339.671; -110.850; -829.000; -813.000
339.806;  -74.725; -556.000; -512.000
339.940;   15.700; -261.000; -235.000
340.074;  -99.425; -685.000; -510.000
340.209;  -58.400; -351.000; -230.000
340.343; -107.625; -517.000; -573.000
340.477;  159.025;  998.000; 1036.000
340.612;  -58.775;-1033.000; -900.000
340.746;  141.400; -199.000; -243.000
340.880;  -81.475; -924.000; -785.000
341.014;  -10.600;  -45.000; -154.000
341.149; -113.700; -756.000; -718.000
341.283; -117.500; -839.000; -754.000
341.417; -113.575;-1124.000; -938.000
341.551;   87.200; -768.000; -708.000
341.685;  -50.575; -633.000; -611.000
341.820;  -58.575; -562.000; -493.000
341.954;  -63.725; -218.000; -349.000
342.088; -155.125;-1102.000;-1019.000
342.222;   51.300;  565.000;  618.000
342.356;  -60.125; -395.000; -335.000
342.490; -108.800; -880.000; -841.000
342.624;  -39.850; -339.000; -242.000
342.758;  -23.650; -364.000; -312.000
342.892;  -79.475; -710.000; -585.000
343.026;  -34.225;  -58.000; -116.000
343.160;  -49.225; -426.000; -376.000
343.294;  -88.775; -474.000; -337.000
343.428;  -32.400; -488.000; -448.000
343.562;  -11.825; -172.000;  -23.000
343.696;  -27.325; -385.000; -314.000
343.830;  -26.750; -362.000; -356.000
343.964;    0.875; -231.000; -168.000
344.098;  796.050;  199.000;   70.000
344.232;  666.725; -266.000; -127.000
344.366;   77.175; -567.000; -453.000
344.500;   14.350; -665.000; -744.000
344.634;   15.175; -324.000; -164.000
344.768;  -36.650; -531.000; -341.000
344.902;   12.275;  278.000;  256.000
345.035;  -80.450; -556.000; -496.000
345.169; -137.925; -933.000; -656.000
345.303;  -66.200; -308.000; -482.000
345.437; -108.525; -826.000; -717.000
345.571;  -69.700; -675.000; -594.000
345.704;  -64.525; -309.000; -532.000
345.838;  -21.325; -331.000; -284.000
345.972;  -45.525; -543.000; -495.000
346.106;  171.075; -179.000; -190.000
346.239;  382.500; -312.000; -243.000
346.373;   -0.425; -343.000; -302.000
346.507; -156.600; -950.000; -962.000
346.640;  124.300;  -30.000;   13.000
346.774;  -58.700; -650.000; -797.000
346.908;  -21.350; -138.000;  -11.000
347.041;  -96.675; -646.000; -593.000
347.175;    8.825;  259.000;   27.000
347.309;  -97.800; -698.000; -628.000
347.442; -111.000; -883.000; -732.000
347.576;  257.400;  670.000;  668.000
347.709;  152.575; -123.000;  -52.000
347.843; -110.525; -933.000; -825.000
347.976;   34.175;  235.000;  294.000
348.110; -185.875;-1268.000;-1186.000
348.243;  -94.825; -679.000; -772.000
348.377;    2.975;  -26.000;   60.000
348.510;   53.525;  403.000;  540.000
348.644;  -42.575;  -37.000; -159.000
348.777;    1.300;  180.000;  191.000
348.911;  -62.525; -142.000; -112.000
349.044;  149.850;  471.000;  448.000
349.178;  112.475;-1069.000;-1006.000
349.311;  116.950;  141.000;  255.000
349.444;   -0.775; -927.000; -813.000
349.578;  -14.000; -347.000; -200.000
349.711; -131.675; -959.000; -862.000
349.845;    3.200; -661.000; -591.000
349.978; -165.225;-1224.000;-1137.000
350.111;  -82.925; -546.000; -612.000
350.244;  -86.300; -596.000; -700.000
350.378;   -7.425; -392.000; -393.000
350.511;  -86.075; -393.000; -426.000
350.644; -106.175; -808.000; -806.000
350.778;   -3.525;  168.000;  104.000
350.911;    4.775;  134.000;  140.000
351.044;  -94.700; -685.000; -615.000
351.177;  -28.700; -321.000; -281.000
351.310;  -32.550;    3.000; -131.000
351.444;  -89.200; -888.000; -788.000
351.577;  104.700;  140.000;   90.000
351.710;   96.875;  593.000;  417.000
351.843;  -39.050; -165.000;  -77.000
351.976;   -2.925;  149.000;  -79.000
352.109;  -96.875; -621.000; -612.000
352.242;  -34.925; -464.000; -419.000
352.376;  -88.225; -580.000; -636.000
352.509;  138.025; -437.000; -356.000
352.642;  -15.675; -654.000; -604.000
352.775;   49.625; -141.000;  -98.000
352.908; -130.275; -933.000; -904.000
353.041; -111.800; -814.000; -824.000
353.174;  -66.200; -551.000; -424.000
353.307;  -85.650; -753.000; -764.000
353.440;   65.300;  541.000;  453.000
353.573; -116.125; -957.000;-1008.000
353.706;  -72.700; -384.000; -558.000
353.839;  -32.150; -264.000; -220.000
353.971; -100.375; -657.000; -512.000
354.104;  -92.275; -896.000; -835.000
354.237;  -50.475; -627.000; -662.000
354.370; -100.250; -846.000; -879.000
354.503; -186.850;-1231.000;-1308.000
354.636;  -47.225; -529.000; -348.000
354.769; -141.750; -937.000; -860.000
354.902;   -1.875; -230.000; -139.000
355.034;  -31.350; -164.000; -220.000
355.167;  -14.875; -262.000; -162.000
355.300;  -97.750;-1061.000; -880.000
355.433;  997.750;  -71.000;  -14.000
355.565; 1553.150; -402.000; -384.000
355.698;  392.300; -356.000; -296.000
355.831;  -19.950; -882.000; -801.000
355.964;   58.275; -285.000; -170.000
356.096; -112.525; -856.000; -843.000
356.229;    3.825; -523.000; -530.000
356.362;  310.600; -373.000; -266.000
356.494;  631.125; -229.000; -162.000
356.627;  431.650;  269.000;  377.000
356.760;  666.950;  120.000;   53.000
356.892;  947.600; -286.000; -601.000
357.025;  581.225;  403.000;  389.000
357.157;  501.175; -167.000; -179.000
357.290;  738.925; -856.000; -713.000
357.423;  198.475; -667.000; -556.000
357.555;  111.550; -217.000; -228.000
357.688;  102.500; -483.000; -364.000
357.820;  426.375; -870.000; -877.000
357.953; 3456.475; -563.000; -589.000
358.085;  706.675; -632.000; -612.000
358.218;  912.825;-1131.000; -932.000
358.350;  169.400;  -58.000;  312.000
358.483; -140.075;-1300.000;-1187.000
358.615;  -38.450;-1182.000;-1078.000
358.747;  -93.700;-1187.000;-1058.000
358.880;   -8.425; -810.000; -744.000
359.012;   -6.025; -376.000; -202.000
359.145;  -47.825; -480.000; -511.000
359.277;   41.525; -962.000; -913.000
359.409; 2820.250;  536.000;  231.000
359.542;  719.275; -738.000; -688.000
359.674;   59.350;   46.000;   13.000
359.806;  -61.075; -565.000; -438.000
359.939;  -41.925; -617.000; -516.000
360.071;  -10.975; -583.000; -579.000
360.203;  -33.775; -411.000; -364.000
360.335;   38.400;  164.000;  -16.000
360.468;  179.625; -249.000; -307.000
360.600; 2315.925; -547.000; -454.000
360.732; 2987.150; -546.000; -423.000
360.864;  399.125;-1216.000;-1044.000
360.996;  204.775; -516.000; -554.000
361.129;   21.600; -389.000; -598.000
361.261;   23.625;  110.000; -113.000
361.393;  -50.100; -252.000; -214.000
361.525;   27.475;   94.000;  244.000
361.657;  -63.950; -821.000; -703.000
361.789;   -1.200; -139.000; -155.000
361.921;  168.925; -642.000; -593.000
362.053;  217.025;  524.000;  541.000
362.185;   29.600;  288.000;   72.000
362.318;  -82.975; -709.000; -705.000
362.450;   69.600;  294.000;  444.000
362.582;   46.225; -913.000; -870.000
362.714;  -60.525; -353.000; -332.000
362.846;  -84.400; -606.000; -490.000
362.978; -152.975; -941.000; -811.000
363.109;   25.500; -161.000; -260.000
363.241;  341.725; -739.000; -749.000
363.373;  434.750; -649.000; -564.000
363.505;  692.150; -186.000;  -91.000
363.637;  150.550; -787.000; -601.000
363.769; -134.400;-1067.000;-1080.000
363.901;  -75.550; -596.000; -654.000
364.033; -136.450;-1103.000;-1062.000
364.165;   -6.400; -283.000; -283.000
364.296;   68.875; -316.000; -177.000
364.428;   80.675;-1344.000;-1220.000
364.560;  -55.825; -679.000; -661.000
364.692;  -82.000; -738.000; -835.000
364.824;  190.800; -588.000; -456.000
364.955;  424.625; -402.000; -564.000
365.087; 1006.500;-1097.000; -852.000
365.219;   35.850; -686.000; -816.000
365.351;  -70.975; -526.000; -572.000
365.482;   51.275;  300.000;  240.000
365.614;  -51.050; -402.000; -314.000
365.746;  -95.300; -729.000; -752.000
365.877; -106.050; -706.000; -672.000
366.009;  275.625;  -35.000;  -62.000
366.141;  -90.325;-1249.000;-1134.000
366.272; -104.125; -803.000; -719.000
366.404; -119.650;-1005.000; -874.000
366.535;  -21.575; -139.000;  -12.000
366.667; -103.250; -644.000; -649.000
366.799;   45.150;  353.000;  203.000
366.930; -133.950; -862.000; -996.000
367.062;  114.250; -639.000; -613.000
367.193;  163.325; -872.000; -842.000
367.325;  -65.425; -580.000; -684.000
367.456;   30.525; -246.000;   31.000
367.588;  153.475; -371.000; -318.000
367.719;   19.375;  -44.000;  -45.000
367.851;  -27.800; -222.000; -241.000
367.982;  -66.950; -875.000; -732.000
368.113;   72.200; -475.000; -358.000
368.245; -138.800; -960.000; -841.000
368.376;  -25.075; -254.000; -302.000
368.508;  -40.450; -188.000; -263.000
368.639; -141.075;-1166.000;-1034.000
368.770;  -39.375; -670.000; -589.000
368.902;  -79.175; -836.000; -926.000
369.033; -116.325; -906.000; -855.000
369.164;  -39.025; -720.000; -653.000
369.296; -121.125; -452.000; -601.000
369.427;  -24.800; -209.000; -144.000
369.558;  -67.175; -593.000; -377.000
369.689;  -90.350; -721.000; -569.000
369.821; -135.475; -951.000; -845.000
369.952;  -28.350;   42.000; -108.000
370.083;  -46.975; -229.000; -108.000
370.214;  -92.075; -735.000; -650.000
370.345;   -8.975;   65.000;   81.000
370.477; -101.000; -810.000; -790.000
370.608;  178.500; -328.000; -264.000
370.739;  -71.575;-1233.000;-1292.000
370.870;  -73.475;-1102.000; -923.000
371.001;   63.525; -378.000; -467.000
371.132;  -93.900; -754.000; -735.000
371.263;  -25.525;  -42.000; -148.000
371.394; -138.200; -841.000; -748.000
371.525;   28.525;  345.000;  225.000
371.657;  -89.700; -808.000; -670.000
371.788;   69.125;  103.000;  199.000
371.919;  136.050; -384.000; -304.000
372.050; 3266.200;  -91.000; -156.000
372.181;  948.400; -188.000; -294.000
372.311;  315.025;   42.000; -127.000
372.442;    3.700; -457.000; -451.000
372.573;  -33.675; -444.000; -340.000
372.704; -149.675;-1008.000; -980.000
372.835;   68.075; -228.000; -289.000
372.966;  -70.875; -646.000; -554.000
373.097;  -80.200; -575.000; -711.000
373.228;  -65.775; -717.000; -542.000
373.359;   93.575; -824.000; -536.000
373.490;  768.775; -881.000; -727.000
373.620;  989.200;-1001.000; -803.000
373.751; 1531.425; -332.000; -396.000
373.882;  657.975; -663.000; -733.000
374.013;   33.225; -449.000; -262.000
374.143;  -52.800; -581.000; -659.000
374.274; -115.425; -987.000; -908.000
374.405;  150.125; -388.000; -276.000
374.536;  363.375; -526.000; -387.000
374.666;  926.375; -759.000; -807.000
374.797;  168.425; -817.000; -868.000
374.928;  710.850; -710.000; -560.000
375.058;  765.725; -535.000; -500.000
375.189;   59.825;  -59.000;  -93.000
375.320; -124.000; -928.000;-1034.000
375.450;  -42.725; -625.000; -616.000
375.581;  -61.000; -526.000; -436.000
375.712;  -34.325; -574.000; -250.000
375.842;  247.950; -438.000; -415.000
375.973;  167.525; -554.000; -513.000
376.103;  -67.200; -665.000; -648.000
376.234;  -89.850; -531.000; -552.000
376.364;  -66.125; -944.000; -867.000
376.495;  287.425;  925.000;  529.000
376.625;  -42.400; -472.000; -485.000
376.756;   36.550; -709.000; -678.000
376.886; -108.625;-1178.000;-1026.000
377.017;   52.825;-1048.000;-1061.000
377.147;  354.400; -786.000; -782.000
377.278;   53.550;  174.000;  228.000
377.408; -129.525; -801.000; -815.000
377.538; -100.450; -707.000; -693.000
377.669;  -91.950; -537.000; -613.000
377.799;  -99.575; -645.000; -635.000
377.929;  -76.950; -610.000; -428.000
378.060; -129.700; -781.000; -847.000
378.190;  -64.250; -726.000; -531.000
378.320;  -60.850; -401.000; -406.000
378.451;  -18.925; -131.000;  -22.000
378.581;   -9.625;  -67.000; -110.000
378.711;  122.625; 1035.000;  866.000
378.841;  -33.525; -533.000; -675.000
378.972;  -92.175; -871.000; -751.000
379.102;  -20.450; -652.000; -579.000
379.232;  -36.950; -126.000;  -73.000
379.362; -123.525;-1001.000; -885.000
379.492;  -17.300; -373.000; -424.000
379.623;   89.175;    0.000;  111.000
379.753; -106.850;-1107.000; -974.000
379.883;  170.925;   59.000;  156.000
380.013;  -24.850;-1081.000;-1017.000
380.143; -110.125;-1097.000;-1056.000
380.273; -118.150; -985.000; -861.000
380.403;   -2.550; -344.000; -257.000
380.533;  -44.150; -651.000; -664.000
380.663;   59.600;  173.000;  128.000
380.793; -119.900;-1027.000;-1074.000
380.923;  -35.400; -103.000;  -34.000
381.053; -114.025; -613.000; -623.000
381.183;  -26.600; -106.000; -248.000
381.313;    7.875; -656.000; -470.000
381.443;   20.675; -692.000; -473.000
381.573;  132.375; -402.000; -409.000
381.703;  189.950;-1249.000;-1095.000
381.833; -144.500;-1454.000;-1336.000
381.963;  111.175; -134.000;  -87.000
382.093; 1262.175; -925.000; -909.000
382.223;  359.000; -713.000; -602.000
382.353;  -24.650; -801.000; -608.000
382.482;  307.575;-1091.000; -964.000
382.612;  669.125; -872.000; -644.000
382.742;  365.525; -695.000; -622.000
382.872;  204.025; -565.000; -551.000
383.002;   54.075;  347.000; -132.000
383.131;  -33.875; -226.000; -160.000
383.261;  -50.100; -706.000; -768.000
383.391;  269.325; -552.000; -377.000
383.521; 3377.100;  451.000;  263.000
383.650;  798.050; -947.000; -904.000
383.780;   -1.050; -783.000; -656.000
383.910;  110.925;  880.000;  802.000
384.039;   14.600; -794.000; -656.000
384.169;  139.425;-1205.000;-1017.000
384.299;  -26.550; -650.000; -662.000
384.428; -108.525; -764.000; -680.000
384.558;  -59.025; -308.000; -275.000
384.687;  -71.775; -414.000; -334.000
384.817;   -3.350;   75.000;   -2.000
384.947;    5.275; -234.000; -141.000
385.076;  258.850;  982.000;  912.000
385.206;   87.025;  369.000;  480.000
385.335;  -48.300; -549.000; -417.000
385.465;  -92.825; -655.000; -663.000
385.594;  106.925;  -53.000;  -44.000
385.724;  323.450; -868.000; -838.000
385.853;   85.000; -296.000; -270.000
385.982; 1188.800; -743.000; -787.000
386.112; 1887.475;-1052.000; -871.000
386.241;   95.700; -307.000; -312.000
386.371;    5.875; -174.000;  -87.000
386.500;  -46.950; -825.000; -789.000
386.629;   10.325; -874.000; -817.000
386.759;   48.275;  -43.000;   68.000
386.888;  -16.550; -170.000; -250.000
387.017;  -90.475; -648.000; -620.000
387.147;  -96.125; -771.000; -798.000
387.276;  -20.375; -410.000; -397.000
387.405;   -4.350; -398.000; -342.000
387.535;  -62.225; -452.000; -361.000
387.664;  -69.025; -692.000; -620.000
387.793;   38.600; -198.000; -113.000
387.922;  430.225;  255.000;  200.000
388.052;  -19.125; -576.000; -423.000
388.181;  -13.625; -342.000; -472.000
388.310;  -49.575; -889.000; -710.000
388.439;  -69.850; -749.000; -742.000
388.568;  153.200;  365.000;  244.000
388.697;  904.775; -756.000; -653.000
388.826;  158.675; -768.000; -666.000
388.956;   32.875; -285.000; -307.000
389.085;  -34.800; -347.000; -287.000
389.214; -125.925; -842.000; -872.000
389.343;  -90.375; -645.000; -413.000
389.472;  409.525;  126.000;  149.000
389.601;  504.300;   91.000;    0.000
389.730;   -2.400; -568.000; -687.000
389.859;   43.950;  226.000;   46.000
389.988;  149.650; -423.000; -408.000
390.117;  104.175; -168.000; -146.000
390.246;  -15.325; -331.000; -320.000
390.375;   37.600; -673.000; -626.000
390.504;  -63.950; -703.000; -621.000
390.633; -125.300; -672.000; -726.000
390.761;  -79.500; -732.000; -645.000
390.890;    9.850;   -4.000; -130.000
391.019;  -32.825; -421.000; -441.000
391.148; -130.550; -826.000; -855.000
391.277;  -77.525; -576.000; -493.000
391.406; -100.275; -821.000; -805.000
391.534;   12.200;  574.000; -301.000
391.663;  -90.425; -583.000; -645.000
391.792;  -74.425; -673.000; -701.000
391.921;   54.275;   -3.000;   15.000
392.050;  131.700; -287.000; -228.000
392.178;  -76.350;-1206.000;-1061.000
392.307;   96.275; -758.000; -712.000
392.436;   38.075; -427.000; -641.000
392.564;   13.275;  166.000;   -6.000
392.693; -112.525; -860.000; -682.000
392.822;  168.900; -529.000; -534.000
392.950;   38.225; -880.000; -714.000
393.079;  274.625; -188.000; -328.000
393.208;   -4.400; -488.000; -511.000
393.336;  -18.675; -170.000; -145.000
393.465;  -45.925; -317.000; -199.000
393.593;   -2.200;   62.000;   79.000
393.722; -163.550;-1121.000; -916.000
393.850;  -36.775; -188.000;  -61.000
393.979; -157.350; -926.000; -805.000
394.107;  -72.425; -517.000; -537.000
394.236;  -46.450; -570.000; -507.000
394.364;  177.950;  383.000;  206.000
394.493;  204.650; -911.000; -767.000
394.621;  -22.000; -955.000; -916.000
394.750;  743.125; -873.000; -923.000
394.878; 3065.375; -247.000; -149.000
395.007; 4099.875; -721.000; -807.000
395.135;  308.250; -790.000; -721.000
395.263;  -90.425;-1038.000;-1040.000
395.392;   -1.875;  -25.000; -107.000
395.520; -147.300; -818.000; -679.000
395.648;  -98.975; -865.000; -915.000
395.777;  -25.000; -366.000; -405.000
395.905;  -56.250; -449.000; -564.000
396.033;    3.700;  217.000;  172.000
396.162;  389.500; -399.000; -453.000
396.290;  335.700;  -17.000;   -2.000
396.418;   65.300; -555.000; -514.000
396.546; -100.925; -571.000; -466.000
396.674; -104.400; -850.000; -878.000
396.803;  -15.650;  -72.000;  -23.000
396.931;   64.925; -179.000; -199.000
397.059;   -2.075;-1026.000; -989.000
397.187; -119.750;-1026.000; -975.000
397.315; -142.875; -884.000; -649.000
397.443; -108.000; -592.000; -443.000
397.572; -100.775; -578.000; -424.000
397.700;  -23.725; -607.000; -614.000
397.828;  -18.825;  120.000;  -90.000
397.956;  -57.275; -508.000; -478.000
398.084;  -70.200; -767.000; -626.000
398.212;   25.950;  137.000;  124.000
398.340;  -18.850;  -56.000;  159.000
398.468;    8.600; -390.000; -169.000
398.596; -144.225; -993.000; -953.000
398.724; -131.650; -762.000; -767.000
398.852; -166.325;-1024.000; -976.000
398.980;  -78.100; -560.000; -560.000
399.108;  -68.800; -982.000; -735.000
399.236;   23.800;   13.000;    8.000
399.363;   -2.475;  222.000;  196.000
399.491;  -72.000; -404.000; -398.000
399.619; -124.800; -829.000; -800.000
399.747; -119.500; -859.000; -771.000
399.875;   57.875;  220.000;  234.000
400.003;  -65.600; -359.000; -284.000
400.130; -103.050; -421.000; -341.000
400.258;  -30.275;  -83.000;   38.000
400.386;  -74.725; -352.000; -168.000
400.514;  -55.200; -526.000; -587.000
400.641; -112.775; -928.000; -802.000
400.769; -153.650; -979.000; -888.000
400.897; -130.725; -838.000; -793.000
401.025;  -30.175; -166.000; -152.000
401.152;  -11.325;  220.000;   38.000
401.280;  -92.250; -430.000; -429.000
401.408; -127.325; -712.000; -576.000
401.535; -117.000; -735.000; -758.000
401.663; -202.825;-1134.000;-1054.000
401.790;  -88.425; -514.000; -525.000
401.918;   43.800;  436.000;  405.000
402.046;  -16.175;  134.000;  122.000
402.173;  -49.725;  -18.000;    7.000
402.301;  -81.000; -519.000; -397.000
402.428;   30.850;  528.000;  383.000
402.556; -144.325;-1188.000; -913.000
402.683;  -45.825;  -20.000;   -1.000
402.811;  -28.300;  -37.000; -206.000
402.938;   -9.400;   20.000;   27.000
403.066;  145.150; -574.000; -558.000
403.193;  270.775;  299.000;  239.000
403.321;  223.750; -396.000; -574.000
403.448;  260.050;   83.000;   27.000
403.575;  117.425;  -90.000;  -46.000
403.703; -120.825; -732.000; -557.000
403.830;  -71.450; -531.000; -496.000
403.957; -152.575;-1117.000;-1023.000
404.085;    3.875;  -61.000; -172.000
404.212;   87.600;  -50.000;   63.000
404.339;  275.325; -566.000; -306.000
404.467; 6055.625; -612.000; -524.000
404.594; 3766.400; -287.000; -227.000
404.721;  799.300; -869.000; -764.000
404.848;   68.850; -113.000; -202.000
404.976; -118.150; -856.000; -783.000
405.103;    0.250;  -14.000;  -82.000
405.230;   -3.425;  190.000;  226.000
405.357;   15.400;  117.000;   44.000
405.484;  266.875;  -49.000;    5.000
405.612;   41.500; -548.000; -563.000
405.739;  -63.625; -488.000; -243.000
405.866;   70.925;  669.000;  385.000
405.993;  -62.125; -398.000; -102.000
406.120; -136.650; -801.000; -887.000
406.247;  -65.150; -323.000; -342.000
406.374;  373.300;  540.000;  629.000
406.501;   52.725; -632.000; -702.000
406.628;  -85.650; -621.000; -589.000
406.755; -117.300; -803.000; -620.000
406.882;  -55.350; -228.000; -277.000
407.009; -124.650; -719.000; -628.000
407.136;   31.150; -480.000; -401.000
407.263;   62.250; -939.000; -829.000
407.390;  -86.300; -692.000; -614.000
407.517; -196.775;-1139.000;-1187.000
407.644;  -74.975; -332.000; -256.000
407.771;  -87.050; -249.000; -287.000
407.898;    9.300;  168.000;  328.000
408.025;  -74.475; -421.000; -313.000
408.151;  -18.000;   82.000;  153.000
408.278;  -89.075; -267.000; -216.000
408.405; -129.025; -931.000; -899.000
408.532;  -87.575; -549.000; -542.000
408.659; -116.200; -677.000; -648.000
408.785; -212.675;-1298.000;-1170.000
408.912;  -66.125; -412.000; -296.000
409.039; -114.525; -610.000; -686.000
409.166; -110.675; -591.000; -555.000
409.292; -106.625; -571.000; -534.000
409.419; -110.850; -665.000; -649.000
409.546;  -93.150; -431.000; -192.000
409.672; -115.425; -713.000; -545.000
409.799;  -40.000;  -36.000;   34.000
409.926;  -42.250; -180.000; -179.000
410.052; -181.350;-1127.000;-1091.000
410.179;  -68.550; -368.000; -392.000
410.305;  -94.075; -375.000; -493.000
410.432;  -53.625; -220.000; -333.000
410.558; -101.850; -305.000; -380.000
410.685; -114.075; -688.000; -431.000
410.812; -115.150; -409.000; -588.000
410.938; -133.800; -964.000; -808.000
411.065; -106.275; -671.000; -645.000
411.191;  -18.700; -189.000; -174.000
411.317; -128.975; -823.000; -742.000
411.444;  -60.375; -317.000; -246.000
411.570;  -83.400; -339.000; -294.000
411.697; -120.150; -758.000; -752.000
411.823; -189.975; -989.000; -999.000
411.949;  -42.750;  -56.000;   17.000
412.076; -131.600; -539.000; -519.000
412.202; -120.075; -758.000; -757.000
412.329; -143.575; -798.000; -752.000
412.455; -114.300; -821.000; -657.000
412.581;  -21.450;  -15.000;  172.000
412.707;  -78.100; -540.000; -457.000
412.834;    6.125;  156.000;  219.000
412.960;  -87.050; -785.000; -784.000
413.086; -127.075; -743.000; -701.000
413.212;  123.275;  604.000;  578.000
413.339;  -89.400; -685.000; -701.000
413.465;  -18.150; -364.000; -310.000
413.591; -109.925; -757.000; -474.000
413.717;  -55.550; -358.000; -366.000
413.843; -141.050; -839.000; -861.000
413.969;  -63.600;  -47.000; -292.000
414.096; -110.825; -679.000; -679.000
414.222;  -12.500;  -33.000;   85.000
414.348;  -52.650; -652.000; -385.000
414.474;   59.775;   38.000;  -52.000
414.600;  -24.350; -126.000; -144.000
414.726;  -24.200;  -96.000;  -55.000
414.852;  -61.350; -365.000; -342.000
414.978;   22.850;  104.000;  -18.000
415.104;   21.875;   38.000;   80.000
415.230;   19.650; -329.000; -330.000
415.356;   31.475; -409.000; -514.000
415.482;  191.025;   13.000;  -35.000
415.608;  273.725; -247.000; -323.000
415.734;  986.200;   67.000;   38.000
415.860;20669.225; -875.000; -767.000
415.986;14512.200; -685.000; -607.000
416.111; 1208.450; -798.000; -652.000
416.237;  243.425; -424.000; -571.000
416.363; 1211.200; -765.000; -733.000
416.489; 4335.250; -324.000; -251.000
416.615;  453.400; -707.000; -742.000
416.741;  -30.775; -677.000; -784.000
416.866;  -90.475; -673.000; -736.000
416.992; -117.850; -801.000; -818.000
417.118;  -48.350;  -41.000;  -80.000
417.244;  -61.900; -798.000; -531.000
417.369;  -77.700; -801.000; -612.000
417.495;  -22.650; -325.000; -254.000
417.621; -100.175;-1015.000; -803.000
417.746;    4.400; -579.000; -572.000
417.872;   26.875; -254.000; -144.000
417.998;   61.100; -515.000; -530.000
418.123; 1122.775;-1073.000; -845.000
418.249; 5577.400; -512.000; -601.000
418.374;  751.325; -916.000; -824.000
418.500;  101.225; -383.000; -482.000
418.626;  114.100;   70.000;  -59.000
418.751;  130.625; -549.000; -448.000
418.877;  169.800; -637.000; -643.000
419.002; 1918.500; -688.000; -560.000
419.128;13084.350; -930.000; -721.000
419.253; 3080.850; -967.000; -837.000
419.379;  407.725; -391.000; -338.000
419.504;  401.575;  325.000;  415.000
419.629;  535.525; -393.000; -212.000
419.755; 3837.200; -317.000; -254.000
419.880;22380.225;  -98.000;   67.000
420.006;12008.725; -280.000; -221.000
420.131;30307.100; -662.000; -775.000
420.256; 4247.500; -315.000; -316.000
420.382;  532.275; -665.000; -687.000
420.507;   58.550; -649.000; -778.000
420.632;   81.425; -337.000; -339.000
420.758;  188.725; -251.000; -425.000
420.883;  -84.325; -876.000; -672.000
421.008;  -93.375; -775.000; -619.000
421.133;  -95.825; -509.000; -467.000
421.259;  -57.400; -325.000; -259.000
421.384; -124.100; -834.000; -693.000
421.509;  -61.900;-1052.000; -862.000
421.634;  926.975; -936.000; -820.000
421.759;  373.650; -359.000; -327.000
421.885;  -80.225; -717.000; -656.000
422.010;  -82.150; -673.000; -542.000
422.135; -154.325; -695.000; -727.000
422.260;   36.575;  340.000;  280.000
422.385;  -60.275;   12.000;  -98.000
422.510;   24.125;  151.000;  -26.000
422.635;    9.350;  -87.000;  -43.000
422.760;   75.950; -766.000; -791.000
422.885;   51.800;  -57.000;  -80.000
423.010;  -23.025; -112.000; -169.000
423.135; -105.650; -481.000; -561.000
423.260;  -23.450; -150.000; -245.000
423.385;   53.175;  476.000;  222.000
423.510;   19.100;   71.000;  -22.000
423.635;   71.075;  133.000;   45.000
423.760;   58.500;  383.000;  328.000
423.885;   40.050;  336.000;  391.000
424.010;   12.525;  -68.000;  -13.000
424.135;  -37.575;    5.000;  -33.000
424.259;  -89.225; -654.000; -457.000
424.384;  -81.025; -279.000; -272.000
424.509;  -21.350; -260.000; -186.000
424.634;  -93.775; -761.000; -623.000
424.759;  -40.525; -688.000; -544.000
424.883;  -30.275; -506.000; -527.000
425.008;  162.150; -502.000; -410.000
425.133; 2104.275; -679.000; -653.000
425.258;  957.550; -517.000; -381.000
425.382;  953.825; -867.000; -774.000
425.507; 2359.525; -487.000; -543.000
425.632;  392.525; -802.000; -663.000
425.756;  486.875; -256.000; -146.000
425.881; 7178.900; -831.000; -857.000
426.006;18958.500; -604.000; -355.000
426.130; 2840.300; -696.000; -508.000
426.255;  347.200; -611.000; -491.000
426.379;  155.125; -189.000; -577.000
426.504;  397.925;  660.000;  544.000
426.629; 4156.000; -519.000; -466.000
426.753; 2792.050;   64.000;  -46.000
426.878;  307.125; -252.000; -288.000
427.002;  193.625; -651.000; -668.000
427.127; 1664.800;  -35.000; -158.000
427.251;11919.225;  372.000;  401.000
427.375; 3251.550; -191.000; -173.000
427.500; 2132.250; -616.000; -610.000
427.624;  681.775; -234.000; -400.000
427.749;   73.425; -216.000; -225.000
427.873;  -66.400; -499.000; -412.000
427.997;  -46.925; -222.000; -230.000
428.122;   55.975;  795.000;  703.000
428.246;   55.650;  433.000;  434.000
428.371; -140.275; -869.000; -773.000
428.495; -109.650; -624.000; -646.000
428.619;  -58.825; -186.000; -117.000
428.743;   18.225;   65.000;  132.000
428.868;   -1.625; -732.000; -643.000
428.992; 1237.450; -219.000; -326.000
429.116;  479.275; -329.000; -357.000
429.240;  228.925;  419.000;  426.000
429.365;  -42.300; -454.000; -574.000
429.489;  -52.125; -638.000; -647.000
429.613;   22.850; -236.000; -177.000
429.737;   17.725; -563.000; -432.000
429.861;  261.500; -247.000; -133.000
429.985; 5832.850; -425.000; -305.000
430.109; 6251.225; -770.000; -908.000
430.234;  713.050;   76.000;  -50.000
430.358;   58.000; -250.000; -160.000
430.482;  -76.225; -672.000; -564.000
430.606;  -76.750; -655.000; -375.000
430.730;  -18.600; -437.000; -388.000
430.854;   65.000; -909.000; -835.000
430.978;  -80.200; -795.000; -764.000
431.102;  -96.050; -499.000; -422.000
431.226; -123.225; -874.000; -815.000
431.350;   13.475;  345.000;  422.000
431.474;  -77.050; -661.000; -373.000
431.597; -155.075;-1060.000; -848.000
431.721;  -70.975; -276.000; -267.000
431.845; -129.700; -704.000; -472.000
431.969;  -82.200; -304.000; -349.000
432.093; -106.800; -395.000; -317.000
432.217;  -12.900;   32.000;   82.000
432.341; -101.225; -523.000; -518.000
432.464;    3.025;   96.000;   40.000
432.588;  146.525; -401.000; -329.000
432.712;   79.550;  -52.000;  -52.000
432.836;   32.050;  213.000;  263.000
432.959;  -36.500; -372.000; -311.000
433.083;   75.150;   11.000;    2.000
433.207;  392.550;  285.000;  930.000
433.330; 5377.700; -391.000; -200.000
433.454; 6440.150; -654.000; -638.000
433.578; 3742.675;  583.000;  278.000
433.701;  659.900; -623.000; -675.000
433.825;   93.750; -292.000; -299.000
433.949;  138.175;   28.000;  -72.000
434.072;   16.475; -410.000; -323.000
434.196;  -15.300; -309.000; -117.000
434.319; 3774.350;25482.000;25124.000
434.443;  734.200; -656.000; -603.000
434.566; 2749.250;  281.000;   62.000
434.690;  460.075; -637.000; -383.000
434.813;   39.775; -251.000; -173.000
434.937;  -78.350; -569.000; -696.000
435.060;  -59.625; -423.000; -332.000
435.184;  210.925; -492.000; -217.000
435.307;  103.375;  159.000;  102.000
435.431;  -13.925;  -40.000;   24.000
435.554;  -90.725; -399.000; -240.000
435.677;  -81.225; -350.000; -258.000
435.801;  -43.950;  -25.000;   49.000
435.924;  -24.700;    1.000;  -67.000
436.048; -140.050;-1019.000; -732.000
436.171;  -72.650; -240.000;  -66.000
436.294;  -29.225; -248.000; -229.000
436.417;  100.250; -963.000; -849.000
436.541;  -84.550; -814.000; -840.000
436.664;  -61.350; -242.000; -316.000
436.787;  -46.475;   13.000;  113.000
436.910; -113.150; -792.000; -422.000
437.034;   -9.975;  142.000;  143.000
437.157;   22.375;  -11.000;    0.000
437.280;  -71.650; -392.000; -292.000
437.403; -119.225; -982.000; -869.000
437.526;  460.325; -903.000; -865.000
437.649; 1742.700; -505.000; -332.000
437.772;  213.750; -692.000; -540.000
437.896;  114.000;  700.000;  544.000
438.019; -118.425; -758.000; -503.000
438.142;  -79.700; -596.000; -506.000
438.265;  -36.500; -639.000; -670.000
438.388;  426.200; -520.000; -410.000
438.511;   34.075; -597.000; -394.000
438.634;  -48.775; -247.000; -125.000
438.757; -141.175; -693.000; -619.000
438.880;  -36.200;  -34.000;  -57.000
439.003;  -93.875; -417.000; -437.000
439.126;  -72.000; -287.000; -167.000
439.248;  -65.100;  -98.000; -139.000
439.371;  -51.925;    9.000;  -53.000
439.494;   28.775;  510.000;  439.000
439.617;  -52.700;   65.000;  -88.000
439.740; -186.225; -968.000; -816.000
439.863; -144.850; -755.000; -595.000
439.986; -133.300; -476.000; -431.000
440.108;  -47.300; -161.000; -112.000
440.231; -168.950; -950.000; -836.000
440.354;  -43.400;  -64.000; -150.000
440.477;   -3.925; -566.000; -542.000
440.599;  -16.875; -200.000; -225.000
440.722; -131.625; -709.000; -586.000
440.845;   61.650;  751.000;  928.000
440.968; -111.050; -415.000; -311.000
441.090;  -64.325; -199.000;  -33.000
441.213; -174.975;-1021.000; -825.000
441.336;  -56.925; -159.000;   -5.000
441.458;  -92.625; -549.000; -396.000
441.581; -100.875; -628.000; -629.000
441.703;  -88.100; -152.000;   13.000
441.826; -120.275; -557.000; -400.000
441.948;  -55.550;   56.000;   51.000
442.071;   24.850;  555.000;  424.000
442.193; -122.675; -531.000; -485.000
442.316;   -1.300;  152.000;   97.000
442.438;   22.300; -233.000;  -10.000
442.561;   62.625;  272.000;  262.000
442.683;  377.850; -809.000; -522.000
442.806;  915.325;   -8.000;   74.000
442.928;  -12.200; -859.000; -604.000
443.051;  -80.050; -577.000; -373.000
443.173;  -99.225; -341.000; -339.000
443.295;  -94.825; -263.000; -371.000
443.418;  -74.025; -321.000;  -29.000
443.540;  -17.175; -106.000;   -4.000
443.662; -123.875; -563.000; -465.000
443.785;  -14.050;  335.000;  199.000
443.907; -107.125; -362.000; -208.000
444.029; -135.275; -767.000; -494.000
444.152; -150.050; -644.000; -554.000
444.274;  -32.200;  -18.000;  -24.000
444.396; -114.075; -461.000; -221.000
444.518; -127.750; -691.000; -454.000
444.640; -127.175; -268.000; -111.000
444.763;   -9.800;  388.000;  249.000
444.885; -121.100; -432.000; -392.000
445.007;  -41.600;   35.000;   86.000
445.129; -126.850; -610.000; -515.000
445.251; -112.200; -372.000; -439.000
445.373; -140.350; -537.000; -386.000
445.495;   -2.825;  242.000;  350.000
445.617;   46.225;  853.000;  753.000
445.739;  -86.800; -215.000;  -97.000
445.861;  -47.050; -245.000; -112.000
445.984;  -44.325; -267.000; -101.000
446.105;  157.975; -418.000; -251.000
446.227;  503.050; -176.000;  -19.000
446.349;  -28.700; -358.000; -249.000
446.471; -107.675; -615.000; -448.000
446.593;  -66.850; -316.000;   19.000
446.715;  -11.450;  -67.000;   41.000
446.837;   53.000;  697.000;  832.000
446.959; -104.075; -457.000; -478.000
447.081; -146.700; -628.000; -518.000
447.203;   56.700;  862.000;  834.000
447.325;  -88.625; -270.000;   42.000
447.446;   -4.375;  286.000;  530.000
447.568; -169.050; -921.000; -803.000
447.690;  -84.025; -236.000; -245.000
447.812; -162.100; -798.000; -519.000
447.933;  -26.950;  155.000;  127.000
448.055;  -63.950; -306.000; -261.000
448.177;  116.725;   31.000;   79.000
448.299;   28.725; -935.000; -727.000
448.420;   16.450;  -25.000;  159.000
448.542;  -58.725;   -3.000;   33.000
448.664;  -36.100;  109.000;  322.000
448.785;  -55.825;  265.000;   83.000
448.907;  -85.100; -614.000; -353.000
449.028;  -63.025; -771.000; -471.000
449.150;   49.200;  492.000;  589.000
449.272; -201.350;-1044.000; -913.000
449.393;   19.200;  612.000;  694.000
449.515; -148.775; -634.000; -581.000
449.636;  -62.075; -264.000; -155.000
449.758;   57.600;  763.000;  622.000
449.879; -105.900; -498.000; -396.000
450.001;  -84.900; -149.000;  -49.000
450.122;  -43.575;  -95.000;  162.000
450.244;  -28.650;   37.000;  364.000
450.365;  -88.350; -495.000; -301.000
450.486;  -49.225;   80.000;  268.000
450.608;   11.600;  393.000;  326.000
450.729;   56.175;  578.000;  645.000
450.850;   13.325; -574.000; -466.000
450.972;  823.375; -552.000; -389.000
451.093; 5249.400;  190.000;  588.000
451.214; 2222.100; -516.000; -337.000
451.336;  358.325;  773.000;  579.000
451.457;   46.975;  264.000;  393.000
451.578;  -40.825; -118.000;  -74.000
451.699; -126.675; -546.000; -540.000
451.821;  -62.125; -284.000;  -50.000
451.942;  -10.600;  278.000;  285.000
452.063;   19.675;  228.000;  419.000
452.184;  574.675;  -54.000;  -49.000
452.305; 1117.875;  103.000;  170.000
452.427;  127.550; -549.000; -301.000
452.548;  -20.875;   23.000;   79.000
452.669;  -74.275; -257.000;  -89.000
452.790;  -45.775;    3.000;  -18.000
452.911;  -17.100;  195.000;  259.000
453.032;  -65.250; -289.000;  -60.000
453.153;  -65.350;  -29.000;   81.000
453.274;   55.550;  737.000;  868.000
453.395;  -59.275;  -51.000;  175.000
453.516;  129.050; 1317.000; 1388.000
453.637;  -84.975; -205.000; -150.000
453.758;  -58.325;   15.000;   69.000
453.879; -133.075; -462.000; -250.000
454.000;   86.450; 1086.000;  948.000
454.121; -124.275; -554.000; -326.000
454.242; -114.975; -599.000; -383.000
454.362;  -58.700;  -99.000;  114.000
454.483;  -49.000; -309.000; -229.000
454.604;   46.575;  512.000;  580.000
454.725; -125.850; -627.000; -555.000
454.846; -127.100; -474.000; -406.000
454.967;  -31.075;  230.000;  539.000
455.087;  -55.175;  179.000;  153.000
455.208;   14.250;  554.000;  856.000
455.329;  -67.700;  -22.000;   82.000
455.450;   46.175;  473.000;  633.000
455.570;  -84.025; -234.000; -211.000
455.691;  -39.075;  201.000;  407.000
455.812; -111.725; -270.000;  -92.000
455.932;  -42.600;  107.000;  -97.000
456.053;  -90.875;   36.000;   24.000
456.173; -117.000; -433.000; -355.000
456.294; -139.925; -476.000; -303.000
456.415;  -69.800;  -73.000;   70.000
456.535;  -44.925;  297.000;  273.000
456.656;  -50.175;  132.000;  240.000
456.776;  -80.100;    3.000;  298.000
456.897;  -10.450;  308.000;  513.000
457.017;  -87.750; -153.000;   -3.000
457.138; -122.325; -402.000; -249.000
457.258;  -51.450;  263.000;  224.000
457.379;  -15.250;  509.000;  521.000
457.499;  -38.450;  443.000;  432.000
457.620; -121.250; -407.000; -231.000
457.740; -106.275; -132.000;  -11.000
457.860;  -48.350;   87.000;   44.000
457.981;  -53.025;  132.000;  124.000
458.101;  -68.250;  -89.000;   40.000
458.221;  -30.925;  336.000;  402.000
458.342;  -69.275;   -4.000;  -37.000
458.462;   21.700;  617.000;  352.000
458.582;  -34.925; -302.000; -294.000
458.703;    2.350;  303.000;  154.000
458.823;  -12.825;   22.000;  163.000
458.943;   18.375;  341.000;  467.000
459.063;  -33.475; 1124.000;  192.000
459.183;  -24.875;  328.000;  313.000
459.304;   -3.250;  315.000;  517.000
459.424;  -80.250; -246.000;  -89.000
459.544;  362.425;  388.000;  764.000
459.664;  872.425;  499.000;  506.000
459.784;  298.125; 1004.000; 1175.000
459.904;   50.950;  867.000;  744.000
460.024;   59.450;  867.000;  684.000
460.144;   -7.025;  449.000;  554.000
460.264;   -5.450;  515.000;  327.000
460.385; -105.225; -145.000; -119.000
460.505;   42.200;  905.000;  858.000
460.625;  -94.075;  -17.000;  -68.000
460.745;  -34.525;  396.000;  541.000
460.864;  -59.075;  153.000;  469.000
460.984;    1.200;  499.000;  573.000
461.104;  142.050; 1656.000; 1775.000
461.224;   28.400;  657.000;  650.000
461.344;  -44.425;  431.000;  360.000
461.464;  -42.075;  258.000;  513.000
461.584;  -31.600;  283.000;  466.000
461.704;  -53.725;   58.000;  108.000
461.824;  -60.150;  238.000;  259.000
461.943;  -45.875;  191.000;  130.000
462.063;  -81.575;    2.000;  324.000
462.183;   38.150;  639.000;  717.000
462.303;   91.425; 1678.000; 1230.000
462.422;   21.475;  781.000;  840.000
462.542;  -50.325;  271.000;  391.000
462.662;   28.925;  353.000;  380.000
462.782;  245.500;  833.000;  572.000
462.901;  480.300;  545.000;  717.000
463.021;  283.925; 1702.000; 1638.000
463.141;  -12.325;  337.000;  770.000
463.260;  -33.025;  614.000;  474.000
463.380;   29.900;  902.000;  884.000
463.499;  -40.925;  342.000;  332.000
463.619;  -34.475;  581.000;  559.000
463.738;  100.325; 1644.000;  903.000
463.858;   11.225;  657.000;  811.000
463.978;  -49.625;  542.000;  396.000
464.097;   57.375;  921.000; 1114.000
464.217;  108.800; 1196.000; 1143.000
464.336;  114.100; 1068.000; 1130.000
464.455;  -29.375;  328.000;  659.000
464.575;   45.525;  597.000;  602.000
464.694;  146.050; 1204.000; 1179.000
464.814;  122.050; 1190.000; 1138.000
464.933;   66.400; 1095.000; 1027.000
465.052;  110.000; 1412.000; 1054.000
465.172;   60.825;  922.000;  799.000
465.291;  112.750; 1376.000; 1320.000
465.410;   16.325;  462.000;  735.000
465.530;  103.025; 1355.000; 1310.000
465.649;   54.850; 1209.000; 1273.000
465.768;  124.125; 1673.000; 1508.000
465.888;   38.525;  941.000; 1174.000
466.007;   79.225; 1335.000; 1440.000
466.126;    0.150;  721.000;  641.000
466.245;   44.750; 1176.000; 1187.000
466.364;   23.675;  950.000; 1060.000
466.484;   54.200; 1024.000; 1213.000
466.603;   30.900; 1101.000; 1222.000
466.722;  110.400; 1490.000; 1769.000
466.841;   54.525; 1151.000; 1401.000
466.960;   34.375; 1069.000;  972.000
467.079;  128.950; 1971.000; 1786.000
467.198;   58.675; 1238.000; 1181.000
467.317;   74.550; 1768.000; 1162.000
467.436;   73.075; 1709.000; 1261.000
467.555;  116.375; 1796.000; 1746.000
467.674;   65.150; 1227.000; 1329.000
467.793;   45.325; 1376.000; 1374.000
467.912;   89.300; 1658.000; 1539.000
468.031;  136.575; 2038.000; 1930.000
468.150;  130.550; 1842.000; 1837.000
468.269;  190.650; 2313.000; 2090.000
468.388;  189.300; 2168.000; 2339.000
468.507;  268.550; 2884.000; 2903.000
468.626;  241.125; 2555.000; 2541.000
468.744;  129.325; 2018.000; 2174.000
468.863;  194.175; 2312.000; 2523.000
468.982;   89.750; 1503.000; 1555.000
469.101;  228.200; 2788.000; 2692.000
469.220;  142.300; 2333.000; 2176.000
469.338;  253.725; 2935.000; 3051.000
469.457;  190.875; 2719.000; 2545.000
469.576;  348.325; 3953.000; 3784.000
469.695;  229.500; 2877.000; 3066.000
469.813;  428.800; 4148.000; 4192.000
469.932;  401.625; 4255.000; 4485.000
470.051;  433.075; 4075.000; 4161.000
470.169;  878.950; 4470.000; 4338.000
470.288; 1514.700; 4700.000; 4809.000
470.406;  887.450; 5059.000; 5194.000
470.525;  647.575; 6101.000; 5787.000
470.644;  650.425; 6847.000; 6794.000
470.762;  807.475; 8397.000; 7873.000
470.881;  911.250; 8651.000; 8464.000
470.999; 1055.175; 9685.000; 9151.000
471.118; 1109.850;11174.000;10711.000

