
Integration time [ms]: 100.000
Averaging Nr. [scans]: 40
Smoothing Nr. [pixels]: 0
Data measured with spectrometer [name]: 2101012U2
Wave   ;Sample   ;Dark     ;Reference
[nm]   ;[counts] ;[counts] ;[counts] 

197.733;   46.050;  516.000;  404.000
197.879;  -76.025; -610.000; -634.000
198.025;  -53.875; -475.000; -420.000
198.171;  -78.575; -602.000; -612.000
198.317;  -20.900; -401.000; -316.000
198.463;  -63.400; -655.000; -404.000
198.609;   36.375;  181.000; -137.000
198.755;  -72.200; -644.000; -410.000
198.901;  -67.050; -505.000; -424.000
199.047;  -58.075; -615.000; -488.000
199.193;  -45.250; -230.000; -468.000
199.339;  -45.050; -222.000; -369.000
199.485;   32.050;  330.000;  271.000
199.631;   16.400;  227.000;  310.000
199.777;  -52.475; -466.000; -398.000
199.923;  -64.625; -610.000; -424.000
200.069;  -12.725; -141.000;  -58.000
200.215;   49.925;  128.000;  453.000
200.361;   41.425;  243.000;  477.000
200.507;  -56.775; -600.000; -373.000
200.653;  -43.550; -371.000; -194.000
200.798;  -26.225; -215.000; -125.000
200.944;   -6.000; -146.000;  -41.000
201.090;   36.575;   61.000;  222.000
201.236;    3.450; -116.000; -158.000
201.382;  128.750;  874.000;  903.000
201.528;   -6.750;  -58.000;  -48.000
201.674;  -36.350; -386.000; -293.000
201.819;  -75.125; -540.000; -439.000
201.965;  -91.575; -699.000; -447.000
202.111;  -22.425; -273.000; -226.000
202.257;  -39.425; -250.000; -238.000
202.402;   10.225;   13.000;  -36.000
202.548;  -27.725; -169.000; -116.000
202.694;   86.850;  410.000; -183.000
202.840;  -69.925; -603.000; -531.000
202.985;  -75.450; -681.000; -639.000
203.131; -109.850; -832.000; -666.000
203.277;  -24.900; -199.000; -262.000
203.423;  -52.275; -434.000; -520.000
203.568;  -41.075; -462.000; -237.000
203.714;  -58.625; -535.000; -542.000
203.860;  -73.700; -682.000; -641.000
204.005;   12.075;  112.000;  167.000
204.151;   71.600;  561.000;  556.000
204.296;  -39.900; -354.000; -221.000
204.442;  -65.150; -600.000; -547.000
204.588;  -82.825; -592.000; -579.000
204.733;   20.700;  178.000;  168.000
204.879; -108.625;-1018.000; -822.000
205.025;    3.400;  -99.000;  126.000
205.170;   -0.850;  -17.000;   94.000
205.316;   89.050;  438.000;  661.000
205.461;  -83.875; -698.000; -554.000
205.607;   81.125;  609.000;  665.000
205.752;  -84.175; -626.000; -551.000
205.898;  -53.600; -501.000; -391.000
206.043;  -73.625; -578.000; -506.000
206.189;  -40.400; -243.000; -285.000
206.334;   89.225;  554.000;  606.000
206.480;   88.000;  409.000;  239.000
206.625;  -82.700; -529.000; -552.000
206.771;  -45.200; -451.000; -373.000
206.916;  -20.850; -210.000; -537.000
207.062;  -81.500; -545.000; -591.000
207.207;  -58.525; -546.000; -443.000
207.353;   46.050;  185.000;  460.000
207.498;   14.425;  196.000;   85.000
207.643;  -55.000; -501.000; -370.000
207.789; -129.000;-1069.000; -910.000
207.934;  -89.425; -665.000; -713.000
208.080;  -24.500; -154.000;   66.000
208.225;  -13.900;  -22.000;  -57.000
208.370;  -86.975; -727.000; -619.000
208.516;  -80.450; -741.000; -487.000
208.661;  -21.800; -127.000;  -69.000
208.806;  -27.700; -165.000; -171.000
208.952; -112.250;-1044.000; -731.000
209.097;   80.550;  378.000;  349.000
209.242;  -39.575; -307.000; -382.000
209.387;   66.200;  392.000;  350.000
209.533;  -59.600; -321.000; -350.000
209.678;   79.700;  472.000;  543.000
209.823;  -58.275; -408.000; -310.000
209.969; -111.700; -860.000; -757.000
210.114; -107.975; -907.000; -719.000
210.259; -113.775; -939.000; -889.000
210.404;   -7.650; -171.000;  103.000
210.549;    7.375;  108.000;    3.000
210.695;  -10.200;   -3.000;  -95.000
210.840;   41.700;   94.000;   67.000
210.985;  -60.275; -484.000; -303.000
211.130;   71.225;  268.000;  406.000
211.275;   21.175;  207.000;  199.000
211.420;  -40.425; -300.000; -289.000
211.566;  -70.275; -536.000; -489.000
211.711;   23.275;  218.000;  157.000
211.856;  -72.525; -545.000; -519.000
212.001;   13.800;  151.000;   44.000
212.146;   18.025;  153.000;   49.000
212.291;  -27.625; -210.000; -186.000
212.436;  -33.400; -280.000;   -6.000
212.581;  -85.125; -685.000; -653.000
212.726;  -71.825; -487.000; -538.000
212.871;  -48.150; -552.000; -217.000
213.016; -152.250;-1172.000;-1029.000
213.161;   66.475;  406.000;  291.000
213.306;  -78.400; -435.000; -577.000
213.451;  -93.425; -778.000; -689.000
213.596;  -42.925; -455.000; -347.000
213.741;  -60.025; -448.000; -538.000
213.886;  -73.400; -498.000; -517.000
214.031;  -19.025; -294.000; -124.000
214.176;  -66.925; -408.000; -341.000
214.321;   -9.450; -296.000; -157.000
214.466;  -21.000; -163.000;  -43.000
214.611;    1.525;  -61.000;  -10.000
214.756; -116.775; -948.000; -858.000
214.901;  -30.725; -388.000; -226.000
215.046; -123.575; -797.000; -825.000
215.191;   28.450;  128.000;   35.000
215.336;   -4.475; -157.000;  -19.000
215.480;  -62.425; -684.000; -505.000
215.625;   -9.925; -175.000;  -19.000
215.770;  -74.825; -757.000; -662.000
215.915;  -13.025;   -5.000;  -97.000
216.060;  -16.975; -113.000;  -21.000
216.205; -100.900; -731.000; -779.000
216.349;  -67.075; -470.000; -533.000
216.494; -145.575; -939.000; -867.000
216.639; -105.300; -823.000; -888.000
216.784;  -94.975; -577.000; -525.000
216.929;   47.750;  392.000;  281.000
217.073;  -16.650; -244.000;  -31.000
217.218;   15.575;   78.000;  -47.000
217.363;  -81.725; -656.000; -618.000
217.507;  -76.575; -623.000; -588.000
217.652; -126.050; -845.000; -874.000
217.797;  -88.275; -708.000; -659.000
217.942; -118.950; -856.000; -720.000
218.086;   86.300;  608.000;  539.000
218.231;  -19.075; -174.000;  -26.000
218.376;  -22.400; -337.000; -229.000
218.520;   -2.875;  -41.000;   96.000
218.665;  -23.325; -338.000; -204.000
218.810;  -53.450; -275.000; -233.000
218.954;   26.525;  201.000;   35.000
219.099; -114.725; -713.000; -963.000
219.243;  -61.375; -589.000; -554.000
219.388;  -29.200; -264.000; -136.000
219.532;  -17.075; -116.000; -116.000
219.677;  -76.775; -564.000; -521.000
219.822;    4.225;   33.000;   89.000
219.966;   -1.575;   17.000;  -99.000
220.111;  -37.100; -328.000;  -40.000
220.255;  -97.725; -797.000; -750.000
220.400;  -19.025; -180.000; -146.000
220.544;  -50.800; -516.000; -450.000
220.689;  -53.600; -422.000; -451.000
220.833;  -24.500; -123.000;  -58.000
220.978;  -48.625; -393.000; -563.000
221.122;   19.800;  319.000;  307.000
221.267; -111.425; -906.000; -837.000
221.411;  -65.825; -478.000; -394.000
221.555;   -3.475; -104.000;  -23.000
221.700;  -58.700; -329.000; -222.000
221.844;   29.325;  255.000;  272.000
221.989;  -31.975; -328.000; -311.000
222.133;  -32.125; -289.000; -307.000
222.277;  -12.325;    5.000;   78.000
222.422;    9.700;  227.000;  113.000
222.566;  -32.950; -381.000; -214.000
222.711;  -65.775; -414.000; -479.000
222.855;  -81.475; -643.000; -586.000
222.999;  -91.350; -642.000; -717.000
223.144;  -16.525; -195.000; -194.000
223.288;   45.200;  423.000;  251.000
223.432;   16.475;  184.000;  230.000
223.576;   26.325;  152.000;  -21.000
223.721;   31.225;  364.000;  273.000
223.865;  -62.600; -472.000; -475.000
224.009;  238.200; 1673.000; 1631.000
224.153;  -85.850; -660.000; -671.000
224.298;  -66.625; -531.000; -489.000
224.442;  -19.450;  -74.000;  -33.000
224.586;  -13.275; -169.000; -106.000
224.730;  -90.800; -858.000; -670.000
224.875; -108.000; -739.000; -688.000
225.019;    9.225;  102.000;  188.000
225.163;   63.425;  208.000;  341.000
225.307;   13.100;   97.000;  -91.000
225.451;   48.275;  360.000;  481.000
225.595;   36.500;  264.000;  176.000
225.739;  -25.250; -170.000;  -94.000
225.884;    9.775;   86.000;    5.000
226.028; -100.750; -760.000; -626.000
226.172;  -43.875; -260.000; -273.000
226.316; -140.525; -941.000; -902.000
226.460;  -70.750; -645.000; -493.000
226.604;  -49.600; -406.000; -400.000
226.748; -105.725; -836.000; -733.000
226.892;  -41.700; -227.000; -181.000
227.036;  -36.250; -537.000; -447.000
227.180;  -51.550; -551.000; -375.000
227.324;  -72.350; -561.000; -580.000
227.468; -113.000; -819.000; -717.000
227.612;    3.175;  242.000;  -28.000
227.756;  -97.650; -845.000; -698.000
227.900;   47.200;  342.000;  441.000
228.044;  -63.525; -509.000; -290.000
228.188;   55.575;  448.000;  568.000
228.332;  -78.050; -546.000; -472.000
228.476;  -31.425; -223.000; -149.000
228.620;  -32.725; -210.000; -150.000
228.764;   64.100;  431.000;  349.000
228.908;  -11.825; -155.000;   30.000
229.052;  -63.525; -615.000; -528.000
229.195;  -11.675; -172.000;   13.000
229.339;  -30.600; -235.000; -305.000
229.483;  -31.475;    5.000; -162.000
229.627;   -4.325; -156.000;  139.000
229.771;  -44.200; -218.000; -294.000
229.915;    6.325;  230.000;   79.000
230.059;  -86.975; -648.000; -663.000
230.202;  -27.275; -370.000; -317.000
230.346;  -12.200; -107.000;  107.000
230.490;  -67.425; -489.000; -521.000
230.634; -111.625; -736.000; -553.000
230.777;   61.400;  478.000;  509.000
230.921;  -62.275; -450.000; -359.000
231.065;  -38.125; -246.000; -286.000
231.209;   27.875;  261.000;  265.000
231.352;   18.300;   54.000;   40.000
231.496;    7.925;  568.000;  188.000
231.640;  -82.875; -693.000; -621.000
231.783;   68.875;  546.000;  525.000
231.927;  -39.275; -294.000; -365.000
232.071; -125.625; -962.000; -736.000
232.214; -112.125; -980.000; -764.000
232.358;  -97.950; -683.000; -599.000
232.502;    8.500;  -19.000;    7.000
232.645; -132.225;-1090.000; -927.000
232.789;  -26.375; -257.000; -218.000
232.933;  -38.825; -407.000; -224.000
233.076; -139.025;-1038.000; -897.000
233.220; -110.875; -752.000; -777.000
233.363;  -70.850; -669.000; -477.000
233.507;   60.600;  371.000;  129.000
233.650;  -94.825; -764.000; -834.000
233.794;   56.325;  438.000;  461.000
233.938;  -68.875; -530.000; -362.000
234.081;  -13.475;  -93.000;   31.000
234.225;  -66.725; -631.000; -539.000
234.368; -125.950; -773.000; -723.000
234.512;  -36.300; -385.000; -299.000
234.655;  -93.625; -582.000; -555.000
234.798;  -78.825; -493.000; -466.000
234.942; -140.200; -884.000;-1002.000
235.085;  -77.325; -651.000; -443.000
235.229;  -76.825; -405.000; -410.000
235.372;  -48.125; -247.000; -191.000
235.516;  -63.350; -397.000; -321.000
235.659;    8.900;   92.000;  121.000
235.802;  -13.625;  -38.000;  -22.000
235.946;   35.150;  335.000;  215.000
236.089;   26.200;  126.000;  250.000
236.233;   54.375;  275.000;  298.000
236.376;  -56.425; -235.000; -378.000
236.519;  -63.000; -297.000; -319.000
236.663;  -21.350; -215.000; -117.000
236.806; -147.975;-1029.000; -999.000
236.949;   63.150;  543.000;  431.000
237.092;   66.300;  412.000;  391.000
237.236;  -79.225; -589.000; -502.000
237.379;   68.125;  352.000;  428.000
237.522; -124.400; -879.000; -768.000
237.666;  -24.950; -271.000;   18.000
237.809; -130.675; -851.000; -823.000
237.952;   32.300;  469.000;  271.000
238.095;  -72.975; -447.000; -442.000
238.238;   88.275;  688.000;  700.000
238.382;   -2.875;  166.000;  103.000
238.525;  -75.600; -598.000; -511.000
238.668; -145.300;-1060.000; -985.000
238.811;  -92.350; -638.000; -643.000
238.954;  -47.025; -483.000; -334.000
239.097;   84.075;  617.000;  664.000
239.241;   22.525;  394.000;  326.000
239.384;  -32.925; -254.000; -214.000
239.527;  -70.700; -424.000; -224.000
239.670; -156.625; -994.000;-1091.000
239.813; -108.650; -696.000; -658.000
239.956;   72.875;  579.000;  473.000
240.099; -110.675; -778.000; -725.000
240.242;   62.425;  428.000;  432.000
240.385;   43.775;  466.000;  450.000
240.528;  -69.950; -706.000; -473.000
240.671;   15.225;  189.000;  134.000
240.814;  -49.950; -441.000; -158.000
240.957;  -99.875; -767.000; -578.000
241.100;  -89.375; -779.000; -755.000
241.243; -148.100;-1234.000; -893.000
241.386;  -72.575; -508.000; -379.000
241.529;  -94.350; -735.000; -547.000
241.672;  -61.650; -566.000; -495.000
241.815; -121.900; -832.000; -808.000
241.958;  -25.300; -125.000; -182.000
242.101;  -80.250; -545.000; -390.000
242.244;  -46.050; -270.000; -325.000
242.387;  -41.950; -304.000; -246.000
242.530;   55.625;  470.000;  134.000
242.673;  -38.900; -381.000; -309.000
242.815; -106.775; -925.000; -899.000
242.958;  -69.550; -482.000; -381.000
243.101;   -2.650;  132.000;  187.000
243.244;  -82.375; -564.000; -521.000
243.387;  -56.250; -313.000; -316.000
243.530;  -97.975; -657.000; -674.000
243.672;   -0.250;   43.000;  -92.000
243.815;  -55.425; -355.000; -283.000
243.958;    2.100;   98.000;  -26.000
244.101;   -8.900;   59.000;  -16.000
244.243;  -21.525;  -47.000;  101.000
244.386;  -94.975; -761.000; -630.000
244.529;  -29.525; -132.000; -139.000
244.672; -147.900;-1154.000; -951.000
244.814;  -92.325; -621.000; -794.000
244.957;  -67.300; -380.000; -304.000
245.100;  -79.575; -489.000; -489.000
245.242;  -63.675; -387.000; -374.000
245.385;  -13.325;  -59.000;  -39.000
245.528; -106.075; -871.000; -705.000
245.670;   95.950;  612.000;  634.000
245.813;  -90.725; -599.000; -547.000
245.956;  -32.350; -324.000; -275.000
246.098;  -65.850; -508.000; -650.000
246.241;    6.325;  194.000;   48.000
246.383;  -24.225; -119.000;  -73.000
246.526;  -78.675; -454.000; -525.000
246.669; -117.450; -889.000; -780.000
246.811;   17.100;  172.000;   -1.000
246.954;  -60.850; -512.000; -426.000
247.096;  -28.350;  -84.000;   -6.000
247.239;  -69.875; -482.000; -445.000
247.381;  -65.825; -647.000; -488.000
247.524;   85.400;  645.000;  679.000
247.666;  -10.800;   58.000;   11.000
247.809; -128.400; -887.000; -691.000
247.951;   -4.375;  -75.000;  138.000
248.094;   35.050;  432.000;  308.000
248.236; -164.650;-1262.000;-1238.000
248.378;    9.025; -356.000;  -81.000
248.521;  -19.700; -334.000; -337.000
248.663;  -36.375; -236.000; -267.000
248.806;  -15.200; -300.000; -266.000
248.948;  -94.325; -886.000; -763.000
249.090;  -44.750; -428.000; -398.000
249.233;  -44.275; -344.000; -381.000
249.375;  -71.425; -474.000; -451.000
249.518;  -21.050;  -83.000; -133.000
249.660;   -8.450; -103.000;    3.000
249.802; -175.800;-1303.000;-1189.000
249.945;  -74.400; -612.000; -540.000
250.087; -118.950; -834.000; -768.000
250.229;  -46.125; -362.000; -480.000
250.371;  -85.700; -494.000; -439.000
250.514;  -52.350; -310.000; -244.000
250.656;  -69.975;   69.000;  102.000
250.798; -119.850; -849.000; -800.000
250.940;  -65.950; -322.000; -322.000
251.083;  -37.450; -335.000; -111.000
251.225;   64.275;  338.000;  310.000
251.367;  -37.775; -274.000; -373.000
251.509;  -29.225; -265.000; -210.000
251.651; -100.025; -731.000; -671.000
251.794;   74.450;  538.000;  632.000
251.936; -105.450; -821.000; -747.000
252.078;  -65.050; -540.000; -461.000
252.220;  -67.800; -645.000; -477.000
252.362;   75.100;  344.000;  462.000
252.504;  -71.975; -677.000; -584.000
252.646; -124.525; -875.000; -722.000
252.788;   -6.950;   14.000; -128.000
252.931;  -54.400; -257.000; -253.000
253.073;  -30.575; -376.000; -317.000
253.215;   -5.525;  141.000;  122.000
253.357;  -24.400;   82.000; -153.000
253.499;  -45.825; -374.000; -234.000
253.641;  -80.625; -749.000; -594.000
253.783;  -92.625; -609.000; -527.000
253.925;  -88.375; -586.000; -591.000
254.067; -110.175; -744.000; -667.000
254.209;  -33.400; -391.000; -259.000
254.351; -138.450; -865.000; -883.000
254.493;  -71.250; -441.000; -417.000
254.635; -130.150; -936.000; -818.000
254.777;  -93.875; -752.000; -687.000
254.918;  -80.800; -512.000; -430.000
255.060;  -72.000; -551.000; -395.000
255.202;  -64.450; -473.000; -261.000
255.344;  -67.525; -658.000; -455.000
255.486;  -71.175; -471.000; -406.000
255.628; -109.600; -780.000; -781.000
255.770;  -92.800; -676.000; -536.000
255.912;  -69.925; -559.000; -468.000
256.053;  -96.800; -730.000; -508.000
256.195;  153.625; 1008.000;  903.000
256.337; -105.950; -861.000; -595.000
256.479;   59.725;  532.000;  416.000
256.621;  -45.225; -394.000; -212.000
256.762;  -95.225; -789.000; -742.000
256.904;   56.100;  485.000;  487.000
257.046;  -39.675; -381.000; -271.000
257.188;  -29.925; -351.000; -264.000
257.329;  -70.100; -525.000; -464.000
257.471; -119.500; -939.000; -807.000
257.613;  -55.500; -584.000; -498.000
257.755; -145.425;-1073.000; -982.000
257.896;   32.450;  286.000;  392.000
258.038;  -71.175; -403.000; -352.000
258.180;  -44.225; -354.000; -279.000
258.321;  -84.050; -581.000; -457.000
258.463;    5.900;  -71.000;  133.000
258.605; -101.000; -562.000; -570.000
258.746; -108.225; -886.000; -772.000
258.888; -154.550;-1026.000;-1020.000
259.029;   18.575;  121.000;   -8.000
259.171;  -94.525; -614.000; -550.000
259.313;  -11.850;  -49.000;  -47.000
259.454;  -73.250; -536.000; -414.000
259.596;  -58.250; -483.000; -390.000
259.737;  -74.675; -590.000; -474.000
259.879;   33.100;  217.000;  311.000
260.020;   97.350;  901.000;  636.000
260.162;  -31.775; -146.000; -253.000
260.303; -114.675; -768.000; -687.000
260.445;  -80.625; -609.000; -613.000
260.586;   34.550;  392.000;  157.000
260.728;  -39.200; -360.000; -248.000
260.869; -111.800; -350.000; -343.000
261.011;   68.125;  706.000;  537.000
261.152;  -58.200; -479.000; -319.000
261.293;  -79.475; -576.000; -595.000
261.435;  -33.875; -219.000; -184.000
261.576;  -58.950; -455.000; -325.000
261.718;   43.600;  420.000;  470.000
261.859; -144.950; -940.000; -949.000
262.000; -137.775; -951.000;-1016.000
262.142;  -21.700;  -52.000;  -60.000
262.283; -120.675; -808.000; -691.000
262.424;  -83.725; -666.000; -625.000
262.566; -158.900;-1161.000; -983.000
262.707; -114.000; -840.000; -830.000
262.848; -123.800; -769.000; -726.000
262.990;  -49.925; -362.000; -345.000
263.131;   81.025;  650.000;  681.000
263.272;  -22.825;  -61.000;  -41.000
263.413; -100.800; -589.000; -561.000
263.555;  -74.100; -669.000; -143.000
263.696;  -93.250; -550.000; -641.000
263.837;  -73.200; -449.000; -551.000
263.978;  -15.450;   -5.000;  -77.000
264.119;  -40.850; -283.000; -264.000
264.261; -115.775; -847.000; -630.000
264.402;   -4.200;   33.000;   40.000
264.543;  -69.525; -509.000; -524.000
264.684;   -0.725;   61.000;  -50.000
264.825;  -83.000; -816.000; -538.000
264.966;   -9.150;  -84.000;  -67.000
265.107; -111.300; -646.000; -670.000
265.248; -126.025; -825.000; -812.000
265.390;   -8.850;  152.000;   -9.000
265.531;  -34.325; -238.000; -107.000
265.672;  -97.675; -557.000; -630.000
265.813;   49.350;  563.000;  439.000
265.954; -147.850; -959.000; -940.000
266.095;   -6.450; -372.000; -322.000
266.236; -106.800; -686.000; -548.000
266.377;  -52.350; -243.000; -297.000
266.518;  -63.200; -619.000; -547.000
266.659;   43.950;  170.000;  268.000
266.800;    9.900;   83.000;   85.000
266.941;  -87.425; -487.000; -478.000
267.082;    4.875;  354.000;   99.000
267.223;  -54.925; -344.000; -273.000
267.364; -112.000; -892.000; -686.000
267.504;  -24.325;    3.000;  135.000
267.645;   -1.300;  160.000;   67.000
267.786;  -31.925; -147.000;  -86.000
267.927;  -81.225; -473.000; -379.000
268.068;  -29.450; -186.000;  -61.000
268.209;  -47.100; -175.000; -413.000
268.350;  -75.850; -388.000; -532.000
268.490;  -92.925; -648.000; -521.000
268.631;   25.500;  127.000;  225.000
268.772; -115.075; -874.000; -647.000
268.913;  -57.725; -328.000; -476.000
269.054;  -32.250; -117.000;   12.000
269.194;  -51.150; -418.000; -402.000
269.335; -166.925;-1137.000;-1074.000
269.476;  -13.675;   33.000;  -35.000
269.617;  -39.425; -347.000; -392.000
269.757;  -97.575; -713.000; -646.000
269.898; -109.525; -856.000; -613.000
270.039;  -72.500; -415.000; -405.000
270.180; -132.350; -952.000; -816.000
270.320;  -36.450; -190.000; -250.000
270.461;  -49.600; -277.000; -249.000
270.602;  -22.875; -186.000; -156.000
270.742; -124.600; -868.000; -943.000
270.883;  -57.850; -442.000; -390.000
271.023;  -69.025; -358.000; -357.000
271.164;  -82.725; -607.000; -528.000
271.305; -100.250; -666.000; -654.000
271.445;  -93.550; -722.000; -683.000
271.586;  -67.400; -462.000; -283.000
271.726;  -44.075; -397.000; -322.000
271.867;  -62.000; -594.000; -534.000
272.008;  151.325; -473.000; -285.000
272.148;  111.875;  462.000;  468.000
272.289;   11.050; -113.000; -181.000
272.429;   13.375;   19.000;  185.000
272.570;  -96.100; -633.000; -737.000
272.710; -108.700; -825.000; -775.000
272.851;  -24.575;  113.000; -130.000
272.991; -167.125;-1173.000;-1077.000
273.131;  -78.950; -419.000; -459.000
273.272; -100.550; -683.000; -723.000
273.412;   -6.100; -143.000;  -31.000
273.553;  -62.675; -488.000; -507.000
273.693;  131.700;  913.000;  858.000
273.834; -102.175; -894.000; -692.000
273.974;  -80.425; -664.000; -615.000
274.114; -101.975; -772.000; -560.000
274.255;   60.300;  414.000;  373.000
274.395;    4.425; -180.000; -125.000
274.535;   40.000;  199.000;  350.000
274.676;   16.350;  225.000;   94.000
274.816;    1.400;  110.000;   34.000
274.956;  -99.125; -624.000; -690.000
275.097;  -66.100;-1014.000; -922.000
275.237; -129.975; -913.000; -803.000
275.377; -114.125; -778.000; -689.000
275.517; -160.175; -878.000; -937.000
275.658;  -74.100; -590.000; -555.000
275.798;  -73.725; -606.000; -413.000
275.938;    2.925;  215.000;  323.000
276.078;  -97.900; -626.000; -395.000
276.218;    0.625;   99.000;  104.000
276.359; -132.950;-1026.000;-1024.000
276.499;  -78.900; -605.000; -446.000
276.639;  -30.400; -305.000; -151.000
276.779;  -58.975; -475.000; -357.000
276.919; -106.650; -783.000; -624.000
277.059;  -24.525; -261.000; -212.000
277.199;  -44.550; -357.000; -259.000
277.340;   45.150;  287.000;  175.000
277.480; -116.475; -840.000; -693.000
277.620;   15.200;  192.000;   16.000
277.760; -204.725;-1533.000;-1294.000
277.900;   12.400;  113.000;   33.000
278.040;    5.750;  137.000;  159.000
278.180;   27.125;  270.000;  170.000
278.320;   -9.000;   21.000;   56.000
278.460;  -80.275; -443.000; -469.000
278.600;  -90.800; -708.000; -598.000
278.740;   57.000;  448.000;  224.000
278.880;  -60.975; -768.000; -791.000
279.020;  -13.825; -194.000; -144.000
279.160;  -93.875; -672.000; -595.000
279.300; -116.325; -926.000; -873.000
279.440;  -94.550; -709.000; -622.000
279.579;  -13.575;-1014.000; -929.000
279.719;  -56.500; -410.000; -394.000
279.859;   62.650;   -4.000;   41.000
279.999;   18.775; -208.000;  101.000
280.139;  -21.700; -435.000; -387.000
280.279;  -75.700; -708.000; -745.000
280.419;  -24.275; -229.000; -147.000
280.559;  -37.675; -259.000; -180.000
280.698;  -82.625; -790.000; -639.000
280.838;  -98.450; -778.000; -800.000
280.978; -111.000; -846.000; -790.000
281.118; -125.825; -811.000; -704.000
281.257;   11.375;   24.000;    6.000
281.397; -125.025;-1094.000; -960.000
281.537;  -91.450; -599.000; -712.000
281.677;  -35.200; -150.000; -101.000
281.816; -105.625; -700.000; -630.000
281.956;  -29.625; -193.000; -257.000
282.096;  -62.800; -539.000; -396.000
282.235; -110.950; -672.000; -638.000
282.375;  -13.125; -243.000;  -98.000
282.515; -117.400; -715.000; -707.000
282.654;   16.325;   29.000;  106.000
282.794;   26.000;  388.000;  244.000
282.934;  -56.725; -530.000; -491.000
283.073; -141.875;-1030.000; -857.000
283.213;  -51.375; -460.000; -467.000
283.353;  -58.425; -408.000; -349.000
283.492;  -48.775; -264.000; -296.000
283.632;  -38.300; -254.000; -168.000
283.771;  -96.950; -859.000; -730.000
283.911;  -72.600; -369.000; -260.000
284.050; -115.550; -794.000; -748.000
284.190; -164.375;-1229.000;-1096.000
284.329; -140.950;-1055.000; -964.000
284.469;  -74.450; -516.000; -591.000
284.608;  -54.300; -559.000; -598.000
284.748;  -89.050; -614.000; -570.000
284.887;  -19.025;  -87.000;  -20.000
285.027; -128.750; -844.000; -892.000
285.166;  -36.075; -192.000; -249.000
285.306;   -7.600; -116.000;  -33.000
285.445;  -56.175; -229.000; -343.000
285.584; -108.425; -630.000; -494.000
285.724;  -44.750; -282.000; -322.000
285.863; -115.850; -857.000; -507.000
286.002;  -52.400; -366.000; -276.000
286.142; -110.075; -715.000; -622.000
286.281;  -73.950; -525.000; -493.000
286.420;  -74.575; -554.000; -417.000
286.560;   92.525;  653.000;  623.000
286.699; -148.000; -958.000; -912.000
286.838;  -81.250; -590.000; -591.000
286.978;  -98.450; -533.000; -537.000
287.117; -141.925;-1085.000; -950.000
287.256;  -38.950; -228.000; -211.000
287.395;  -59.375; -197.000; -378.000
287.535;  -46.875; -370.000; -298.000
287.674;  -91.200; -509.000; -484.000
287.813;   52.675;  661.000;  533.000
287.952; -135.400;-1010.000; -871.000
288.091; -156.425;-1049.000; -915.000
288.231;    3.800;   13.000;   15.000
288.370; -173.800;-1217.000;-1200.000
288.509;  -77.550; -728.000; -645.000
288.648;  -91.575; -770.000; -548.000
288.787;  -45.675; -243.000;  -87.000
288.926;  -64.100; -454.000; -475.000
289.065;  117.950;  859.000;  672.000
289.204;  -54.950; -377.000; -217.000
289.344; -104.475; -791.000; -690.000
289.483;    7.800;  416.000;  304.000
289.622;  -27.375; -291.000; -149.000
289.761;  -26.775; -309.000; -166.000
289.900; -107.600; -785.000; -626.000
290.039;  -11.650;  -12.000;  -95.000
290.178;  -44.200; -274.000; -180.000
290.317;  -78.125; -618.000; -479.000
290.456;  -81.000; -463.000; -451.000
290.595; -158.475; -961.000; -833.000
290.734; -132.875; -904.000; -891.000
290.873;  -76.725; -456.000; -420.000
291.011; -114.450; -833.000; -843.000
291.150;  -99.400; -770.000; -682.000
291.289;  -37.650; -343.000; -110.000
291.428; -100.775; -599.000; -480.000
291.567;  -50.150; -370.000; -442.000
291.706;   -6.150;  109.000;  154.000
291.845;  -81.850; -597.000; -505.000
291.984; -160.575;-1234.000;-1061.000
292.122;   67.450;  602.000;  582.000
292.261;   37.200;  620.000;  463.000
292.400;   -0.350; -144.000;  211.000
292.539; -123.375; -959.000; -813.000
292.678;  -35.050; -325.000; -300.000
292.816; -158.025;-1136.000; -965.000
292.955;  -87.475; -844.000; -684.000
293.094;  -32.150; -173.000; -337.000
293.233;  -56.650; -556.000; -400.000
293.371;  -37.850; -225.000;  -84.000
293.510; -115.975; -866.000; -780.000
293.649; -131.000; -959.000; -924.000
293.787;  -83.025;-1083.000;-1012.000
293.926;   -1.700; -113.000;  -32.000
294.065;  -52.150; -379.000; -290.000
294.203;   37.500;  298.000;  406.000
294.342;   16.500;   74.000;  156.000
294.481; 5447.300;51180.000; -836.000
294.619;  -52.275; -425.000; -582.000
294.758; -137.675;-1230.000;-1137.000
294.896;   47.800; -125.000;    5.000
295.035; -137.450;-1040.000;-1006.000
295.174; -128.725;-1082.000; -954.000
295.312;  -52.725; -323.000; -203.000
295.451;  -15.750; -307.000; -428.000
295.589;  -53.850; -389.000; -518.000
295.728;   17.175; -292.000; -165.000
295.866;    9.750;  -36.000;  -51.000
296.005;  -66.325; -584.000; -341.000
296.143;  -78.075; -558.000; -596.000
296.282; -117.200; -957.000; -881.000
296.420;  -94.250; -657.000; -557.000
296.559;  -81.750; -892.000; -633.000
296.697;   14.525; -847.000; -665.000
296.835;   20.000;-1141.000;-1002.000
296.974;   45.250;  -23.000;   39.000
297.112;    0.525; -443.000; -504.000
297.251;  -94.050; -815.000; -755.000
297.389;   74.425; -576.000; -438.000
297.527;   26.825; -145.000;  -83.000
297.666;  -62.250; -486.000; -438.000
297.804;  -57.850; -404.000; -264.000
297.942;  -20.575; -136.000; -161.000
298.081;  -13.000; -183.000;   63.000
298.219;   54.625;  -17.000;  -19.000
298.357;   27.450; -144.000;  -71.000
298.495;    6.175; -810.000; -812.000
298.634;   59.900;  245.000;  219.000
298.772;   30.025; -220.000; -338.000
298.910;  -44.875; -309.000; -182.000
299.048;  -17.400; -130.000; -153.000
299.187;  -25.275; -350.000; -250.000
299.325;   12.825;   52.000;  122.000
299.463;   33.050; -389.000; -299.000
299.601;   75.200; -327.000; -271.000
299.739; -107.100; -908.000; -883.000
299.877;  -92.275; -791.000; -703.000
300.016;  -57.875;-1095.000; -935.000
300.154;  134.275;  -19.000; -161.000
300.292;   29.725; -428.000; -348.000
300.430;   23.400; -408.000; -291.000
300.568; -123.625; -940.000; -874.000
300.706;  -61.775; -366.000; -469.000
300.844; -103.150;-1108.000; -979.000
300.982;  107.075;  246.000;  282.000
301.120; -114.175; -965.000; -866.000
301.258;  -76.300; -812.000; -705.000
301.396;   32.950;  104.000;  -41.000
301.534;   47.350; -218.000; -293.000
301.672;  -37.550; -664.000; -521.000
301.810;    3.450; -613.000; -545.000
301.948;   94.625;   53.000;  149.000
302.086;  537.875; -250.000;  -32.000
302.224;  831.875; -610.000; -585.000
302.362;    9.375; -558.000; -622.000
302.500;  -33.775; -923.000; -893.000
302.638;   87.450;  128.000;  245.000
302.776;  -11.850; -352.000; -408.000
302.913;   30.850;  447.000;  236.000
303.051;  -11.100;  -86.000;  -23.000
303.189;   40.950;   90.000;  118.000
303.327;  -46.375; -341.000; -256.000
303.465;  -90.550; -832.000; -588.000
303.603;  -80.525; -805.000; -604.000
303.740;   77.375;  417.000;  241.000
303.878;  -14.725; -800.000; -759.000
304.016;  -98.325; -915.000; -790.000
304.154; -128.425;-1123.000;-1152.000
304.291;  -45.525; -505.000; -554.000
304.429;    5.000;  102.000;   74.000
304.567; -132.000; -908.000; -893.000
304.705;  -54.075; -408.000; -515.000
304.842;   72.425; -616.000; -540.000
304.980;   35.550;  215.000;   35.000
305.118;   19.200; -367.000; -365.000
305.255;  -93.150; -945.000; -927.000
305.393;   52.475;  178.000;  239.000
305.531; -112.675;-1173.000; -956.000
305.668;  -80.350; -663.000; -582.000
305.806;   70.250; -358.000; -439.000
305.943;   79.850; -629.000; -637.000
306.081;   37.575; -378.000; -267.000
306.219; -104.725; -863.000; -748.000
306.356;   -6.950;  158.000;   27.000
306.494;   98.825;  981.000;  761.000
306.631;  -11.150;  -11.000;  -55.000
306.769;  -13.675; -613.000; -485.000
306.906;  -38.700; -284.000; -258.000
307.044;  -64.475; -473.000; -488.000
307.181;  -59.325; -410.000; -332.000
307.319;    9.175;  112.000;   87.000
307.456; -178.950;-1191.000;-1153.000
307.594; -113.750; -980.000; -727.000
307.731;   -9.925; -371.000; -164.000
307.868;  -14.550;  -15.000;   20.000
308.006; -141.825; -961.000; -847.000
308.143;  -79.000; -618.000; -330.000
308.281;  111.800;  -37.000; -254.000
308.418;  -18.850; -748.000; -640.000
308.555;  -70.850; -400.000; -250.000
308.693;  -74.325; -577.000; -573.000
308.830; -113.650; -712.000; -657.000
308.967;  -28.800; -215.000;  -95.000
309.105;  -58.750; -507.000; -396.000
309.242;   15.800; -468.000; -367.000
309.379;  226.975; -577.000; -655.000
309.517;  -73.625; -936.000; -948.000
309.654; -118.650; -910.000; -734.000
309.791;  -72.050; -662.000; -580.000
309.928; -127.350; -977.000; -914.000
310.065;  174.150;  819.000;  697.000
310.203;  -23.875; -825.000; -850.000
310.340;  -17.800; -465.000; -321.000
310.477;  -88.050; -412.000; -516.000
310.614;  -82.350; -383.000; -473.000
310.751;  -84.175; -427.000; -518.000
310.889;  -33.225;    1.000;   11.000
311.026; -161.250;-1161.000; -939.000
311.163;  -53.000; -386.000; -380.000
311.300;  -75.975; -512.000; -479.000
311.437;  -79.700; -658.000; -619.000
311.574; -164.425;-1226.000; -985.000
311.711;  -80.250; -595.000; -433.000
311.848;  -51.525; -380.000; -388.000
311.985;    1.825;  270.000;   93.000
312.122; -133.950; -932.000; -762.000
312.259; -134.925; -941.000; -994.000
312.396;  -79.900; -508.000; -551.000
312.533;  -94.650; -812.000; -790.000
312.670; -136.175;-1070.000; -898.000
312.807;  -34.600; -352.000; -367.000
312.944;  -95.200; -513.000; -611.000
313.081;  -40.475; -150.000; -415.000
313.218; -110.400;-1111.000; -867.000
313.355;   -2.625; -531.000; -449.000
313.492;  -13.475; -455.000; -292.000
313.629;  124.450;  815.000;  735.000
313.766; -165.400;-1176.000;-1008.000
313.902;  -14.300; -186.000;   21.000
314.039;  -52.975; -372.000; -289.000
314.176;   19.850;  286.000;  192.000
314.313;  -88.475; -569.000; -473.000
314.450;  -97.625; -788.000; -684.000
314.587;  -68.450; -468.000; -480.000
314.723;   -2.150;  -78.000;  130.000
314.860;   28.600;  318.000;  332.000
314.997;   20.925;  223.000;  142.000
315.134;  -41.925; -385.000; -368.000
315.270;  -37.175; -480.000; -496.000
315.407; -143.800;-1094.000; -967.000
315.544;  -56.275; -657.000; -538.000
315.681;  -69.425; -681.000; -565.000
315.817;    4.375; -133.000; -176.000
315.954;    5.375; -613.000; -392.000
316.091; -134.025;-1045.000;-1023.000
316.227;  -33.375;  -71.000; -179.000
316.364;  -12.950;   23.000;    6.000
316.500;  -53.425; -113.000; -300.000
316.637;  -38.925; -181.000; -302.000
316.774;  -83.500; -625.000; -358.000
316.910;  -99.150; -598.000; -629.000
317.047;  -86.350; -487.000; -351.000
317.183;  -61.825; -435.000; -566.000
317.320;   -5.500; -367.000; -321.000
317.456;  -72.375; -733.000; -805.000
317.593; -117.975; -598.000; -641.000
317.729;    7.100;  168.000;  -67.000
317.866; -199.850;-1434.000;-1285.000
318.002; -102.750; -708.000; -948.000
318.139;  -98.800; -883.000; -867.000
318.275; -120.050;-1003.000; -738.000
318.412;  -76.500; -517.000; -336.000
318.548;  -49.625; -751.000; -720.000
318.685; -104.675; -985.000; -888.000
318.821;  -95.250; -762.000; -735.000
318.957;  -28.225;   34.000;  -23.000
319.094;   29.075;  297.000;  154.000
319.230;  -83.775; -756.000; -742.000
319.367;  109.550; -471.000; -520.000
319.503;   31.525; -538.000; -436.000
319.639;  -92.975; -877.000; -793.000
319.775;  -76.775; -750.000; -685.000
319.912;  -57.500; -424.000; -519.000
320.048; -104.200;-1184.000;-1184.000
320.184;   69.500;   59.000;   70.000
320.321;  -62.075; -497.000; -467.000
320.457;   62.350;  475.000;  662.000
320.593;  -68.275; -375.000; -382.000
320.729; -103.225; -732.000; -734.000
320.866;  -79.950; -577.000; -635.000
321.002;  -81.800; -759.000; -809.000
321.138;  -20.025; -135.000; -211.000
321.274;   62.275; -148.000; -115.000
321.410;  -36.875; -585.000; -353.000
321.546;  -56.450;-1011.000; -911.000
321.683;   35.150;  400.000;  185.000
321.819;   -2.575;  -48.000; -117.000
321.955; -111.725; -743.000; -722.000
322.091;  -53.125; -585.000; -540.000
322.227;  -19.200; -382.000; -202.000
322.363;  -31.750; -320.000; -215.000
322.499;  -40.125; -343.000; -331.000
322.635;  136.325;  636.000;  443.000
322.771;   13.200; -139.000;   12.000
322.907;   71.000;  129.000;  327.000
323.043;  -22.900; -115.000; -206.000
323.179;  -42.550; -394.000; -363.000
323.315;    5.000; -401.000; -371.000
323.451;   52.325; -328.000; -236.000
323.587;   64.000;  -60.000;  -77.000
323.723;   -3.775; -682.000; -601.000
323.859;  -22.975; -258.000;  -76.000
323.995;  -45.150; -467.000; -409.000
324.131; -145.975; -967.000; -892.000
324.267;  -50.350; -254.000; -276.000
324.402; -138.750; -960.000; -983.000
324.538;  -25.000; -279.000; -104.000
324.674;   12.000;  164.000;   77.000
324.810;   92.275;  226.000;  308.000
324.946;  -25.400; -810.000; -658.000
325.082;  -88.500; -568.000; -475.000
325.217;  -18.400;  -62.000;   16.000
325.353; -105.050; -764.000; -659.000
325.489;  -84.075; -540.000; -506.000
325.625;  -78.900; -579.000; -525.000
325.760;   72.475;  517.000;  376.000
325.896;  -32.700; -515.000; -702.000
326.032;  -64.500; -403.000; -352.000
326.168;  -61.125; -462.000; -369.000
326.303;  -58.925; -352.000; -461.000
326.439;  -21.100; -336.000; -276.000
326.575;   -5.325; -190.000;  -29.000
326.710;  -11.500; -156.000;  -30.000
326.846;  -25.925;  146.000;  103.000
326.982;  -87.425; -530.000; -548.000
327.117;  -84.625; -481.000; -442.000
327.253;  -86.200; -745.000; -742.000
327.388; -156.325;-1137.000;-1153.000
327.524;  -71.450; -811.000; -578.000
327.659;  -22.875;  -58.000;  -22.000
327.795;  -16.950;   69.000;   45.000
327.931;  -98.525; -723.000; -499.000
328.066;  -42.875; -417.000; -276.000
328.202;  -18.300;   12.000; -129.000
328.337;   90.825;  957.000;  713.000
328.473;   36.950;  -12.000;  -74.000
328.608;  -25.325; -256.000; -267.000
328.743;  -95.700; -799.000; -664.000
328.879;   10.200;  214.000;  114.000
329.014;  -18.675; -102.000; -122.000
329.150;  -91.125; -358.000; -483.000
329.285;  -88.450; -465.000; -466.000
329.421;  -68.025; -548.000; -246.000
329.556;  -26.625;  -36.000;   85.000
329.691; -106.750; -633.000; -615.000
329.827;  -80.750; -626.000; -480.000
329.962;  -43.975;  131.000; -301.000
330.097;  -95.650; -673.000; -585.000
330.233;  -63.500; -410.000; -223.000
330.368; -115.125; -839.000; -628.000
330.503;  -27.000;    3.000;   98.000
330.638;   -6.300;  -93.000; -125.000
330.774;  -65.100; -609.000; -530.000
330.909;  -47.550; -434.000; -244.000
331.044;  -97.475; -714.000; -708.000
331.179; -185.525;-1217.000;-1109.000
331.315;   10.225;   77.000;   20.000
331.450;   17.650;  157.000;  285.000
331.585;  -99.500; -805.000; -706.000
331.720; -107.400; -510.000; -460.000
331.855;  -17.925;  -35.000; -102.000
331.990;  245.025;   62.000;  138.000
332.126;  137.600; -110.000;   71.000
332.261;  -17.675; -379.000; -265.000
332.396;   -9.225; -135.000; -242.000
332.531; -106.425;-1074.000;-1031.000
332.666;   27.625; -519.000; -363.000
332.801; -109.400; -726.000; -807.000
332.936;  -35.025; -192.000; -122.000
333.071; -157.225; -870.000; -817.000
333.206;   14.125;  307.000;  379.000
333.341;   27.825;  344.000;  418.000
333.476;  -96.675; -627.000; -623.000
333.611;  -43.075; -251.000; -173.000
333.746;  -48.400; -381.000; -464.000
333.881; -136.175; -973.000; -935.000
334.016; -139.000; -936.000; -917.000
334.151; -129.550; -746.000; -702.000
334.286;   17.150;  152.000;  186.000
334.421;  -15.850; -125.000; -178.000
334.556;  -98.900; -611.000; -567.000
334.690; -102.250; -631.000; -577.000
334.825;   38.900;  381.000;   83.000
334.960;  -65.800; -285.000; -413.000
335.095;   -2.025;  135.000;  -91.000
335.230; -106.475; -722.000; -738.000
335.365; -149.425;-1084.000; -990.000
335.499; -139.200;-1108.000;-1037.000
335.634;   18.225;    9.000;  534.000
335.769;  -95.050; -755.000; -720.000
335.904;  -78.025; -603.000; -561.000
336.038;  -54.775; -735.000; -657.000
336.173; -121.300;-1206.000;-1194.000
336.308;   -6.425; -116.000; -189.000
336.443;   18.275; -544.000; -634.000
336.577;  -77.025; -936.000; -787.000
336.712;   56.650;   -4.000;  -12.000
336.847;  -58.825; -724.000; -607.000
336.981;   50.600; -272.000; -208.000
337.116;  250.875;  615.000;  501.000
337.250;  121.300; -434.000; -421.000
337.385;  250.025; -297.000; -208.000
337.520;   99.625; -632.000; -603.000
337.654;  -45.775; -215.000; -126.000
337.789; -123.125; -989.000; -933.000
337.923;  -44.625; -104.000; -205.000
338.058; -102.700; -673.000; -738.000
338.192;  -40.850; -611.000; -488.000
338.327;   -7.750;  -18.000; -155.000
338.461;  -93.550; -299.000; -469.000
338.596;  -89.025; -780.000; -638.000
338.730; -107.700; -767.000; -803.000
338.865;   85.200;  -46.000; -140.000
338.999;  -44.575; -846.000; -702.000
339.134;  -28.675; -634.000; -536.000
339.268;   -1.075; -741.000; -603.000
339.403;  382.675; -740.000; -775.000
339.537;  121.950; -894.000; -820.000
339.671; -118.550; -829.000; -813.000
339.806;  -61.925; -556.000; -512.000
339.940;    5.000; -261.000; -235.000
340.074;  -93.500; -685.000; -510.000
340.209;  -46.300; -351.000; -230.000
340.343;  -78.550; -517.000; -573.000
340.477;  133.225;  998.000; 1036.000
340.612;  -62.050;-1033.000; -900.000
340.746;  129.875; -199.000; -243.000
340.880;  -88.125; -924.000; -785.000
341.014;  -17.700;  -45.000; -154.000
341.149; -112.700; -756.000; -718.000
341.283; -122.500; -839.000; -754.000
341.417; -118.675;-1124.000; -938.000
341.551;   94.300; -768.000; -708.000
341.685;  -48.825; -633.000; -611.000
341.820;  -59.825; -562.000; -493.000
341.954;  -52.975; -218.000; -349.000
342.088; -157.050;-1102.000;-1019.000
342.222;   53.700;  565.000;  618.000
342.356;  -78.275; -395.000; -335.000
342.490; -100.400; -880.000; -841.000
342.624;  -54.450; -339.000; -242.000
342.758;  -18.675; -364.000; -312.000
342.892;  -80.675; -710.000; -585.000
343.026;  -39.475;  -58.000; -116.000
343.160;  -72.300; -426.000; -376.000
343.294;  -89.275; -474.000; -337.000
343.428;  -36.200; -488.000; -448.000
343.562;  -23.225; -172.000;  -23.000
343.696;  -42.500; -385.000; -314.000
343.830;  -24.175; -362.000; -356.000
343.964;   -3.025; -231.000; -168.000
344.098;  788.350;  199.000;   70.000
344.232;  656.000; -266.000; -127.000
344.366;   63.700; -567.000; -453.000
344.500;   16.525; -665.000; -744.000
344.634;   13.850; -324.000; -164.000
344.768;  -26.275; -531.000; -341.000
344.902;   17.500;  278.000;  256.000
345.035;  -83.200; -556.000; -496.000
345.169; -145.650; -933.000; -656.000
345.303;  -49.775; -308.000; -482.000
345.437;  -87.175; -826.000; -717.000
345.571;  -74.125; -675.000; -594.000
345.704;  -76.125; -309.000; -532.000
345.838;  -17.950; -331.000; -284.000
345.972;  -44.400; -543.000; -495.000
346.106;  162.100; -179.000; -190.000
346.239;  383.975; -312.000; -243.000
346.373;   -2.800; -343.000; -302.000
346.507; -136.750; -950.000; -962.000
346.640;  114.550;  -30.000;   13.000
346.774;  -60.950; -650.000; -797.000
346.908;  -26.875; -138.000;  -11.000
347.041; -106.225; -646.000; -593.000
347.175;   -6.500;  259.000;   27.000
347.309;  -99.550; -698.000; -628.000
347.442; -112.400; -883.000; -732.000
347.576;  240.675;  670.000;  668.000
347.709;  149.200; -123.000;  -52.000
347.843;  -92.600; -933.000; -825.000
347.976;   21.275;  235.000;  294.000
348.110; -185.300;-1268.000;-1186.000
348.243; -114.000; -679.000; -772.000
348.377;   -6.150;  -26.000;   60.000
348.510;   52.450;  403.000;  540.000
348.644;  -49.825;  -37.000; -159.000
348.777;  -14.050;  180.000;  191.000
348.911;  -47.100; -142.000; -112.000
349.044;  146.950;  471.000;  448.000
349.178;   93.150;-1069.000;-1006.000
349.311;  102.075;  141.000;  255.000
349.444;   -2.125; -927.000; -813.000
349.578;  -12.700; -347.000; -200.000
349.711; -110.725; -959.000; -862.000
349.845;  -11.950; -661.000; -591.000
349.978; -166.700;-1224.000;-1137.000
350.111;  -99.125; -546.000; -612.000
350.244;  -82.950; -596.000; -700.000
350.378;  -22.550; -392.000; -393.000
350.511;  -76.450; -393.000; -426.000
350.644; -109.075; -808.000; -806.000
350.778;   13.725;  168.000;  104.000
350.911;  -11.925;  134.000;  140.000
351.044;  -93.525; -685.000; -615.000
351.177;  -41.175; -321.000; -281.000
351.310;  -33.300;    3.000; -131.000
351.444;  -91.925; -888.000; -788.000
351.577;   90.400;  140.000;   90.000
351.710;   92.225;  593.000;  417.000
351.843;  -47.825; -165.000;  -77.000
351.976;   -9.150;  149.000;  -79.000
352.109;  -83.425; -621.000; -612.000
352.242;  -33.900; -464.000; -419.000
352.376;  -69.950; -580.000; -636.000
352.509;  125.725; -437.000; -356.000
352.642;  -14.675; -654.000; -604.000
352.775;   38.550; -141.000;  -98.000
352.908; -126.025; -933.000; -904.000
353.041; -109.075; -814.000; -824.000
353.174;  -70.425; -551.000; -424.000
353.307;  -95.225; -753.000; -764.000
353.440;   63.850;  541.000;  453.000
353.573; -117.100; -957.000;-1008.000
353.706;  -28.050; -384.000; -558.000
353.839;  -22.300; -264.000; -220.000
353.971; -109.925; -657.000; -512.000
354.104;  -89.025; -896.000; -835.000
354.237;  -57.150; -627.000; -662.000
354.370;  -86.575; -846.000; -879.000
354.503; -187.350;-1231.000;-1308.000
354.636;  -37.200; -529.000; -348.000
354.769; -123.225; -937.000; -860.000
354.902;  -26.925; -230.000; -139.000
355.034;  -30.175; -164.000; -220.000
355.167;  -17.700; -262.000; -162.000
355.300;  -88.425;-1061.000; -880.000
355.433;  993.475;  -71.000;  -14.000
355.565; 1496.800; -402.000; -384.000
355.698;  384.175; -356.000; -296.000
355.831;  -25.225; -882.000; -801.000
355.964;   60.225; -285.000; -170.000
356.096;  -95.000; -856.000; -843.000
356.229;  -27.425; -523.000; -530.000
356.362;  304.150; -373.000; -266.000
356.494;  607.400; -229.000; -162.000
356.627;  433.850;  269.000;  377.000
356.760;  658.425;  120.000;   53.000
356.892;  995.000; -286.000; -601.000
357.025;  575.100;  403.000;  389.000
357.157;  508.975; -167.000; -179.000
357.290;  695.975; -856.000; -713.000
357.423;  200.800; -667.000; -556.000
357.555;   80.775; -217.000; -228.000
357.688;   95.875; -483.000; -364.000
357.820;  407.700; -870.000; -877.000
357.953; 3361.650; -563.000; -589.000
358.085;  700.750; -632.000; -612.000
358.218;  909.675;-1131.000; -932.000
358.350;  158.425;  -58.000;  312.000
358.483; -139.475;-1300.000;-1187.000
358.615;  -48.575;-1182.000;-1078.000
358.747;  -97.075;-1187.000;-1058.000
358.880;   -5.650; -810.000; -744.000
359.012;  -14.700; -376.000; -202.000
359.145;  -54.125; -480.000; -511.000
359.277;   24.500; -962.000; -913.000
359.409; 2763.775;  536.000;  231.000
359.542;  706.800; -738.000; -688.000
359.674;   59.350;   46.000;   13.000
359.806;  -64.825; -565.000; -438.000
359.939;  -50.175; -617.000; -516.000
360.071;  -11.875; -583.000; -579.000
360.203;  -28.300; -411.000; -364.000
360.335;   35.075;  164.000;  -16.000
360.468;  171.725; -249.000; -307.000
360.600; 2259.325; -547.000; -454.000
360.732; 2934.875; -546.000; -423.000
360.864;  383.550;-1216.000;-1044.000
360.996;  227.100; -516.000; -554.000
361.129;   23.050; -389.000; -598.000
361.261;    8.200;  110.000; -113.000
361.393;  -35.350; -252.000; -214.000
361.525;   14.725;   94.000;  244.000
361.657;  -56.025; -821.000; -703.000
361.789;  -10.250; -139.000; -155.000
361.921;  163.550; -642.000; -593.000
362.053;  219.125;  524.000;  541.000
362.185;   24.625;  288.000;   72.000
362.318;  -84.550; -709.000; -705.000
362.450;   90.750;  294.000;  444.000
362.582;   35.175; -913.000; -870.000
362.714;  -42.025; -353.000; -332.000
362.846;  -87.900; -606.000; -490.000
362.978; -138.750; -941.000; -811.000
363.109;   26.000; -161.000; -260.000
363.241;  350.125; -739.000; -749.000
363.373;  429.875; -649.000; -564.000
363.505;  688.200; -186.000;  -91.000
363.637;  142.625; -787.000; -601.000
363.769; -139.800;-1067.000;-1080.000
363.901;  -68.900; -596.000; -654.000
364.033; -134.650;-1103.000;-1062.000
364.165;  -24.975; -283.000; -283.000
364.296;   62.525; -316.000; -177.000
364.428;   84.150;-1344.000;-1220.000
364.560;  -76.800; -679.000; -661.000
364.692;  -73.125; -738.000; -835.000
364.824;  198.800; -588.000; -456.000
364.955;  412.725; -402.000; -564.000
365.087;  972.500;-1097.000; -852.000
365.219;   20.425; -686.000; -816.000
365.351;  -74.500; -526.000; -572.000
365.482;   34.925;  300.000;  240.000
365.614;  -51.500; -402.000; -314.000
365.746; -107.875; -729.000; -752.000
365.877; -105.600; -706.000; -672.000
366.009;  264.850;  -35.000;  -62.000
366.141;  -86.400;-1249.000;-1134.000
366.272; -102.350; -803.000; -719.000
366.404; -122.225;-1005.000; -874.000
366.535;  -25.875; -139.000;  -12.000
366.667; -119.300; -644.000; -649.000
366.799;   31.875;  353.000;  203.000
366.930; -132.300; -862.000; -996.000
367.062;  120.150; -639.000; -613.000
367.193;  162.850; -872.000; -842.000
367.325;  -72.475; -580.000; -684.000
367.456;   25.300; -246.000;   31.000
367.588;  167.075; -371.000; -318.000
367.719;   22.475;  -44.000;  -45.000
367.851;  -28.050; -222.000; -241.000
367.982;  -78.950; -875.000; -732.000
368.113;   68.600; -475.000; -358.000
368.245; -135.700; -960.000; -841.000
368.376;  -37.950; -254.000; -302.000
368.508;  -54.300; -188.000; -263.000
368.639; -147.700;-1166.000;-1034.000
368.770;  -56.750; -670.000; -589.000
368.902;  -76.475; -836.000; -926.000
369.033; -114.400; -906.000; -855.000
369.164;  -50.325; -720.000; -653.000
369.296; -117.700; -452.000; -601.000
369.427;  -21.400; -209.000; -144.000
369.558;  -53.975; -593.000; -377.000
369.689;  -90.975; -721.000; -569.000
369.821; -138.300; -951.000; -845.000
369.952;  -10.625;   42.000; -108.000
370.083;  -49.650; -229.000; -108.000
370.214;  -96.500; -735.000; -650.000
370.345;  -11.375;   65.000;   81.000
370.477; -101.400; -810.000; -790.000
370.608;  178.025; -328.000; -264.000
370.739;  -66.325;-1233.000;-1292.000
370.870;  -76.300;-1102.000; -923.000
371.001;   47.900; -378.000; -467.000
371.132;  -82.875; -754.000; -735.000
371.263;  -31.325;  -42.000; -148.000
371.394; -136.825; -841.000; -748.000
371.525;   10.375;  345.000;  225.000
371.657; -110.675; -808.000; -670.000
371.788;   60.100;  103.000;  199.000
371.919;  135.375; -384.000; -304.000
372.050; 3189.300;  -91.000; -156.000
372.181;  957.800; -188.000; -294.000
372.311;  319.125;   42.000; -127.000
372.442;    0.475; -457.000; -451.000
372.573;  -34.850; -444.000; -340.000
372.704; -142.125;-1008.000; -980.000
372.835;   64.125; -228.000; -289.000
372.966;  -82.100; -646.000; -554.000
373.097;  -80.725; -575.000; -711.000
373.228;  -56.725; -717.000; -542.000
373.359;   75.875; -824.000; -536.000
373.490;  774.350; -881.000; -727.000
373.620;  983.725;-1001.000; -803.000
373.751; 1513.025; -332.000; -396.000
373.882;  667.650; -663.000; -733.000
374.013;   24.475; -449.000; -262.000
374.143;  -49.850; -581.000; -659.000
374.274; -116.300; -987.000; -908.000
374.405;  143.975; -388.000; -276.000
374.536;  379.675; -526.000; -387.000
374.666;  932.600; -759.000; -807.000
374.797;  146.625; -817.000; -868.000
374.928;  690.150; -710.000; -560.000
375.058;  750.575; -535.000; -500.000
375.189;   61.475;  -59.000;  -93.000
375.320; -119.050; -928.000;-1034.000
375.450;  -46.775; -625.000; -616.000
375.581;  -53.425; -526.000; -436.000
375.712;  -40.075; -574.000; -250.000
375.842;  237.425; -438.000; -415.000
375.973;  162.375; -554.000; -513.000
376.103;  -77.775; -665.000; -648.000
376.234;  -66.700; -531.000; -552.000
376.364;  -60.450; -944.000; -867.000
376.495;  277.325;  925.000;  529.000
376.625;  -24.375; -472.000; -485.000
376.756;   16.225; -709.000; -678.000
376.886; -102.025;-1178.000;-1026.000
377.017;   64.700;-1048.000;-1061.000
377.147;  365.925; -786.000; -782.000
377.278;   57.975;  174.000;  228.000
377.408; -126.850; -801.000; -815.000
377.538; -104.575; -707.000; -693.000
377.669;  -89.825; -537.000; -613.000
377.799; -100.450; -645.000; -635.000
377.929;  -76.850; -610.000; -428.000
378.060; -131.625; -781.000; -847.000
378.190;  -57.625; -726.000; -531.000
378.320;  -62.575; -401.000; -406.000
378.451;  -10.875; -131.000;  -22.000
378.581;  -15.300;  -67.000; -110.000
378.711;  134.075; 1035.000;  866.000
378.841;  -51.925; -533.000; -675.000
378.972;  -75.375; -871.000; -751.000
379.102;  -33.800; -652.000; -579.000
379.232;  -20.500; -126.000;  -73.000
379.362; -127.775;-1001.000; -885.000
379.492;   -5.350; -373.000; -424.000
379.623;   94.600;    0.000;  111.000
379.753; -125.675;-1107.000; -974.000
379.883;  160.300;   59.000;  156.000
380.013;  -23.825;-1081.000;-1017.000
380.143; -106.825;-1097.000;-1056.000
380.273; -116.625; -985.000; -861.000
380.403;  -22.325; -344.000; -257.000
380.533;  -49.675; -651.000; -664.000
380.663;   48.975;  173.000;  128.000
380.793; -113.050;-1027.000;-1074.000
380.923;  -24.775; -103.000;  -34.000
381.053; -106.250; -613.000; -623.000
381.183;  -37.650; -106.000; -248.000
381.313;   15.325; -656.000; -470.000
381.443;   18.000; -692.000; -473.000
381.573;  137.375; -402.000; -409.000
381.703;  189.625;-1249.000;-1095.000
381.833; -148.200;-1454.000;-1336.000
381.963;   81.600; -134.000;  -87.000
382.093; 1242.850; -925.000; -909.000
382.223;  357.275; -713.000; -602.000
382.353;  -33.225; -801.000; -608.000
382.482;  279.525;-1091.000; -964.000
382.612;  661.075; -872.000; -644.000
382.742;  355.625; -695.000; -622.000
382.872;  209.000; -565.000; -551.000
383.002;   44.275;  347.000; -132.000
383.131;  -43.150; -226.000; -160.000
383.261;  -48.225; -706.000; -768.000
383.391;  272.725; -552.000; -377.000
383.521; 3357.875;  451.000;  263.000
383.650;  821.500; -947.000; -904.000
383.780;  -19.825; -783.000; -656.000
383.910;   95.050;  880.000;  802.000
384.039;   -2.525; -794.000; -656.000
384.169;  150.425;-1205.000;-1017.000
384.299;  -46.925; -650.000; -662.000
384.428; -104.550; -764.000; -680.000
384.558;  -61.175; -308.000; -275.000
384.687;  -68.125; -414.000; -334.000
384.817;   -8.900;   75.000;   -2.000
384.947;    9.450; -234.000; -141.000
385.076;  245.200;  982.000;  912.000
385.206;   85.700;  369.000;  480.000
385.335;  -51.650; -549.000; -417.000
385.465;  -89.225; -655.000; -663.000
385.594;   98.175;  -53.000;  -44.000
385.724;  319.050; -868.000; -838.000
385.853;   87.025; -296.000; -270.000
385.982; 1174.250; -743.000; -787.000
386.112; 1833.450;-1052.000; -871.000
386.241;  109.675; -307.000; -312.000
386.371;    8.800; -174.000;  -87.000
386.500;  -33.950; -825.000; -789.000
386.629;   10.425; -874.000; -817.000
386.759;   54.600;  -43.000;   68.000
386.888;  -15.750; -170.000; -250.000
387.017;  -86.575; -648.000; -620.000
387.147; -106.900; -771.000; -798.000
387.276;  -27.800; -410.000; -397.000
387.405;   -7.525; -398.000; -342.000
387.535;  -53.125; -452.000; -361.000
387.664;  -88.825; -692.000; -620.000
387.793;   33.000; -198.000; -113.000
387.922;  425.050;  255.000;  200.000
388.052;   -9.425; -576.000; -423.000
388.181;  -11.125; -342.000; -472.000
388.310;  -36.700; -889.000; -710.000
388.439;  -67.400; -749.000; -742.000
388.568;  148.575;  365.000;  244.000
388.697;  870.375; -756.000; -653.000
388.826;  159.450; -768.000; -666.000
388.956;   25.725; -285.000; -307.000
389.085;  -50.225; -347.000; -287.000
389.214; -135.125; -842.000; -872.000
389.343;  -68.125; -645.000; -413.000
389.472;  395.475;  126.000;  149.000
389.601;  500.775;   91.000;    0.000
389.730;   -0.275; -568.000; -687.000
389.859;   35.025;  226.000;   46.000
389.988;  139.875; -423.000; -408.000
390.117;  109.875; -168.000; -146.000
390.246;  -23.225; -331.000; -320.000
390.375;   54.450; -673.000; -626.000
390.504;  -84.000; -703.000; -621.000
390.633; -118.750; -672.000; -726.000
390.761;  -73.950; -732.000; -645.000
390.890;  -10.725;   -4.000; -130.000
391.019;  -52.250; -421.000; -441.000
391.148; -125.975; -826.000; -855.000
391.277;  -77.150; -576.000; -493.000
391.406;  -91.025; -821.000; -805.000
391.534;   28.750;  574.000; -301.000
391.663;  -83.675; -583.000; -645.000
391.792;  -90.625; -673.000; -701.000
391.921;   57.675;   -3.000;   15.000
392.050;  137.650; -287.000; -228.000
392.178;  -66.025;-1206.000;-1061.000
392.307;   97.375; -758.000; -712.000
392.436;   37.025; -427.000; -641.000
392.564;    4.025;  166.000;   -6.000
392.693; -108.675; -860.000; -682.000
392.822;  145.275; -529.000; -534.000
392.950;   42.975; -880.000; -714.000
393.079;  265.625; -188.000; -328.000
393.208;    0.600; -488.000; -511.000
393.336;  -29.600; -170.000; -145.000
393.465;  -56.700; -317.000; -199.000
393.593;  -13.225;   62.000;   79.000
393.722; -164.350;-1121.000; -916.000
393.850;  -51.075; -188.000;  -61.000
393.979; -173.400; -926.000; -805.000
394.107;  -78.950; -517.000; -537.000
394.236;  -20.300; -570.000; -507.000
394.364;  165.550;  383.000;  206.000
394.493;  255.400; -911.000; -767.000
394.621;  -27.875; -955.000; -916.000
394.750;  737.000; -873.000; -923.000
394.878; 3011.600; -247.000; -149.000
395.007; 4145.025; -721.000; -807.000
395.135;  299.875; -790.000; -721.000
395.263;  -86.750;-1038.000;-1040.000
395.392;   -8.975;  -25.000; -107.000
395.520; -150.575; -818.000; -679.000
395.648; -107.975; -865.000; -915.000
395.777;  -30.375; -366.000; -405.000
395.905;  -57.325; -449.000; -564.000
396.033;   -3.600;  217.000;  172.000
396.162;  436.450; -399.000; -453.000
396.290;  378.950;  -17.000;   -2.000
396.418;   53.650; -555.000; -514.000
396.546;  -90.375; -571.000; -466.000
396.674; -112.850; -850.000; -878.000
396.803;   -8.600;  -72.000;  -23.000
396.931;   52.625; -179.000; -199.000
397.059;   -2.750;-1026.000; -989.000
397.187; -131.525;-1026.000; -975.000
397.315; -141.375; -884.000; -649.000
397.443; -103.950; -592.000; -443.000
397.572;  -95.975; -578.000; -424.000
397.700;  -35.275; -607.000; -614.000
397.828;   -6.925;  120.000;  -90.000
397.956;  -49.350; -508.000; -478.000
398.084;  -81.025; -767.000; -626.000
398.212;    4.375;  137.000;  124.000
398.340;   -5.875;  -56.000;  159.000
398.468;    4.300; -390.000; -169.000
398.596; -137.425; -993.000; -953.000
398.724; -124.975; -762.000; -767.000
398.852; -172.100;-1024.000; -976.000
398.980;  -67.250; -560.000; -560.000
399.108;  -75.150; -982.000; -735.000
399.236;   20.475;   13.000;    8.000
399.363;   -6.250;  222.000;  196.000
399.491;  -64.925; -404.000; -398.000
399.619; -136.425; -829.000; -800.000
399.747; -121.525; -859.000; -771.000
399.875;   70.675;  220.000;  234.000
400.003;  -58.150; -359.000; -284.000
400.130;  -97.975; -421.000; -341.000
400.258;  -42.925;  -83.000;   38.000
400.386;  -64.325; -352.000; -168.000
400.514;  -58.475; -526.000; -587.000
400.641; -113.250; -928.000; -802.000
400.769; -157.950; -979.000; -888.000
400.897; -127.075; -838.000; -793.000
401.025;  -37.725; -166.000; -152.000
401.152;  -22.850;  220.000;   38.000
401.280;  -97.650; -430.000; -429.000
401.408; -118.925; -712.000; -576.000
401.535; -121.675; -735.000; -758.000
401.663; -204.225;-1134.000;-1054.000
401.790;  -95.800; -514.000; -525.000
401.918;   41.550;  436.000;  405.000
402.046;  -30.050;  134.000;  122.000
402.173;  -48.175;  -18.000;    7.000
402.301;  -66.500; -519.000; -397.000
402.428;   28.575;  528.000;  383.000
402.556; -154.050;-1188.000; -913.000
402.683;  -41.525;  -20.000;   -1.000
402.811;  -30.600;  -37.000; -206.000
402.938;  -13.275;   20.000;   27.000
403.066;  150.475; -574.000; -558.000
403.193;  274.050;  299.000;  239.000
403.321;  230.725; -396.000; -574.000
403.448;  273.650;   83.000;   27.000
403.575;  121.700;  -90.000;  -46.000
403.703; -107.975; -732.000; -557.000
403.830;  -70.500; -531.000; -496.000
403.957; -148.375;-1117.000;-1023.000
404.085;    1.050;  -61.000; -172.000
404.212;   95.425;  -50.000;   63.000
404.339;  255.400; -566.000; -306.000
404.467; 5997.850; -612.000; -524.000
404.594; 3797.600; -287.000; -227.000
404.721;  834.800; -869.000; -764.000
404.848;   58.150; -113.000; -202.000
404.976; -127.200; -856.000; -783.000
405.103;  -16.125;  -14.000;  -82.000
405.230;  -24.050;  190.000;  226.000
405.357;   14.250;  117.000;   44.000
405.484;  282.350;  -49.000;    5.000
405.612;   40.650; -548.000; -563.000
405.739;  -72.000; -488.000; -243.000
405.866;   66.175;  669.000;  385.000
405.993;  -58.725; -398.000; -102.000
406.120; -153.325; -801.000; -887.000
406.247;  -72.750; -323.000; -342.000
406.374;  350.725;  540.000;  629.000
406.501;   50.525; -632.000; -702.000
406.628;  -87.875; -621.000; -589.000
406.755; -107.300; -803.000; -620.000
406.882;  -50.450; -228.000; -277.000
407.009; -120.800; -719.000; -628.000
407.136;    7.650; -480.000; -401.000
407.263;   76.775; -939.000; -829.000
407.390; -102.050; -692.000; -614.000
407.517; -176.575;-1139.000;-1187.000
407.644;  -62.925; -332.000; -256.000
407.771;  -79.275; -249.000; -287.000
407.898;   -5.950;  168.000;  328.000
408.025;  -75.275; -421.000; -313.000
408.151;  -11.175;   82.000;  153.000
408.278;  -85.700; -267.000; -216.000
408.405; -114.975; -931.000; -899.000
408.532;  -77.775; -549.000; -542.000
408.659; -121.450; -677.000; -648.000
408.785; -198.000;-1298.000;-1170.000
408.912;  -78.750; -412.000; -296.000
409.039; -121.900; -610.000; -686.000
409.166; -114.175; -591.000; -555.000
409.292; -113.025; -571.000; -534.000
409.419; -122.650; -665.000; -649.000
409.546;  -97.850; -431.000; -192.000
409.672; -110.000; -713.000; -545.000
409.799;  -30.900;  -36.000;   34.000
409.926;  -52.225; -180.000; -179.000
410.052; -192.800;-1127.000;-1091.000
410.179;  -68.825; -368.000; -392.000
410.305;  -99.750; -375.000; -493.000
410.432;  -63.475; -220.000; -333.000
410.558;  -91.550; -305.000; -380.000
410.685; -126.100; -688.000; -431.000
410.812; -115.825; -409.000; -588.000
410.938; -152.275; -964.000; -808.000
411.065;  -97.775; -671.000; -645.000
411.191;  -13.675; -189.000; -174.000
411.317; -126.025; -823.000; -742.000
411.444;  -70.425; -317.000; -246.000
411.570;  -88.950; -339.000; -294.000
411.697; -128.300; -758.000; -752.000
411.823; -179.075; -989.000; -999.000
411.949;  -42.600;  -56.000;   17.000
412.076; -117.250; -539.000; -519.000
412.202; -113.375; -758.000; -757.000
412.329; -155.500; -798.000; -752.000
412.455; -118.500; -821.000; -657.000
412.581;  -26.525;  -15.000;  172.000
412.707;  -77.100; -540.000; -457.000
412.834;   14.375;  156.000;  219.000
412.960;  -91.000; -785.000; -784.000
413.086; -109.050; -743.000; -701.000
413.212;  127.750;  604.000;  578.000
413.339;  -80.900; -685.000; -701.000
413.465;   -8.825; -364.000; -310.000
413.591; -108.325; -757.000; -474.000
413.717;  -55.000; -358.000; -366.000
413.843; -147.550; -839.000; -861.000
413.969;  -67.075;  -47.000; -292.000
414.096; -112.675; -679.000; -679.000
414.222;  -24.025;  -33.000;   85.000
414.348;  -54.200; -652.000; -385.000
414.474;   74.250;   38.000;  -52.000
414.600;  -35.175; -126.000; -144.000
414.726;   -6.275;  -96.000;  -55.000
414.852;  -70.225; -365.000; -342.000
414.978;   28.975;  104.000;  -18.000
415.104;   17.325;   38.000;   80.000
415.230;   20.375; -329.000; -330.000
415.356;   27.425; -409.000; -514.000
415.482;  186.575;   13.000;  -35.000
415.608;  285.100; -247.000; -323.000
415.734;  950.550;   67.000;   38.000
415.860;20139.375; -875.000; -767.000
415.986;14835.550; -685.000; -607.000
416.111; 1286.225; -798.000; -652.000
416.237;  264.000; -424.000; -571.000
416.363; 1159.850; -765.000; -733.000
416.489; 4357.825; -324.000; -251.000
416.615;  488.000; -707.000; -742.000
416.741;  -25.275; -677.000; -784.000
416.866; -102.150; -673.000; -736.000
416.992; -129.200; -801.000; -818.000
417.118;  -35.400;  -41.000;  -80.000
417.244;  -87.450; -798.000; -531.000
417.369;  -91.275; -801.000; -612.000
417.495;   -5.800; -325.000; -254.000
417.621; -109.850;-1015.000; -803.000
417.746;    5.575; -579.000; -572.000
417.872;   37.875; -254.000; -144.000
417.998;   50.525; -515.000; -530.000
418.123; 1053.175;-1073.000; -845.000
418.249; 5571.975; -512.000; -601.000
418.374;  767.000; -916.000; -824.000
418.500;  109.850; -383.000; -482.000
418.626;  107.225;   70.000;  -59.000
418.751;  111.125; -549.000; -448.000
418.877;  199.900; -637.000; -643.000
419.002; 1841.900; -688.000; -560.000
419.128;13041.825; -930.000; -721.000
419.253; 3239.125; -967.000; -837.000
419.379;  428.675; -391.000; -338.000
419.504;  397.000;  325.000;  415.000
419.629;  530.200; -393.000; -212.000
419.755; 3708.125; -317.000; -254.000
419.880;22264.200;  -98.000;   67.000
420.006;11841.775; -280.000; -221.000
420.131;30385.800; -662.000; -775.000
420.256; 4413.475; -315.000; -316.000
420.382;  572.775; -665.000; -687.000
420.507;   67.175; -649.000; -778.000
420.632;  102.600; -337.000; -339.000
420.758;  195.250; -251.000; -425.000
420.883; -101.725; -876.000; -672.000
421.008; -111.075; -775.000; -619.000
421.133;  -82.050; -509.000; -467.000
421.259;  -57.500; -325.000; -259.000
421.384; -130.225; -834.000; -693.000
421.509;  -78.300;-1052.000; -862.000
421.634;  907.925; -936.000; -820.000
421.759;  395.600; -359.000; -327.000
421.885;  -70.325; -717.000; -656.000
422.010;  -92.050; -673.000; -542.000
422.135; -157.800; -695.000; -727.000
422.260;   20.850;  340.000;  280.000
422.385;  -39.400;   12.000;  -98.000
422.510;    1.775;  151.000;  -26.000
422.635;    5.875;  -87.000;  -43.000
422.760;   74.350; -766.000; -791.000
422.885;   44.350;  -57.000;  -80.000
423.010;  -37.050; -112.000; -169.000
423.135; -101.175; -481.000; -561.000
423.260;  -24.650; -150.000; -245.000
423.385;   35.850;  476.000;  222.000
423.510;    7.750;   71.000;  -22.000
423.635;   70.425;  133.000;   45.000
423.760;   56.400;  383.000;  328.000
423.885;   44.325;  336.000;  391.000
424.010;    3.400;  -68.000;  -13.000
424.135;  -24.175;    5.000;  -33.000
424.259;  -86.925; -654.000; -457.000
424.384;  -68.100; -279.000; -272.000
424.509;  -41.400; -260.000; -186.000
424.634; -108.100; -761.000; -623.000
424.759;  -44.350; -688.000; -544.000
424.883;  -25.125; -506.000; -527.000
425.008;  156.200; -502.000; -410.000
425.133; 2045.125; -679.000; -653.000
425.258;  952.350; -517.000; -381.000
425.382;  898.250; -867.000; -774.000
425.507; 2305.225; -487.000; -543.000
425.632;  404.050; -802.000; -663.000
425.756;  458.900; -256.000; -146.000
425.881; 6883.700; -831.000; -857.000
426.006;18883.425; -604.000; -355.000
426.130; 2921.225; -696.000; -508.000
426.255;  383.150; -611.000; -491.000
426.379;  164.200; -189.000; -577.000
426.504;  374.975;  660.000;  544.000
426.629; 4067.100; -519.000; -466.000
426.753; 2859.000;   64.000;  -46.000
426.878;  316.900; -252.000; -288.000
427.002;  134.025; -651.000; -668.000
427.127; 1600.475;  -35.000; -158.000
427.251;11767.550;  372.000;  401.000
427.375; 3403.550; -191.000; -173.000
427.500; 2073.525; -616.000; -610.000
427.624;  706.750; -234.000; -400.000
427.749;   62.475; -216.000; -225.000
427.873;  -46.050; -499.000; -412.000
427.997;  -47.800; -222.000; -230.000
428.122;   67.675;  795.000;  703.000
428.246;   51.425;  433.000;  434.000
428.371; -138.475; -869.000; -773.000
428.495; -122.475; -624.000; -646.000
428.619;  -40.600; -186.000; -117.000
428.743;   11.800;   65.000;  132.000
428.868;  -14.050; -732.000; -643.000
428.992; 1216.775; -219.000; -326.000
429.116;  477.400; -329.000; -357.000
429.240;  229.225;  419.000;  426.000
429.365;  -38.825; -454.000; -574.000
429.489;  -52.975; -638.000; -647.000
429.613;   15.600; -236.000; -177.000
429.737;   18.300; -563.000; -432.000
429.861;  272.450; -247.000; -133.000
429.985; 5680.575; -425.000; -305.000
430.109; 6338.200; -770.000; -908.000
430.234;  721.525;   76.000;  -50.000
430.358;   59.075; -250.000; -160.000
430.482;  -86.300; -672.000; -564.000
430.606;  -88.000; -655.000; -375.000
430.730;   -5.375; -437.000; -388.000
430.854;   46.075; -909.000; -835.000
430.978;  -88.400; -795.000; -764.000
431.102;  -88.500; -499.000; -422.000
431.226; -141.125; -874.000; -815.000
431.350;   14.400;  345.000;  422.000
431.474;  -97.200; -661.000; -373.000
431.597; -153.450;-1060.000; -848.000
431.721;  -81.850; -276.000; -267.000
431.845; -144.025; -704.000; -472.000
431.969;  -84.900; -304.000; -349.000
432.093;  -89.025; -395.000; -317.000
432.217;  -18.750;   32.000;   82.000
432.341;  -96.650; -523.000; -518.000
432.464;    7.700;   96.000;   40.000
432.588;  129.800; -401.000; -329.000
432.712;   72.300;  -52.000;  -52.000
432.836;   36.825;  213.000;  263.000
432.959;  -26.500; -372.000; -311.000
433.083;   80.975;   11.000;    2.000
433.207;  375.475;  285.000;  930.000
433.330; 5262.200; -391.000; -200.000
433.454; 6536.875; -654.000; -638.000
433.578; 3732.050;  583.000;  278.000
433.701;  682.825; -623.000; -675.000
433.825;  103.200; -292.000; -299.000
433.949;  136.375;   28.000;  -72.000
434.072;   29.125; -410.000; -323.000
434.196;  -27.075; -309.000; -117.000
434.319; 3726.600;25482.000;25124.000
434.443;  706.825; -656.000; -603.000
434.566; 2729.700;  281.000;   62.000
434.690;  462.225; -637.000; -383.000
434.813;   41.250; -251.000; -173.000
434.937;  -78.700; -569.000; -696.000
435.060;  -65.825; -423.000; -332.000
435.184;  203.400; -492.000; -217.000
435.307;   97.475;  159.000;  102.000
435.431;  -35.975;  -40.000;   24.000
435.554;  -89.750; -399.000; -240.000
435.677;  -96.225; -350.000; -258.000
435.801;  -39.600;  -25.000;   49.000
435.924;  -25.025;    1.000;  -67.000
436.048; -145.325;-1019.000; -732.000
436.171;  -88.875; -240.000;  -66.000
436.294;  -27.400; -248.000; -229.000
436.417;  102.550; -963.000; -849.000
436.541;  -98.600; -814.000; -840.000
436.664;  -62.850; -242.000; -316.000
436.787;  -43.875;   13.000;  113.000
436.910; -133.100; -792.000; -422.000
437.034;  -10.900;  142.000;  143.000
437.157;   27.425;  -11.000;    0.000
437.280;  -63.850; -392.000; -292.000
437.403;  -94.500; -982.000; -869.000
437.526;  440.500; -903.000; -865.000
437.649; 1768.575; -505.000; -332.000
437.772;  226.775; -692.000; -540.000
437.896;   97.475;  700.000;  544.000
438.019; -124.400; -758.000; -503.000
438.142; -106.625; -596.000; -506.000
438.265;  -46.975; -639.000; -670.000
438.388;  417.975; -520.000; -410.000
438.511;   53.900; -597.000; -394.000
438.634;  -71.700; -247.000; -125.000
438.757; -147.575; -693.000; -619.000
438.880;  -45.950;  -34.000;  -57.000
439.003;  -78.150; -417.000; -437.000
439.126;  -72.850; -287.000; -167.000
439.248;  -66.150;  -98.000; -139.000
439.371;  -47.975;    9.000;  -53.000
439.494;   24.250;  510.000;  439.000
439.617;  -53.825;   65.000;  -88.000
439.740; -183.775; -968.000; -816.000
439.863; -148.025; -755.000; -595.000
439.986; -123.775; -476.000; -431.000
440.108;  -61.225; -161.000; -112.000
440.231; -176.050; -950.000; -836.000
440.354;  -59.100;  -64.000; -150.000
440.477;   -6.050; -566.000; -542.000
440.599;  -33.050; -200.000; -225.000
440.722; -122.500; -709.000; -586.000
440.845;   70.825;  751.000;  928.000
440.968; -122.425; -415.000; -311.000
441.090;  -70.750; -199.000;  -33.000
441.213; -174.700;-1021.000; -825.000
441.336;  -72.400; -159.000;   -5.000
441.458;  -88.925; -549.000; -396.000
441.581;  -90.175; -628.000; -629.000
441.703;  -89.575; -152.000;   13.000
441.826; -126.100; -557.000; -400.000
441.948;  -50.825;   56.000;   51.000
442.071;   13.850;  555.000;  424.000
442.193; -130.025; -531.000; -485.000
442.316;   13.050;  152.000;   97.000
442.438;   35.725; -233.000;  -10.000
442.561;   55.350;  272.000;  262.000
442.683;  398.075; -809.000; -522.000
442.806;  916.125;   -8.000;   74.000
442.928;  -19.350; -859.000; -604.000
443.051;  -85.450; -577.000; -373.000
443.173; -100.750; -341.000; -339.000
443.295; -101.525; -263.000; -371.000
443.418;  -81.625; -321.000;  -29.000
443.540;  -13.200; -106.000;   -4.000
443.662; -110.100; -563.000; -465.000
443.785;  -14.975;  335.000;  199.000
443.907; -103.550; -362.000; -208.000
444.029; -128.150; -767.000; -494.000
444.152; -155.850; -644.000; -554.000
444.274;  -44.100;  -18.000;  -24.000
444.396; -120.300; -461.000; -221.000
444.518; -141.150; -691.000; -454.000
444.640; -110.475; -268.000; -111.000
444.763;  -29.450;  388.000;  249.000
444.885; -121.900; -432.000; -392.000
445.007;  -36.100;   35.000;   86.000
445.129; -116.350; -610.000; -515.000
445.251; -118.500; -372.000; -439.000
445.373; -141.900; -537.000; -386.000
445.495;    1.625;  242.000;  350.000
445.617;   35.975;  853.000;  753.000
445.739;  -83.200; -215.000;  -97.000
445.861;  -45.100; -245.000; -112.000
445.984;  -64.600; -267.000; -101.000
446.105;  143.150; -418.000; -251.000
446.227;  477.125; -176.000;  -19.000
446.349;  -26.200; -358.000; -249.000
446.471; -105.825; -615.000; -448.000
446.593;  -64.025; -316.000;   19.000
446.715;  -33.225;  -67.000;   41.000
446.837;   64.000;  697.000;  832.000
446.959; -109.825; -457.000; -478.000
447.081; -144.075; -628.000; -518.000
447.203;   51.275;  862.000;  834.000
447.325;  -88.350; -270.000;   42.000
447.446;  -19.825;  286.000;  530.000
447.568; -167.225; -921.000; -803.000
447.690;  -67.500; -236.000; -245.000
447.812; -164.925; -798.000; -519.000
447.933;  -40.975;  155.000;  127.000
448.055;  -73.775; -306.000; -261.000
448.177;  113.800;   31.000;   79.000
448.299;   44.550; -935.000; -727.000
448.420;    8.575;  -25.000;  159.000
448.542;  -49.800;   -3.000;   33.000
448.664;  -28.600;  109.000;  322.000
448.785;  -40.725;  265.000;   83.000
448.907;  -98.400; -614.000; -353.000
449.028;  -53.975; -771.000; -471.000
449.150;   50.150;  492.000;  589.000
449.272; -180.025;-1044.000; -913.000
449.393;   16.450;  612.000;  694.000
449.515; -140.400; -634.000; -581.000
449.636;  -66.625; -264.000; -155.000
449.758;   47.675;  763.000;  622.000
449.879;  -90.750; -498.000; -396.000
450.001;  -95.250; -149.000;  -49.000
450.122;  -49.075;  -95.000;  162.000
450.244;  -25.225;   37.000;  364.000
450.365;  -96.175; -495.000; -301.000
450.486;  -38.075;   80.000;  268.000
450.608;   21.725;  393.000;  326.000
450.729;   69.700;  578.000;  645.000
450.850;   14.250; -574.000; -466.000
450.972;  784.250; -552.000; -389.000
451.093; 5144.075;  190.000;  588.000
451.214; 2257.875; -516.000; -337.000
451.336;  369.175;  773.000;  579.000
451.457;   54.875;  264.000;  393.000
451.578;  -45.325; -118.000;  -74.000
451.699; -118.500; -546.000; -540.000
451.821;  -60.950; -284.000;  -50.000
451.942;   -9.100;  278.000;  285.000
452.063;   33.600;  228.000;  419.000
452.184;  574.925;  -54.000;  -49.000
452.305; 1139.725;  103.000;  170.000
452.427;  131.900; -549.000; -301.000
452.548;  -17.775;   23.000;   79.000
452.669;  -69.550; -257.000;  -89.000
452.790;  -47.475;    3.000;  -18.000
452.911;  -21.350;  195.000;  259.000
453.032;  -86.100; -289.000;  -60.000
453.153;  -47.675;  -29.000;   81.000
453.274;   53.625;  737.000;  868.000
453.395;  -59.450;  -51.000;  175.000
453.516;   11.700; 1317.000; 1388.000
453.637;  -82.300; -205.000; -150.000
453.758;  -57.650;   15.000;   69.000
453.879; -126.400; -462.000; -250.000
454.000;   69.650; 1086.000;  948.000
454.121; -130.575; -554.000; -326.000
454.242; -118.875; -599.000; -383.000
454.362;  -63.750;  -99.000;  114.000
454.483;  -44.750; -309.000; -229.000
454.604;   44.850;  512.000;  580.000
454.725; -137.075; -627.000; -555.000
454.846; -146.700; -474.000; -406.000
454.967;  -28.700;  230.000;  539.000
455.087;  -62.925;  179.000;  153.000
455.208;   13.475;  554.000;  856.000
455.329;  -76.750;  -22.000;   82.000
455.450;   33.350;  473.000;  633.000
455.570;  -85.800; -234.000; -211.000
455.691;  -54.325;  201.000;  407.000
455.812; -120.225; -270.000;  -92.000
455.932;  -78.700;  107.000;  -97.000
456.053;  -95.725;   36.000;   24.000
456.173; -104.800; -433.000; -355.000
456.294; -140.550; -476.000; -303.000
456.415;  -65.925;  -73.000;   70.000
456.535;  -31.475;  297.000;  273.000
456.656;  -42.775;  132.000;  240.000
456.776;  -75.900;    3.000;  298.000
456.897;  -16.200;  308.000;  513.000
457.017;  -79.025; -153.000;   -3.000
457.138; -120.750; -402.000; -249.000
457.258;  -36.550;  263.000;  224.000
457.379;  -10.050;  509.000;  521.000
457.499;  -28.875;  443.000;  432.000
457.620; -114.225; -407.000; -231.000
457.740;  -96.525; -132.000;  -11.000
457.860;  -57.450;   87.000;   44.000
457.981;  -54.075;  132.000;  124.000
458.101;  -79.650;  -89.000;   40.000
458.221;  -23.200;  336.000;  402.000
458.342;  -70.400;   -4.000;  -37.000
458.462;    4.350;  617.000;  352.000
458.582;  -29.175; -302.000; -294.000
458.703;    1.525;  303.000;  154.000
458.823;  -13.650;   22.000;  163.000
458.943;   14.675;  341.000;  467.000
459.063;  -44.975; 1124.000;  192.000
459.183;  -30.050;  328.000;  313.000
459.304;    6.200;  315.000;  517.000
459.424;  -67.250; -246.000;  -89.000
459.544;  355.950;  388.000;  764.000
459.664;  861.125;  499.000;  506.000
459.784;  322.125; 1004.000; 1175.000
459.904;   56.425;  867.000;  744.000
460.024;   59.300;  867.000;  684.000
460.144;   -8.750;  449.000;  554.000
460.264;  -16.900;  515.000;  327.000
460.385; -101.500; -145.000; -119.000
460.505;   16.500;  905.000;  858.000
460.625; -106.375;  -17.000;  -68.000
460.745;  -46.950;  396.000;  541.000
460.864;  -59.575;  153.000;  469.000
460.984;   -0.850;  499.000;  573.000
461.104;  129.075; 1656.000; 1775.000
461.224;    9.300;  657.000;  650.000
461.344;  -58.850;  431.000;  360.000
461.464;  -37.825;  258.000;  513.000
461.584;  -15.175;  283.000;  466.000
461.704;  -47.775;   58.000;  108.000
461.824;  -63.975;  238.000;  259.000
461.943;  -46.050;  191.000;  130.000
462.063;  -85.550;    2.000;  324.000
462.183;   22.725;  639.000;  717.000
462.303;   87.300; 1678.000; 1230.000
462.422;   34.600;  781.000;  840.000
462.542;  -44.250;  271.000;  391.000
462.662;   32.150;  353.000;  380.000
462.782;  243.650;  833.000;  572.000
462.901;  477.100;  545.000;  717.000
463.021;  291.375; 1702.000; 1638.000
463.141;  -10.875;  337.000;  770.000
463.260;  -33.700;  614.000;  474.000
463.380;   11.775;  902.000;  884.000
463.499;  -52.550;  342.000;  332.000
463.619;  -46.300;  581.000;  559.000
463.738;   93.150; 1644.000;  903.000
463.858;   17.100;  657.000;  811.000
463.978;  -34.575;  542.000;  396.000
464.097;   55.525;  921.000; 1114.000
464.217;  127.400; 1196.000; 1143.000
464.336;  126.050; 1068.000; 1130.000
464.455;  -43.225;  328.000;  659.000
464.575;   16.450;  597.000;  602.000
464.694;  144.900; 1204.000; 1179.000
464.814;  119.325; 1190.000; 1138.000
464.933;   76.675; 1095.000; 1027.000
465.052;   97.675; 1412.000; 1054.000
465.172;   70.300;  922.000;  799.000
465.291;  123.825; 1376.000; 1320.000
465.410;    6.575;  462.000;  735.000
465.530;  102.225; 1355.000; 1310.000
465.649;   46.400; 1209.000; 1273.000
465.768;  126.250; 1673.000; 1508.000
465.888;   39.425;  941.000; 1174.000
466.007;   74.625; 1335.000; 1440.000
466.126;    3.650;  721.000;  641.000
466.245;   50.625; 1176.000; 1187.000
466.364;   13.350;  950.000; 1060.000
466.484;   46.025; 1024.000; 1213.000
466.603;   41.200; 1101.000; 1222.000
466.722;  104.250; 1490.000; 1769.000
466.841;   63.575; 1151.000; 1401.000
466.960;   49.750; 1069.000;  972.000
467.079;  120.725; 1971.000; 1786.000
467.198;   40.325; 1238.000; 1181.000
467.317;   81.375; 1768.000; 1162.000
467.436;   61.975; 1709.000; 1261.000
467.555;  128.250; 1796.000; 1746.000
467.674;   50.100; 1227.000; 1329.000
467.793;   45.200; 1376.000; 1374.000
467.912;   71.275; 1658.000; 1539.000
468.031;  126.075; 2038.000; 1930.000
468.150;  129.300; 1842.000; 1837.000
468.269;  205.150; 2313.000; 2090.000
468.388;  187.350; 2168.000; 2339.000
468.507;  238.425; 2884.000; 2903.000
468.626;  230.300; 2555.000; 2541.000
468.744;  133.875; 2018.000; 2174.000
468.863;  199.325; 2312.000; 2523.000
468.982;   90.200; 1503.000; 1555.000
469.101;  211.150; 2788.000; 2692.000
469.220;  139.950; 2333.000; 2176.000
469.338;  238.075; 2935.000; 3051.000
469.457;  188.375; 2719.000; 2545.000
469.576;  349.175; 3953.000; 3784.000
469.695;  240.650; 2877.000; 3066.000
469.813;  425.325; 4148.000; 4192.000
469.932;  401.350; 4255.000; 4485.000
470.051;  425.725; 4075.000; 4161.000
470.169;  866.100; 4470.000; 4338.000
470.288; 1526.350; 4700.000; 4809.000
470.406;  890.300; 5059.000; 5194.000
470.525;  626.800; 6101.000; 5787.000
470.644;  657.200; 6847.000; 6794.000
470.762;  816.025; 8397.000; 7873.000
470.881;  898.050; 8651.000; 8464.000
470.999; 1061.000; 9685.000; 9151.000
471.118; 1107.900;11174.000;10711.000

