
Integration time [ms]: 100.000
Averaging Nr. [scans]: 40
Smoothing Nr. [pixels]: 0
Data measured with spectrometer [name]: 2101012U2
Wave   ;Sample   ;Dark     ;Reference
[nm]   ;[counts] ;[counts] ;[counts] 

197.733;   71.550;  516.000;  404.000
197.879;  -79.200; -610.000; -634.000
198.025;  -53.450; -475.000; -420.000
198.171;  -75.975; -602.000; -612.000
198.317;  -35.150; -401.000; -316.000
198.463;  -62.150; -655.000; -404.000
198.609;   26.350;  181.000; -137.000
198.755;  -76.375; -644.000; -410.000
198.901;  -66.100; -505.000; -424.000
199.047;  -57.950; -615.000; -488.000
199.193;  -43.450; -230.000; -468.000
199.339;  -54.750; -222.000; -369.000
199.485;   27.375;  330.000;  271.000
199.631;   22.300;  227.000;  310.000
199.777;  -47.025; -466.000; -398.000
199.923;  -62.425; -610.000; -424.000
200.069;   -5.400; -141.000;  -58.000
200.215;   46.150;  128.000;  453.000
200.361;   49.250;  243.000;  477.000
200.507;  -56.350; -600.000; -373.000
200.653;  -16.725; -371.000; -194.000
200.798;  -41.725; -215.000; -125.000
200.944;   -0.675; -146.000;  -41.000
201.090;   23.175;   61.000;  222.000
201.236;   -0.550; -116.000; -158.000
201.382;  133.625;  874.000;  903.000
201.528;   13.850;  -58.000;  -48.000
201.674;  -38.250; -386.000; -293.000
201.819;  -72.575; -540.000; -439.000
201.965;  -80.625; -699.000; -447.000
202.111;  -22.550; -273.000; -226.000
202.257;  -33.600; -250.000; -238.000
202.402;   -4.725;   13.000;  -36.000
202.548;  -29.550; -169.000; -116.000
202.694;   91.075;  410.000; -183.000
202.840;  -69.500; -603.000; -531.000
202.985;  -79.725; -681.000; -639.000
203.131; -104.500; -832.000; -666.000
203.277;  -34.300; -199.000; -262.000
203.423;  -59.425; -434.000; -520.000
203.568;  -41.725; -462.000; -237.000
203.714;  -60.000; -535.000; -542.000
203.860;  -72.675; -682.000; -641.000
204.005;    8.375;  112.000;  167.000
204.151;   67.675;  561.000;  556.000
204.296;  -36.600; -354.000; -221.000
204.442;  -77.775; -600.000; -547.000
204.588;  -76.350; -592.000; -579.000
204.733;   21.625;  178.000;  168.000
204.879; -108.950;-1018.000; -822.000
205.025;   -8.700;  -99.000;  126.000
205.170;    7.075;  -17.000;   94.000
205.316;   73.250;  438.000;  661.000
205.461;  -79.675; -698.000; -554.000
205.607;   80.200;  609.000;  665.000
205.752;  -74.700; -626.000; -551.000
205.898;  -48.675; -501.000; -391.000
206.043;  -53.625; -578.000; -506.000
206.189;  -46.575; -243.000; -285.000
206.334;   82.275;  554.000;  606.000
206.480;   76.950;  409.000;  239.000
206.625;  -76.600; -529.000; -552.000
206.771;  -53.825; -451.000; -373.000
206.916;  -42.050; -210.000; -537.000
207.062;  -75.600; -545.000; -591.000
207.207;  -57.900; -546.000; -443.000
207.353;   48.125;  185.000;  460.000
207.498;   18.575;  196.000;   85.000
207.643;  -39.850; -501.000; -370.000
207.789; -123.925;-1069.000; -910.000
207.934;  -78.425; -665.000; -713.000
208.080;  -24.225; -154.000;   66.000
208.225;  -19.100;  -22.000;  -57.000
208.370;  -79.500; -727.000; -619.000
208.516;  -67.550; -741.000; -487.000
208.661;  -29.675; -127.000;  -69.000
208.806;  -15.925; -165.000; -171.000
208.952; -123.450;-1044.000; -731.000
209.097;   58.600;  378.000;  349.000
209.242;  -56.275; -307.000; -382.000
209.387;   53.625;  392.000;  350.000
209.533;  -50.500; -321.000; -350.000
209.678;   71.225;  472.000;  543.000
209.823;  -47.525; -408.000; -310.000
209.969;  -93.800; -860.000; -757.000
210.114; -112.600; -907.000; -719.000
210.259; -106.250; -939.000; -889.000
210.404;  -14.175; -171.000;  103.000
210.549;   -5.275;  108.000;    3.000
210.695;  -21.825;   -3.000;  -95.000
210.840;   46.950;   94.000;   67.000
210.985;  -70.800; -484.000; -303.000
211.130;   69.800;  268.000;  406.000
211.275;   10.825;  207.000;  199.000
211.420;  -44.625; -300.000; -289.000
211.566;  -78.125; -536.000; -489.000
211.711;   20.025;  218.000;  157.000
211.856;  -68.875; -545.000; -519.000
212.001;    4.925;  151.000;   44.000
212.146;   16.250;  153.000;   49.000
212.291;  -23.075; -210.000; -186.000
212.436;  -29.500; -280.000;   -6.000
212.581;  -84.775; -685.000; -653.000
212.726;  -78.450; -487.000; -538.000
212.871;  -49.250; -552.000; -217.000
213.016; -151.850;-1172.000;-1029.000
213.161;   59.700;  406.000;  291.000
213.306;  -73.175; -435.000; -577.000
213.451; -100.275; -778.000; -689.000
213.596;  -47.325; -455.000; -347.000
213.741;  -57.725; -448.000; -538.000
213.886;  -68.875; -498.000; -517.000
214.031;  -27.175; -294.000; -124.000
214.176;  -51.325; -408.000; -341.000
214.321;  -12.825; -296.000; -157.000
214.466;  -22.025; -163.000;  -43.000
214.611;   -9.775;  -61.000;  -10.000
214.756; -130.525; -948.000; -858.000
214.901;  -17.850; -388.000; -226.000
215.046; -123.800; -797.000; -825.000
215.191;   15.400;  128.000;   35.000
215.336;   -4.125; -157.000;  -19.000
215.480;  -68.500; -684.000; -505.000
215.625;  -17.575; -175.000;  -19.000
215.770;  -83.025; -757.000; -662.000
215.915;   -0.275;   -5.000;  -97.000
216.060;  -17.400; -113.000;  -21.000
216.205; -105.975; -731.000; -779.000
216.349;  -72.100; -470.000; -533.000
216.494; -126.075; -939.000; -867.000
216.639; -113.125; -823.000; -888.000
216.784;  -73.875; -577.000; -525.000
216.929;   56.000;  392.000;  281.000
217.073;  -12.000; -244.000;  -31.000
217.218;    0.000;   78.000;  -47.000
217.363;  -83.800; -656.000; -618.000
217.507;  -75.700; -623.000; -588.000
217.652; -125.150; -845.000; -874.000
217.797;  -88.800; -708.000; -659.000
217.942; -113.850; -856.000; -720.000
218.086;   69.175;  608.000;  539.000
218.231;   -9.775; -174.000;  -26.000
218.376;  -37.325; -337.000; -229.000
218.520;    7.025;  -41.000;   96.000
218.665;  -26.350; -338.000; -204.000
218.810;  -52.125; -275.000; -233.000
218.954;   20.950;  201.000;   35.000
219.099; -111.625; -713.000; -963.000
219.243;  -72.325; -589.000; -554.000
219.388;  -24.250; -264.000; -136.000
219.532;   -6.275; -116.000; -116.000
219.677;  -85.825; -564.000; -521.000
219.822;   15.450;   33.000;   89.000
219.966;   -7.725;   17.000;  -99.000
220.111;  -40.875; -328.000;  -40.000
220.255;  -93.625; -797.000; -750.000
220.400;  -15.925; -180.000; -146.000
220.544;  -68.700; -516.000; -450.000
220.689;  -56.700; -422.000; -451.000
220.833;  -21.500; -123.000;  -58.000
220.978;  -44.950; -393.000; -563.000
221.122;   14.750;  319.000;  307.000
221.267; -113.775; -906.000; -837.000
221.411;  -68.225; -478.000; -394.000
221.555;   -9.025; -104.000;  -23.000
221.700;  -37.400; -329.000; -222.000
221.844;   37.225;  255.000;  272.000
221.989;  -46.700; -328.000; -311.000
222.133;  -36.675; -289.000; -307.000
222.277;    2.225;    5.000;   78.000
222.422;   20.950;  227.000;  113.000
222.566;  -47.400; -381.000; -214.000
222.711;  -45.350; -414.000; -479.000
222.855;  -80.700; -643.000; -586.000
222.999;  -77.200; -642.000; -717.000
223.144;   -4.100; -195.000; -194.000
223.288;   44.200;  423.000;  251.000
223.432;   20.975;  184.000;  230.000
223.576;   14.700;  152.000;  -21.000
223.721;   54.025;  364.000;  273.000
223.865;  -54.325; -472.000; -475.000
224.009;  224.075; 1673.000; 1631.000
224.153;  -75.800; -660.000; -671.000
224.298;  -85.050; -531.000; -489.000
224.442;  -11.975;  -74.000;  -33.000
224.586;  -19.225; -169.000; -106.000
224.730;  -98.675; -858.000; -670.000
224.875; -106.125; -739.000; -688.000
225.019;    4.300;  102.000;  188.000
225.163;   48.325;  208.000;  341.000
225.307;   10.775;   97.000;  -91.000
225.451;   41.100;  360.000;  481.000
225.595;   30.450;  264.000;  176.000
225.739;  -11.125; -170.000;  -94.000
225.884;    8.725;   86.000;    5.000
226.028; -116.150; -760.000; -626.000
226.172;  -46.000; -260.000; -273.000
226.316; -119.100; -941.000; -902.000
226.460;  -71.500; -645.000; -493.000
226.604;  -55.625; -406.000; -400.000
226.748;  -99.000; -836.000; -733.000
226.892;  -44.675; -227.000; -181.000
227.036;  -54.850; -537.000; -447.000
227.180;  -50.775; -551.000; -375.000
227.324;  -59.175; -561.000; -580.000
227.468; -105.175; -819.000; -717.000
227.612;    9.300;  242.000;  -28.000
227.756; -100.425; -845.000; -698.000
227.900;   41.825;  342.000;  441.000
228.044;  -52.600; -509.000; -290.000
228.188;   50.275;  448.000;  568.000
228.332;  -86.500; -546.000; -472.000
228.476;  -33.750; -223.000; -149.000
228.620;  -28.500; -210.000; -150.000
228.764;   51.375;  431.000;  349.000
228.908;  -24.950; -155.000;   30.000
229.052;  -61.525; -615.000; -528.000
229.195;  -11.850; -172.000;   13.000
229.339;  -39.075; -235.000; -305.000
229.483;  -15.225;    5.000; -162.000
229.627;   -1.150; -156.000;  139.000
229.771;  -54.925; -218.000; -294.000
229.915;   10.150;  230.000;   79.000
230.059;  -91.375; -648.000; -663.000
230.202;  -45.175; -370.000; -317.000
230.346;    0.825; -107.000;  107.000
230.490;  -72.750; -489.000; -521.000
230.634; -115.625; -736.000; -553.000
230.777;   85.225;  478.000;  509.000
230.921;  -62.600; -450.000; -359.000
231.065;  -46.150; -246.000; -286.000
231.209;   36.300;  261.000;  265.000
231.352;   18.700;   54.000;   40.000
231.496;    6.375;  568.000;  188.000
231.640;  -74.200; -693.000; -621.000
231.783;   58.425;  546.000;  525.000
231.927;  -53.075; -294.000; -365.000
232.071; -117.800; -962.000; -736.000
232.214;  -95.475; -980.000; -764.000
232.358; -108.325; -683.000; -599.000
232.502;   -0.575;  -19.000;    7.000
232.645; -132.600;-1090.000; -927.000
232.789;  -20.650; -257.000; -218.000
232.933;  -33.700; -407.000; -224.000
233.076; -127.675;-1038.000; -897.000
233.220;  -95.975; -752.000; -777.000
233.363;  -65.700; -669.000; -477.000
233.507;   39.925;  371.000;  129.000
233.650;  -86.875; -764.000; -834.000
233.794;   57.850;  438.000;  461.000
233.938;  -63.350; -530.000; -362.000
234.081;  -19.600;  -93.000;   31.000
234.225;  -74.875; -631.000; -539.000
234.368; -120.625; -773.000; -723.000
234.512;  -29.050; -385.000; -299.000
234.655;  -91.475; -582.000; -555.000
234.798;  -71.950; -493.000; -466.000
234.942; -123.825; -884.000;-1002.000
235.085;  -75.300; -651.000; -443.000
235.229;  -78.650; -405.000; -410.000
235.372;  -46.550; -247.000; -191.000
235.516;  -62.050; -397.000; -321.000
235.659;   17.325;   92.000;  121.000
235.802;  -17.925;  -38.000;  -22.000
235.946;   13.625;  335.000;  215.000
236.089;   32.975;  126.000;  250.000
236.233;   40.975;  275.000;  298.000
236.376;  -43.325; -235.000; -378.000
236.519;  -54.600; -297.000; -319.000
236.663;  -25.550; -215.000; -117.000
236.806; -137.550;-1029.000; -999.000
236.949;   58.500;  543.000;  431.000
237.092;   55.325;  412.000;  391.000
237.236;  -89.575; -589.000; -502.000
237.379;   74.525;  352.000;  428.000
237.522; -122.075; -879.000; -768.000
237.666;  -23.450; -271.000;   18.000
237.809; -126.900; -851.000; -823.000
237.952;   25.025;  469.000;  271.000
238.095;  -64.775; -447.000; -442.000
238.238;   92.625;  688.000;  700.000
238.382;  -12.650;  166.000;  103.000
238.525;  -82.775; -598.000; -511.000
238.668; -127.050;-1060.000; -985.000
238.811;  -80.525; -638.000; -643.000
238.954;  -61.425; -483.000; -334.000
239.097;   82.875;  617.000;  664.000
239.241;   17.900;  394.000;  326.000
239.384;  -38.350; -254.000; -214.000
239.527;  -61.500; -424.000; -224.000
239.670; -131.575; -994.000;-1091.000
239.813; -108.225; -696.000; -658.000
239.956;   79.875;  579.000;  473.000
240.099; -120.450; -778.000; -725.000
240.242;   64.425;  428.000;  432.000
240.385;   36.775;  466.000;  450.000
240.528;  -78.725; -706.000; -473.000
240.671;   25.400;  189.000;  134.000
240.814;  -46.525; -441.000; -158.000
240.957; -102.075; -767.000; -578.000
241.100;  -97.100; -779.000; -755.000
241.243; -137.675;-1234.000; -893.000
241.386;  -66.175; -508.000; -379.000
241.529;  -80.925; -735.000; -547.000
241.672;  -60.550; -566.000; -495.000
241.815; -117.025; -832.000; -808.000
241.958;  -21.825; -125.000; -182.000
242.101;  -80.000; -545.000; -390.000
242.244;  -49.575; -270.000; -325.000
242.387;  -34.925; -304.000; -246.000
242.530;   53.325;  470.000;  134.000
242.673;  -53.625; -381.000; -309.000
242.815; -124.025; -925.000; -899.000
242.958;  -62.725; -482.000; -381.000
243.101;   16.925;  132.000;  187.000
243.244;  -75.875; -564.000; -521.000
243.387;  -47.000; -313.000; -316.000
243.530;  -95.700; -657.000; -674.000
243.672;   15.275;   43.000;  -92.000
243.815;  -58.475; -355.000; -283.000
243.958;   -2.050;   98.000;  -26.000
244.101;   -4.950;   59.000;  -16.000
244.243;  -17.100;  -47.000;  101.000
244.386; -108.250; -761.000; -630.000
244.529;  -22.650; -132.000; -139.000
244.672; -153.475;-1154.000; -951.000
244.814;  -94.675; -621.000; -794.000
244.957;  -57.550; -380.000; -304.000
245.100;  -72.300; -489.000; -489.000
245.242;  -71.550; -387.000; -374.000
245.385;   -0.050;  -59.000;  -39.000
245.528; -121.250; -871.000; -705.000
245.670;   92.425;  612.000;  634.000
245.813;  -97.950; -599.000; -547.000
245.956;  -23.200; -324.000; -275.000
246.098;  -84.100; -508.000; -650.000
246.241;   11.050;  194.000;   48.000
246.383;   -2.300; -119.000;  -73.000
246.526;  -72.675; -454.000; -525.000
246.669; -110.825; -889.000; -780.000
246.811;   18.300;  172.000;   -1.000
246.954;  -66.675; -512.000; -426.000
247.096;  -27.000;  -84.000;   -6.000
247.239;  -73.225; -482.000; -445.000
247.381;  -66.425; -647.000; -488.000
247.524;   79.450;  645.000;  679.000
247.666;  -22.400;   58.000;   11.000
247.809; -116.625; -887.000; -691.000
247.951;  -10.725;  -75.000;  138.000
248.094;   15.800;  432.000;  308.000
248.236; -165.725;-1262.000;-1238.000
248.378;   12.875; -356.000;  -81.000
248.521;  -18.200; -334.000; -337.000
248.663;  -37.000; -236.000; -267.000
248.806;  -32.875; -300.000; -266.000
248.948;  -96.700; -886.000; -763.000
249.090;  -46.500; -428.000; -398.000
249.233;  -43.025; -344.000; -381.000
249.375;  -68.300; -474.000; -451.000
249.518;  -25.900;  -83.000; -133.000
249.660;    2.275; -103.000;    3.000
249.802; -166.725;-1303.000;-1189.000
249.945;  -71.900; -612.000; -540.000
250.087; -111.050; -834.000; -768.000
250.229;  -47.525; -362.000; -480.000
250.371;  -82.425; -494.000; -439.000
250.514;  -50.150; -310.000; -244.000
250.656;  -63.800;   69.000;  102.000
250.798; -109.525; -849.000; -800.000
250.940;  -63.450; -322.000; -322.000
251.083;  -37.475; -335.000; -111.000
251.225;   65.050;  338.000;  310.000
251.367;  -57.850; -274.000; -373.000
251.509;  -25.650; -265.000; -210.000
251.651;  -88.100; -731.000; -671.000
251.794;   46.075;  538.000;  632.000
251.936; -113.050; -821.000; -747.000
252.078;  -77.800; -540.000; -461.000
252.220;  -71.250; -645.000; -477.000
252.362;   86.850;  344.000;  462.000
252.504;  -75.900; -677.000; -584.000
252.646; -109.700; -875.000; -722.000
252.788;   -3.450;   14.000; -128.000
252.931;  -30.875; -257.000; -253.000
253.073;  -33.850; -376.000; -317.000
253.215;   -8.575;  141.000;  122.000
253.357;  -19.450;   82.000; -153.000
253.499;  -50.975; -374.000; -234.000
253.641;  -81.150; -749.000; -594.000
253.783;  -86.175; -609.000; -527.000
253.925;  -82.900; -586.000; -591.000
254.067;  -98.950; -744.000; -667.000
254.209;  -29.075; -391.000; -259.000
254.351; -138.975; -865.000; -883.000
254.493;  -64.050; -441.000; -417.000
254.635; -123.375; -936.000; -818.000
254.777;  -89.100; -752.000; -687.000
254.918;  -68.475; -512.000; -430.000
255.060;  -50.700; -551.000; -395.000
255.202;  -62.800; -473.000; -261.000
255.344;  -76.125; -658.000; -455.000
255.486;  -69.100; -471.000; -406.000
255.628; -107.750; -780.000; -781.000
255.770;  -89.750; -676.000; -536.000
255.912;  -70.050; -559.000; -468.000
256.053;  -88.375; -730.000; -508.000
256.195;  169.050; 1008.000;  903.000
256.337; -109.325; -861.000; -595.000
256.479;   54.275;  532.000;  416.000
256.621;  -51.925; -394.000; -212.000
256.762; -105.175; -789.000; -742.000
256.904;   44.475;  485.000;  487.000
257.046;  -55.025; -381.000; -271.000
257.188;  -45.200; -351.000; -264.000
257.329;  -72.700; -525.000; -464.000
257.471; -104.625; -939.000; -807.000
257.613;  -60.400; -584.000; -498.000
257.755; -134.200;-1073.000; -982.000
257.896;   29.925;  286.000;  392.000
258.038;  -78.125; -403.000; -352.000
258.180;  -38.725; -354.000; -279.000
258.321;  -86.200; -581.000; -457.000
258.463;   -1.200;  -71.000;  133.000
258.605;  -80.050; -562.000; -570.000
258.746; -112.900; -886.000; -772.000
258.888; -141.875;-1026.000;-1020.000
259.029;   13.050;  121.000;   -8.000
259.171;  -96.525; -614.000; -550.000
259.313;   -9.850;  -49.000;  -47.000
259.454;  -66.225; -536.000; -414.000
259.596;  -49.200; -483.000; -390.000
259.737;  -73.375; -590.000; -474.000
259.879;   35.150;  217.000;  311.000
260.020;   96.650;  901.000;  636.000
260.162;  -39.350; -146.000; -253.000
260.303; -112.275; -768.000; -687.000
260.445;  -84.725; -609.000; -613.000
260.586;   36.750;  392.000;  157.000
260.728;  -39.800; -360.000; -248.000
260.869; -106.000; -350.000; -343.000
261.011;   79.950;  706.000;  537.000
261.152;  -63.125; -479.000; -319.000
261.293;  -77.275; -576.000; -595.000
261.435;  -30.675; -219.000; -184.000
261.576;  -56.075; -455.000; -325.000
261.718;   38.425;  420.000;  470.000
261.859; -125.300; -940.000; -949.000
262.000; -116.925; -951.000;-1016.000
262.142;  -15.350;  -52.000;  -60.000
262.283; -118.775; -808.000; -691.000
262.424;  -86.325; -666.000; -625.000
262.566; -140.925;-1161.000; -983.000
262.707; -108.725; -840.000; -830.000
262.848; -131.425; -769.000; -726.000
262.990;  -53.875; -362.000; -345.000
263.131;   72.450;  650.000;  681.000
263.272;  -15.525;  -61.000;  -41.000
263.413;  -94.275; -589.000; -561.000
263.555;  -73.825; -669.000; -143.000
263.696;  -83.300; -550.000; -641.000
263.837;  -68.475; -449.000; -551.000
263.978;  -13.275;   -5.000;  -77.000
264.119;  -48.050; -283.000; -264.000
264.261; -108.325; -847.000; -630.000
264.402;   -3.025;   33.000;   40.000
264.543;  -74.675; -509.000; -524.000
264.684;   -9.550;   61.000;  -50.000
264.825;  -77.350; -816.000; -538.000
264.966;   -5.675;  -84.000;  -67.000
265.107; -103.950; -646.000; -670.000
265.248; -119.675; -825.000; -812.000
265.390;  -12.725;  152.000;   -9.000
265.531;  -20.750; -238.000; -107.000
265.672;  -77.725; -557.000; -630.000
265.813;   66.050;  563.000;  439.000
265.954; -143.300; -959.000; -940.000
266.095;  -23.200; -372.000; -322.000
266.236;  -96.325; -686.000; -548.000
266.377;  -50.900; -243.000; -297.000
266.518;  -82.050; -619.000; -547.000
266.659;   36.825;  170.000;  268.000
266.800;   -0.075;   83.000;   85.000
266.941;  -75.300; -487.000; -478.000
267.082;   12.550;  354.000;   99.000
267.223;  -58.550; -344.000; -273.000
267.364; -116.450; -892.000; -686.000
267.504;  -21.150;    3.000;  135.000
267.645;  -13.375;  160.000;   67.000
267.786;  -36.875; -147.000;  -86.000
267.927;  -70.075; -473.000; -379.000
268.068;  -20.450; -186.000;  -61.000
268.209;  -41.800; -175.000; -413.000
268.350;  -52.025; -388.000; -532.000
268.490;  -81.700; -648.000; -521.000
268.631;   38.650;  127.000;  225.000
268.772; -104.950; -874.000; -647.000
268.913;  -58.275; -328.000; -476.000
269.054;  -14.300; -117.000;   12.000
269.194;  -42.625; -418.000; -402.000
269.335; -159.325;-1137.000;-1074.000
269.476;  -28.900;   33.000;  -35.000
269.617;  -44.900; -347.000; -392.000
269.757;  -88.550; -713.000; -646.000
269.898; -109.025; -856.000; -613.000
270.039;  -58.300; -415.000; -405.000
270.180; -132.675; -952.000; -816.000
270.320;  -18.875; -190.000; -250.000
270.461;  -36.200; -277.000; -249.000
270.602;   -9.000; -186.000; -156.000
270.742; -131.125; -868.000; -943.000
270.883;  -60.375; -442.000; -390.000
271.023;  -54.425; -358.000; -357.000
271.164;  -64.375; -607.000; -528.000
271.305;  -95.175; -666.000; -654.000
271.445;  -86.250; -722.000; -683.000
271.586;  -62.850; -462.000; -283.000
271.726;  -38.950; -397.000; -322.000
271.867;  -51.275; -594.000; -534.000
272.008;  220.875; -473.000; -285.000
272.148;  144.400;  462.000;  468.000
272.289;    3.425; -113.000; -181.000
272.429;   32.300;   19.000;  185.000
272.570;  -88.100; -633.000; -737.000
272.710;  -89.025; -825.000; -775.000
272.851;  -19.325;  113.000; -130.000
272.991; -157.625;-1173.000;-1077.000
273.131;  -71.550; -419.000; -459.000
273.272;  -93.875; -683.000; -723.000
273.412;   14.300; -143.000;  -31.000
273.553;  -47.300; -488.000; -507.000
273.693;  122.475;  913.000;  858.000
273.834;  -83.300; -894.000; -692.000
273.974;  -65.325; -664.000; -615.000
274.114;  -96.175; -772.000; -560.000
274.255;   78.750;  414.000;  373.000
274.395;   11.050; -180.000; -125.000
274.535;   34.375;  199.000;  350.000
274.676;   23.425;  225.000;   94.000
274.816;    2.275;  110.000;   34.000
274.956;  -75.325; -624.000; -690.000
275.097;  -53.575;-1014.000; -922.000
275.237; -110.900; -913.000; -803.000
275.377;  -95.250; -778.000; -689.000
275.517; -145.875; -878.000; -937.000
275.658;  -47.200; -590.000; -555.000
275.798;  -64.100; -606.000; -413.000
275.938;   28.975;  215.000;  323.000
276.078; -105.525; -626.000; -395.000
276.218;    4.775;   99.000;  104.000
276.359; -120.850;-1026.000;-1024.000
276.499;  -66.875; -605.000; -446.000
276.639;  -40.750; -305.000; -151.000
276.779;  -54.100; -475.000; -357.000
276.919; -100.600; -783.000; -624.000
277.059;  -18.925; -261.000; -212.000
277.199;  -49.100; -357.000; -259.000
277.340;   43.550;  287.000;  175.000
277.480;  -99.225; -840.000; -693.000
277.620;   17.050;  192.000;   16.000
277.760; -191.225;-1533.000;-1294.000
277.900;   18.325;  113.000;   33.000
278.040;   19.250;  137.000;  159.000
278.180;   36.000;  270.000;  170.000
278.320;   -0.375;   21.000;   56.000
278.460;  -65.825; -443.000; -469.000
278.600;  -80.300; -708.000; -598.000
278.740;   54.150;  448.000;  224.000
278.880;  -36.700; -768.000; -791.000
279.020;   -9.200; -194.000; -144.000
279.160;  -84.475; -672.000; -595.000
279.300; -127.025; -926.000; -873.000
279.440;  -77.025; -709.000; -622.000
279.579;  -10.050;-1014.000; -929.000
279.719;  -51.075; -410.000; -394.000
279.859;   76.750;   -4.000;   41.000
279.999;   25.725; -208.000;  101.000
280.139;  -21.675; -435.000; -387.000
280.279;  -61.150; -708.000; -745.000
280.419;  -15.750; -229.000; -147.000
280.559;  -31.200; -259.000; -180.000
280.698;  -95.200; -790.000; -639.000
280.838;  -87.925; -778.000; -800.000
280.978;  -93.400; -846.000; -790.000
281.118; -102.900; -811.000; -704.000
281.257;    5.075;   24.000;    6.000
281.397; -100.250;-1094.000; -960.000
281.537;  -85.275; -599.000; -712.000
281.677;  -20.350; -150.000; -101.000
281.816;  -98.875; -700.000; -630.000
281.956;  -28.975; -193.000; -257.000
282.096;  -73.750; -539.000; -396.000
282.235;  -83.325; -672.000; -638.000
282.375;  -26.775; -243.000;  -98.000
282.515;  -88.175; -715.000; -707.000
282.654;   28.575;   29.000;  106.000
282.794;   30.350;  388.000;  244.000
282.934;  -57.625; -530.000; -491.000
283.073; -130.875;-1030.000; -857.000
283.213;  -57.750; -460.000; -467.000
283.353;  -37.000; -408.000; -349.000
283.492;  -43.525; -264.000; -296.000
283.632;  -36.325; -254.000; -168.000
283.771;  -98.350; -859.000; -730.000
283.911;  -48.825; -369.000; -260.000
284.050;  -93.350; -794.000; -748.000
284.190; -158.500;-1229.000;-1096.000
284.329; -146.800;-1055.000; -964.000
284.469;  -53.100; -516.000; -591.000
284.608;  -55.025; -559.000; -598.000
284.748;  -81.875; -614.000; -570.000
284.887;  -11.425;  -87.000;  -20.000
285.027; -122.000; -844.000; -892.000
285.166;  -21.400; -192.000; -249.000
285.306;   10.200; -116.000;  -33.000
285.445;  -40.300; -229.000; -343.000
285.584;  -89.825; -630.000; -494.000
285.724;  -50.300; -282.000; -322.000
285.863; -101.975; -857.000; -507.000
286.002;  -55.500; -366.000; -276.000
286.142; -107.800; -715.000; -622.000
286.281;  -71.050; -525.000; -493.000
286.420;  -82.575; -554.000; -417.000
286.560;   98.050;  653.000;  623.000
286.699; -129.925; -958.000; -912.000
286.838;  -91.150; -590.000; -591.000
286.978;  -87.650; -533.000; -537.000
287.117; -137.875;-1085.000; -950.000
287.256;  -26.950; -228.000; -211.000
287.395;  -52.725; -197.000; -378.000
287.535;  -50.350; -370.000; -298.000
287.674;  -64.025; -509.000; -484.000
287.813;   53.925;  661.000;  533.000
287.952; -126.525;-1010.000; -871.000
288.091; -127.075;-1049.000; -915.000
288.231;   14.775;   13.000;   15.000
288.370; -162.475;-1217.000;-1200.000
288.509;  -96.950; -728.000; -645.000
288.648;  -91.775; -770.000; -548.000
288.787;  -24.150; -243.000;  -87.000
288.926;  -71.675; -454.000; -475.000
289.065;  127.275;  859.000;  672.000
289.204;  -54.950; -377.000; -217.000
289.344;  -76.325; -791.000; -690.000
289.483;   26.725;  416.000;  304.000
289.622;  -16.650; -291.000; -149.000
289.761;  -18.625; -309.000; -166.000
289.900; -101.275; -785.000; -626.000
290.039;  -13.600;  -12.000;  -95.000
290.178;  -43.000; -274.000; -180.000
290.317;  -81.500; -618.000; -479.000
290.456;  -73.075; -463.000; -451.000
290.595; -135.275; -961.000; -833.000
290.734; -128.425; -904.000; -891.000
290.873;  -66.600; -456.000; -420.000
291.011; -110.125; -833.000; -843.000
291.150; -101.050; -770.000; -682.000
291.289;  -24.400; -343.000; -110.000
291.428;  -88.500; -599.000; -480.000
291.567;  -48.925; -370.000; -442.000
291.706;   -8.400;  109.000;  154.000
291.845;  -86.225; -597.000; -505.000
291.984; -167.875;-1234.000;-1061.000
292.122;   54.300;  602.000;  582.000
292.261;   41.650;  620.000;  463.000
292.400;    5.450; -144.000;  211.000
292.539; -117.250; -959.000; -813.000
292.678;  -23.800; -325.000; -300.000
292.816; -154.000;-1136.000; -965.000
292.955;  -83.300; -844.000; -684.000
293.094;  -15.550; -173.000; -337.000
293.233;  -61.175; -556.000; -400.000
293.371;  -34.175; -225.000;  -84.000
293.510;  -98.225; -866.000; -780.000
293.649; -112.925; -959.000; -924.000
293.787;  -29.025;-1083.000;-1012.000
293.926;    8.025; -113.000;  -32.000
294.065;  -43.700; -379.000; -290.000
294.203;   49.425;  298.000;  406.000
294.342;   31.750;   74.000;  156.000
294.481; 5769.825;51180.000; -836.000
294.619;  -29.175; -425.000; -582.000
294.758; -141.700;-1230.000;-1137.000
294.896;   83.225; -125.000;    5.000
295.035; -116.700;-1040.000;-1006.000
295.174; -103.500;-1082.000; -954.000
295.312;  -37.025; -323.000; -203.000
295.451;    8.575; -307.000; -428.000
295.589;  -47.000; -389.000; -518.000
295.728;   16.300; -292.000; -165.000
295.866;    8.450;  -36.000;  -51.000
296.005;  -57.150; -584.000; -341.000
296.143;  -60.650; -558.000; -596.000
296.282;  -90.475; -957.000; -881.000
296.420;  -82.075; -657.000; -557.000
296.559;  -73.425; -892.000; -633.000
296.697;   64.300; -847.000; -665.000
296.835;  102.700;-1141.000;-1002.000
296.974;   65.500;  -23.000;   39.000
297.112;   21.475; -443.000; -504.000
297.251;  -56.150; -815.000; -755.000
297.389;  132.725; -576.000; -438.000
297.527;   53.925; -145.000;  -83.000
297.666;  -44.100; -486.000; -438.000
297.804;  -49.450; -404.000; -264.000
297.942;    5.550; -136.000; -161.000
298.081;    1.225; -183.000;   63.000
298.219;   93.150;  -17.000;  -19.000
298.357;   58.350; -144.000;  -71.000
298.495;   59.825; -810.000; -812.000
298.634;  105.750;  245.000;  219.000
298.772;   87.325; -220.000; -338.000
298.910;  -18.675; -309.000; -182.000
299.048;  -16.450; -130.000; -153.000
299.187;  -34.000; -350.000; -250.000
299.325;   31.825;   52.000;  122.000
299.463;   66.725; -389.000; -299.000
299.601;  147.525; -327.000; -271.000
299.739;  -86.425; -908.000; -883.000
299.877;  -65.675; -791.000; -703.000
300.016;  -37.525;-1095.000; -935.000
300.154;  203.175;  -19.000; -161.000
300.292;   91.200; -428.000; -348.000
300.430;   42.875; -408.000; -291.000
300.568;  -94.450; -940.000; -874.000
300.706;  -36.000; -366.000; -469.000
300.844;  -46.525;-1108.000; -979.000
300.982;  127.275;  246.000;  282.000
301.120;  -97.025; -965.000; -866.000
301.258;  -41.950; -812.000; -705.000
301.396;   46.850;  104.000;  -41.000
301.534;  133.250; -218.000; -293.000
301.672;   32.850; -664.000; -521.000
301.810;   71.175; -613.000; -545.000
301.948;  141.300;   53.000;  149.000
302.086;  735.850; -250.000;  -32.000
302.224; 1156.025; -610.000; -585.000
302.362;   59.800; -558.000; -622.000
302.500;    0.875; -923.000; -893.000
302.638;  131.275;  128.000;  245.000
302.776;   -0.400; -352.000; -408.000
302.913;   55.800;  447.000;  236.000
303.051;    5.450;  -86.000;  -23.000
303.189;   64.300;   90.000;  118.000
303.327;  -37.775; -341.000; -256.000
303.465;  -75.950; -832.000; -588.000
303.603;  -79.425; -805.000; -604.000
303.740;  111.900;  417.000;  241.000
303.878;   58.250; -800.000; -759.000
304.016;  -84.425; -915.000; -790.000
304.154; -116.075;-1123.000;-1152.000
304.291;  -23.375; -505.000; -554.000
304.429;   13.075;  102.000;   74.000
304.567; -130.625; -908.000; -893.000
304.705;  -52.850; -408.000; -515.000
304.842;  136.025; -616.000; -540.000
304.980;   61.400;  215.000;   35.000
305.118;   72.450; -367.000; -365.000
305.255;  -77.350; -945.000; -927.000
305.393;   64.100;  178.000;  239.000
305.531; -101.025;-1173.000; -956.000
305.668;  -52.600; -663.000; -582.000
305.806;  138.600; -358.000; -439.000
305.943;  144.625; -629.000; -637.000
306.081;   79.825; -378.000; -267.000
306.219; -107.400; -863.000; -748.000
306.356;    0.375;  158.000;   27.000
306.494;  113.650;  981.000;  761.000
306.631;   -6.925;  -11.000;  -55.000
306.769;   18.225; -613.000; -485.000
306.906;  -10.900; -284.000; -258.000
307.044;  -69.600; -473.000; -488.000
307.181;  -69.075; -410.000; -332.000
307.319;   15.825;  112.000;   87.000
307.456; -162.200;-1191.000;-1153.000
307.594;  -98.100; -980.000; -727.000
307.731;   -1.725; -371.000; -164.000
307.868;   -2.550;  -15.000;   20.000
308.006; -124.725; -961.000; -847.000
308.143;  -57.000; -618.000; -330.000
308.281;  200.525;  -37.000; -254.000
308.418;   -1.500; -748.000; -640.000
308.555;  -71.025; -400.000; -250.000
308.693;  -70.700; -577.000; -573.000
308.830; -107.900; -712.000; -657.000
308.967;  -18.900; -215.000;  -95.000
309.105;  -51.125; -507.000; -396.000
309.242;   65.100; -468.000; -367.000
309.379;  385.250; -577.000; -655.000
309.517;  -53.425; -936.000; -948.000
309.654;  -99.325; -910.000; -734.000
309.791;  -67.100; -662.000; -580.000
309.928; -117.150; -977.000; -914.000
310.065;  206.825;  819.000;  697.000
310.203;   11.600; -825.000; -850.000
310.340;   11.325; -465.000; -321.000
310.477;  -71.050; -412.000; -516.000
310.614;  -65.375; -383.000; -473.000
310.751;  -74.000; -427.000; -518.000
310.889;  -30.400;    1.000;   11.000
311.026; -160.525;-1161.000; -939.000
311.163;  -39.325; -386.000; -380.000
311.300;  -61.525; -512.000; -479.000
311.437;  -75.225; -658.000; -619.000
311.574; -143.425;-1226.000; -985.000
311.711;  -61.825; -595.000; -433.000
311.848;  -41.450; -380.000; -388.000
311.985;   10.175;  270.000;   93.000
312.122; -117.725; -932.000; -762.000
312.259; -121.550; -941.000; -994.000
312.396;  -76.450; -508.000; -551.000
312.533;  -80.000; -812.000; -790.000
312.670; -138.825;-1070.000; -898.000
312.807;  -32.100; -352.000; -367.000
312.944;  -80.725; -513.000; -611.000
313.081;  -38.050; -150.000; -415.000
313.218; -109.550;-1111.000; -867.000
313.355;   29.025; -531.000; -449.000
313.492;   13.125; -455.000; -292.000
313.629;  129.475;  815.000;  735.000
313.766; -148.825;-1176.000;-1008.000
313.902;  -12.850; -186.000;   21.000
314.039;  -38.450; -372.000; -289.000
314.176;   40.375;  286.000;  192.000
314.313;  -79.575; -569.000; -473.000
314.450;  -65.150; -788.000; -684.000
314.587;  -47.850; -468.000; -480.000
314.723;    0.200;  -78.000;  130.000
314.860;   29.375;  318.000;  332.000
314.997;   23.150;  223.000;  142.000
315.134;  -38.050; -385.000; -368.000
315.270;  -15.050; -480.000; -496.000
315.407; -122.975;-1094.000; -967.000
315.544;  -34.125; -657.000; -538.000
315.681;  -51.575; -681.000; -565.000
315.817;   29.350; -133.000; -176.000
315.954;   30.875; -613.000; -392.000
316.091; -118.575;-1045.000;-1023.000
316.227;  -28.950;  -71.000; -179.000
316.364;    1.850;   23.000;    6.000
316.500;  -42.675; -113.000; -300.000
316.637;  -37.025; -181.000; -302.000
316.774;  -85.500; -625.000; -358.000
316.910;  -87.125; -598.000; -629.000
317.047;  -63.625; -487.000; -351.000
317.183;  -51.100; -435.000; -566.000
317.320;  -16.075; -367.000; -321.000
317.456;  -82.750; -733.000; -805.000
317.593;  -86.225; -598.000; -641.000
317.729;    0.725;  168.000;  -67.000
317.866; -198.175;-1434.000;-1285.000
318.002;  -84.450; -708.000; -948.000
318.139;  -85.750; -883.000; -867.000
318.275;  -99.325;-1003.000; -738.000
318.412;  -56.525; -517.000; -336.000
318.548;  -13.375; -751.000; -720.000
318.685;  -84.375; -985.000; -888.000
318.821;  -83.575; -762.000; -735.000
318.957;  -18.150;   34.000;  -23.000
319.094;   33.900;  297.000;  154.000
319.230;  -46.300; -756.000; -742.000
319.367;  175.075; -471.000; -520.000
319.503;   89.350; -538.000; -436.000
319.639;  -90.575; -877.000; -793.000
319.775;  -50.300; -750.000; -685.000
319.912;  -40.300; -424.000; -519.000
320.048;  -78.250;-1184.000;-1184.000
320.184;   94.150;   59.000;   70.000
320.321;  -57.550; -497.000; -467.000
320.457;   58.025;  475.000;  662.000
320.593;  -62.925; -375.000; -382.000
320.729; -106.150; -732.000; -734.000
320.866;  -67.025; -577.000; -635.000
321.002;  -68.525; -759.000; -809.000
321.138;   -7.825; -135.000; -211.000
321.274;   94.350; -148.000; -115.000
321.410;   -0.975; -585.000; -353.000
321.546;    5.225;-1011.000; -911.000
321.683;   59.550;  400.000;  185.000
321.819;   12.500;  -48.000; -117.000
321.955; -111.425; -743.000; -722.000
322.091;  -34.175; -585.000; -540.000
322.227;    8.675; -382.000; -202.000
322.363;    3.025; -320.000; -215.000
322.499;  -44.500; -343.000; -331.000
322.635;  185.125;  636.000;  443.000
322.771;   36.925; -139.000;   12.000
322.907;  103.600;  129.000;  327.000
323.043;   -9.425; -115.000; -206.000
323.179;  -24.150; -394.000; -363.000
323.315;   57.100; -401.000; -371.000
323.451;  131.125; -328.000; -236.000
323.587;   88.975;  -60.000;  -77.000
323.723;   36.500; -682.000; -601.000
323.859;  -16.700; -258.000;  -76.000
323.995;  -22.200; -467.000; -409.000
324.131; -108.625; -967.000; -892.000
324.267;  -44.075; -254.000; -276.000
324.402; -128.500; -960.000; -983.000
324.538;    0.800; -279.000; -104.000
324.674;   33.750;  164.000;   77.000
324.810;  160.075;  226.000;  308.000
324.946;   17.950; -810.000; -658.000
325.082;  -63.625; -568.000; -475.000
325.217;    5.425;  -62.000;   16.000
325.353;  -97.450; -764.000; -659.000
325.489;  -80.825; -540.000; -506.000
325.625;  -79.700; -579.000; -525.000
325.760;   46.300;  517.000;  376.000
325.896;  -38.400; -515.000; -702.000
326.032;  -48.850; -403.000; -352.000
326.168;  -63.325; -462.000; -369.000
326.303;  -58.650; -352.000; -461.000
326.439;  -13.900; -336.000; -276.000
326.575;    3.025; -190.000;  -29.000
326.710;    7.500; -156.000;  -30.000
326.846;   -5.525;  146.000;  103.000
326.982;  -94.175; -530.000; -548.000
327.117;  -60.575; -481.000; -442.000
327.253;  -74.575; -745.000; -742.000
327.388; -108.250;-1137.000;-1153.000
327.524;  -38.625; -811.000; -578.000
327.659;  -18.125;  -58.000;  -22.000
327.795;   -9.875;   69.000;   45.000
327.931;  -84.050; -723.000; -499.000
328.066;  -15.575; -417.000; -276.000
328.202;   -0.600;   12.000; -129.000
328.337;  115.550;  957.000;  713.000
328.473;   41.150;  -12.000;  -74.000
328.608;  -23.425; -256.000; -267.000
328.743;  -76.800; -799.000; -664.000
328.879;    9.675;  214.000;  114.000
329.014;  -30.650; -102.000; -122.000
329.150;  -80.425; -358.000; -483.000
329.285;  -61.650; -465.000; -466.000
329.421;  -60.050; -548.000; -246.000
329.556;  -24.950;  -36.000;   85.000
329.691; -102.400; -633.000; -615.000
329.827;  -82.375; -626.000; -480.000
329.962;  -39.950;  131.000; -301.000
330.097;  -83.275; -673.000; -585.000
330.233;  -47.450; -410.000; -223.000
330.368; -121.475; -839.000; -628.000
330.503;  -12.350;    3.000;   98.000
330.638;   10.500;  -93.000; -125.000
330.774;  -54.425; -609.000; -530.000
330.909;  -37.575; -434.000; -244.000
331.044;  -96.850; -714.000; -708.000
331.179; -165.175;-1217.000;-1109.000
331.315;   17.650;   77.000;   20.000
331.450;   15.675;  157.000;  285.000
331.585;  -75.625; -805.000; -706.000
331.720;  -76.950; -510.000; -460.000
331.855;  -15.525;  -35.000; -102.000
331.990;  216.075;   62.000;  138.000
332.126;  120.875; -110.000;   71.000
332.261;  -33.775; -379.000; -265.000
332.396;   -6.450; -135.000; -242.000
332.531; -100.125;-1074.000;-1031.000
332.666;   21.250; -519.000; -363.000
332.801; -114.575; -726.000; -807.000
332.936;  -24.300; -192.000; -122.000
333.071; -137.775; -870.000; -817.000
333.206;   14.275;  307.000;  379.000
333.341;   23.475;  344.000;  418.000
333.476;  -72.075; -627.000; -623.000
333.611;  -38.250; -251.000; -173.000
333.746;  -44.950; -381.000; -464.000
333.881; -102.025; -973.000; -935.000
334.016; -120.200; -936.000; -917.000
334.151; -114.900; -746.000; -702.000
334.286;   31.225;  152.000;  186.000
334.421;  -15.725; -125.000; -178.000
334.556;  -75.500; -611.000; -567.000
334.690;  -80.500; -631.000; -577.000
334.825;   60.850;  381.000;   83.000
334.960;  -55.600; -285.000; -413.000
335.095;    6.125;  135.000;  -91.000
335.230;  -80.500; -722.000; -738.000
335.365; -118.375;-1084.000; -990.000
335.499; -119.250;-1108.000;-1037.000
335.634;   36.675;    9.000;  534.000
335.769; -100.775; -755.000; -720.000
335.904;  -68.775; -603.000; -561.000
336.038;  -45.375; -735.000; -657.000
336.173; -102.650;-1206.000;-1194.000
336.308;   17.225; -116.000; -189.000
336.443;   34.250; -544.000; -634.000
336.577;  -62.075; -936.000; -787.000
336.712;   64.875;   -4.000;  -12.000
336.847;  -10.150; -724.000; -607.000
336.981;  100.600; -272.000; -208.000
337.116;  316.250;  615.000;  501.000
337.250;  203.750; -434.000; -421.000
337.385;  213.175; -297.000; -208.000
337.520;   63.100; -632.000; -603.000
337.654;  -28.275; -215.000; -126.000
337.789; -125.075; -989.000; -933.000
337.923;  -27.150; -104.000; -205.000
338.058;  -84.575; -673.000; -738.000
338.192;  -24.150; -611.000; -488.000
338.327;   -7.525;  -18.000; -155.000
338.461;  -73.625; -299.000; -469.000
338.596;  -92.825; -780.000; -638.000
338.730; -101.700; -767.000; -803.000
338.865;   69.175;  -46.000; -140.000
338.999;  -64.100; -846.000; -702.000
339.134;  -31.575; -634.000; -536.000
339.268;   16.950; -741.000; -603.000
339.403;  336.825; -740.000; -775.000
339.537;   98.525; -894.000; -820.000
339.671; -111.750; -829.000; -813.000
339.806;  -54.650; -556.000; -512.000
339.940;    3.175; -261.000; -235.000
340.074;  -86.675; -685.000; -510.000
340.209;  -40.750; -351.000; -230.000
340.343;  -85.925; -517.000; -573.000
340.477;  149.950;  998.000; 1036.000
340.612;  -50.275;-1033.000; -900.000
340.746;  127.450; -199.000; -243.000
340.880;  -38.150; -924.000; -785.000
341.014;  -25.650;  -45.000; -154.000
341.149; -100.475; -756.000; -718.000
341.283; -103.625; -839.000; -754.000
341.417;  -73.450;-1124.000; -938.000
341.551;  197.425; -768.000; -708.000
341.685;  -24.025; -633.000; -611.000
341.820;  -48.550; -562.000; -493.000
341.954;  -54.575; -218.000; -349.000
342.088; -135.675;-1102.000;-1019.000
342.222;   45.225;  565.000;  618.000
342.356;  -54.525; -395.000; -335.000
342.490;  -82.600; -880.000; -841.000
342.624;  -47.700; -339.000; -242.000
342.758;    6.525; -364.000; -312.000
342.892;  -55.600; -710.000; -585.000
343.026;  -25.325;  -58.000; -116.000
343.160;  -72.950; -426.000; -376.000
343.294;  -80.200; -474.000; -337.000
343.428;  -18.475; -488.000; -448.000
343.562;   -5.225; -172.000;  -23.000
343.696;  -19.725; -385.000; -314.000
343.830;    1.300; -362.000; -356.000
343.964;   21.225; -231.000; -168.000
344.098; 1147.025;  199.000;   70.000
344.232;  940.375; -266.000; -127.000
344.366;   98.200; -567.000; -453.000
344.500;  100.850; -665.000; -744.000
344.634;   54.250; -324.000; -164.000
344.768;   13.700; -531.000; -341.000
344.902;   18.100;  278.000;  256.000
345.035;  -65.950; -556.000; -496.000
345.169; -138.375; -933.000; -656.000
345.303;  -23.450; -308.000; -482.000
345.437;  -59.625; -826.000; -717.000
345.571;  -75.375; -675.000; -594.000
345.704;  -64.850; -309.000; -532.000
345.838;  -11.900; -331.000; -284.000
345.972;  -19.825; -543.000; -495.000
346.106;  140.775; -179.000; -190.000
346.239;  430.600; -312.000; -243.000
346.373;   10.050; -343.000; -302.000
346.507; -148.175; -950.000; -962.000
346.640;  174.625;  -30.000;   13.000
346.774;   -9.725; -650.000; -797.000
346.908;  -11.700; -138.000;  -11.000
347.041;  -94.600; -646.000; -593.000
347.175;   -3.775;  259.000;   27.000
347.309;  -57.775; -698.000; -628.000
347.442;  -88.725; -883.000; -732.000
347.576;  329.875;  670.000;  668.000
347.709;  256.300; -123.000;  -52.000
347.843;  -73.000; -933.000; -825.000
347.976;   34.500;  235.000;  294.000
348.110; -177.925;-1268.000;-1186.000
348.243; -103.200; -679.000; -772.000
348.377;    7.175;  -26.000;   60.000
348.510;   56.150;  403.000;  540.000
348.644;  -33.650;  -37.000; -159.000
348.777;    3.525;  180.000;  191.000
348.911;  -43.800; -142.000; -112.000
349.044;  184.775;  471.000;  448.000
349.178;  237.000;-1069.000;-1006.000
349.311;  122.775;  141.000;  255.000
349.444;    4.100; -927.000; -813.000
349.578;  -10.175; -347.000; -200.000
349.711;  -73.775; -959.000; -862.000
349.845;   22.875; -661.000; -591.000
349.978; -127.725;-1224.000;-1137.000
350.111;  -72.500; -546.000; -612.000
350.244;  -66.975; -596.000; -700.000
350.378;   25.925; -392.000; -393.000
350.511;  -67.800; -393.000; -426.000
350.644; -112.075; -808.000; -806.000
350.778;    4.775;  168.000;  104.000
350.911;   -9.175;  134.000;  140.000
351.044;  -91.675; -685.000; -615.000
351.177;  -25.800; -321.000; -281.000
351.310;  -10.675;    3.000; -131.000
351.444;  -67.025; -888.000; -788.000
351.577;  151.200;  140.000;   90.000
351.710;  107.800;  593.000;  417.000
351.843;  -11.650; -165.000;  -77.000
351.976;   -3.425;  149.000;  -79.000
352.109;  -68.325; -621.000; -612.000
352.242;  -18.675; -464.000; -419.000
352.376;  -52.675; -580.000; -636.000
352.509;  229.525; -437.000; -356.000
352.642;   63.200; -654.000; -604.000
352.775;   83.525; -141.000;  -98.000
352.908; -105.150; -933.000; -904.000
353.041;  -80.625; -814.000; -824.000
353.174;  -56.250; -551.000; -424.000
353.307;  -72.950; -753.000; -764.000
353.440;   84.700;  541.000;  453.000
353.573; -105.350; -957.000;-1008.000
353.706;  -49.000; -384.000; -558.000
353.839;   -4.575; -264.000; -220.000
353.971;  -78.000; -657.000; -512.000
354.104;  -73.975; -896.000; -835.000
354.237;  -18.750; -627.000; -662.000
354.370;  -68.250; -846.000; -879.000
354.503; -171.850;-1231.000;-1308.000
354.636;  -31.025; -529.000; -348.000
354.769; -109.325; -937.000; -860.000
354.902;   -1.275; -230.000; -139.000
355.034;  -17.675; -164.000; -220.000
355.167;  -12.925; -262.000; -162.000
355.300;  -90.800;-1061.000; -880.000
355.433;  900.500;  -71.000;  -14.000
355.565; 1419.275; -402.000; -384.000
355.698;  358.400; -356.000; -296.000
355.831;    8.975; -882.000; -801.000
355.964;  118.125; -285.000; -170.000
356.096;  -72.625; -856.000; -843.000
356.229;   27.350; -523.000; -530.000
356.362;  303.275; -373.000; -266.000
356.494;  540.600; -229.000; -162.000
356.627;  562.700;  269.000;  377.000
356.760;  645.225;  120.000;   53.000
356.892;  874.150; -286.000; -601.000
357.025;  811.675;  403.000;  389.000
357.157;  751.975; -167.000; -179.000
357.290;  579.950; -856.000; -713.000
357.423;  196.975; -667.000; -556.000
357.555;  136.825; -217.000; -228.000
357.688;  153.075; -483.000; -364.000
357.820;  553.575; -870.000; -877.000
357.953; 4396.850; -563.000; -589.000
358.085; 1023.400; -632.000; -612.000
358.218; 1513.375;-1131.000; -932.000
358.350;  266.825;  -58.000;  312.000
358.483;  -99.300;-1300.000;-1187.000
358.615;   29.550;-1182.000;-1078.000
358.747;  -20.175;-1187.000;-1058.000
358.880;   62.300; -810.000; -744.000
359.012;   12.275; -376.000; -202.000
359.145;  -39.025; -480.000; -511.000
359.277;  101.350; -962.000; -913.000
359.409; 3613.675;  536.000;  231.000
359.542;  979.900; -738.000; -688.000
359.674;  101.900;   46.000;   13.000
359.806;  -45.750; -565.000; -438.000
359.939;  -43.125; -617.000; -516.000
360.071;  -21.500; -583.000; -579.000
360.203;  -27.100; -411.000; -364.000
360.335;   48.700;  164.000;  -16.000
360.468;  229.950; -249.000; -307.000
360.600; 2819.725; -547.000; -454.000
360.732; 2641.800; -546.000; -423.000
360.864;  377.475;-1216.000;-1044.000
360.996;  357.275; -516.000; -554.000
361.129;   84.950; -389.000; -598.000
361.261;   14.025;  110.000; -113.000
361.393;  -21.400; -252.000; -214.000
361.525;   37.575;   94.000;  244.000
361.657;  -13.250; -821.000; -703.000
361.789;    1.850; -139.000; -155.000
361.921;  306.625; -642.000; -593.000
362.053;  323.500;  524.000;  541.000
362.185;   68.500;  288.000;   72.000
362.318;  -65.650; -709.000; -705.000
362.450;  152.325;  294.000;  444.000
362.582;  198.250; -913.000; -870.000
362.714;  -28.025; -353.000; -332.000
362.846;  -69.375; -606.000; -490.000
362.978; -139.950; -941.000; -811.000
363.109;   78.650; -161.000; -260.000
363.241;  554.975; -739.000; -749.000
363.373;  411.500; -649.000; -564.000
363.505;  597.925; -186.000;  -91.000
363.637;  157.800; -787.000; -601.000
363.769; -114.175;-1067.000;-1080.000
363.901;  -73.100; -596.000; -654.000
364.033;  -92.400;-1103.000;-1062.000
364.165;    2.450; -283.000; -283.000
364.296;   84.275; -316.000; -177.000
364.428;   58.725;-1344.000;-1220.000
364.560;  -58.675; -679.000; -661.000
364.692;  -57.150; -738.000; -835.000
364.824;  359.600; -588.000; -456.000
364.955;  453.900; -402.000; -564.000
365.087;  775.150;-1097.000; -852.000
365.219;   24.725; -686.000; -816.000
365.351;  -63.925; -526.000; -572.000
365.482;   59.250;  300.000;  240.000
365.614;  -28.825; -402.000; -314.000
365.746;  -94.250; -729.000; -752.000
365.877;  -95.050; -706.000; -672.000
366.009;  226.775;  -35.000;  -62.000
366.141;  -99.550;-1249.000;-1134.000
366.272; -112.150; -803.000; -719.000
366.404; -100.325;-1005.000; -874.000
366.535;  -15.075; -139.000;  -12.000
366.667;  -95.675; -644.000; -649.000
366.799;   45.525;  353.000;  203.000
366.930; -105.100; -862.000; -996.000
367.062;  127.875; -639.000; -613.000
367.193;  119.425; -872.000; -842.000
367.325;  -65.725; -580.000; -684.000
367.456;  100.175; -246.000;   31.000
367.588;  155.175; -371.000; -318.000
367.719;   27.575;  -44.000;  -45.000
367.851;  -14.625; -222.000; -241.000
367.982;  -31.450; -875.000; -732.000
368.113;  158.825; -475.000; -358.000
368.245; -103.775; -960.000; -841.000
368.376;  -19.850; -254.000; -302.000
368.508;  -18.150; -188.000; -263.000
368.639; -124.425;-1166.000;-1034.000
368.770;   12.050; -670.000; -589.000
368.902;  -39.250; -836.000; -926.000
369.033;  -94.200; -906.000; -855.000
369.164;  -51.600; -720.000; -653.000
369.296; -114.100; -452.000; -601.000
369.427;   12.775; -209.000; -144.000
369.558;  -43.725; -593.000; -377.000
369.689;  -78.550; -721.000; -569.000
369.821; -128.775; -951.000; -845.000
369.952;  -19.500;   42.000; -108.000
370.083;  -53.950; -229.000; -108.000
370.214;  -80.425; -735.000; -650.000
370.345;   13.900;   65.000;   81.000
370.477;  -75.550; -810.000; -790.000
370.608;  305.900; -328.000; -264.000
370.739;  -14.200;-1233.000;-1292.000
370.870;  -24.425;-1102.000; -923.000
371.001;  134.550; -378.000; -467.000
371.132;  -68.750; -754.000; -735.000
371.263;  -20.050;  -42.000; -148.000
371.394; -118.925; -841.000; -748.000
371.525;   25.800;  345.000;  225.000
371.657;  -79.750; -808.000; -670.000
371.788;   93.800;  103.000;  199.000
371.919;  238.375; -384.000; -304.000
372.050; 4420.450;  -91.000; -156.000
372.181; 1365.200; -188.000; -294.000
372.311;  471.125;   42.000; -127.000
372.442;   73.625; -457.000; -451.000
372.573;  -10.000; -444.000; -340.000
372.704; -105.700;-1008.000; -980.000
372.835;  126.325; -228.000; -289.000
372.966;  -35.900; -646.000; -554.000
373.097;  -43.700; -575.000; -711.000
373.228;  -13.300; -717.000; -542.000
373.359;  198.800; -824.000; -536.000
373.490; 1199.025; -881.000; -727.000
373.620; 1465.250;-1001.000; -803.000
373.751; 2253.225; -332.000; -396.000
373.882; 1018.450; -663.000; -733.000
374.013;  108.250; -449.000; -262.000
374.143;  -18.875; -581.000; -659.000
374.274;  -96.525; -987.000; -908.000
374.405;  219.900; -388.000; -276.000
374.536;  583.650; -526.000; -387.000
374.666; 1454.525; -759.000; -807.000
374.797;  318.225; -817.000; -868.000
374.928; 1123.850; -710.000; -560.000
375.058; 1138.000; -535.000; -500.000
375.189;  117.200;  -59.000;  -93.000
375.320;  -86.175; -928.000;-1034.000
375.450;  -33.450; -625.000; -616.000
375.581;  -51.075; -526.000; -436.000
375.712;  -22.050; -574.000; -250.000
375.842;  394.300; -438.000; -415.000
375.973;  306.650; -554.000; -513.000
376.103;  -18.025; -665.000; -648.000
376.234;  -69.400; -531.000; -552.000
376.364;   -3.725; -944.000; -867.000
376.495;  381.750;  925.000;  529.000
376.625;   28.225; -472.000; -485.000
376.756;   99.025; -709.000; -678.000
376.886;  -38.550;-1178.000;-1026.000
377.017;   32.650;-1048.000;-1061.000
377.147;  305.075; -786.000; -782.000
377.278;   68.000;  174.000;  228.000
377.408; -116.825; -801.000; -815.000
377.538; -102.850; -707.000; -693.000
377.669;  -71.175; -537.000; -613.000
377.799;  -86.600; -645.000; -635.000
377.929;  -37.075; -610.000; -428.000
378.060; -119.025; -781.000; -847.000
378.190;  -60.075; -726.000; -531.000
378.320;  -47.850; -401.000; -406.000
378.451;  -13.375; -131.000;  -22.000
378.581;   -2.175;  -67.000; -110.000
378.711;  178.350; 1035.000;  866.000
378.841;    4.675; -533.000; -675.000
378.972;  -50.325; -871.000; -751.000
379.102;   22.700; -652.000; -579.000
379.232;  -12.175; -126.000;  -73.000
379.362;  -94.175;-1001.000; -885.000
379.492;   40.125; -373.000; -424.000
379.623;  120.150;    0.000;  111.000
379.753;  -71.900;-1107.000; -974.000
379.883;  233.025;   59.000;  156.000
380.013;   47.700;-1081.000;-1017.000
380.143;  -83.350;-1097.000;-1056.000
380.273;  -79.225; -985.000; -861.000
380.403;    7.025; -344.000; -257.000
380.533;   -9.275; -651.000; -664.000
380.663;   99.025;  173.000;  128.000
380.793;  -72.325;-1027.000;-1074.000
380.923;  -14.350; -103.000;  -34.000
381.053;  -90.425; -613.000; -623.000
381.183;  -26.675; -106.000; -248.000
381.313;   67.900; -656.000; -470.000
381.443;   83.250; -692.000; -473.000
381.573;  269.950; -402.000; -409.000
381.703;  412.850;-1249.000;-1095.000
381.833; -105.750;-1454.000;-1336.000
381.963;  138.300; -134.000;  -87.000
382.093; 1694.400; -925.000; -909.000
382.223;  558.750; -713.000; -602.000
382.353;   16.475; -801.000; -608.000
382.482;  482.325;-1091.000; -964.000
382.612;  957.775; -872.000; -644.000
382.742;  551.650; -695.000; -622.000
382.872;  351.700; -565.000; -551.000
383.002;   72.100;  347.000; -132.000
383.131;   -0.600; -226.000; -160.000
383.261;  -39.675; -706.000; -768.000
383.391;  312.925; -552.000; -377.000
383.521; 2870.650;  451.000;  263.000
383.650;  681.000; -947.000; -904.000
383.780;  -16.675; -783.000; -656.000
383.910;  116.400;  880.000;  802.000
384.039;   64.000; -794.000; -656.000
384.169;  311.650;-1205.000;-1017.000
384.299;   -2.625; -650.000; -662.000
384.428;  -78.525; -764.000; -680.000
384.558;  -46.300; -308.000; -275.000
384.687;  -20.900; -414.000; -334.000
384.817;   21.000;   75.000;   -2.000
384.947;   33.100; -234.000; -141.000
385.076;  335.950;  982.000;  912.000
385.206;  117.375;  369.000;  480.000
385.335;  -26.425; -549.000; -417.000
385.465;  -65.625; -655.000; -663.000
385.594;  180.725;  -53.000;  -44.000
385.724;  569.475; -868.000; -838.000
385.853;  162.425; -296.000; -270.000
385.982; 1731.650; -743.000; -787.000
386.112; 2728.125;-1052.000; -871.000
386.241;  202.975; -307.000; -312.000
386.371;   20.500; -174.000;  -87.000
386.500;   23.425; -825.000; -789.000
386.629;   41.350; -874.000; -817.000
386.759;   82.050;  -43.000;   68.000
386.888;    1.200; -170.000; -250.000
387.017;  -56.225; -648.000; -620.000
387.147;  -76.925; -771.000; -798.000
387.276;   16.825; -410.000; -397.000
387.405;   30.100; -398.000; -342.000
387.535;  -17.475; -452.000; -361.000
387.664;  -55.725; -692.000; -620.000
387.793;   82.900; -198.000; -113.000
387.922;  661.200;  255.000;  200.000
388.052;   43.875; -576.000; -423.000
388.181;   36.575; -342.000; -472.000
388.310;   38.675; -889.000; -710.000
388.439;  -24.700; -749.000; -742.000
388.568;  243.400;  365.000;  244.000
388.697; 1352.050; -756.000; -653.000
388.826;  302.975; -768.000; -666.000
388.956;   88.700; -285.000; -307.000
389.085;  -13.200; -347.000; -287.000
389.214; -111.700; -842.000; -872.000
389.343;  -57.750; -645.000; -413.000
389.472;  395.175;  126.000;  149.000
389.601;  539.400;   91.000;    0.000
389.730;   39.275; -568.000; -687.000
389.859;   72.425;  226.000;   46.000
389.988;  263.975; -423.000; -408.000
390.117;  198.075; -168.000; -146.000
390.246;   18.425; -331.000; -320.000
390.375;  158.450; -673.000; -626.000
390.504;  -40.550; -703.000; -621.000
390.633;  -89.850; -672.000; -726.000
390.761;  -52.975; -732.000; -645.000
390.890;   45.800;   -4.000; -130.000
391.019;  -24.075; -421.000; -441.000
391.148; -111.075; -826.000; -855.000
391.277;  -44.375; -576.000; -493.000
391.406;  -47.225; -821.000; -805.000
391.534;   21.925;  574.000; -301.000
391.663;  -44.475; -583.000; -645.000
391.792;  -73.550; -673.000; -701.000
391.921;  133.800;   -3.000;   15.000
392.050;  271.125; -287.000; -228.000
392.178;   -8.250;-1206.000;-1061.000
392.307;  202.525; -758.000; -712.000
392.436;  117.900; -427.000; -641.000
392.564;   25.925;  166.000;   -6.000
392.693;  -89.500; -860.000; -682.000
392.822;  292.225; -529.000; -534.000
392.950;  140.850; -880.000; -714.000
393.079;  412.150; -188.000; -328.000
393.208;   59.975; -488.000; -511.000
393.336;    4.875; -170.000; -145.000
393.465;  -45.425; -317.000; -199.000
393.593;    2.775;   62.000;   79.000
393.722; -137.800;-1121.000; -916.000
393.850;  -33.875; -188.000;  -61.000
393.979; -148.550; -926.000; -805.000
394.107;  -58.625; -517.000; -537.000
394.236;   -2.500; -570.000; -507.000
394.364;  234.350;  383.000;  206.000
394.493;  426.650; -911.000; -767.000
394.621;   -4.525; -955.000; -916.000
394.750;  641.725; -873.000; -923.000
394.878; 2701.150; -247.000; -149.000
395.007; 3726.550; -721.000; -807.000
395.135;  290.275; -790.000; -721.000
395.263;  -78.975;-1038.000;-1040.000
395.392;  -16.075;  -25.000; -107.000
395.520; -148.125; -818.000; -679.000
395.648;  -65.475; -865.000; -915.000
395.777;    0.025; -366.000; -405.000
395.905;  -38.600; -449.000; -564.000
396.033;   19.200;  217.000;  172.000
396.162;  672.775; -399.000; -453.000
396.290;  640.675;  -17.000;   -2.000
396.418;  146.500; -555.000; -514.000
396.546;  -45.025; -571.000; -466.000
396.674;  -94.500; -850.000; -878.000
396.803;   20.325;  -72.000;  -23.000
396.931;  138.525; -179.000; -199.000
397.059;  102.275;-1026.000; -989.000
397.187; -102.500;-1026.000; -975.000
397.315; -129.675; -884.000; -649.000
397.443;  -86.325; -592.000; -443.000
397.572;  -84.325; -578.000; -424.000
397.700;   29.050; -607.000; -614.000
397.828;   18.425;  120.000;  -90.000
397.956;  -53.050; -508.000; -478.000
398.084;  -69.975; -767.000; -626.000
398.212;   33.625;  137.000;  124.000
398.340;   10.100;  -56.000;  159.000
398.468;   53.000; -390.000; -169.000
398.596; -127.450; -993.000; -953.000
398.724; -111.625; -762.000; -767.000
398.852; -162.975;-1024.000; -976.000
398.980;  -48.700; -560.000; -560.000
399.108;  -33.975; -982.000; -735.000
399.236;   60.500;   13.000;    8.000
399.363;    9.700;  222.000;  196.000
399.491;  -69.375; -404.000; -398.000
399.619; -111.975; -829.000; -800.000
399.747; -103.000; -859.000; -771.000
399.875;   81.575;  220.000;  234.000
400.003;  -44.775; -359.000; -284.000
400.130; -100.250; -421.000; -341.000
400.258;  -24.250;  -83.000;   38.000
400.386;  -64.275; -352.000; -168.000
400.514;  -37.725; -526.000; -587.000
400.641;  -69.600; -928.000; -802.000
400.769; -130.425; -979.000; -888.000
400.897;  -99.875; -838.000; -793.000
401.025;   -9.900; -166.000; -152.000
401.152;    5.250;  220.000;   38.000
401.280;  -73.175; -430.000; -429.000
401.408; -120.075; -712.000; -576.000
401.535; -105.525; -735.000; -758.000
401.663; -185.825;-1134.000;-1054.000
401.790;  -64.150; -514.000; -525.000
401.918;   45.250;  436.000;  405.000
402.046;   -8.975;  134.000;  122.000
402.173;  -34.600;  -18.000;    7.000
402.301;  -70.950; -519.000; -397.000
402.428;   31.375;  528.000;  383.000
402.556; -129.700;-1188.000; -913.000
402.683;  -32.450;  -20.000;   -1.000
402.811;  -29.900;  -37.000; -206.000
402.938;   -3.800;   20.000;   27.000
403.066;  247.575; -574.000; -558.000
403.193;  420.550;  299.000;  239.000
403.321;  336.475; -396.000; -574.000
403.448;  420.600;   83.000;   27.000
403.575;  195.650;  -90.000;  -46.000
403.703;  -95.850; -732.000; -557.000
403.830;  -69.350; -531.000; -496.000
403.957; -139.625;-1117.000;-1023.000
404.085;   14.100;  -61.000; -172.000
404.212;  113.575;  -50.000;   63.000
404.339;  242.775; -566.000; -306.000
404.467; 5274.100; -612.000; -524.000
404.594; 3860.925; -287.000; -227.000
404.721; 1010.175; -869.000; -764.000
404.848;   98.650; -113.000; -202.000
404.976; -102.700; -856.000; -783.000
405.103;  -18.800;  -14.000;  -82.000
405.230;    2.850;  190.000;  226.000
405.357;   20.650;  117.000;   44.000
405.484;  240.150;  -49.000;    5.000
405.612;   57.425; -548.000; -563.000
405.739;  -64.250; -488.000; -243.000
405.866;   94.075;  669.000;  385.000
405.993;  -29.700; -398.000; -102.000
406.120; -121.825; -801.000; -887.000
406.247;  -53.525; -323.000; -342.000
406.374;  551.500;  540.000;  629.000
406.501;  178.275; -632.000; -702.000
406.628;  -80.800; -621.000; -589.000
406.755;  -79.225; -803.000; -620.000
406.882;  -30.600; -228.000; -277.000
407.009;  -96.525; -719.000; -628.000
407.136;   72.200; -480.000; -401.000
407.263;  222.300; -939.000; -829.000
407.390;  -63.050; -692.000; -614.000
407.517; -153.800;-1139.000;-1187.000
407.644;  -63.950; -332.000; -256.000
407.771; -135.975; -249.000; -287.000
407.898;    8.525;  168.000;  328.000
408.025;  -63.250; -421.000; -313.000
408.151;  -15.200;   82.000;  153.000
408.278;  -66.450; -267.000; -216.000
408.405; -107.875; -931.000; -899.000
408.532;  -52.250; -549.000; -542.000
408.659; -121.875; -677.000; -648.000
408.785; -204.925;-1298.000;-1170.000
408.912;  -62.675; -412.000; -296.000
409.039; -109.550; -610.000; -686.000
409.166; -102.850; -591.000; -555.000
409.292;  -98.350; -571.000; -534.000
409.419; -118.875; -665.000; -649.000
409.546;  -95.675; -431.000; -192.000
409.672; -111.125; -713.000; -545.000
409.799;  -14.575;  -36.000;   34.000
409.926;  -37.225; -180.000; -179.000
410.052; -176.500;-1127.000;-1091.000
410.179;  -52.175; -368.000; -392.000
410.305;  -83.650; -375.000; -493.000
410.432;  -42.450; -220.000; -333.000
410.558;  -94.275; -305.000; -380.000
410.685; -104.375; -688.000; -431.000
410.812; -104.200; -409.000; -588.000
410.938; -143.425; -964.000; -808.000
411.065;  -99.275; -671.000; -645.000
411.191;  -12.325; -189.000; -174.000
411.317; -118.950; -823.000; -742.000
411.444;  -72.775; -317.000; -246.000
411.570;  -71.150; -339.000; -294.000
411.697; -133.425; -758.000; -752.000
411.823; -159.675; -989.000; -999.000
411.949;  -25.825;  -56.000;   17.000
412.076; -100.575; -539.000; -519.000
412.202; -115.175; -758.000; -757.000
412.329; -123.825; -798.000; -752.000
412.455; -112.925; -821.000; -657.000
412.581;  -15.050;  -15.000;  172.000
412.707;  -64.100; -540.000; -457.000
412.834;   21.675;  156.000;  219.000
412.960;  -76.900; -785.000; -784.000
413.086;  -97.325; -743.000; -701.000
413.212;  163.550;  604.000;  578.000
413.339;  -48.250; -685.000; -701.000
413.465;   29.775; -364.000; -310.000
413.591;  -74.450; -757.000; -474.000
413.717;  -58.800; -358.000; -366.000
413.843; -128.950; -839.000; -861.000
413.969;  -59.875;  -47.000; -292.000
414.096; -105.325; -679.000; -679.000
414.222;   -9.500;  -33.000;   85.000
414.348;   -9.275; -652.000; -385.000
414.474;  124.525;   38.000;  -52.000
414.600;  -16.500; -126.000; -144.000
414.726;  -20.025;  -96.000;  -55.000
414.852;  -57.500; -365.000; -342.000
414.978;   23.200;  104.000;  -18.000
415.104;   37.800;   38.000;   80.000
415.230;    9.600; -329.000; -330.000
415.356;   34.075; -409.000; -514.000
415.482;  200.975;   13.000;  -35.000
415.608;  253.100; -247.000; -323.000
415.734;  900.450;   67.000;   38.000
415.860;18676.725; -875.000; -767.000
415.986;14186.825; -685.000; -607.000
416.111; 1234.150; -798.000; -652.000
416.237;  236.700; -424.000; -571.000
416.363; 1004.850; -765.000; -733.000
416.489; 3885.550; -324.000; -251.000
416.615;  435.625; -707.000; -742.000
416.741;  -23.525; -677.000; -784.000
416.866; -102.575; -673.000; -736.000
416.992; -117.750; -801.000; -818.000
417.118;  -28.250;  -41.000;  -80.000
417.244;  -55.950; -798.000; -531.000
417.369;  -75.400; -801.000; -612.000
417.495;  -16.000; -325.000; -254.000
417.621;  -77.725;-1015.000; -803.000
417.746;   -0.700; -579.000; -572.000
417.872;   49.825; -254.000; -144.000
417.998;   37.500; -515.000; -530.000
418.123;  925.025;-1073.000; -845.000
418.249; 5067.525; -512.000; -601.000
418.374;  721.450; -916.000; -824.000
418.500;  102.075; -383.000; -482.000
418.626;   93.050;   70.000;  -59.000
418.751;  132.825; -549.000; -448.000
418.877;  190.450; -637.000; -643.000
419.002; 1593.925; -688.000; -560.000
419.128;11611.975; -930.000; -721.000
419.253; 2943.750; -967.000; -837.000
419.379;  380.075; -391.000; -338.000
419.504;  357.875;  325.000;  415.000
419.629;  443.375; -393.000; -212.000
419.755; 3138.475; -317.000; -254.000
419.880;19059.225;  -98.000;   67.000
420.006;10554.025; -280.000; -221.000
420.131;27751.300; -662.000; -775.000
420.256; 4195.000; -315.000; -316.000
420.382;  549.425; -665.000; -687.000
420.507;   62.500; -649.000; -778.000
420.632;  180.725; -337.000; -339.000
420.758;  354.925; -251.000; -425.000
420.883;  -82.075; -876.000; -672.000
421.008;  -91.150; -775.000; -619.000
421.133;  -80.350; -509.000; -467.000
421.259;  -50.600; -325.000; -259.000
421.384; -105.825; -834.000; -693.000
421.509;  -22.175;-1052.000; -862.000
421.634; 1535.575; -936.000; -820.000
421.759;  698.775; -359.000; -327.000
421.885;  -41.250; -717.000; -656.000
422.010;  -80.000; -673.000; -542.000
422.135; -140.650; -695.000; -727.000
422.260;   28.000;  340.000;  280.000
422.385;  -47.925;   12.000;  -98.000
422.510;    4.850;  151.000;  -26.000
422.635;   22.650;  -87.000;  -43.000
422.760;  120.450; -766.000; -791.000
422.885;   73.025;  -57.000;  -80.000
423.010;  -32.925; -112.000; -169.000
423.135;  -89.050; -481.000; -561.000
423.260;   -5.900; -150.000; -245.000
423.385;   55.125;  476.000;  222.000
423.510;   33.550;   71.000;  -22.000
423.635;  100.325;  133.000;   45.000
423.760;   68.425;  383.000;  328.000
423.885;   59.825;  336.000;  391.000
424.010;    8.125;  -68.000;  -13.000
424.135;  -15.125;    5.000;  -33.000
424.259;  -87.625; -654.000; -457.000
424.384;  -68.625; -279.000; -272.000
424.509;  -17.300; -260.000; -186.000
424.634; -105.575; -761.000; -623.000
424.759;  -26.075; -688.000; -544.000
424.883;    2.075; -506.000; -527.000
425.008;  167.800; -502.000; -410.000
425.133; 1843.725; -679.000; -653.000
425.258;  922.400; -517.000; -381.000
425.382; 1201.800; -867.000; -774.000
425.507; 3208.575; -487.000; -543.000
425.632;  517.075; -802.000; -663.000
425.756;  422.775; -256.000; -146.000
425.881; 5643.900; -831.000; -857.000
426.006;15739.325; -604.000; -355.000
426.130; 2622.250; -696.000; -508.000
426.255;  332.050; -611.000; -491.000
426.379;  168.325; -189.000; -577.000
426.504;  344.000;  660.000;  544.000
426.629; 3813.525; -519.000; -466.000
426.753; 2745.500;   64.000;  -46.000
426.878;  318.000; -252.000; -288.000
427.002;  132.450; -651.000; -668.000
427.127; 1460.300;  -35.000; -158.000
427.251;10641.175;  372.000;  401.000
427.375; 3180.350; -191.000; -173.000
427.500; 2729.150; -616.000; -610.000
427.624;  986.225; -234.000; -400.000
427.749;  107.525; -216.000; -225.000
427.873;  -14.550; -499.000; -412.000
427.997;  -51.625; -222.000; -230.000
428.122;   88.300;  795.000;  703.000
428.246;   64.100;  433.000;  434.000
428.371; -112.175; -869.000; -773.000
428.495; -115.225; -624.000; -646.000
428.619;  -35.675; -186.000; -117.000
428.743;   36.050;   65.000;  132.000
428.868;   36.075; -732.000; -643.000
428.992; 1720.700; -219.000; -326.000
429.116;  744.750; -329.000; -357.000
429.240;  342.250;  419.000;  426.000
429.365;  -18.225; -454.000; -574.000
429.489;  -56.125; -638.000; -647.000
429.613;   32.500; -236.000; -177.000
429.737;   36.175; -563.000; -432.000
429.861;  255.050; -247.000; -133.000
429.985; 5093.075; -425.000; -305.000
430.109; 5852.650; -770.000; -908.000
430.234;  689.850;   76.000;  -50.000
430.358;   75.050; -250.000; -160.000
430.482;  -70.625; -672.000; -564.000
430.606;  -65.800; -655.000; -375.000
430.730;   38.450; -437.000; -388.000
430.854;  208.225; -909.000; -835.000
430.978;  -62.450; -795.000; -764.000
431.102;  -76.700; -499.000; -422.000
431.226; -104.675; -874.000; -815.000
431.350;   41.775;  345.000;  422.000
431.474;  -61.175; -661.000; -373.000
431.597; -147.450;-1060.000; -848.000
431.721;  -91.825; -276.000; -267.000
431.845; -133.150; -704.000; -472.000
431.969;  -78.625; -304.000; -349.000
432.093;  -87.025; -395.000; -317.000
432.217;  -21.025;   32.000;   82.000
432.341;  -89.900; -523.000; -518.000
432.464;   14.600;   96.000;   40.000
432.588;  271.625; -401.000; -329.000
432.712;  149.225;  -52.000;  -52.000
432.836;   51.225;  213.000;  263.000
432.959;  -26.950; -372.000; -311.000
433.083;   78.775;   11.000;    2.000
433.207;  342.275;  285.000;  930.000
433.330; 4565.200; -391.000; -200.000
433.454; 5833.550; -654.000; -638.000
433.578; 3367.800;  583.000;  278.000
433.701;  661.450; -623.000; -675.000
433.825;  192.500; -292.000; -299.000
433.949;  254.200;   28.000;  -72.000
434.072;   92.125; -410.000; -323.000
434.196;   -7.725; -309.000; -117.000
434.319; 3648.575;25482.000;25124.000
434.443;  735.550; -656.000; -603.000
434.566; 2518.475;  281.000;   62.000
434.690;  423.725; -637.000; -383.000
434.813;   46.200; -251.000; -173.000
434.937;  -75.675; -569.000; -696.000
435.060;  -27.075; -423.000; -332.000
435.184;  448.375; -492.000; -217.000
435.307;  250.650;  159.000;  102.000
435.431;    5.175;  -40.000;   24.000
435.554;  -73.675; -399.000; -240.000
435.677;  -91.425; -350.000; -258.000
435.801;  -31.150;  -25.000;   49.000
435.924;  -13.200;    1.000;  -67.000
436.048;  -92.700;-1019.000; -732.000
436.171;  -64.275; -240.000;  -66.000
436.294;  -27.225; -248.000; -229.000
436.417;   84.200; -963.000; -849.000
436.541;  -95.200; -814.000; -840.000
436.664;  -39.150; -242.000; -316.000
436.787;  -29.825;   13.000;  113.000
436.910; -122.525; -792.000; -422.000
437.034;   10.025;  142.000;  143.000
437.157;   71.775;  -11.000;    0.000
437.280;  -29.250; -392.000; -292.000
437.403;  -71.450; -982.000; -869.000
437.526;  853.750; -903.000; -865.000
437.649; 3079.600; -505.000; -332.000
437.772;  522.600; -692.000; -540.000
437.896;  134.175;  700.000;  544.000
438.019;  -79.475; -758.000; -503.000
438.142;  -78.700; -596.000; -506.000
438.265;   10.550; -639.000; -670.000
438.388;  752.275; -520.000; -410.000
438.511;  161.125; -597.000; -394.000
438.634;  -19.025; -247.000; -125.000
438.757; -120.575; -693.000; -619.000
438.880;  -11.525;  -34.000;  -57.000
439.003;  -70.525; -417.000; -437.000
439.126;  -70.450; -287.000; -167.000
439.248;  -66.925;  -98.000; -139.000
439.371;  -56.675;    9.000;  -53.000
439.494;   17.775;  510.000;  439.000
439.617;  -52.475;   65.000;  -88.000
439.740; -179.575; -968.000; -816.000
439.863; -137.450; -755.000; -595.000
439.986; -133.225; -476.000; -431.000
440.108;  -49.875; -161.000; -112.000
440.231; -156.475; -950.000; -836.000
440.354;  -40.350;  -64.000; -150.000
440.477;   68.300; -566.000; -542.000
440.599;   28.625; -200.000; -225.000
440.722; -126.525; -709.000; -586.000
440.845;   57.550;  751.000;  928.000
440.968; -108.275; -415.000; -311.000
441.090;  -73.400; -199.000;  -33.000
441.213; -171.125;-1021.000; -825.000
441.336;  -36.625; -159.000;   -5.000
441.458;  -73.450; -549.000; -396.000
441.581;  -65.400; -628.000; -629.000
441.703;  -77.400; -152.000;   13.000
441.826; -112.125; -557.000; -400.000
441.948;  -48.400;   56.000;   51.000
442.071;   15.800;  555.000;  424.000
442.193; -116.825; -531.000; -485.000
442.316;   26.500;  152.000;   97.000
442.438;   29.950; -233.000;  -10.000
442.561;   82.775;  272.000;  262.000
442.683;  720.550; -809.000; -522.000
442.806; 1573.750;   -8.000;   74.000
442.928;  100.975; -859.000; -604.000
443.051;  -55.725; -577.000; -373.000
443.173;  -93.275; -341.000; -339.000
443.295;  -82.900; -263.000; -371.000
443.418;  -65.925; -321.000;  -29.000
443.540;    8.700; -106.000;   -4.000
443.662; -107.950; -563.000; -465.000
443.785;  -13.325;  335.000;  199.000
443.907;  -89.825; -362.000; -208.000
444.029; -131.350; -767.000; -494.000
444.152; -143.150; -644.000; -554.000
444.274;  -30.025;  -18.000;  -24.000
444.396; -106.275; -461.000; -221.000
444.518; -126.125; -691.000; -454.000
444.640;  -92.850; -268.000; -111.000
444.763;  -13.500;  388.000;  249.000
444.885; -120.500; -432.000; -392.000
445.007;  -33.650;   35.000;   86.000
445.129; -108.800; -610.000; -515.000
445.251; -105.750; -372.000; -439.000
445.373; -140.650; -537.000; -386.000
445.495;   -1.650;  242.000;  350.000
445.617;   56.200;  853.000;  753.000
445.739;  -57.375; -215.000;  -97.000
445.861;  -28.925; -245.000; -112.000
445.984;  -18.775; -267.000; -101.000
446.105;  262.900; -418.000; -251.000
446.227;  818.475; -176.000;  -19.000
446.349;   55.850; -358.000; -249.000
446.471;  -79.900; -615.000; -448.000
446.593;  -53.275; -316.000;   19.000
446.715;   12.250;  -67.000;   41.000
446.837;   61.425;  697.000;  832.000
446.959;  -94.600; -457.000; -478.000
447.081; -138.225; -628.000; -518.000
447.203;   58.175;  862.000;  834.000
447.325;  -75.975; -270.000;   42.000
447.446;  -19.875;  286.000;  530.000
447.568; -145.675; -921.000; -803.000
447.690;  -86.150; -236.000; -245.000
447.812; -141.100; -798.000; -519.000
447.933;  -37.700;  155.000;  127.000
448.055;  -50.500; -306.000; -261.000
448.177;  172.700;   31.000;   79.000
448.299;  155.450; -935.000; -727.000
448.420;   23.675;  -25.000;  159.000
448.542;  -51.125;   -3.000;   33.000
448.664;  -21.625;  109.000;  322.000
448.785;  -36.475;  265.000;   83.000
448.907;  -66.450; -614.000; -353.000
449.028;  -16.925; -771.000; -471.000
449.150;   73.250;  492.000;  589.000
449.272; -171.100;-1044.000; -913.000
449.393;   17.550;  612.000;  694.000
449.515; -150.575; -634.000; -581.000
449.636;  -61.325; -264.000; -155.000
449.758;   77.025;  763.000;  622.000
449.879;  -95.700; -498.000; -396.000
450.001;  -86.375; -149.000;  -49.000
450.122;  -33.850;  -95.000;  162.000
450.244;   -5.100;   37.000;  364.000
450.365;  -92.575; -495.000; -301.000
450.486;  -30.775;   80.000;  268.000
450.608;   13.975;  393.000;  326.000
450.729;   69.450;  578.000;  645.000
450.850;  -13.900; -574.000; -466.000
450.972;  620.100; -552.000; -389.000
451.093; 4419.525;  190.000;  588.000
451.214; 1997.325; -516.000; -337.000
451.336;  376.275;  773.000;  579.000
451.457;   53.400;  264.000;  393.000
451.578;  -35.475; -118.000;  -74.000
451.699; -133.500; -546.000; -540.000
451.821;  -83.025; -284.000;  -50.000
451.942;   -7.850;  278.000;  285.000
452.063;   39.275;  228.000;  419.000
452.184;  496.375;  -54.000;  -49.000
452.305; 1027.825;  103.000;  170.000
452.427;  110.025; -549.000; -301.000
452.548;  -31.325;   23.000;   79.000
452.669;  -50.750; -257.000;  -89.000
452.790;  -32.275;    3.000;  -18.000
452.911;  -16.600;  195.000;  259.000
453.032;  -64.300; -289.000;  -60.000
453.153;  -37.425;  -29.000;   81.000
453.274;   47.875;  737.000;  868.000
453.395;  -51.475;  -51.000;  175.000
453.516;  122.325; 1317.000; 1388.000
453.637;  -48.875; -205.000; -150.000
453.758;  -53.175;   15.000;   69.000
453.879; -115.725; -462.000; -250.000
454.000;   68.975; 1086.000;  948.000
454.121; -107.525; -554.000; -326.000
454.242; -118.950; -599.000; -383.000
454.362;  -40.625;  -99.000;  114.000
454.483;  -38.525; -309.000; -229.000
454.604;   68.375;  512.000;  580.000
454.725; -127.425; -627.000; -555.000
454.846; -105.900; -474.000; -406.000
454.967;  -31.675;  230.000;  539.000
455.087;  -45.350;  179.000;  153.000
455.208;   12.900;  554.000;  856.000
455.329;  -77.975;  -22.000;   82.000
455.450;   30.050;  473.000;  633.000
455.570;  -86.625; -234.000; -211.000
455.691;  -41.000;  201.000;  407.000
455.812; -105.450; -270.000;  -92.000
455.932;  -60.425;  107.000;  -97.000
456.053;  -72.925;   36.000;   24.000
456.173; -115.550; -433.000; -355.000
456.294; -147.100; -476.000; -303.000
456.415;  -63.000;  -73.000;   70.000
456.535;  -43.200;  297.000;  273.000
456.656;  -53.500;  132.000;  240.000
456.776;  -80.350;    3.000;  298.000
456.897;   -7.975;  308.000;  513.000
457.017;  -88.750; -153.000;   -3.000
457.138; -114.050; -402.000; -249.000
457.258;  -25.875;  263.000;  224.000
457.379;  -14.500;  509.000;  521.000
457.499;  -26.625;  443.000;  432.000
457.620; -121.800; -407.000; -231.000
457.740;  -96.475; -132.000;  -11.000
457.860;  -62.150;   87.000;   44.000
457.981;  -48.900;  132.000;  124.000
458.101;  -71.000;  -89.000;   40.000
458.221;  -17.675;  336.000;  402.000
458.342;  -73.075;   -4.000;  -37.000
458.462;    5.550;  617.000;  352.000
458.582;  -46.950; -302.000; -294.000
458.703;  -13.425;  303.000;  154.000
458.823;  -41.750;   22.000;  163.000
458.943;   13.325;  341.000;  467.000
459.063;   -6.175; 1124.000;  192.000
459.183;  -36.950;  328.000;  313.000
459.304;    3.600;  315.000;  517.000
459.424;  -68.750; -246.000;  -89.000
459.544;  290.375;  388.000;  764.000
459.664;  761.700;  499.000;  506.000
459.784;  299.050; 1004.000; 1175.000
459.904;   58.300;  867.000;  744.000
460.024;   59.850;  867.000;  684.000
460.144;   20.225;  449.000;  554.000
460.264;   -6.775;  515.000;  327.000
460.385;  -95.475; -145.000; -119.000
460.505;   37.125;  905.000;  858.000
460.625;  -83.750;  -17.000;  -68.000
460.745;  -17.175;  396.000;  541.000
460.864;  -52.075;  153.000;  469.000
460.984;   21.925;  499.000;  573.000
461.104;  140.900; 1656.000; 1775.000
461.224;   10.675;  657.000;  650.000
461.344;  -29.950;  431.000;  360.000
461.464;  -27.700;  258.000;  513.000
461.584;  -13.675;  283.000;  466.000
461.704;  -43.750;   58.000;  108.000
461.824;  -58.450;  238.000;  259.000
461.943;  -61.375;  191.000;  130.000
462.063;  -78.025;    2.000;  324.000
462.183;   33.225;  639.000;  717.000
462.303;   91.200; 1678.000; 1230.000
462.422;   24.600;  781.000;  840.000
462.542;  -34.125;  271.000;  391.000
462.662;   35.550;  353.000;  380.000
462.782;  226.075;  833.000;  572.000
462.901;  454.275;  545.000;  717.000
463.021;  253.425; 1702.000; 1638.000
463.141;  -11.900;  337.000;  770.000
463.260;  -14.725;  614.000;  474.000
463.380;   23.150;  902.000;  884.000
463.499;  -47.950;  342.000;  332.000
463.619;  -44.425;  581.000;  559.000
463.738;  113.975; 1644.000;  903.000
463.858;   12.950;  657.000;  811.000
463.978;  -32.175;  542.000;  396.000
464.097;   40.750;  921.000; 1114.000
464.217;  105.000; 1196.000; 1143.000
464.336;   90.550; 1068.000; 1130.000
464.455;  -18.400;  328.000;  659.000
464.575;   55.700;  597.000;  602.000
464.694;  193.775; 1204.000; 1179.000
464.814;  127.325; 1190.000; 1138.000
464.933;   62.925; 1095.000; 1027.000
465.052;   93.875; 1412.000; 1054.000
465.172;   87.850;  922.000;  799.000
465.291;  152.300; 1376.000; 1320.000
465.410;    9.875;  462.000;  735.000
465.530;   87.550; 1355.000; 1310.000
465.649;   65.575; 1209.000; 1273.000
465.768;  143.375; 1673.000; 1508.000
465.888;   49.550;  941.000; 1174.000
466.007;   74.775; 1335.000; 1440.000
466.126;   -5.750;  721.000;  641.000
466.245;   35.350; 1176.000; 1187.000
466.364;   14.825;  950.000; 1060.000
466.484;   65.300; 1024.000; 1213.000
466.603;   33.900; 1101.000; 1222.000
466.722;  116.325; 1490.000; 1769.000
466.841;   80.800; 1151.000; 1401.000
466.960;   36.775; 1069.000;  972.000
467.079;  119.650; 1971.000; 1786.000
467.198;   51.450; 1238.000; 1181.000
467.317;   88.725; 1768.000; 1162.000
467.436;   70.925; 1709.000; 1261.000
467.555;  129.925; 1796.000; 1746.000
467.674;   70.900; 1227.000; 1329.000
467.793;   45.175; 1376.000; 1374.000
467.912;   80.625; 1658.000; 1539.000
468.031;  150.350; 2038.000; 1930.000
468.150;  148.600; 1842.000; 1837.000
468.269;  195.925; 2313.000; 2090.000
468.388;  183.200; 2168.000; 2339.000
468.507;  240.900; 2884.000; 2903.000
468.626;  275.400; 2555.000; 2541.000
468.744;  134.225; 2018.000; 2174.000
468.863;  205.200; 2312.000; 2523.000
468.982;   85.000; 1503.000; 1555.000
469.101;  217.350; 2788.000; 2692.000
469.220;  152.550; 2333.000; 2176.000
469.338;  249.250; 2935.000; 3051.000
469.457;  186.750; 2719.000; 2545.000
469.576;  332.775; 3953.000; 3784.000
469.695;  238.375; 2877.000; 3066.000
469.813;  429.850; 4148.000; 4192.000
469.932;  401.150; 4255.000; 4485.000
470.051;  412.025; 4075.000; 4161.000
470.169;  831.675; 4470.000; 4338.000
470.288; 1385.325; 4700.000; 4809.000
470.406;  853.900; 5059.000; 5194.000
470.525;  642.450; 6101.000; 5787.000
470.644;  643.500; 6847.000; 6794.000
470.762;  804.225; 8397.000; 7873.000
470.881;  888.900; 8651.000; 8464.000
470.999; 1052.900; 9685.000; 9151.000
471.118; 1105.950;11174.000;10711.000

