
Integration time [ms]: 100.000
Averaging Nr. [scans]: 40
Smoothing Nr. [pixels]: 0
Data measured with spectrometer [name]: 2101012U2
Wave   ;Sample   ;Dark     ;Reference
[nm]   ;[counts] ;[counts] ;[counts] 

197.733;   79.400;  516.000;  404.000
197.879;  -86.025; -610.000; -634.000
198.025;  -51.250; -475.000; -420.000
198.171;  -64.975; -602.000; -612.000
198.317;  -34.875; -401.000; -316.000
198.463;  -51.100; -655.000; -404.000
198.609;   10.950;  181.000; -137.000
198.755;  -78.125; -644.000; -410.000
198.901;  -73.175; -505.000; -424.000
199.047;  -66.050; -615.000; -488.000
199.193;  -38.200; -230.000; -468.000
199.339;  -42.575; -222.000; -369.000
199.485;   34.150;  330.000;  271.000
199.631;    1.050;  227.000;  310.000
199.777;  -61.275; -466.000; -398.000
199.923;  -54.700; -610.000; -424.000
200.069;   -0.225; -141.000;  -58.000
200.215;   50.125;  128.000;  453.000
200.361;   35.425;  243.000;  477.000
200.507;  -61.000; -600.000; -373.000
200.653;  -31.025; -371.000; -194.000
200.798;  -26.950; -215.000; -125.000
200.944;  -10.125; -146.000;  -41.000
201.090;   49.350;   61.000;  222.000
201.236;   -3.550; -116.000; -158.000
201.382;  122.025;  874.000;  903.000
201.528;  -13.175;  -58.000;  -48.000
201.674;  -54.750; -386.000; -293.000
201.819;  -71.500; -540.000; -439.000
201.965;  -85.950; -699.000; -447.000
202.111;  -21.350; -273.000; -226.000
202.257;  -38.300; -250.000; -238.000
202.402;   -9.400;   13.000;  -36.000
202.548;  -25.500; -169.000; -116.000
202.694;   93.625;  410.000; -183.000
202.840;  -71.150; -603.000; -531.000
202.985;  -61.275; -681.000; -639.000
203.131; -103.250; -832.000; -666.000
203.277;  -29.800; -199.000; -262.000
203.423;  -44.150; -434.000; -520.000
203.568;  -39.050; -462.000; -237.000
203.714;  -56.675; -535.000; -542.000
203.860;  -78.725; -682.000; -641.000
204.005;   11.325;  112.000;  167.000
204.151;   66.350;  561.000;  556.000
204.296;  -26.325; -354.000; -221.000
204.442;  -58.725; -600.000; -547.000
204.588;  -60.800; -592.000; -579.000
204.733;   27.050;  178.000;  168.000
204.879; -132.350;-1018.000; -822.000
205.025;   22.050;  -99.000;  126.000
205.170;   -1.625;  -17.000;   94.000
205.316;   77.075;  438.000;  661.000
205.461;  -73.550; -698.000; -554.000
205.607;   80.175;  609.000;  665.000
205.752;  -83.450; -626.000; -551.000
205.898;  -45.950; -501.000; -391.000
206.043;  -82.550; -578.000; -506.000
206.189;  -31.600; -243.000; -285.000
206.334;   81.425;  554.000;  606.000
206.480;   39.675;  409.000;  239.000
206.625;  -72.525; -529.000; -552.000
206.771;  -30.125; -451.000; -373.000
206.916;  -40.525; -210.000; -537.000
207.062;  -62.800; -545.000; -591.000
207.207;  -53.725; -546.000; -443.000
207.353;   50.200;  185.000;  460.000
207.498;   20.400;  196.000;   85.000
207.643;  -45.425; -501.000; -370.000
207.789; -125.700;-1069.000; -910.000
207.934;  -92.350; -665.000; -713.000
208.080;  -27.375; -154.000;   66.000
208.225;   -8.975;  -22.000;  -57.000
208.370;  -80.225; -727.000; -619.000
208.516;  -81.700; -741.000; -487.000
208.661;  -13.900; -127.000;  -69.000
208.806;  -26.925; -165.000; -171.000
208.952; -120.975;-1044.000; -731.000
209.097;   74.875;  378.000;  349.000
209.242;  -27.625; -307.000; -382.000
209.387;   70.725;  392.000;  350.000
209.533;  -45.975; -321.000; -350.000
209.678;   65.700;  472.000;  543.000
209.823;  -47.525; -408.000; -310.000
209.969; -109.475; -860.000; -757.000
210.114; -102.750; -907.000; -719.000
210.259; -110.600; -939.000; -889.000
210.404;   -5.100; -171.000;  103.000
210.549;    5.750;  108.000;    3.000
210.695;  -25.900;   -3.000;  -95.000
210.840;   20.975;   94.000;   67.000
210.985;  -65.500; -484.000; -303.000
211.130;   66.675;  268.000;  406.000
211.275;    8.750;  207.000;  199.000
211.420;  -60.200; -300.000; -289.000
211.566;  -68.975; -536.000; -489.000
211.711;   10.900;  218.000;  157.000
211.856;  -69.725; -545.000; -519.000
212.001;    1.975;  151.000;   44.000
212.146;   23.975;  153.000;   49.000
212.291;  -18.600; -210.000; -186.000
212.436;  -19.150; -280.000;   -6.000
212.581;  -89.325; -685.000; -653.000
212.726;  -82.750; -487.000; -538.000
212.871;  -58.200; -552.000; -217.000
213.016; -155.800;-1172.000;-1029.000
213.161;   67.625;  406.000;  291.000
213.306;  -65.650; -435.000; -577.000
213.451; -104.650; -778.000; -689.000
213.596;  -50.775; -455.000; -347.000
213.741;  -59.625; -448.000; -538.000
213.886;  -72.400; -498.000; -517.000
214.031;  -22.350; -294.000; -124.000
214.176;  -60.800; -408.000; -341.000
214.321;  -16.800; -296.000; -157.000
214.466;  -35.025; -163.000;  -43.000
214.611;   -8.275;  -61.000;  -10.000
214.756; -129.150; -948.000; -858.000
214.901;  -20.425; -388.000; -226.000
215.046; -113.975; -797.000; -825.000
215.191;    7.475;  128.000;   35.000
215.336;  -20.175; -157.000;  -19.000
215.480;  -69.300; -684.000; -505.000
215.625;   -7.825; -175.000;  -19.000
215.770;  -81.325; -757.000; -662.000
215.915;  -14.950;   -5.000;  -97.000
216.060;  -16.725; -113.000;  -21.000
216.205; -114.125; -731.000; -779.000
216.349;  -74.650; -470.000; -533.000
216.494; -126.250; -939.000; -867.000
216.639; -116.575; -823.000; -888.000
216.784;  -75.300; -577.000; -525.000
216.929;   46.950;  392.000;  281.000
217.073;  -22.200; -244.000;  -31.000
217.218;    0.350;   78.000;  -47.000
217.363;  -79.575; -656.000; -618.000
217.507;  -76.325; -623.000; -588.000
217.652; -121.075; -845.000; -874.000
217.797;  -87.350; -708.000; -659.000
217.942; -107.250; -856.000; -720.000
218.086;   73.175;  608.000;  539.000
218.231;  -21.800; -174.000;  -26.000
218.376;  -41.700; -337.000; -229.000
218.520;   -3.700;  -41.000;   96.000
218.665;  -27.850; -338.000; -204.000
218.810;  -40.700; -275.000; -233.000
218.954;    6.425;  201.000;   35.000
219.099; -118.000; -713.000; -963.000
219.243;  -73.425; -589.000; -554.000
219.388;  -27.400; -264.000; -136.000
219.532;   -2.425; -116.000; -116.000
219.677;  -73.625; -564.000; -521.000
219.822;   10.275;   33.000;   89.000
219.966;    9.050;   17.000;  -99.000
220.111;  -45.775; -328.000;  -40.000
220.255;  -91.125; -797.000; -750.000
220.400;  -23.575; -180.000; -146.000
220.544;  -78.175; -516.000; -450.000
220.689;  -58.100; -422.000; -451.000
220.833;  -22.525; -123.000;  -58.000
220.978;  -39.900; -393.000; -563.000
221.122;   41.725;  319.000;  307.000
221.267; -122.525; -906.000; -837.000
221.411;  -70.800; -478.000; -394.000
221.555;  -16.675; -104.000;  -23.000
221.700;  -49.425; -329.000; -222.000
221.844;   34.875;  255.000;  272.000
221.989;  -41.600; -328.000; -311.000
222.133;  -37.300; -289.000; -307.000
222.277;   -0.250;    5.000;   78.000
222.422;   18.900;  227.000;  113.000
222.566;  -43.525; -381.000; -214.000
222.711;  -58.400; -414.000; -479.000
222.855;  -81.150; -643.000; -586.000
222.999;  -79.150; -642.000; -717.000
223.144;  -24.125; -195.000; -194.000
223.288;   57.425;  423.000;  251.000
223.432;   19.400;  184.000;  230.000
223.576;   11.050;  152.000;  -21.000
223.721;   24.000;  364.000;  273.000
223.865;  -53.150; -472.000; -475.000
224.009;  223.050; 1673.000; 1631.000
224.153;  -91.350; -660.000; -671.000
224.298;  -71.725; -531.000; -489.000
224.442;  -15.425;  -74.000;  -33.000
224.586;  -23.400; -169.000; -106.000
224.730;  -93.625; -858.000; -670.000
224.875; -102.250; -739.000; -688.000
225.019;   11.050;  102.000;  188.000
225.163;   53.925;  208.000;  341.000
225.307;    8.800;   97.000;  -91.000
225.451;   49.575;  360.000;  481.000
225.595;   24.875;  264.000;  176.000
225.739;  -16.625; -170.000;  -94.000
225.884;    1.025;   86.000;    5.000
226.028;  -95.550; -760.000; -626.000
226.172;  -28.200; -260.000; -273.000
226.316; -118.875; -941.000; -902.000
226.460;  -60.100; -645.000; -493.000
226.604;  -49.800; -406.000; -400.000
226.748;  -99.450; -836.000; -733.000
226.892;  -20.025; -227.000; -181.000
227.036;  -44.525; -537.000; -447.000
227.180;  -60.250; -551.000; -375.000
227.324;  -55.925; -561.000; -580.000
227.468; -112.225; -819.000; -717.000
227.612;    5.050;  242.000;  -28.000
227.756; -103.200; -845.000; -698.000
227.900;   40.075;  342.000;  441.000
228.044;  -59.975; -509.000; -290.000
228.188;   50.325;  448.000;  568.000
228.332;  -83.650; -546.000; -472.000
228.476;  -26.875; -223.000; -149.000
228.620;  -33.725; -210.000; -150.000
228.764;   62.025;  431.000;  349.000
228.908;  -26.975; -155.000;   30.000
229.052;  -64.125; -615.000; -528.000
229.195;  -11.025; -172.000;   13.000
229.339;  -39.950; -235.000; -305.000
229.483;  -38.800;    5.000; -162.000
229.627;   -6.775; -156.000;  139.000
229.771;  -44.700; -218.000; -294.000
229.915;    1.650;  230.000;   79.000
230.059;  -87.475; -648.000; -663.000
230.202;  -50.400; -370.000; -317.000
230.346;  -22.700; -107.000;  107.000
230.490;  -66.675; -489.000; -521.000
230.634;  -89.350; -736.000; -553.000
230.777;   59.575;  478.000;  509.000
230.921;  -55.875; -450.000; -359.000
231.065;  -40.775; -246.000; -286.000
231.209;   24.825;  261.000;  265.000
231.352;   19.900;   54.000;   40.000
231.496;   18.775;  568.000;  188.000
231.640;  -80.175; -693.000; -621.000
231.783;   50.700;  546.000;  525.000
231.927;  -53.650; -294.000; -365.000
232.071; -125.000; -962.000; -736.000
232.214; -114.675; -980.000; -764.000
232.358;  -96.000; -683.000; -599.000
232.502;   14.200;  -19.000;    7.000
232.645; -138.175;-1090.000; -927.000
232.789;  -23.675; -257.000; -218.000
232.933;  -46.050; -407.000; -224.000
233.076; -125.875;-1038.000; -897.000
233.220; -106.750; -752.000; -777.000
233.363;  -73.925; -669.000; -477.000
233.507;   42.450;  371.000;  129.000
233.650; -101.525; -764.000; -834.000
233.794;   47.600;  438.000;  461.000
233.938;  -71.650; -530.000; -362.000
234.081;  -14.900;  -93.000;   31.000
234.225;  -72.250; -631.000; -539.000
234.368; -103.650; -773.000; -723.000
234.512;  -42.050; -385.000; -299.000
234.655;  -87.950; -582.000; -555.000
234.798;  -61.775; -493.000; -466.000
234.942; -114.700; -884.000;-1002.000
235.085;  -61.200; -651.000; -443.000
235.229;  -69.625; -405.000; -410.000
235.372;  -60.000; -247.000; -191.000
235.516;  -62.000; -397.000; -321.000
235.659;   23.275;   92.000;  121.000
235.802;  -27.050;  -38.000;  -22.000
235.946;   13.500;  335.000;  215.000
236.089;   25.600;  126.000;  250.000
236.233;   61.375;  275.000;  298.000
236.376;  -44.975; -235.000; -378.000
236.519;  -57.700; -297.000; -319.000
236.663;  -17.875; -215.000; -117.000
236.806; -124.600;-1029.000; -999.000
236.949;   48.175;  543.000;  431.000
237.092;   59.425;  412.000;  391.000
237.236;  -79.125; -589.000; -502.000
237.379;   63.525;  352.000;  428.000
237.522; -112.450; -879.000; -768.000
237.666;  -20.075; -271.000;   18.000
237.809; -128.700; -851.000; -823.000
237.952;   28.700;  469.000;  271.000
238.095;  -65.800; -447.000; -442.000
238.238;   78.825;  688.000;  700.000
238.382;   -1.800;  166.000;  103.000
238.525;  -61.975; -598.000; -511.000
238.668; -139.850;-1060.000; -985.000
238.811;  -78.175; -638.000; -643.000
238.954;  -57.000; -483.000; -334.000
239.097;  109.675;  617.000;  664.000
239.241;   21.625;  394.000;  326.000
239.384;  -30.350; -254.000; -214.000
239.527;  -59.325; -424.000; -224.000
239.670; -145.225; -994.000;-1091.000
239.813; -103.550; -696.000; -658.000
239.956;   65.250;  579.000;  473.000
240.099; -101.975; -778.000; -725.000
240.242;   48.075;  428.000;  432.000
240.385;   55.925;  466.000;  450.000
240.528;  -76.125; -706.000; -473.000
240.671;   18.525;  189.000;  134.000
240.814;  -44.025; -441.000; -158.000
240.957;  -91.575; -767.000; -578.000
241.100;  -92.725; -779.000; -755.000
241.243; -143.125;-1234.000; -893.000
241.386;  -60.850; -508.000; -379.000
241.529;  -88.600; -735.000; -547.000
241.672;  -61.000; -566.000; -495.000
241.815; -119.775; -832.000; -808.000
241.958;  -31.100; -125.000; -182.000
242.101;  -83.475; -545.000; -390.000
242.244;  -44.850; -270.000; -325.000
242.387;  -46.850; -304.000; -246.000
242.530;   46.375;  470.000;  134.000
242.673;  -42.950; -381.000; -309.000
242.815; -113.675; -925.000; -899.000
242.958;  -73.050; -482.000; -381.000
243.101;   -1.600;  132.000;  187.000
243.244;  -75.450; -564.000; -521.000
243.387;  -48.000; -313.000; -316.000
243.530;  -93.575; -657.000; -674.000
243.672;  -13.575;   43.000;  -92.000
243.815;  -58.500; -355.000; -283.000
243.958;   -1.125;   98.000;  -26.000
244.101;   -2.800;   59.000;  -16.000
244.243;   -8.025;  -47.000;  101.000
244.386; -107.850; -761.000; -630.000
244.529;  -19.100; -132.000; -139.000
244.672; -157.725;-1154.000; -951.000
244.814;  -92.050; -621.000; -794.000
244.957;  -36.325; -380.000; -304.000
245.100;  -69.825; -489.000; -489.000
245.242;  -56.875; -387.000; -374.000
245.385;  -21.250;  -59.000;  -39.000
245.528; -117.350; -871.000; -705.000
245.670;   88.775;  612.000;  634.000
245.813;  -94.650; -599.000; -547.000
245.956;  -21.850; -324.000; -275.000
246.098;  -72.975; -508.000; -650.000
246.241;    9.125;  194.000;   48.000
246.383;  -14.225; -119.000;  -73.000
246.526;  -75.475; -454.000; -525.000
246.669; -110.025; -889.000; -780.000
246.811;    3.050;  172.000;   -1.000
246.954;  -60.100; -512.000; -426.000
247.096;  -19.925;  -84.000;   -6.000
247.239;  -81.725; -482.000; -445.000
247.381;  -82.500; -647.000; -488.000
247.524;   88.525;  645.000;  679.000
247.666;  -27.525;   58.000;   11.000
247.809; -111.750; -887.000; -691.000
247.951;  -11.275;  -75.000;  138.000
248.094;   26.675;  432.000;  308.000
248.236; -160.575;-1262.000;-1238.000
248.378;    8.675; -356.000;  -81.000
248.521;  -23.750; -334.000; -337.000
248.663;  -37.675; -236.000; -267.000
248.806;   -7.025; -300.000; -266.000
248.948;  -90.850; -886.000; -763.000
249.090;  -44.325; -428.000; -398.000
249.233;  -47.050; -344.000; -381.000
249.375;  -65.700; -474.000; -451.000
249.518;  -29.425;  -83.000; -133.000
249.660;    1.275; -103.000;    3.000
249.802; -158.250;-1303.000;-1189.000
249.945;  -87.900; -612.000; -540.000
250.087; -113.125; -834.000; -768.000
250.229;  -45.575; -362.000; -480.000
250.371;  -75.725; -494.000; -439.000
250.514;  -46.775; -310.000; -244.000
250.656;    4.500;   69.000;  102.000
250.798; -106.075; -849.000; -800.000
250.940;  -71.050; -322.000; -322.000
251.083;  -31.175; -335.000; -111.000
251.225;   54.000;  338.000;  310.000
251.367;  -31.400; -274.000; -373.000
251.509;  -39.200; -265.000; -210.000
251.651;  -91.650; -731.000; -671.000
251.794;   58.700;  538.000;  632.000
251.936;  -99.025; -821.000; -747.000
252.078;  -82.700; -540.000; -461.000
252.220;  -67.075; -645.000; -477.000
252.362;   77.075;  344.000;  462.000
252.504;  -76.725; -677.000; -584.000
252.646; -105.900; -875.000; -722.000
252.788;    2.500;   14.000; -128.000
252.931;  -54.900; -257.000; -253.000
253.073;  -45.000; -376.000; -317.000
253.215;  -11.350;  141.000;  122.000
253.357;  -12.850;   82.000; -153.000
253.499;  -70.425; -374.000; -234.000
253.641;  -84.925; -749.000; -594.000
253.783; -106.875; -609.000; -527.000
253.925;  -87.375; -586.000; -591.000
254.067; -102.425; -744.000; -667.000
254.209;  -33.600; -391.000; -259.000
254.351; -131.625; -865.000; -883.000
254.493;  -63.625; -441.000; -417.000
254.635; -140.975; -936.000; -818.000
254.777;  -91.725; -752.000; -687.000
254.918;  -70.000; -512.000; -430.000
255.060;  -51.150; -551.000; -395.000
255.202;  -60.500; -473.000; -261.000
255.344;  -75.550; -658.000; -455.000
255.486;  -64.450; -471.000; -406.000
255.628; -106.850; -780.000; -781.000
255.770;  -84.675; -676.000; -536.000
255.912;  -64.600; -559.000; -468.000
256.053;  -95.425; -730.000; -508.000
256.195;  138.625; 1008.000;  903.000
256.337; -101.950; -861.000; -595.000
256.479;   60.975;  532.000;  416.000
256.621;  -42.025; -394.000; -212.000
256.762;  -80.450; -789.000; -742.000
256.904;   51.625;  485.000;  487.000
257.046;  -29.175; -381.000; -271.000
257.188;  -46.850; -351.000; -264.000
257.329;  -82.650; -525.000; -464.000
257.471; -111.350; -939.000; -807.000
257.613;  -72.475; -584.000; -498.000
257.755; -143.625;-1073.000; -982.000
257.896;   29.925;  286.000;  392.000
258.038;  -83.625; -403.000; -352.000
258.180;  -44.450; -354.000; -279.000
258.321;  -78.125; -581.000; -457.000
258.463;   -2.275;  -71.000;  133.000
258.605;  -84.750; -562.000; -570.000
258.746; -108.025; -886.000; -772.000
258.888; -125.275;-1026.000;-1020.000
259.029;   21.275;  121.000;   -8.000
259.171;  -88.025; -614.000; -550.000
259.313;   -5.275;  -49.000;  -47.000
259.454;  -80.250; -536.000; -414.000
259.596;  -61.575; -483.000; -390.000
259.737;  -70.600; -590.000; -474.000
259.879;   31.975;  217.000;  311.000
260.020;   79.000;  901.000;  636.000
260.162;  -32.125; -146.000; -253.000
260.303; -118.750; -768.000; -687.000
260.445;  -79.850; -609.000; -613.000
260.586;    5.725;  392.000;  157.000
260.728;  -41.200; -360.000; -248.000
260.869; -102.175; -350.000; -343.000
261.011;   69.850;  706.000;  537.000
261.152;  -63.750; -479.000; -319.000
261.293;  -74.100; -576.000; -595.000
261.435;  -29.850; -219.000; -184.000
261.576;  -37.025; -455.000; -325.000
261.718;   57.650;  420.000;  470.000
261.859; -125.175; -940.000; -949.000
262.000; -123.900; -951.000;-1016.000
262.142;  -27.800;  -52.000;  -60.000
262.283; -105.350; -808.000; -691.000
262.424; -100.975; -666.000; -625.000
262.566; -147.475;-1161.000; -983.000
262.707; -117.275; -840.000; -830.000
262.848; -127.175; -769.000; -726.000
262.990;  -53.050; -362.000; -345.000
263.131;   68.075;  650.000;  681.000
263.272;   -1.900;  -61.000;  -41.000
263.413;  -95.325; -589.000; -561.000
263.555;  -79.975; -669.000; -143.000
263.696;  -83.900; -550.000; -641.000
263.837;  -67.475; -449.000; -551.000
263.978;    7.075;   -5.000;  -77.000
264.119;  -47.750; -283.000; -264.000
264.261; -112.350; -847.000; -630.000
264.402;   -5.450;   33.000;   40.000
264.543;  -55.700; -509.000; -524.000
264.684;   -3.400;   61.000;  -50.000
264.825;  -70.250; -816.000; -538.000
264.966;    3.200;  -84.000;  -67.000
265.107; -115.975; -646.000; -670.000
265.248; -113.375; -825.000; -812.000
265.390;  -19.875;  152.000;   -9.000
265.531;  -19.400; -238.000; -107.000
265.672;  -74.225; -557.000; -630.000
265.813;   52.650;  563.000;  439.000
265.954; -143.500; -959.000; -940.000
266.095;  -22.450; -372.000; -322.000
266.236;  -99.700; -686.000; -548.000
266.377;  -47.550; -243.000; -297.000
266.518;  -74.825; -619.000; -547.000
266.659;   29.375;  170.000;  268.000
266.800;   -7.000;   83.000;   85.000
266.941;  -62.125; -487.000; -478.000
267.082;    7.850;  354.000;   99.000
267.223;  -57.975; -344.000; -273.000
267.364; -114.175; -892.000; -686.000
267.504;  -13.400;    3.000;  135.000
267.645;   -6.350;  160.000;   67.000
267.786;  -29.025; -147.000;  -86.000
267.927;  -74.350; -473.000; -379.000
268.068;  -14.675; -186.000;  -61.000
268.209;  -49.275; -175.000; -413.000
268.350;  -62.750; -388.000; -532.000
268.490;  -73.925; -648.000; -521.000
268.631;   24.200;  127.000;  225.000
268.772; -118.400; -874.000; -647.000
268.913;  -54.950; -328.000; -476.000
269.054;  -24.650; -117.000;   12.000
269.194;  -63.250; -418.000; -402.000
269.335; -156.750;-1137.000;-1074.000
269.476;  -16.625;   33.000;  -35.000
269.617;  -51.975; -347.000; -392.000
269.757;  -97.400; -713.000; -646.000
269.898; -105.400; -856.000; -613.000
270.039;  -62.175; -415.000; -405.000
270.180; -135.575; -952.000; -816.000
270.320;  -29.450; -190.000; -250.000
270.461;  -40.900; -277.000; -249.000
270.602;  -38.875; -186.000; -156.000
270.742; -128.975; -868.000; -943.000
270.883;  -56.375; -442.000; -390.000
271.023;  -61.050; -358.000; -357.000
271.164;  -72.350; -607.000; -528.000
271.305; -115.300; -666.000; -654.000
271.445;  -91.475; -722.000; -683.000
271.586;  -81.600; -462.000; -283.000
271.726;  -49.400; -397.000; -322.000
271.867;  -49.700; -594.000; -534.000
272.008;  185.950; -473.000; -285.000
272.148;  128.000;  462.000;  468.000
272.289;    3.325; -113.000; -181.000
272.429;   14.500;   19.000;  185.000
272.570;  -95.200; -633.000; -737.000
272.710; -109.125; -825.000; -775.000
272.851;  -14.275;  113.000; -130.000
272.991; -163.075;-1173.000;-1077.000
273.131;  -83.475; -419.000; -459.000
273.272;  -94.025; -683.000; -723.000
273.412;   17.175; -143.000;  -31.000
273.553;  -65.225; -488.000; -507.000
273.693;  125.425;  913.000;  858.000
273.834;  -98.975; -894.000; -692.000
273.974;  -69.450; -664.000; -615.000
274.114;  -85.275; -772.000; -560.000
274.255;   65.950;  414.000;  373.000
274.395;   12.175; -180.000; -125.000
274.535;   32.400;  199.000;  350.000
274.676;    8.050;  225.000;   94.000
274.816;   12.875;  110.000;   34.000
274.956;  -78.775; -624.000; -690.000
275.097;  -59.225;-1014.000; -922.000
275.237; -113.400; -913.000; -803.000
275.377; -111.150; -778.000; -689.000
275.517; -132.600; -878.000; -937.000
275.658;  -63.175; -590.000; -555.000
275.798;  -64.650; -606.000; -413.000
275.938;   14.350;  215.000;  323.000
276.078;  -80.575; -626.000; -395.000
276.218;    2.125;   99.000;  104.000
276.359; -115.650;-1026.000;-1024.000
276.499;  -68.125; -605.000; -446.000
276.639;  -28.550; -305.000; -151.000
276.779;  -53.675; -475.000; -357.000
276.919; -108.750; -783.000; -624.000
277.059;  -23.100; -261.000; -212.000
277.199;  -47.700; -357.000; -259.000
277.340;   40.300;  287.000;  175.000
277.480; -121.225; -840.000; -693.000
277.620;   20.600;  192.000;   16.000
277.760; -187.900;-1533.000;-1294.000
277.900;   16.125;  113.000;   33.000
278.040;   17.675;  137.000;  159.000
278.180;   41.700;  270.000;  170.000
278.320;   -7.175;   21.000;   56.000
278.460;  -63.400; -443.000; -469.000
278.600;  -91.675; -708.000; -598.000
278.740;   49.950;  448.000;  224.000
278.880;  -37.550; -768.000; -791.000
279.020;  -16.225; -194.000; -144.000
279.160;  -76.400; -672.000; -595.000
279.300; -127.850; -926.000; -873.000
279.440;  -68.850; -709.000; -622.000
279.579;  -11.725;-1014.000; -929.000
279.719;  -47.675; -410.000; -394.000
279.859;   84.100;   -4.000;   41.000
279.999;   42.675; -208.000;  101.000
280.139;  -12.675; -435.000; -387.000
280.279;  -77.475; -708.000; -745.000
280.419;  -12.225; -229.000; -147.000
280.559;  -32.475; -259.000; -180.000
280.698;  -89.625; -790.000; -639.000
280.838;  -98.850; -778.000; -800.000
280.978; -104.575; -846.000; -790.000
281.118; -103.625; -811.000; -704.000
281.257;   13.575;   24.000;    6.000
281.397; -101.500;-1094.000; -960.000
281.537;  -91.550; -599.000; -712.000
281.677;  -31.825; -150.000; -101.000
281.816;  -88.650; -700.000; -630.000
281.956;  -27.600; -193.000; -257.000
282.096;  -62.975; -539.000; -396.000
282.235; -109.900; -672.000; -638.000
282.375;  -27.225; -243.000;  -98.000
282.515;  -98.575; -715.000; -707.000
282.654;   28.800;   29.000;  106.000
282.794;   31.275;  388.000;  244.000
282.934;  -53.925; -530.000; -491.000
283.073; -132.600;-1030.000; -857.000
283.213;  -48.425; -460.000; -467.000
283.353;  -24.275; -408.000; -349.000
283.492;  -30.825; -264.000; -296.000
283.632;  -39.650; -254.000; -168.000
283.771;  -97.875; -859.000; -730.000
283.911;  -59.275; -369.000; -260.000
284.050; -114.225; -794.000; -748.000
284.190; -158.150;-1229.000;-1096.000
284.329; -137.300;-1055.000; -964.000
284.469;  -53.125; -516.000; -591.000
284.608;  -50.800; -559.000; -598.000
284.748;  -81.150; -614.000; -570.000
284.887;  -31.025;  -87.000;  -20.000
285.027; -129.500; -844.000; -892.000
285.166;  -36.175; -192.000; -249.000
285.306;    4.950; -116.000;  -33.000
285.445;  -59.550; -229.000; -343.000
285.584;  -95.700; -630.000; -494.000
285.724;  -52.825; -282.000; -322.000
285.863;  -99.100; -857.000; -507.000
286.002;  -45.825; -366.000; -276.000
286.142; -104.900; -715.000; -622.000
286.281;  -75.275; -525.000; -493.000
286.420;  -72.150; -554.000; -417.000
286.560;   85.450;  653.000;  623.000
286.699; -131.975; -958.000; -912.000
286.838;  -92.275; -590.000; -591.000
286.978;  -98.000; -533.000; -537.000
287.117; -125.400;-1085.000; -950.000
287.256;  -31.025; -228.000; -211.000
287.395;  -55.150; -197.000; -378.000
287.535;  -47.450; -370.000; -298.000
287.674;  -90.025; -509.000; -484.000
287.813;   34.550;  661.000;  533.000
287.952; -134.175;-1010.000; -871.000
288.091; -136.750;-1049.000; -915.000
288.231;    1.800;   13.000;   15.000
288.370; -162.975;-1217.000;-1200.000
288.509;  -86.075; -728.000; -645.000
288.648;  -95.125; -770.000; -548.000
288.787;  -34.000; -243.000;  -87.000
288.926;  -78.950; -454.000; -475.000
289.065;  108.800;  859.000;  672.000
289.204;  -53.175; -377.000; -217.000
289.344;  -92.300; -791.000; -690.000
289.483;   30.875;  416.000;  304.000
289.622;  -29.025; -291.000; -149.000
289.761;  -27.100; -309.000; -166.000
289.900; -107.050; -785.000; -626.000
290.039;  -17.050;  -12.000;  -95.000
290.178;  -48.050; -274.000; -180.000
290.317;  -83.250; -618.000; -479.000
290.456;  -54.875; -463.000; -451.000
290.595; -121.700; -961.000; -833.000
290.734; -135.325; -904.000; -891.000
290.873;  -69.400; -456.000; -420.000
291.011; -102.050; -833.000; -843.000
291.150;  -83.675; -770.000; -682.000
291.289;  -38.175; -343.000; -110.000
291.428;  -98.750; -599.000; -480.000
291.567;  -59.300; -370.000; -442.000
291.706;  -12.075;  109.000;  154.000
291.845;  -79.400; -597.000; -505.000
291.984; -161.225;-1234.000;-1061.000
292.122;   72.550;  602.000;  582.000
292.261;   39.725;  620.000;  463.000
292.400;   -2.175; -144.000;  211.000
292.539; -104.675; -959.000; -813.000
292.678;  -36.625; -325.000; -300.000
292.816; -149.450;-1136.000; -965.000
292.955;  -81.300; -844.000; -684.000
293.094;  -19.475; -173.000; -337.000
293.233;  -62.475; -556.000; -400.000
293.371;  -32.700; -225.000;  -84.000
293.510; -104.600; -866.000; -780.000
293.649; -120.300; -959.000; -924.000
293.787;  -45.700;-1083.000;-1012.000
293.926;   -8.475; -113.000;  -32.000
294.065;  -38.275; -379.000; -290.000
294.203;   53.000;  298.000;  406.000
294.342;   26.100;   74.000;  156.000
294.481; 5298.700;51180.000; -836.000
294.619;  -23.800; -425.000; -582.000
294.758; -128.000;-1230.000;-1137.000
294.896;   88.725; -125.000;    5.000
295.035; -119.675;-1040.000;-1006.000
295.174; -120.150;-1082.000; -954.000
295.312;  -49.275; -323.000; -203.000
295.451;    2.475; -307.000; -428.000
295.589;  -53.525; -389.000; -518.000
295.728;   37.875; -292.000; -165.000
295.866;    9.475;  -36.000;  -51.000
296.005;  -57.300; -584.000; -341.000
296.143;  -74.600; -558.000; -596.000
296.282; -100.750; -957.000; -881.000
296.420;  -85.500; -657.000; -557.000
296.559;  -75.350; -892.000; -633.000
296.697;   34.175; -847.000; -665.000
296.835;   91.225;-1141.000;-1002.000
296.974;   57.575;  -23.000;   39.000
297.112;    7.450; -443.000; -504.000
297.251;  -65.550; -815.000; -755.000
297.389;  107.300; -576.000; -438.000
297.527;   46.275; -145.000;  -83.000
297.666;  -51.525; -486.000; -438.000
297.804;  -54.200; -404.000; -264.000
297.942;  -13.550; -136.000; -161.000
298.081;    0.275; -183.000;   63.000
298.219;   74.775;  -17.000;  -19.000
298.357;   60.000; -144.000;  -71.000
298.495;   48.425; -810.000; -812.000
298.634;   79.775;  245.000;  219.000
298.772;   83.625; -220.000; -338.000
298.910;  -25.850; -309.000; -182.000
299.048;  -12.150; -130.000; -153.000
299.187;  -24.875; -350.000; -250.000
299.325;   21.250;   52.000;  122.000
299.463;   83.800; -389.000; -299.000
299.601;  112.475; -327.000; -271.000
299.739; -103.325; -908.000; -883.000
299.877;  -72.450; -791.000; -703.000
300.016;  -43.975;-1095.000; -935.000
300.154;  183.250;  -19.000; -161.000
300.292;   55.225; -428.000; -348.000
300.430;   48.000; -408.000; -291.000
300.568; -105.475; -940.000; -874.000
300.706;  -44.450; -366.000; -469.000
300.844;  -69.350;-1108.000; -979.000
300.982;  114.750;  246.000;  282.000
301.120;  -95.050; -965.000; -866.000
301.258;  -50.550; -812.000; -705.000
301.396;   33.300;  104.000;  -41.000
301.534;  105.375; -218.000; -293.000
301.672;    2.150; -664.000; -521.000
301.810;   50.450; -613.000; -545.000
301.948;  130.625;   53.000;  149.000
302.086;  681.750; -250.000;  -32.000
302.224; 1041.700; -610.000; -585.000
302.362;   42.225; -558.000; -622.000
302.500;   -7.700; -923.000; -893.000
302.638;  109.725;  128.000;  245.000
302.776;  -12.225; -352.000; -408.000
302.913;   35.525;  447.000;  236.000
303.051;   -3.150;  -86.000;  -23.000
303.189;   44.150;   90.000;  118.000
303.327;  -37.675; -341.000; -256.000
303.465;  -73.600; -832.000; -588.000
303.603;  -96.275; -805.000; -604.000
303.740;  107.350;  417.000;  241.000
303.878;   25.850; -800.000; -759.000
304.016;  -90.100; -915.000; -790.000
304.154; -122.100;-1123.000;-1152.000
304.291;  -30.025; -505.000; -554.000
304.429;    1.450;  102.000;   74.000
304.567; -119.600; -908.000; -893.000
304.705;  -60.350; -408.000; -515.000
304.842;  117.925; -616.000; -540.000
304.980;   49.550;  215.000;   35.000
305.118;   54.625; -367.000; -365.000
305.255;  -59.700; -945.000; -927.000
305.393;   51.525;  178.000;  239.000
305.531;  -91.600;-1173.000; -956.000
305.668;  -64.850; -663.000; -582.000
305.806;  123.700; -358.000; -439.000
305.943;  120.000; -629.000; -637.000
306.081;   47.725; -378.000; -267.000
306.219; -106.550; -863.000; -748.000
306.356;   11.600;  158.000;   27.000
306.494;  112.225;  981.000;  761.000
306.631;  -17.775;  -11.000;  -55.000
306.769;   17.050; -613.000; -485.000
306.906;  -17.100; -284.000; -258.000
307.044;  -62.300; -473.000; -488.000
307.181;  -63.000; -410.000; -332.000
307.319;    9.850;  112.000;   87.000
307.456; -165.100;-1191.000;-1153.000
307.594; -103.875; -980.000; -727.000
307.731;  -10.875; -371.000; -164.000
307.868;   -7.900;  -15.000;   20.000
308.006; -128.900; -961.000; -847.000
308.143;  -63.500; -618.000; -330.000
308.281;  182.275;  -37.000; -254.000
308.418;    1.250; -748.000; -640.000
308.555;  -64.625; -400.000; -250.000
308.693;  -76.775; -577.000; -573.000
308.830; -106.425; -712.000; -657.000
308.967;  -15.675; -215.000;  -95.000
309.105;  -56.825; -507.000; -396.000
309.242;   49.275; -468.000; -367.000
309.379;  341.600; -577.000; -655.000
309.517;  -57.875; -936.000; -948.000
309.654;  -91.125; -910.000; -734.000
309.791;  -72.275; -662.000; -580.000
309.928; -110.975; -977.000; -914.000
310.065;  173.300;  819.000;  697.000
310.203;    3.850; -825.000; -850.000
310.340;   -2.925; -465.000; -321.000
310.477;  -79.250; -412.000; -516.000
310.614;  -53.300; -383.000; -473.000
310.751;  -78.275; -427.000; -518.000
310.889;  -15.475;    1.000;   11.000
311.026; -157.525;-1161.000; -939.000
311.163;  -36.450; -386.000; -380.000
311.300;  -72.725; -512.000; -479.000
311.437;  -64.975; -658.000; -619.000
311.574; -150.275;-1226.000; -985.000
311.711;  -64.125; -595.000; -433.000
311.848;  -40.775; -380.000; -388.000
311.985;   21.475;  270.000;   93.000
312.122; -112.000; -932.000; -762.000
312.259; -115.175; -941.000; -994.000
312.396;  -84.675; -508.000; -551.000
312.533;  -99.425; -812.000; -790.000
312.670; -124.400;-1070.000; -898.000
312.807;  -35.700; -352.000; -367.000
312.944;  -83.350; -513.000; -611.000
313.081;  -46.950; -150.000; -415.000
313.218; -103.825;-1111.000; -867.000
313.355;   10.325; -531.000; -449.000
313.492;    6.400; -455.000; -292.000
313.629;  140.275;  815.000;  735.000
313.766; -161.050;-1176.000;-1008.000
313.902;  -11.050; -186.000;   21.000
314.039;  -49.925; -372.000; -289.000
314.176;   32.700;  286.000;  192.000
314.313;  -84.200; -569.000; -473.000
314.450;  -75.575; -788.000; -684.000
314.587;  -49.625; -468.000; -480.000
314.723;    0.375;  -78.000;  130.000
314.860;   49.850;  318.000;  332.000
314.997;   27.925;  223.000;  142.000
315.134;  -47.325; -385.000; -368.000
315.270;  -38.475; -480.000; -496.000
315.407; -118.000;-1094.000; -967.000
315.544;  -44.750; -657.000; -538.000
315.681;  -61.925; -681.000; -565.000
315.817;   39.500; -133.000; -176.000
315.954;   25.875; -613.000; -392.000
316.091; -114.275;-1045.000;-1023.000
316.227;  -40.425;  -71.000; -179.000
316.364;   15.850;   23.000;    6.000
316.500;  -47.600; -113.000; -300.000
316.637;  -30.275; -181.000; -302.000
316.774;  -88.875; -625.000; -358.000
316.910;  -86.975; -598.000; -629.000
317.047;  -61.650; -487.000; -351.000
317.183;  -58.375; -435.000; -566.000
317.320;  -17.050; -367.000; -321.000
317.456;  -69.125; -733.000; -805.000
317.593;  -91.825; -598.000; -641.000
317.729;   -2.350;  168.000;  -67.000
317.866; -195.575;-1434.000;-1285.000
318.002;  -83.975; -708.000; -948.000
318.139;  -91.900; -883.000; -867.000
318.275; -105.200;-1003.000; -738.000
318.412;  -55.225; -517.000; -336.000
318.548;  -35.450; -751.000; -720.000
318.685; -102.450; -985.000; -888.000
318.821; -104.825; -762.000; -735.000
318.957;  -16.425;   34.000;  -23.000
319.094;   21.375;  297.000;  154.000
319.230;  -50.325; -756.000; -742.000
319.367;  141.200; -471.000; -520.000
319.503;   56.975; -538.000; -436.000
319.639;  -82.875; -877.000; -793.000
319.775;  -60.775; -750.000; -685.000
319.912;  -42.250; -424.000; -519.000
320.048;  -66.925;-1184.000;-1184.000
320.184;   77.425;   59.000;   70.000
320.321;  -54.775; -497.000; -467.000
320.457;   43.400;  475.000;  662.000
320.593;  -70.500; -375.000; -382.000
320.729;  -98.575; -732.000; -734.000
320.866;  -84.450; -577.000; -635.000
321.002;  -74.025; -759.000; -809.000
321.138;  -12.750; -135.000; -211.000
321.274;   86.550; -148.000; -115.000
321.410;  -13.600; -585.000; -353.000
321.546;  -11.325;-1011.000; -911.000
321.683;   62.150;  400.000;  185.000
321.819;   -2.875;  -48.000; -117.000
321.955; -103.575; -743.000; -722.000
322.091;  -33.700; -585.000; -540.000
322.227;  -20.200; -382.000; -202.000
322.363;  -12.600; -320.000; -215.000
322.499;  -39.000; -343.000; -331.000
322.635;  169.825;  636.000;  443.000
322.771;   37.575; -139.000;   12.000
322.907;   99.050;  129.000;  327.000
323.043;  -14.900; -115.000; -206.000
323.179;  -37.775; -394.000; -363.000
323.315;   39.375; -401.000; -371.000
323.451;  102.000; -328.000; -236.000
323.587;   70.475;  -60.000;  -77.000
323.723;   35.575; -682.000; -601.000
323.859;   -4.000; -258.000;  -76.000
323.995;  -33.700; -467.000; -409.000
324.131; -114.525; -967.000; -892.000
324.267;  -29.625; -254.000; -276.000
324.402; -119.125; -960.000; -983.000
324.538;  -18.950; -279.000; -104.000
324.674;   15.050;  164.000;   77.000
324.810;  146.250;  226.000;  308.000
324.946;   11.400; -810.000; -658.000
325.082;  -58.525; -568.000; -475.000
325.217;  -12.325;  -62.000;   16.000
325.353;  -95.700; -764.000; -659.000
325.489;  -96.750; -540.000; -506.000
325.625;  -70.600; -579.000; -525.000
325.760;   60.325;  517.000;  376.000
325.896;  -35.275; -515.000; -702.000
326.032;  -42.525; -403.000; -352.000
326.168;  -61.475; -462.000; -369.000
326.303;  -54.725; -352.000; -461.000
326.439;  -22.475; -336.000; -276.000
326.575;    8.850; -190.000;  -29.000
326.710;   -4.925; -156.000;  -30.000
326.846;  -15.150;  146.000;  103.000
326.982;  -88.200; -530.000; -548.000
327.117;  -76.700; -481.000; -442.000
327.253;  -93.800; -745.000; -742.000
327.388; -137.975;-1137.000;-1153.000
327.524;  -31.800; -811.000; -578.000
327.659;  -34.725;  -58.000;  -22.000
327.795;  -23.550;   69.000;   45.000
327.931;  -91.650; -723.000; -499.000
328.066;  -24.150; -417.000; -276.000
328.202;  -14.825;   12.000; -129.000
328.337;   87.475;  957.000;  713.000
328.473;   42.575;  -12.000;  -74.000
328.608;  -29.250; -256.000; -267.000
328.743;  -70.025; -799.000; -664.000
328.879;   10.900;  214.000;  114.000
329.014;  -45.075; -102.000; -122.000
329.150;  -87.575; -358.000; -483.000
329.285;  -70.850; -465.000; -466.000
329.421;  -67.275; -548.000; -246.000
329.556;  -21.375;  -36.000;   85.000
329.691;  -88.575; -633.000; -615.000
329.827;  -82.075; -626.000; -480.000
329.962;  -40.425;  131.000; -301.000
330.097;  -89.725; -673.000; -585.000
330.233;  -53.625; -410.000; -223.000
330.368; -120.225; -839.000; -628.000
330.503;  -11.775;    3.000;   98.000
330.638;   -2.425;  -93.000; -125.000
330.774;  -50.850; -609.000; -530.000
330.909;  -33.150; -434.000; -244.000
331.044;  -98.700; -714.000; -708.000
331.179; -170.975;-1217.000;-1109.000
331.315;   -0.300;   77.000;   20.000
331.450;   17.075;  157.000;  285.000
331.585;  -80.000; -805.000; -706.000
331.720;  -81.850; -510.000; -460.000
331.855;   -4.500;  -35.000; -102.000
331.990;  236.125;   62.000;  138.000
332.126;  126.425; -110.000;   71.000
332.261;  -24.400; -379.000; -265.000
332.396;   -1.725; -135.000; -242.000
332.531; -100.200;-1074.000;-1031.000
332.666;   18.450; -519.000; -363.000
332.801;  -98.250; -726.000; -807.000
332.936;  -34.625; -192.000; -122.000
333.071; -156.250; -870.000; -817.000
333.206;   -0.125;  307.000;  379.000
333.341;    7.600;  344.000;  418.000
333.476;  -76.675; -627.000; -623.000
333.611;  -36.500; -251.000; -173.000
333.746;  -50.550; -381.000; -464.000
333.881; -109.675; -973.000; -935.000
334.016; -118.750; -936.000; -917.000
334.151; -129.425; -746.000; -702.000
334.286;   28.675;  152.000;  186.000
334.421;  -20.675; -125.000; -178.000
334.556;  -81.950; -611.000; -567.000
334.690;  -90.900; -631.000; -577.000
334.825;   54.400;  381.000;   83.000
334.960;  -59.075; -285.000; -413.000
335.095;  -12.800;  135.000;  -91.000
335.230;  -99.300; -722.000; -738.000
335.365; -120.175;-1084.000; -990.000
335.499; -122.325;-1108.000;-1037.000
335.634;   21.325;    9.000;  534.000
335.769;  -93.325; -755.000; -720.000
335.904;  -58.200; -603.000; -561.000
336.038;  -32.350; -735.000; -657.000
336.173;  -96.950;-1206.000;-1194.000
336.308;   13.625; -116.000; -189.000
336.443;   19.850; -544.000; -634.000
336.577;  -59.725; -936.000; -787.000
336.712;   68.725;   -4.000;  -12.000
336.847;  -28.150; -724.000; -607.000
336.981;   78.375; -272.000; -208.000
337.116;  289.325;  615.000;  501.000
337.250;  174.425; -434.000; -421.000
337.385;  254.575; -297.000; -208.000
337.520;   59.300; -632.000; -603.000
337.654;  -35.075; -215.000; -126.000
337.789; -116.150; -989.000; -933.000
337.923;  -37.525; -104.000; -205.000
338.058;  -89.575; -673.000; -738.000
338.192;  -34.500; -611.000; -488.000
338.327;  -17.075;  -18.000; -155.000
338.461;  -57.575; -299.000; -469.000
338.596;  -91.650; -780.000; -638.000
338.730; -101.600; -767.000; -803.000
338.865;   82.900;  -46.000; -140.000
338.999;  -49.025; -846.000; -702.000
339.134;  -35.800; -634.000; -536.000
339.268;    8.575; -741.000; -603.000
339.403;  365.575; -740.000; -775.000
339.537;  106.875; -894.000; -820.000
339.671; -103.775; -829.000; -813.000
339.806;  -72.500; -556.000; -512.000
339.940;    9.675; -261.000; -235.000
340.074; -110.500; -685.000; -510.000
340.209;  -48.600; -351.000; -230.000
340.343;  -77.550; -517.000; -573.000
340.477;  134.550;  998.000; 1036.000
340.612;  -57.650;-1033.000; -900.000
340.746;  133.200; -199.000; -243.000
340.880;  -67.825; -924.000; -785.000
341.014;  -13.625;  -45.000; -154.000
341.149; -104.900; -756.000; -718.000
341.283; -109.275; -839.000; -754.000
341.417;  -92.500;-1124.000; -938.000
341.551;  162.625; -768.000; -708.000
341.685;  -24.675; -633.000; -611.000
341.820;  -67.500; -562.000; -493.000
341.954;  -33.675; -218.000; -349.000
342.088; -146.075;-1102.000;-1019.000
342.222;   64.325;  565.000;  618.000
342.356;  -51.775; -395.000; -335.000
342.490;  -66.025; -880.000; -841.000
342.624;  -43.325; -339.000; -242.000
342.758;    1.975; -364.000; -312.000
342.892;  -62.925; -710.000; -585.000
343.026;  -47.525;  -58.000; -116.000
343.160;  -55.525; -426.000; -376.000
343.294;  -88.275; -474.000; -337.000
343.428;   -9.025; -488.000; -448.000
343.562;  -20.200; -172.000;  -23.000
343.696;  -24.525; -385.000; -314.000
343.830;  -11.925; -362.000; -356.000
343.964;   19.050; -231.000; -168.000
344.098; 1002.650;  199.000;   70.000
344.232;  823.875; -266.000; -127.000
344.366;   90.175; -567.000; -453.000
344.500;   63.350; -665.000; -744.000
344.634;   55.500; -324.000; -164.000
344.768;  -19.375; -531.000; -341.000
344.902;   27.700;  278.000;  256.000
345.035;  -77.425; -556.000; -496.000
345.169; -127.875; -933.000; -656.000
345.303;  -13.825; -308.000; -482.000
345.437;  -64.050; -826.000; -717.000
345.571;  -72.075; -675.000; -594.000
345.704;  -59.650; -309.000; -532.000
345.838;  -10.075; -331.000; -284.000
345.972;  -32.700; -543.000; -495.000
346.106;  148.425; -179.000; -190.000
346.239;  431.450; -312.000; -243.000
346.373;   10.625; -343.000; -302.000
346.507; -143.025; -950.000; -962.000
346.640;  157.375;  -30.000;   13.000
346.774;  -35.000; -650.000; -797.000
346.908;  -11.975; -138.000;  -11.000
347.041;  -89.625; -646.000; -593.000
347.175;   -0.175;  259.000;   27.000
347.309;  -59.425; -698.000; -628.000
347.442;  -92.275; -883.000; -732.000
347.576;  295.775;  670.000;  668.000
347.709;  208.675; -123.000;  -52.000
347.843;  -88.200; -933.000; -825.000
347.976;   31.750;  235.000;  294.000
348.110; -178.750;-1268.000;-1186.000
348.243; -108.850; -679.000; -772.000
348.377;   10.025;  -26.000;   60.000
348.510;   54.175;  403.000;  540.000
348.644;  -29.075;  -37.000; -159.000
348.777;  -10.650;  180.000;  191.000
348.911;  -41.075; -142.000; -112.000
349.044;  188.950;  471.000;  448.000
349.178;  177.475;-1069.000;-1006.000
349.311;  119.200;  141.000;  255.000
349.444;   -7.350; -927.000; -813.000
349.578;  -17.150; -347.000; -200.000
349.711;  -90.475; -959.000; -862.000
349.845;    7.025; -661.000; -591.000
349.978; -131.000;-1224.000;-1137.000
350.111;  -80.500; -546.000; -612.000
350.244;  -71.350; -596.000; -700.000
350.378;   14.975; -392.000; -393.000
350.511;  -58.700; -393.000; -426.000
350.644;  -91.625; -808.000; -806.000
350.778;   29.425;  168.000;  104.000
350.911;    4.600;  134.000;  140.000
351.044;  -93.425; -685.000; -615.000
351.177;  -32.425; -321.000; -281.000
351.310;  -19.125;    3.000; -131.000
351.444;  -68.450; -888.000; -788.000
351.577;  130.925;  140.000;   90.000
351.710;   88.550;  593.000;  417.000
351.843;  -34.400; -165.000;  -77.000
351.976;  -10.400;  149.000;  -79.000
352.109;  -77.825; -621.000; -612.000
352.242;  -32.350; -464.000; -419.000
352.376;  -58.800; -580.000; -636.000
352.509;  194.500; -437.000; -356.000
352.642;   32.075; -654.000; -604.000
352.775;   58.300; -141.000;  -98.000
352.908; -117.450; -933.000; -904.000
353.041;  -94.450; -814.000; -824.000
353.174;  -63.475; -551.000; -424.000
353.307;  -73.700; -753.000; -764.000
353.440;   66.450;  541.000;  453.000
353.573; -118.550; -957.000;-1008.000
353.706;  -19.550; -384.000; -558.000
353.839;  -18.925; -264.000; -220.000
353.971;  -91.600; -657.000; -512.000
354.104;  -77.525; -896.000; -835.000
354.237;  -17.375; -627.000; -662.000
354.370;  -78.000; -846.000; -879.000
354.503; -176.150;-1231.000;-1308.000
354.636;  -44.750; -529.000; -348.000
354.769; -120.300; -937.000; -860.000
354.902;  -12.750; -230.000; -139.000
355.034;  -17.775; -164.000; -220.000
355.167;    1.475; -262.000; -162.000
355.300;  -82.400;-1061.000; -880.000
355.433;  935.600;  -71.000;  -14.000
355.565; 1486.375; -402.000; -384.000
355.698;  386.925; -356.000; -296.000
355.831;    0.150; -882.000; -801.000
355.964;   97.000; -285.000; -170.000
356.096;  -96.925; -856.000; -843.000
356.229;    8.375; -523.000; -530.000
356.362;  315.000; -373.000; -266.000
356.494;  588.450; -229.000; -162.000
356.627;  501.350;  269.000;  377.000
356.760;  658.550;  120.000;   53.000
356.892;  935.350; -286.000; -601.000
357.025;  707.400;  403.000;  389.000
357.157;  680.200; -167.000; -179.000
357.290;  624.125; -856.000; -713.000
357.423;  199.075; -667.000; -556.000
357.555;  116.500; -217.000; -228.000
357.688;  148.250; -483.000; -364.000
357.820;  498.575; -870.000; -877.000
357.953; 3956.325; -563.000; -589.000
358.085;  899.000; -632.000; -612.000
358.218; 1285.450;-1131.000; -932.000
358.350;  238.050;  -58.000;  312.000
358.483; -112.250;-1300.000;-1187.000
358.615;   -3.400;-1182.000;-1078.000
358.747;  -40.150;-1187.000;-1058.000
358.880;   43.000; -810.000; -744.000
359.012;   -3.550; -376.000; -202.000
359.145;  -34.200; -480.000; -511.000
359.277;   85.600; -962.000; -913.000
359.409; 3233.650;  536.000;  231.000
359.542;  882.025; -738.000; -688.000
359.674;   67.075;   46.000;   13.000
359.806;  -65.400; -565.000; -438.000
359.939;  -32.475; -617.000; -516.000
360.071;    0.450; -583.000; -579.000
360.203;  -21.500; -411.000; -364.000
360.335;   59.775;  164.000;  -16.000
360.468;  204.325; -249.000; -307.000
360.600; 2586.475; -547.000; -454.000
360.732; 2736.675; -546.000; -423.000
360.864;  397.475;-1216.000;-1044.000
360.996;  326.575; -516.000; -554.000
361.129;   53.925; -389.000; -598.000
361.261;   17.100;  110.000; -113.000
361.393;  -23.750; -252.000; -214.000
361.525;   23.375;   94.000;  244.000
361.657;  -37.650; -821.000; -703.000
361.789;    8.675; -139.000; -155.000
361.921;  248.300; -642.000; -593.000
362.053;  273.825;  524.000;  541.000
362.185;   60.350;  288.000;   72.000
362.318;  -58.175; -709.000; -705.000
362.450;  128.125;  294.000;  444.000
362.582;  134.300; -913.000; -870.000
362.714;  -30.400; -353.000; -332.000
362.846;  -87.575; -606.000; -490.000
362.978; -132.225; -941.000; -811.000
363.109;   51.975; -161.000; -260.000
363.241;  473.100; -739.000; -749.000
363.373;  426.900; -649.000; -564.000
363.505;  652.775; -186.000;  -91.000
363.637;  155.175; -787.000; -601.000
363.769; -115.600;-1067.000;-1080.000
363.901;  -65.875; -596.000; -654.000
364.033; -110.750;-1103.000;-1062.000
364.165;   15.550; -283.000; -283.000
364.296;   75.075; -316.000; -177.000
364.428;   65.375;-1344.000;-1220.000
364.560;  -68.550; -679.000; -661.000
364.692;  -64.300; -738.000; -835.000
364.824;  305.275; -588.000; -456.000
364.955;  435.550; -402.000; -564.000
365.087;  877.775;-1097.000; -852.000
365.219;   21.500; -686.000; -816.000
365.351;  -64.350; -526.000; -572.000
365.482;   59.525;  300.000;  240.000
365.614;  -50.925; -402.000; -314.000
365.746;  -82.325; -729.000; -752.000
365.877; -110.525; -706.000; -672.000
366.009;  234.350;  -35.000;  -62.000
366.141;  -86.475;-1249.000;-1134.000
366.272;  -95.550; -803.000; -719.000
366.404; -116.250;-1005.000; -874.000
366.535;  -13.250; -139.000;  -12.000
366.667; -118.950; -644.000; -649.000
366.799;   24.625;  353.000;  203.000
366.930; -113.375; -862.000; -996.000
367.062;  120.375; -639.000; -613.000
367.193;  141.200; -872.000; -842.000
367.325;  -62.800; -580.000; -684.000
367.456;   75.550; -246.000;   31.000
367.588;  161.800; -371.000; -318.000
367.719;    8.850;  -44.000;  -45.000
367.851;   -8.225; -222.000; -241.000
367.982;  -38.175; -875.000; -732.000
368.113;  101.450; -475.000; -358.000
368.245; -116.600; -960.000; -841.000
368.376;   -9.675; -254.000; -302.000
368.508;  -26.125; -188.000; -263.000
368.639; -123.900;-1166.000;-1034.000
368.770;  -13.250; -670.000; -589.000
368.902;  -46.000; -836.000; -926.000
369.033;  -88.600; -906.000; -855.000
369.164;  -58.750; -720.000; -653.000
369.296;  -91.000; -452.000; -601.000
369.427;   -4.150; -209.000; -144.000
369.558;  -38.300; -593.000; -377.000
369.689;  -84.450; -721.000; -569.000
369.821; -133.475; -951.000; -845.000
369.952;  -30.000;   42.000; -108.000
370.083;  -49.325; -229.000; -108.000
370.214;  -70.250; -735.000; -650.000
370.345;  -10.625;   65.000;   81.000
370.477;  -88.625; -810.000; -790.000
370.608;  261.200; -328.000; -264.000
370.739;  -25.950;-1233.000;-1292.000
370.870;  -26.575;-1102.000; -923.000
371.001;  105.275; -378.000; -467.000
371.132;  -66.725; -754.000; -735.000
371.263;  -24.675;  -42.000; -148.000
371.394; -131.425; -841.000; -748.000
371.525;   36.675;  345.000;  225.000
371.657;  -81.175; -808.000; -670.000
371.788;   77.650;  103.000;  199.000
371.919;  175.200; -384.000; -304.000
372.050; 3862.175;  -91.000; -156.000
372.181; 1184.400; -188.000; -294.000
372.311;  409.675;   42.000; -127.000
372.442;   62.750; -457.000; -451.000
372.573;  -12.225; -444.000; -340.000
372.704; -128.675;-1008.000; -980.000
372.835;   91.075; -228.000; -289.000
372.966;  -52.825; -646.000; -554.000
373.097;  -53.200; -575.000; -711.000
373.228;  -31.625; -717.000; -542.000
373.359;  162.175; -824.000; -536.000
373.490; 1024.450; -881.000; -727.000
373.620; 1292.450;-1001.000; -803.000
373.751; 1962.250; -332.000; -396.000
373.882;  903.150; -663.000; -733.000
374.013;   90.675; -449.000; -262.000
374.143;  -33.475; -581.000; -659.000
374.274;  -98.400; -987.000; -908.000
374.405;  192.125; -388.000; -276.000
374.536;  503.850; -526.000; -387.000
374.666; 1266.650; -759.000; -807.000
374.797;  252.875; -817.000; -868.000
374.928;  974.625; -710.000; -560.000
375.058;  993.700; -535.000; -500.000
375.189;   88.100;  -59.000;  -93.000
375.320;  -99.275; -928.000;-1034.000
375.450;  -43.900; -625.000; -616.000
375.581;  -39.150; -526.000; -436.000
375.712;  -38.550; -574.000; -250.000
375.842;  335.900; -438.000; -415.000
375.973;  256.000; -554.000; -513.000
376.103;  -22.700; -665.000; -648.000
376.234;  -86.775; -531.000; -552.000
376.364;   -7.100; -944.000; -867.000
376.495;  338.150;  925.000;  529.000
376.625;    3.675; -472.000; -485.000
376.756;   82.625; -709.000; -678.000
376.886;  -57.625;-1178.000;-1026.000
377.017;   47.050;-1048.000;-1061.000
377.147;  346.800; -786.000; -782.000
377.278;   49.725;  174.000;  228.000
377.408; -140.475; -801.000; -815.000
377.538; -117.675; -707.000; -693.000
377.669;  -72.750; -537.000; -613.000
377.799;  -84.700; -645.000; -635.000
377.929;  -56.250; -610.000; -428.000
378.060; -134.850; -781.000; -847.000
378.190;  -66.200; -726.000; -531.000
378.320;  -41.025; -401.000; -406.000
378.451;  -14.300; -131.000;  -22.000
378.581;  -16.400;  -67.000; -110.000
378.711;  166.950; 1035.000;  866.000
378.841;  -20.275; -533.000; -675.000
378.972;  -57.600; -871.000; -751.000
379.102;    4.950; -652.000; -579.000
379.232;  -17.900; -126.000;  -73.000
379.362; -101.275;-1001.000; -885.000
379.492;   18.250; -373.000; -424.000
379.623;   98.550;    0.000;  111.000
379.753;  -98.225;-1107.000; -974.000
379.883;  212.400;   59.000;  156.000
380.013;   21.475;-1081.000;-1017.000
380.143;  -95.075;-1097.000;-1056.000
380.273;  -94.875; -985.000; -861.000
380.403;    5.250; -344.000; -257.000
380.533;  -28.375; -651.000; -664.000
380.663;   67.750;  173.000;  128.000
380.793;  -89.475;-1027.000;-1074.000
380.923;  -21.725; -103.000;  -34.000
381.053;  -98.000; -613.000; -623.000
381.183;  -36.500; -106.000; -248.000
381.313;   36.900; -656.000; -470.000
381.443;   48.975; -692.000; -473.000
381.573;  222.675; -402.000; -409.000
381.703;  348.700;-1249.000;-1095.000
381.833; -118.550;-1454.000;-1336.000
381.963;  129.075; -134.000;  -87.000
382.093; 1512.825; -925.000; -909.000
382.223;  499.350; -713.000; -602.000
382.353;    6.400; -801.000; -608.000
382.482;  412.025;-1091.000; -964.000
382.612;  845.250; -872.000; -644.000
382.742;  494.025; -695.000; -622.000
382.872;  298.025; -565.000; -551.000
383.002;   72.175;  347.000; -132.000
383.131;  -19.175; -226.000; -160.000
383.261;  -49.600; -706.000; -768.000
383.391;  285.350; -552.000; -377.000
383.521; 3037.650;  451.000;  263.000
383.650;  761.925; -947.000; -904.000
383.780;  -17.275; -783.000; -656.000
383.910;  114.400;  880.000;  802.000
384.039;   34.450; -794.000; -656.000
384.169;  262.275;-1205.000;-1017.000
384.299;   -1.800; -650.000; -662.000
384.428;  -75.125; -764.000; -680.000
384.558;  -46.975; -308.000; -275.000
384.687;  -35.625; -414.000; -334.000
384.817;   17.575;   75.000;   -2.000
384.947;   26.375; -234.000; -141.000
385.076;  298.425;  982.000;  912.000
385.206;  118.425;  369.000;  480.000
385.335;  -23.375; -549.000; -417.000
385.465;  -64.650; -655.000; -663.000
385.594;  141.900;  -53.000;  -44.000
385.724;  475.900; -868.000; -838.000
385.853;  131.500; -296.000; -270.000
385.982; 1445.550; -743.000; -787.000
386.112; 2418.250;-1052.000; -871.000
386.241;  171.225; -307.000; -312.000
386.371;   37.550; -174.000;  -87.000
386.500;   14.775; -825.000; -789.000
386.629;   31.400; -874.000; -817.000
386.759;   86.800;  -43.000;   68.000
386.888;    3.000; -170.000; -250.000
387.017;  -59.200; -648.000; -620.000
387.147;  -79.925; -771.000; -798.000
387.276;   19.575; -410.000; -397.000
387.405;   19.425; -398.000; -342.000
387.535;  -46.825; -452.000; -361.000
387.664;  -66.375; -692.000; -620.000
387.793;   62.150; -198.000; -113.000
387.922;  571.575;  255.000;  200.000
388.052;   48.350; -576.000; -423.000
388.181;   19.875; -342.000; -472.000
388.310;   18.975; -889.000; -710.000
388.439;  -33.950; -749.000; -742.000
388.568;  188.175;  365.000;  244.000
388.697; 1172.575; -756.000; -653.000
388.826;  246.450; -768.000; -666.000
388.956;   63.725; -285.000; -307.000
389.085;  -36.025; -347.000; -287.000
389.214; -103.675; -842.000; -872.000
389.343;  -60.975; -645.000; -413.000
389.472;  394.550;  126.000;  149.000
389.601;  515.000;   91.000;    0.000
389.730;   26.350; -568.000; -687.000
389.859;   64.800;  226.000;   46.000
389.988;  200.050; -423.000; -408.000
390.117;  168.475; -168.000; -146.000
390.246;   -1.550; -331.000; -320.000
390.375;  118.500; -673.000; -626.000
390.504;  -57.075; -703.000; -621.000
390.633; -102.825; -672.000; -726.000
390.761;  -63.025; -732.000; -645.000
390.890;   11.775;   -4.000; -130.000
391.019;  -16.050; -421.000; -441.000
391.148; -112.650; -826.000; -855.000
391.277;  -55.075; -576.000; -493.000
391.406;  -77.400; -821.000; -805.000
391.534;   17.325;  574.000; -301.000
391.663;  -46.400; -583.000; -645.000
391.792;  -82.725; -673.000; -701.000
391.921;  100.900;   -3.000;   15.000
392.050;  205.600; -287.000; -228.000
392.178;  -22.100;-1206.000;-1061.000
392.307;  170.900; -758.000; -712.000
392.436;   90.725; -427.000; -641.000
392.564;   27.150;  166.000;   -6.000
392.693;  -93.650; -860.000; -682.000
392.822;  215.325; -529.000; -534.000
392.950;  127.625; -880.000; -714.000
393.079;  347.275; -188.000; -328.000
393.208;   33.000; -488.000; -511.000
393.336;  -11.675; -170.000; -145.000
393.465;  -43.875; -317.000; -199.000
393.593;   -6.250;   62.000;   79.000
393.722; -153.750;-1121.000; -916.000
393.850;  -26.750; -188.000;  -61.000
393.979; -158.825; -926.000; -805.000
394.107;  -72.275; -517.000; -537.000
394.236;  -13.300; -570.000; -507.000
394.364;  226.400;  383.000;  206.000
394.493;  406.025; -911.000; -767.000
394.621;  -16.850; -955.000; -916.000
394.750;  687.775; -873.000; -923.000
394.878; 2812.025; -247.000; -149.000
395.007; 3963.325; -721.000; -807.000
395.135;  312.575; -790.000; -721.000
395.263;  -98.125;-1038.000;-1040.000
395.392;    9.875;  -25.000; -107.000
395.520; -126.750; -818.000; -679.000
395.648;  -72.325; -865.000; -915.000
395.777;   -9.525; -366.000; -405.000
395.905;  -65.050; -449.000; -564.000
396.033;    1.575;  217.000;  172.000
396.162;  636.325; -399.000; -453.000
396.290;  595.450;  -17.000;   -2.000
396.418;  135.675; -555.000; -514.000
396.546;  -68.575; -571.000; -466.000
396.674;  -95.300; -850.000; -878.000
396.803;   13.175;  -72.000;  -23.000
396.931;   94.000; -179.000; -199.000
397.059;   78.300;-1026.000; -989.000
397.187; -100.850;-1026.000; -975.000
397.315; -130.750; -884.000; -649.000
397.443;  -87.275; -592.000; -443.000
397.572;  -84.275; -578.000; -424.000
397.700;    4.225; -607.000; -614.000
397.828;   46.325;  120.000;  -90.000
397.956;  -61.975; -508.000; -478.000
398.084;  -66.300; -767.000; -626.000
398.212;   46.075;  137.000;  124.000
398.340;   17.675;  -56.000;  159.000
398.468;   25.775; -390.000; -169.000
398.596; -125.850; -993.000; -953.000
398.724; -112.775; -762.000; -767.000
398.852; -159.450;-1024.000; -976.000
398.980;  -58.525; -560.000; -560.000
399.108;  -62.750; -982.000; -735.000
399.236;   30.025;   13.000;    8.000
399.363;  -14.500;  222.000;  196.000
399.491;  -62.125; -404.000; -398.000
399.619; -122.850; -829.000; -800.000
399.747;  -98.200; -859.000; -771.000
399.875;   95.350;  220.000;  234.000
400.003;  -50.950; -359.000; -284.000
400.130;  -87.350; -421.000; -341.000
400.258;  -36.450;  -83.000;   38.000
400.386;  -62.675; -352.000; -168.000
400.514;  -46.000; -526.000; -587.000
400.641;  -83.900; -928.000; -802.000
400.769; -136.625; -979.000; -888.000
400.897; -100.775; -838.000; -793.000
401.025;   -8.375; -166.000; -152.000
401.152;  -22.900;  220.000;   38.000
401.280;  -77.450; -430.000; -429.000
401.408; -123.025; -712.000; -576.000
401.535; -101.475; -735.000; -758.000
401.663; -185.075;-1134.000;-1054.000
401.790;  -84.800; -514.000; -525.000
401.918;   24.575;  436.000;  405.000
402.046;  -16.050;  134.000;  122.000
402.173;  -23.925;  -18.000;    7.000
402.301;  -66.450; -519.000; -397.000
402.428;   35.425;  528.000;  383.000
402.556; -146.975;-1188.000; -913.000
402.683;  -44.475;  -20.000;   -1.000
402.811;  -23.975;  -37.000; -206.000
402.938;  -20.850;   20.000;   27.000
403.066;  223.275; -574.000; -558.000
403.193;  381.725;  299.000;  239.000
403.321;  303.425; -396.000; -574.000
403.448;  378.200;   83.000;   27.000
403.575;  158.575;  -90.000;  -46.000
403.703; -107.225; -732.000; -557.000
403.830;  -51.200; -531.000; -496.000
403.957; -146.075;-1117.000;-1023.000
404.085;    7.400;  -61.000; -172.000
404.212;  114.150;  -50.000;   63.000
404.339;  248.800; -566.000; -306.000
404.467; 5528.175; -612.000; -524.000
404.594; 3939.250; -287.000; -227.000
404.721;  985.500; -869.000; -764.000
404.848;   83.050; -113.000; -202.000
404.976;  -94.325; -856.000; -783.000
405.103;  -10.100;  -14.000;  -82.000
405.230;   -1.625;  190.000;  226.000
405.357;   22.925;  117.000;   44.000
405.484;  253.825;  -49.000;    5.000
405.612;   59.175; -548.000; -563.000
405.739;  -68.225; -488.000; -243.000
405.866;   70.175;  669.000;  385.000
405.993;  -47.400; -398.000; -102.000
406.120; -129.350; -801.000; -887.000
406.247;  -56.825; -323.000; -342.000
406.374;  465.975;  540.000;  629.000
406.501;  142.450; -632.000; -702.000
406.628;  -72.625; -621.000; -589.000
406.755;  -99.450; -803.000; -620.000
406.882;  -34.150; -228.000; -277.000
407.009; -111.600; -719.000; -628.000
407.136;   56.250; -480.000; -401.000
407.263;  183.075; -939.000; -829.000
407.390;  -57.725; -692.000; -614.000
407.517; -163.000;-1139.000;-1187.000
407.644;  -62.600; -332.000; -256.000
407.771; -124.875; -249.000; -287.000
407.898;    4.225;  168.000;  328.000
408.025;  -64.925; -421.000; -313.000
408.151;  -20.325;   82.000;  153.000
408.278;  -76.575; -267.000; -216.000
408.405; -102.775; -931.000; -899.000
408.532;  -81.400; -549.000; -542.000
408.659; -114.175; -677.000; -648.000
408.785; -204.575;-1298.000;-1170.000
408.912;  -81.700; -412.000; -296.000
409.039; -123.500; -610.000; -686.000
409.166; -102.450; -591.000; -555.000
409.292; -112.800; -571.000; -534.000
409.419; -118.225; -665.000; -649.000
409.546;  -89.475; -431.000; -192.000
409.672; -115.125; -713.000; -545.000
409.799;  -21.975;  -36.000;   34.000
409.926;  -45.775; -180.000; -179.000
410.052; -182.325;-1127.000;-1091.000
410.179;  -64.500; -368.000; -392.000
410.305;  -89.700; -375.000; -493.000
410.432;  -55.750; -220.000; -333.000
410.558;  -86.000; -305.000; -380.000
410.685; -111.900; -688.000; -431.000
410.812;  -95.675; -409.000; -588.000
410.938; -128.025; -964.000; -808.000
411.065;  -91.100; -671.000; -645.000
411.191;  -18.825; -189.000; -174.000
411.317; -113.475; -823.000; -742.000
411.444;  -58.575; -317.000; -246.000
411.570;  -82.000; -339.000; -294.000
411.697; -115.625; -758.000; -752.000
411.823; -164.775; -989.000; -999.000
411.949;  -35.700;  -56.000;   17.000
412.076; -116.450; -539.000; -519.000
412.202; -112.450; -758.000; -757.000
412.329; -121.225; -798.000; -752.000
412.455; -121.550; -821.000; -657.000
412.581;  -16.850;  -15.000;  172.000
412.707;  -61.025; -540.000; -457.000
412.834;   13.450;  156.000;  219.000
412.960;  -86.100; -785.000; -784.000
413.086;  -96.175; -743.000; -701.000
413.212;  142.050;  604.000;  578.000
413.339;  -58.150; -685.000; -701.000
413.465;    0.475; -364.000; -310.000
413.591;  -79.775; -757.000; -474.000
413.717;  -59.050; -358.000; -366.000
413.843; -138.800; -839.000; -861.000
413.969;  -47.375;  -47.000; -292.000
414.096;  -98.200; -679.000; -679.000
414.222;  -15.100;  -33.000;   85.000
414.348;  -20.675; -652.000; -385.000
414.474;  109.075;   38.000;  -52.000
414.600;   -8.200; -126.000; -144.000
414.726;  -25.575;  -96.000;  -55.000
414.852;  -56.925; -365.000; -342.000
414.978;   37.800;  104.000;  -18.000
415.104;   41.225;   38.000;   80.000
415.230;   20.325; -329.000; -330.000
415.356;   48.650; -409.000; -514.000
415.482;  187.475;   13.000;  -35.000
415.608;  277.050; -247.000; -323.000
415.734;  918.375;   67.000;   38.000
415.860;19391.250; -875.000; -767.000
415.986;15032.525; -685.000; -607.000
416.111; 1328.500; -798.000; -652.000
416.237;  283.775; -424.000; -571.000
416.363; 1043.025; -765.000; -733.000
416.489; 4126.975; -324.000; -251.000
416.615;  480.625; -707.000; -742.000
416.741;  -22.975; -677.000; -784.000
416.866;  -98.900; -673.000; -736.000
416.992; -118.275; -801.000; -818.000
417.118;  -14.800;  -41.000;  -80.000
417.244;  -69.200; -798.000; -531.000
417.369;  -82.400; -801.000; -612.000
417.495;   -9.375; -325.000; -254.000
417.621;  -85.800;-1015.000; -803.000
417.746;   -4.925; -579.000; -572.000
417.872;   45.600; -254.000; -144.000
417.998;   51.175; -515.000; -530.000
418.123;  966.000;-1073.000; -845.000
418.249; 5337.875; -512.000; -601.000
418.374;  798.725; -916.000; -824.000
418.500;  110.400; -383.000; -482.000
418.626;  105.025;   70.000;  -59.000
418.751;  119.700; -549.000; -448.000
418.877;  199.425; -637.000; -643.000
419.002; 1664.000; -688.000; -560.000
419.128;12334.850; -930.000; -721.000
419.253; 3219.550; -967.000; -837.000
419.379;  424.700; -391.000; -338.000
419.504;  407.275;  325.000;  415.000
419.629;  520.275; -393.000; -212.000
419.755; 3283.225; -317.000; -254.000
419.880;20456.175;  -98.000;   67.000
420.006;11155.475; -280.000; -221.000
420.131;29496.425; -662.000; -775.000
420.256; 4521.350; -315.000; -316.000
420.382;  585.450; -665.000; -687.000
420.507;   83.200; -649.000; -778.000
420.632;  131.925; -337.000; -339.000
420.758;  285.600; -251.000; -425.000
420.883;  -79.425; -876.000; -672.000
421.008;  -94.650; -775.000; -619.000
421.133;  -87.500; -509.000; -467.000
421.259;  -44.925; -325.000; -259.000
421.384; -114.250; -834.000; -693.000
421.509;  -42.950;-1052.000; -862.000
421.634; 1266.425; -936.000; -820.000
421.759;  602.450; -359.000; -327.000
421.885;  -43.650; -717.000; -656.000
422.010;  -78.000; -673.000; -542.000
422.135; -145.450; -695.000; -727.000
422.260;   28.150;  340.000;  280.000
422.385;  -30.675;   12.000;  -98.000
422.510;   10.250;  151.000;  -26.000
422.635;   26.300;  -87.000;  -43.000
422.760;  118.725; -766.000; -791.000
422.885;   56.150;  -57.000;  -80.000
423.010;  -36.600; -112.000; -169.000
423.135;  -94.975; -481.000; -561.000
423.260;  -16.800; -150.000; -245.000
423.385;   67.875;  476.000;  222.000
423.510;   42.625;   71.000;  -22.000
423.635;   91.375;  133.000;   45.000
423.760;   47.850;  383.000;  328.000
423.885;   40.650;  336.000;  391.000
424.010;    4.875;  -68.000;  -13.000
424.135;  -32.050;    5.000;  -33.000
424.259;  -86.975; -654.000; -457.000
424.384;  -66.500; -279.000; -272.000
424.509;  -32.125; -260.000; -186.000
424.634;  -95.000; -761.000; -623.000
424.759;  -29.100; -688.000; -544.000
424.883;   -6.800; -506.000; -527.000
425.008;  173.875; -502.000; -410.000
425.133; 1950.575; -679.000; -653.000
425.258;  975.975; -517.000; -381.000
425.382; 1056.250; -867.000; -774.000
425.507; 2856.025; -487.000; -543.000
425.632;  495.650; -802.000; -663.000
425.756;  441.625; -256.000; -146.000
425.881; 5984.700; -831.000; -857.000
426.006;17250.075; -604.000; -355.000
426.130; 2878.025; -696.000; -508.000
426.255;  377.175; -611.000; -491.000
426.379;  159.675; -189.000; -577.000
426.504;  351.400;  660.000;  544.000
426.629; 3918.525; -519.000; -466.000
426.753; 2910.375;   64.000;  -46.000
426.878;  325.850; -252.000; -288.000
427.002;  179.350; -651.000; -668.000
427.127; 1484.925;  -35.000; -158.000
427.251;11152.400;  372.000;  401.000
427.375; 3438.375; -191.000; -173.000
427.500; 2421.375; -616.000; -610.000
427.624;  883.625; -234.000; -400.000
427.749;  103.600; -216.000; -225.000
427.873;  -24.875; -499.000; -412.000
427.997;  -53.600; -222.000; -230.000
428.122;   67.575;  795.000;  703.000
428.246;   69.725;  433.000;  434.000
428.371; -126.375; -869.000; -773.000
428.495;  -94.850; -624.000; -646.000
428.619;  -37.875; -186.000; -117.000
428.743;   26.750;   65.000;  132.000
428.868;   26.450; -732.000; -643.000
428.992; 1485.200; -219.000; -326.000
429.116;  640.100; -329.000; -357.000
429.240;  294.250;  419.000;  426.000
429.365;  -24.800; -454.000; -574.000
429.489;  -51.175; -638.000; -647.000
429.613;   10.100; -236.000; -177.000
429.737;   38.550; -563.000; -432.000
429.861;  263.650; -247.000; -133.000
429.985; 5313.875; -425.000; -305.000
430.109; 6252.575; -770.000; -908.000
430.234;  744.975;   76.000;  -50.000
430.358;   73.625; -250.000; -160.000
430.482;  -68.850; -672.000; -564.000
430.606;  -62.000; -655.000; -375.000
430.730;   17.300; -437.000; -388.000
430.854;  159.675; -909.000; -835.000
430.978;  -73.525; -795.000; -764.000
431.102;  -93.725; -499.000; -422.000
431.226; -111.500; -874.000; -815.000
431.350;   28.250;  345.000;  422.000
431.474;  -61.550; -661.000; -373.000
431.597; -145.500;-1060.000; -848.000
431.721;  -93.500; -276.000; -267.000
431.845; -124.150; -704.000; -472.000
431.969;  -82.025; -304.000; -349.000
432.093;  -96.800; -395.000; -317.000
432.217;  -30.950;   32.000;   82.000
432.341;  -93.850; -523.000; -518.000
432.464;   -0.825;   96.000;   40.000
432.588;  215.625; -401.000; -329.000
432.712;  111.050;  -52.000;  -52.000
432.836;   49.825;  213.000;  263.000
432.959;  -29.550; -372.000; -311.000
433.083;   99.950;   11.000;    2.000
433.207;  354.600;  285.000;  930.000
433.330; 4787.975; -391.000; -200.000
433.454; 6336.350; -654.000; -638.000
433.578; 3582.625;  583.000;  278.000
433.701;  720.750; -623.000; -675.000
433.825;  162.775; -292.000; -299.000
433.949;  183.350;   28.000;  -72.000
434.072;   73.075; -410.000; -323.000
434.196;  -10.450; -309.000; -117.000
434.319; 3608.900;25482.000;25124.000
434.443;  707.725; -656.000; -603.000
434.566; 2657.900;  281.000;   62.000
434.690;  497.700; -637.000; -383.000
434.813;   50.900; -251.000; -173.000
434.937;  -93.125; -569.000; -696.000
435.060;  -40.325; -423.000; -332.000
435.184;  334.700; -492.000; -217.000
435.307;  197.225;  159.000;  102.000
435.431;   -6.125;  -40.000;   24.000
435.554;  -77.150; -399.000; -240.000
435.677;  -84.650; -350.000; -258.000
435.801;  -45.550;  -25.000;   49.000
435.924;  -11.850;    1.000;  -67.000
436.048; -112.275;-1019.000; -732.000
436.171;  -54.875; -240.000;  -66.000
436.294;  -33.975; -248.000; -229.000
436.417;   70.950; -963.000; -849.000
436.541;  -82.825; -814.000; -840.000
436.664;  -62.250; -242.000; -316.000
436.787;  -34.725;   13.000;  113.000
436.910; -104.050; -792.000; -422.000
437.034;    1.600;  142.000;  143.000
437.157;   55.975;  -11.000;    0.000
437.280;  -54.700; -392.000; -292.000
437.403;  -78.175; -982.000; -869.000
437.526;  661.925; -903.000; -865.000
437.649; 2504.000; -505.000; -332.000
437.772;  416.075; -692.000; -540.000
437.896;  136.275;  700.000;  544.000
438.019;  -96.550; -758.000; -503.000
438.142;  -89.225; -596.000; -506.000
438.265;   -3.200; -639.000; -670.000
438.388;  617.450; -520.000; -410.000
438.511;  133.825; -597.000; -394.000
438.634;  -33.575; -247.000; -125.000
438.757; -142.125; -693.000; -619.000
438.880;  -42.050;  -34.000;  -57.000
439.003;  -85.925; -417.000; -437.000
439.126;  -71.000; -287.000; -167.000
439.248;  -67.550;  -98.000; -139.000
439.371;  -62.550;    9.000;  -53.000
439.494;   23.475;  510.000;  439.000
439.617;  -49.350;   65.000;  -88.000
439.740; -166.750; -968.000; -816.000
439.863; -140.525; -755.000; -595.000
439.986; -133.700; -476.000; -431.000
440.108;  -55.650; -161.000; -112.000
440.231; -152.150; -950.000; -836.000
440.354;  -39.375;  -64.000; -150.000
440.477;   49.250; -566.000; -542.000
440.599;   -3.175; -200.000; -225.000
440.722; -123.000; -709.000; -586.000
440.845;   61.225;  751.000;  928.000
440.968; -110.575; -415.000; -311.000
441.090;  -79.775; -199.000;  -33.000
441.213; -172.400;-1021.000; -825.000
441.336;  -61.800; -159.000;   -5.000
441.458;  -77.825; -549.000; -396.000
441.581;  -70.050; -628.000; -629.000
441.703;  -72.350; -152.000;   13.000
441.826; -123.700; -557.000; -400.000
441.948;  -55.900;   56.000;   51.000
442.071;   24.550;  555.000;  424.000
442.193; -112.425; -531.000; -485.000
442.316;   14.775;  152.000;   97.000
442.438;   54.550; -233.000;  -10.000
442.561;   71.075;  272.000;  262.000
442.683;  560.550; -809.000; -522.000
442.806; 1296.475;   -8.000;   74.000
442.928;   66.225; -859.000; -604.000
443.051;  -42.200; -577.000; -373.000
443.173; -104.550; -341.000; -339.000
443.295;  -87.100; -263.000; -371.000
443.418;  -81.525; -321.000;  -29.000
443.540;   -7.750; -106.000;   -4.000
443.662; -123.200; -563.000; -465.000
443.785;  -10.200;  335.000;  199.000
443.907;  -92.225; -362.000; -208.000
444.029; -131.750; -767.000; -494.000
444.152; -141.800; -644.000; -554.000
444.274;  -34.675;  -18.000;  -24.000
444.396; -123.450; -461.000; -221.000
444.518; -142.350; -691.000; -454.000
444.640; -107.900; -268.000; -111.000
444.763;  -13.925;  388.000;  249.000
444.885; -120.525; -432.000; -392.000
445.007;  -30.550;   35.000;   86.000
445.129; -116.600; -610.000; -515.000
445.251; -111.575; -372.000; -439.000
445.373; -143.825; -537.000; -386.000
445.495;   -3.400;  242.000;  350.000
445.617;   51.250;  853.000;  753.000
445.739;  -69.025; -215.000;  -97.000
445.861;  -32.575; -245.000; -112.000
445.984;  -22.300; -267.000; -101.000
446.105;  207.525; -418.000; -251.000
446.227;  663.225; -176.000;  -19.000
446.349;   28.050; -358.000; -249.000
446.471;  -99.500; -615.000; -448.000
446.593;  -58.825; -316.000;   19.000
446.715;  -11.475;  -67.000;   41.000
446.837;   58.100;  697.000;  832.000
446.959;  -97.075; -457.000; -478.000
447.081; -130.400; -628.000; -518.000
447.203;   39.775;  862.000;  834.000
447.325;  -87.225; -270.000;   42.000
447.446;  -12.150;  286.000;  530.000
447.568; -153.075; -921.000; -803.000
447.690;  -79.275; -236.000; -245.000
447.812; -151.425; -798.000; -519.000
447.933;  -34.225;  155.000;  127.000
448.055;  -61.125; -306.000; -261.000
448.177;  150.075;   31.000;   79.000
448.299;   99.475; -935.000; -727.000
448.420;   20.825;  -25.000;  159.000
448.542;  -46.925;   -3.000;   33.000
448.664;  -16.675;  109.000;  322.000
448.785;  -38.850;  265.000;   83.000
448.907;  -61.825; -614.000; -353.000
449.028;  -11.950; -771.000; -471.000
449.150;   63.150;  492.000;  589.000
449.272; -173.850;-1044.000; -913.000
449.393;   23.350;  612.000;  694.000
449.515; -152.500; -634.000; -581.000
449.636;  -61.875; -264.000; -155.000
449.758;   78.925;  763.000;  622.000
449.879;  -80.950; -498.000; -396.000
450.001;  -78.300; -149.000;  -49.000
450.122;  -43.775;  -95.000;  162.000
450.244;  -37.000;   37.000;  364.000
450.365;  -95.375; -495.000; -301.000
450.486;  -25.475;   80.000;  268.000
450.608;   11.425;  393.000;  326.000
450.729;   75.800;  578.000;  645.000
450.850;   -3.675; -574.000; -466.000
450.972;  680.550; -552.000; -389.000
451.093; 4686.575;  190.000;  588.000
451.214; 2241.300; -516.000; -337.000
451.336;  396.375;  773.000;  579.000
451.457;   52.125;  264.000;  393.000
451.578;  -42.025; -118.000;  -74.000
451.699; -115.575; -546.000; -540.000
451.821;  -64.325; -284.000;  -50.000
451.942;   10.375;  278.000;  285.000
452.063;   27.075;  228.000;  419.000
452.184;  528.200;  -54.000;  -49.000
452.305; 1071.600;  103.000;  170.000
452.427;  146.025; -549.000; -301.000
452.548;  -17.125;   23.000;   79.000
452.669;  -44.925; -257.000;  -89.000
452.790;  -43.825;    3.000;  -18.000
452.911;   -9.900;  195.000;  259.000
453.032;  -69.800; -289.000;  -60.000
453.153;  -43.600;  -29.000;   81.000
453.274;   58.000;  737.000;  868.000
453.395;  -53.175;  -51.000;  175.000
453.516;  125.675; 1317.000; 1388.000
453.637;  -63.425; -205.000; -150.000
453.758;  -65.500;   15.000;   69.000
453.879; -117.525; -462.000; -250.000
454.000;   72.750; 1086.000;  948.000
454.121; -104.950; -554.000; -326.000
454.242; -129.750; -599.000; -383.000
454.362;  -56.250;  -99.000;  114.000
454.483;  -32.325; -309.000; -229.000
454.604;   41.850;  512.000;  580.000
454.725; -129.525; -627.000; -555.000
454.846; -128.675; -474.000; -406.000
454.967;  -22.100;  230.000;  539.000
455.087;  -44.900;  179.000;  153.000
455.208;    0.750;  554.000;  856.000
455.329;  -64.775;  -22.000;   82.000
455.450;   10.275;  473.000;  633.000
455.570;  -84.125; -234.000; -211.000
455.691;  -45.900;  201.000;  407.000
455.812; -103.575; -270.000;  -92.000
455.932;  -71.975;  107.000;  -97.000
456.053;  -88.925;   36.000;   24.000
456.173; -117.800; -433.000; -355.000
456.294; -132.075; -476.000; -303.000
456.415;  -67.150;  -73.000;   70.000
456.535;  -34.800;  297.000;  273.000
456.656;  -60.200;  132.000;  240.000
456.776;  -71.400;    3.000;  298.000
456.897;   -4.350;  308.000;  513.000
457.017;  -73.050; -153.000;   -3.000
457.138; -106.650; -402.000; -249.000
457.258;  -26.450;  263.000;  224.000
457.379;   -2.050;  509.000;  521.000
457.499;  -24.900;  443.000;  432.000
457.620; -125.075; -407.000; -231.000
457.740;  -90.325; -132.000;  -11.000
457.860;  -63.750;   87.000;   44.000
457.981;  -50.225;  132.000;  124.000
458.101;  -69.600;  -89.000;   40.000
458.221;  -31.825;  336.000;  402.000
458.342;  -63.550;   -4.000;  -37.000
458.462;   12.850;  617.000;  352.000
458.582;  -49.675; -302.000; -294.000
458.703;    4.725;  303.000;  154.000
458.823;  -29.650;   22.000;  163.000
458.943;   20.200;  341.000;  467.000
459.063;  -15.800; 1124.000;  192.000
459.183;  -13.300;  328.000;  313.000
459.304;   -1.500;  315.000;  517.000
459.424;  -68.400; -246.000;  -89.000
459.544;  309.575;  388.000;  764.000
459.664;  811.200;  499.000;  506.000
459.784;  337.125; 1004.000; 1175.000
459.904;   66.000;  867.000;  744.000
460.024;   62.575;  867.000;  684.000
460.144;   18.150;  449.000;  554.000
460.264;    1.400;  515.000;  327.000
460.385;  -98.275; -145.000; -119.000
460.505;   18.275;  905.000;  858.000
460.625;  -91.800;  -17.000;  -68.000
460.745;  -34.100;  396.000;  541.000
460.864;  -48.775;  153.000;  469.000
460.984;   22.700;  499.000;  573.000
461.104;  134.750; 1656.000; 1775.000
461.224;   11.375;  657.000;  650.000
461.344;  -32.425;  431.000;  360.000
461.464;  -40.125;  258.000;  513.000
461.584;  -20.225;  283.000;  466.000
461.704;  -43.100;   58.000;  108.000
461.824;  -51.150;  238.000;  259.000
461.943;  -41.325;  191.000;  130.000
462.063;  -84.600;    2.000;  324.000
462.183;   29.200;  639.000;  717.000
462.303;   80.750; 1678.000; 1230.000
462.422;   38.550;  781.000;  840.000
462.542;  -44.325;  271.000;  391.000
462.662;   28.250;  353.000;  380.000
462.782;  226.125;  833.000;  572.000
462.901;  476.925;  545.000;  717.000
463.021;  292.750; 1702.000; 1638.000
463.141;  -22.050;  337.000;  770.000
463.260;  -22.600;  614.000;  474.000
463.380;    9.450;  902.000;  884.000
463.499;  -35.900;  342.000;  332.000
463.619;  -39.125;  581.000;  559.000
463.738;   88.450; 1644.000;  903.000
463.858;   14.075;  657.000;  811.000
463.978;  -32.875;  542.000;  396.000
464.097;   36.900;  921.000; 1114.000
464.217;  116.950; 1196.000; 1143.000
464.336;  116.100; 1068.000; 1130.000
464.455;  -34.675;  328.000;  659.000
464.575;   41.375;  597.000;  602.000
464.694;  169.150; 1204.000; 1179.000
464.814;  136.525; 1190.000; 1138.000
464.933;   76.575; 1095.000; 1027.000
465.052;   85.225; 1412.000; 1054.000
465.172;   81.275;  922.000;  799.000
465.291;  130.475; 1376.000; 1320.000
465.410;   15.925;  462.000;  735.000
465.530;   86.075; 1355.000; 1310.000
465.649;   56.650; 1209.000; 1273.000
465.768;  143.000; 1673.000; 1508.000
465.888;   30.875;  941.000; 1174.000
466.007;   94.675; 1335.000; 1440.000
466.126;    3.450;  721.000;  641.000
466.245;   51.300; 1176.000; 1187.000
466.364;   15.250;  950.000; 1060.000
466.484;   57.950; 1024.000; 1213.000
466.603;   32.800; 1101.000; 1222.000
466.722;  120.025; 1490.000; 1769.000
466.841;   67.075; 1151.000; 1401.000
466.960;   49.350; 1069.000;  972.000
467.079;  145.275; 1971.000; 1786.000
467.198;   49.450; 1238.000; 1181.000
467.317;   93.200; 1768.000; 1162.000
467.436;   65.525; 1709.000; 1261.000
467.555;  124.050; 1796.000; 1746.000
467.674;   62.900; 1227.000; 1329.000
467.793;   38.050; 1376.000; 1374.000
467.912;   95.425; 1658.000; 1539.000
468.031;  136.400; 2038.000; 1930.000
468.150;  145.875; 1842.000; 1837.000
468.269;  204.675; 2313.000; 2090.000
468.388;  176.950; 2168.000; 2339.000
468.507;  244.150; 2884.000; 2903.000
468.626;  265.100; 2555.000; 2541.000
468.744;  141.500; 2018.000; 2174.000
468.863;  185.350; 2312.000; 2523.000
468.982;   86.825; 1503.000; 1555.000
469.101;  225.525; 2788.000; 2692.000
469.220;  153.400; 2333.000; 2176.000
469.338;  265.100; 2935.000; 3051.000
469.457;  198.825; 2719.000; 2545.000
469.576;  326.775; 3953.000; 3784.000
469.695;  233.600; 2877.000; 3066.000
469.813;  412.800; 4148.000; 4192.000
469.932;  396.100; 4255.000; 4485.000
470.051;  412.875; 4075.000; 4161.000
470.169;  812.550; 4470.000; 4338.000
470.288; 1458.075; 4700.000; 4809.000
470.406;  878.725; 5059.000; 5194.000
470.525;  630.400; 6101.000; 5787.000
470.644;  643.900; 6847.000; 6794.000
470.762;  823.150; 8397.000; 7873.000
470.881;  882.800; 8651.000; 8464.000
470.999; 1032.925; 9685.000; 9151.000
471.118; 1098.975;11174.000;10711.000

