
Integration time [ms]: 100.000
Averaging Nr. [scans]: 40
Smoothing Nr. [pixels]: 0
Data measured with spectrometer [name]: 2101012U2
Wave   ;Sample   ;Dark     ;Reference
[nm]   ;[counts] ;[counts] ;[counts] 

197.733;   63.625;  516.000;  404.000
197.879;  -93.400; -610.000; -634.000
198.025;  -45.000; -475.000; -420.000
198.171;  -68.500; -602.000; -612.000
198.317;  -26.375; -401.000; -316.000
198.463;  -65.075; -655.000; -404.000
198.609;   42.300;  181.000; -137.000
198.755;  -80.250; -644.000; -410.000
198.901;  -75.450; -505.000; -424.000
199.047;  -71.675; -615.000; -488.000
199.193;  -36.850; -230.000; -468.000
199.339;  -52.975; -222.000; -369.000
199.485;   41.600;  330.000;  271.000
199.631;   25.800;  227.000;  310.000
199.777;  -59.025; -466.000; -398.000
199.923;  -59.800; -610.000; -424.000
200.069;    4.025; -141.000;  -58.000
200.215;   50.800;  128.000;  453.000
200.361;   32.375;  243.000;  477.000
200.507;  -52.525; -600.000; -373.000
200.653;  -24.375; -371.000; -194.000
200.798;  -43.225; -215.000; -125.000
200.944;   -2.700; -146.000;  -41.000
201.090;   28.650;   61.000;  222.000
201.236;    5.850; -116.000; -158.000
201.382;  123.900;  874.000;  903.000
201.528;   11.200;  -58.000;  -48.000
201.674;  -53.450; -386.000; -293.000
201.819;  -63.975; -540.000; -439.000
201.965;  -86.300; -699.000; -447.000
202.111;  -32.650; -273.000; -226.000
202.257;  -30.500; -250.000; -238.000
202.402;    3.675;   13.000;  -36.000
202.548;  -38.650; -169.000; -116.000
202.694;   97.450;  410.000; -183.000
202.840;  -84.375; -603.000; -531.000
202.985;  -66.425; -681.000; -639.000
203.131; -117.025; -832.000; -666.000
203.277;  -20.200; -199.000; -262.000
203.423;  -49.300; -434.000; -520.000
203.568;  -46.750; -462.000; -237.000
203.714;  -57.525; -535.000; -542.000
203.860;  -71.900; -682.000; -641.000
204.005;   10.825;  112.000;  167.000
204.151;   81.650;  561.000;  556.000
204.296;  -55.200; -354.000; -221.000
204.442;  -66.150; -600.000; -547.000
204.588;  -79.075; -592.000; -579.000
204.733;   12.975;  178.000;  168.000
204.879; -136.125;-1018.000; -822.000
205.025;   12.400;  -99.000;  126.000
205.170;    0.175;  -17.000;   94.000
205.316;   83.075;  438.000;  661.000
205.461;  -94.300; -698.000; -554.000
205.607;  101.400;  609.000;  665.000
205.752;  -76.675; -626.000; -551.000
205.898;  -54.075; -501.000; -391.000
206.043;  -68.225; -578.000; -506.000
206.189;  -34.450; -243.000; -285.000
206.334;   70.950;  554.000;  606.000
206.480;   89.350;  409.000;  239.000
206.625;  -89.800; -529.000; -552.000
206.771;  -43.650; -451.000; -373.000
206.916;  -36.250; -210.000; -537.000
207.062;  -74.725; -545.000; -591.000
207.207;  -55.750; -546.000; -443.000
207.353;   60.900;  185.000;  460.000
207.498;   13.875;  196.000;   85.000
207.643;  -36.150; -501.000; -370.000
207.789; -128.500;-1069.000; -910.000
207.934;  -98.000; -665.000; -713.000
208.080;  -25.900; -154.000;   66.000
208.225;   -0.500;  -22.000;  -57.000
208.370;  -95.625; -727.000; -619.000
208.516;  -74.375; -741.000; -487.000
208.661;  -34.075; -127.000;  -69.000
208.806;  -14.250; -165.000; -171.000
208.952; -135.725;-1044.000; -731.000
209.097;   71.000;  378.000;  349.000
209.242;  -43.850; -307.000; -382.000
209.387;   68.450;  392.000;  350.000
209.533;  -47.800; -321.000; -350.000
209.678;   79.750;  472.000;  543.000
209.823;  -56.075; -408.000; -310.000
209.969;  -94.375; -860.000; -757.000
210.114; -104.025; -907.000; -719.000
210.259; -118.650; -939.000; -889.000
210.404;   -8.925; -171.000;  103.000
210.549;   19.075;  108.000;    3.000
210.695;  -18.125;   -3.000;  -95.000
210.840;   37.875;   94.000;   67.000
210.985;  -61.475; -484.000; -303.000
211.130;   77.150;  268.000;  406.000
211.275;   23.575;  207.000;  199.000
211.420;  -42.175; -300.000; -289.000
211.566;  -78.250; -536.000; -489.000
211.711;   26.750;  218.000;  157.000
211.856;  -69.200; -545.000; -519.000
212.001;    9.150;  151.000;   44.000
212.146;   28.875;  153.000;   49.000
212.291;  -17.850; -210.000; -186.000
212.436;  -35.825; -280.000;   -6.000
212.581;  -78.000; -685.000; -653.000
212.726;  -87.975; -487.000; -538.000
212.871;  -47.725; -552.000; -217.000
213.016; -144.400;-1172.000;-1029.000
213.161;   71.800;  406.000;  291.000
213.306;  -80.550; -435.000; -577.000
213.451;  -83.600; -778.000; -689.000
213.596;  -52.975; -455.000; -347.000
213.741;  -50.175; -448.000; -538.000
213.886;  -82.150; -498.000; -517.000
214.031;  -11.825; -294.000; -124.000
214.176;  -45.425; -408.000; -341.000
214.321;    0.250; -296.000; -157.000
214.466;  -30.125; -163.000;  -43.000
214.611;   -2.575;  -61.000;  -10.000
214.756; -124.375; -948.000; -858.000
214.901;  -16.650; -388.000; -226.000
215.046; -120.150; -797.000; -825.000
215.191;   15.775;  128.000;   35.000
215.336;  -14.600; -157.000;  -19.000
215.480;  -67.825; -684.000; -505.000
215.625;  -28.550; -175.000;  -19.000
215.770;  -69.950; -757.000; -662.000
215.915;  -13.350;   -5.000;  -97.000
216.060;    1.725; -113.000;  -21.000
216.205; -106.975; -731.000; -779.000
216.349;  -74.650; -470.000; -533.000
216.494; -132.750; -939.000; -867.000
216.639; -108.325; -823.000; -888.000
216.784; -102.600; -577.000; -525.000
216.929;   49.450;  392.000;  281.000
217.073;   -8.125; -244.000;  -31.000
217.218;    6.275;   78.000;  -47.000
217.363;  -76.475; -656.000; -618.000
217.507;  -69.175; -623.000; -588.000
217.652; -139.075; -845.000; -874.000
217.797;  -74.975; -708.000; -659.000
217.942; -107.900; -856.000; -720.000
218.086;   91.800;  608.000;  539.000
218.231;  -31.200; -174.000;  -26.000
218.376;  -38.425; -337.000; -229.000
218.520;   -2.675;  -41.000;   96.000
218.665;  -25.550; -338.000; -204.000
218.810;  -39.500; -275.000; -233.000
218.954;   26.525;  201.000;   35.000
219.099; -114.050; -713.000; -963.000
219.243;  -63.350; -589.000; -554.000
219.388;  -40.300; -264.000; -136.000
219.532;  -14.775; -116.000; -116.000
219.677;  -92.900; -564.000; -521.000
219.822;   19.675;   33.000;   89.000
219.966;   -2.725;   17.000;  -99.000
220.111;  -28.375; -328.000;  -40.000
220.255;  -89.775; -797.000; -750.000
220.400;  -19.750; -180.000; -146.000
220.544;  -83.850; -516.000; -450.000
220.689;  -41.225; -422.000; -451.000
220.833;  -26.725; -123.000;  -58.000
220.978;  -43.575; -393.000; -563.000
221.122;   22.050;  319.000;  307.000
221.267; -108.550; -906.000; -837.000
221.411;  -70.400; -478.000; -394.000
221.555;   -8.700; -104.000;  -23.000
221.700;  -48.000; -329.000; -222.000
221.844;   27.225;  255.000;  272.000
221.989;  -52.700; -328.000; -311.000
222.133;  -42.625; -289.000; -307.000
222.277;  -20.775;    5.000;   78.000
222.422;   24.025;  227.000;  113.000
222.566;  -47.750; -381.000; -214.000
222.711;  -60.250; -414.000; -479.000
222.855;  -76.925; -643.000; -586.000
222.999;  -79.400; -642.000; -717.000
223.144;  -23.825; -195.000; -194.000
223.288;   48.850;  423.000;  251.000
223.432;   15.375;  184.000;  230.000
223.576;   20.850;  152.000;  -21.000
223.721;   53.000;  364.000;  273.000
223.865;  -65.025; -472.000; -475.000
224.009;  212.200; 1673.000; 1631.000
224.153;  -69.200; -660.000; -671.000
224.298;  -73.050; -531.000; -489.000
224.442;  -17.650;  -74.000;  -33.000
224.586;   -6.750; -169.000; -106.000
224.730;  -98.625; -858.000; -670.000
224.875; -109.575; -739.000; -688.000
225.019;    8.350;  102.000;  188.000
225.163;   45.825;  208.000;  341.000
225.307;    8.500;   97.000;  -91.000
225.451;   29.325;  360.000;  481.000
225.595;   25.050;  264.000;  176.000
225.739;   -8.400; -170.000;  -94.000
225.884;   12.400;   86.000;    5.000
226.028; -106.825; -760.000; -626.000
226.172;  -32.925; -260.000; -273.000
226.316; -127.200; -941.000; -902.000
226.460;  -69.050; -645.000; -493.000
226.604;  -57.350; -406.000; -400.000
226.748;  -93.800; -836.000; -733.000
226.892;  -39.925; -227.000; -181.000
227.036;  -48.975; -537.000; -447.000
227.180;  -60.825; -551.000; -375.000
227.324;  -53.175; -561.000; -580.000
227.468; -124.500; -819.000; -717.000
227.612;   20.775;  242.000;  -28.000
227.756; -114.425; -845.000; -698.000
227.900;   45.450;  342.000;  441.000
228.044;  -65.700; -509.000; -290.000
228.188;   56.925;  448.000;  568.000
228.332;  -80.675; -546.000; -472.000
228.476;  -26.200; -223.000; -149.000
228.620;  -28.300; -210.000; -150.000
228.764;   65.650;  431.000;  349.000
228.908;  -18.925; -155.000;   30.000
229.052;  -63.600; -615.000; -528.000
229.195;  -17.350; -172.000;   13.000
229.339;  -26.350; -235.000; -305.000
229.483;  -14.075;    5.000; -162.000
229.627;   10.800; -156.000;  139.000
229.771;  -64.000; -218.000; -294.000
229.915;   23.125;  230.000;   79.000
230.059;  -73.550; -648.000; -663.000
230.202;  -42.200; -370.000; -317.000
230.346;  -10.450; -107.000;  107.000
230.490;  -52.275; -489.000; -521.000
230.634; -114.200; -736.000; -553.000
230.777;   87.875;  478.000;  509.000
230.921;  -57.675; -450.000; -359.000
231.065;  -37.875; -246.000; -286.000
231.209;   17.450;  261.000;  265.000
231.352;   15.275;   54.000;   40.000
231.496;   28.250;  568.000;  188.000
231.640;  -87.025; -693.000; -621.000
231.783;   69.750;  546.000;  525.000
231.927;  -45.150; -294.000; -365.000
232.071; -124.350; -962.000; -736.000
232.214;  -97.125; -980.000; -764.000
232.358; -108.925; -683.000; -599.000
232.502;    5.600;  -19.000;    7.000
232.645; -138.500;-1090.000; -927.000
232.789;  -27.875; -257.000; -218.000
232.933;  -41.375; -407.000; -224.000
233.076; -126.875;-1038.000; -897.000
233.220; -115.475; -752.000; -777.000
233.363;  -61.675; -669.000; -477.000
233.507;   54.450;  371.000;  129.000
233.650;  -94.950; -764.000; -834.000
233.794;   31.175;  438.000;  461.000
233.938;  -59.400; -530.000; -362.000
234.081;  -24.775;  -93.000;   31.000
234.225;  -74.650; -631.000; -539.000
234.368; -114.550; -773.000; -723.000
234.512;  -43.725; -385.000; -299.000
234.655; -105.800; -582.000; -555.000
234.798;  -58.850; -493.000; -466.000
234.942; -119.850; -884.000;-1002.000
235.085;  -58.125; -651.000; -443.000
235.229;  -67.900; -405.000; -410.000
235.372;  -41.300; -247.000; -191.000
235.516;  -65.350; -397.000; -321.000
235.659;   12.625;   92.000;  121.000
235.802;  -14.450;  -38.000;  -22.000
235.946;   32.725;  335.000;  215.000
236.089;   15.950;  126.000;  250.000
236.233;   65.000;  275.000;  298.000
236.376;  -53.975; -235.000; -378.000
236.519;  -29.975; -297.000; -319.000
236.663;  -33.400; -215.000; -117.000
236.806; -138.400;-1029.000; -999.000
236.949;   56.575;  543.000;  431.000
237.092;   66.425;  412.000;  391.000
237.236;  -92.350; -589.000; -502.000
237.379;   75.650;  352.000;  428.000
237.522; -114.675; -879.000; -768.000
237.666;  -14.825; -271.000;   18.000
237.809; -131.425; -851.000; -823.000
237.952;   42.725;  469.000;  271.000
238.095;  -67.600; -447.000; -442.000
238.238;   97.400;  688.000;  700.000
238.382;   -9.275;  166.000;  103.000
238.525;  -70.575; -598.000; -511.000
238.668; -139.200;-1060.000; -985.000
238.811;  -89.400; -638.000; -643.000
238.954;  -63.675; -483.000; -334.000
239.097;   91.300;  617.000;  664.000
239.241;   31.000;  394.000;  326.000
239.384;  -31.575; -254.000; -214.000
239.527;  -59.375; -424.000; -224.000
239.670; -144.000; -994.000;-1091.000
239.813; -114.975; -696.000; -658.000
239.956;   82.250;  579.000;  473.000
240.099; -119.575; -778.000; -725.000
240.242;   61.900;  428.000;  432.000
240.385;   37.225;  466.000;  450.000
240.528;  -63.900; -706.000; -473.000
240.671;    9.975;  189.000;  134.000
240.814;  -37.100; -441.000; -158.000
240.957;  -91.600; -767.000; -578.000
241.100;  -87.875; -779.000; -755.000
241.243; -142.400;-1234.000; -893.000
241.386;  -55.150; -508.000; -379.000
241.529;  -99.875; -735.000; -547.000
241.672;  -58.850; -566.000; -495.000
241.815; -123.175; -832.000; -808.000
241.958;  -23.650; -125.000; -182.000
242.101;  -86.125; -545.000; -390.000
242.244;  -46.775; -270.000; -325.000
242.387;  -49.975; -304.000; -246.000
242.530;   50.425;  470.000;  134.000
242.673;  -49.150; -381.000; -309.000
242.815; -104.925; -925.000; -899.000
242.958;  -79.325; -482.000; -381.000
243.101;   11.500;  132.000;  187.000
243.244; -100.600; -564.000; -521.000
243.387;  -50.900; -313.000; -316.000
243.530; -100.900; -657.000; -674.000
243.672;   -3.700;   43.000;  -92.000
243.815;  -45.350; -355.000; -283.000
243.958;    8.700;   98.000;  -26.000
244.101;   -6.225;   59.000;  -16.000
244.243;  -13.475;  -47.000;  101.000
244.386; -116.125; -761.000; -630.000
244.529;  -23.675; -132.000; -139.000
244.672; -162.725;-1154.000; -951.000
244.814;  -90.975; -621.000; -794.000
244.957;  -67.150; -380.000; -304.000
245.100;  -80.850; -489.000; -489.000
245.242;  -68.850; -387.000; -374.000
245.385;  -10.025;  -59.000;  -39.000
245.528; -131.000; -871.000; -705.000
245.670;   86.625;  612.000;  634.000
245.813;  -99.100; -599.000; -547.000
245.956;  -25.725; -324.000; -275.000
246.098;  -77.925; -508.000; -650.000
246.241;   19.675;  194.000;   48.000
246.383;  -33.000; -119.000;  -73.000
246.526;  -80.850; -454.000; -525.000
246.669; -124.225; -889.000; -780.000
246.811;   13.975;  172.000;   -1.000
246.954;  -62.525; -512.000; -426.000
247.096;  -12.825;  -84.000;   -6.000
247.239;  -80.450; -482.000; -445.000
247.381;  -60.400; -647.000; -488.000
247.524;   75.950;  645.000;  679.000
247.666;   -5.975;   58.000;   11.000
247.809; -133.925; -887.000; -691.000
247.951;  -10.925;  -75.000;  138.000
248.094;   30.650;  432.000;  308.000
248.236; -156.950;-1262.000;-1238.000
248.378;    1.400; -356.000;  -81.000
248.521;  -24.300; -334.000; -337.000
248.663;  -47.425; -236.000; -267.000
248.806;  -26.100; -300.000; -266.000
248.948; -102.900; -886.000; -763.000
249.090;  -31.250; -428.000; -398.000
249.233;  -51.625; -344.000; -381.000
249.375;  -62.550; -474.000; -451.000
249.518;  -13.300;  -83.000; -133.000
249.660;   -2.150; -103.000;    3.000
249.802; -152.225;-1303.000;-1189.000
249.945;  -80.400; -612.000; -540.000
250.087; -122.300; -834.000; -768.000
250.229;  -44.775; -362.000; -480.000
250.371;  -74.150; -494.000; -439.000
250.514;  -56.550; -310.000; -244.000
250.656;  -76.650;   69.000;  102.000
250.798; -119.000; -849.000; -800.000
250.940;  -69.100; -322.000; -322.000
251.083;  -20.900; -335.000; -111.000
251.225;   43.750;  338.000;  310.000
251.367;  -27.450; -274.000; -373.000
251.509;  -43.000; -265.000; -210.000
251.651;  -96.175; -731.000; -671.000
251.794;   78.850;  538.000;  632.000
251.936; -103.025; -821.000; -747.000
252.078;  -73.175; -540.000; -461.000
252.220;  -72.900; -645.000; -477.000
252.362;   81.900;  344.000;  462.000
252.504;  -67.825; -677.000; -584.000
252.646; -118.825; -875.000; -722.000
252.788;   -6.400;   14.000; -128.000
252.931;  -40.400; -257.000; -253.000
253.073;  -46.875; -376.000; -317.000
253.215;   -9.775;  141.000;  122.000
253.357;  -10.225;   82.000; -153.000
253.499;  -52.525; -374.000; -234.000
253.641;  -86.225; -749.000; -594.000
253.783; -101.550; -609.000; -527.000
253.925;  -81.025; -586.000; -591.000
254.067; -113.125; -744.000; -667.000
254.209;  -28.575; -391.000; -259.000
254.351; -130.275; -865.000; -883.000
254.493;  -63.875; -441.000; -417.000
254.635; -148.325; -936.000; -818.000
254.777;  -78.500; -752.000; -687.000
254.918;  -67.375; -512.000; -430.000
255.060;  -55.150; -551.000; -395.000
255.202;  -74.175; -473.000; -261.000
255.344;  -66.375; -658.000; -455.000
255.486;  -69.600; -471.000; -406.000
255.628; -103.475; -780.000; -781.000
255.770; -102.550; -676.000; -536.000
255.912;  -64.525; -559.000; -468.000
256.053;  -96.550; -730.000; -508.000
256.195;  161.825; 1008.000;  903.000
256.337; -108.650; -861.000; -595.000
256.479;   68.500;  532.000;  416.000
256.621;  -57.325; -394.000; -212.000
256.762; -101.225; -789.000; -742.000
256.904;   49.500;  485.000;  487.000
257.046;  -35.425; -381.000; -271.000
257.188;  -46.775; -351.000; -264.000
257.329;  -71.000; -525.000; -464.000
257.471; -128.675; -939.000; -807.000
257.613;  -57.175; -584.000; -498.000
257.755; -157.525;-1073.000; -982.000
257.896;   29.300;  286.000;  392.000
258.038;  -84.675; -403.000; -352.000
258.180;  -31.350; -354.000; -279.000
258.321;  -75.800; -581.000; -457.000
258.463;    1.175;  -71.000;  133.000
258.605;  -81.625; -562.000; -570.000
258.746; -112.775; -886.000; -772.000
258.888; -155.200;-1026.000;-1020.000
259.029;   21.750;  121.000;   -8.000
259.171;  -97.300; -614.000; -550.000
259.313;   -6.750;  -49.000;  -47.000
259.454;  -70.400; -536.000; -414.000
259.596;  -59.175; -483.000; -390.000
259.737;  -82.375; -590.000; -474.000
259.879;   32.800;  217.000;  311.000
260.020;   82.125;  901.000;  636.000
260.162;  -26.025; -146.000; -253.000
260.303; -118.625; -768.000; -687.000
260.445;  -88.475; -609.000; -613.000
260.586;   18.075;  392.000;  157.000
260.728;  -32.025; -360.000; -248.000
260.869;  -70.300; -350.000; -343.000
261.011;   82.950;  706.000;  537.000
261.152;  -61.175; -479.000; -319.000
261.293;  -80.050; -576.000; -595.000
261.435;  -32.025; -219.000; -184.000
261.576;  -50.425; -455.000; -325.000
261.718;   45.650;  420.000;  470.000
261.859; -123.900; -940.000; -949.000
262.000; -133.650; -951.000;-1016.000
262.142;  -13.750;  -52.000;  -60.000
262.283; -115.850; -808.000; -691.000
262.424;  -78.975; -666.000; -625.000
262.566; -149.875;-1161.000; -983.000
262.707; -113.000; -840.000; -830.000
262.848; -121.400; -769.000; -726.000
262.990;  -39.325; -362.000; -345.000
263.131;   84.825;  650.000;  681.000
263.272;   -5.475;  -61.000;  -41.000
263.413; -100.050; -589.000; -561.000
263.555;  -63.975; -669.000; -143.000
263.696;  -89.975; -550.000; -641.000
263.837;  -63.525; -449.000; -551.000
263.978;   -4.850;   -5.000;  -77.000
264.119;  -42.350; -283.000; -264.000
264.261; -128.175; -847.000; -630.000
264.402;  -10.425;   33.000;   40.000
264.543;  -79.800; -509.000; -524.000
264.684;   -4.025;   61.000;  -50.000
264.825;  -79.775; -816.000; -538.000
264.966;  -10.950;  -84.000;  -67.000
265.107; -114.800; -646.000; -670.000
265.248; -115.925; -825.000; -812.000
265.390;  -15.575;  152.000;   -9.000
265.531;  -17.800; -238.000; -107.000
265.672;  -79.950; -557.000; -630.000
265.813;   69.475;  563.000;  439.000
265.954; -152.600; -959.000; -940.000
266.095;  -11.575; -372.000; -322.000
266.236;  -93.600; -686.000; -548.000
266.377;  -42.500; -243.000; -297.000
266.518;  -87.500; -619.000; -547.000
266.659;   36.675;  170.000;  268.000
266.800;   14.575;   83.000;   85.000
266.941;  -75.750; -487.000; -478.000
267.082;   33.550;  354.000;   99.000
267.223;  -59.100; -344.000; -273.000
267.364; -113.675; -892.000; -686.000
267.504;   -9.150;    3.000;  135.000
267.645;    1.725;  160.000;   67.000
267.786;  -31.825; -147.000;  -86.000
267.927;  -76.975; -473.000; -379.000
268.068;   -9.475; -186.000;  -61.000
268.209;  -50.800; -175.000; -413.000
268.350;  -55.725; -388.000; -532.000
268.490;  -86.450; -648.000; -521.000
268.631;   36.375;  127.000;  225.000
268.772; -116.200; -874.000; -647.000
268.913;  -38.775; -328.000; -476.000
269.054;  -12.725; -117.000;   12.000
269.194;  -49.750; -418.000; -402.000
269.335; -168.600;-1137.000;-1074.000
269.476;    0.325;   33.000;  -35.000
269.617;  -45.450; -347.000; -392.000
269.757;  -85.900; -713.000; -646.000
269.898; -112.350; -856.000; -613.000
270.039;  -56.425; -415.000; -405.000
270.180; -128.350; -952.000; -816.000
270.320;  -24.600; -190.000; -250.000
270.461;  -38.100; -277.000; -249.000
270.602;  -14.375; -186.000; -156.000
270.742; -118.200; -868.000; -943.000
270.883;  -60.475; -442.000; -390.000
271.023;  -49.350; -358.000; -357.000
271.164;  -65.075; -607.000; -528.000
271.305;  -98.500; -666.000; -654.000
271.445;  -97.925; -722.000; -683.000
271.586;  -74.600; -462.000; -283.000
271.726;  -39.200; -397.000; -322.000
271.867;  -63.500; -594.000; -534.000
272.008;  193.950; -473.000; -285.000
272.148;  149.675;  462.000;  468.000
272.289;   29.625; -113.000; -181.000
272.429;   26.100;   19.000;  185.000
272.570;  -82.025; -633.000; -737.000
272.710;  -92.475; -825.000; -775.000
272.851;  -22.925;  113.000; -130.000
272.991; -154.800;-1173.000;-1077.000
273.131;  -76.650; -419.000; -459.000
273.272;  -90.975; -683.000; -723.000
273.412;   17.925; -143.000;  -31.000
273.553;  -64.150; -488.000; -507.000
273.693;  128.550;  913.000;  858.000
273.834;  -79.575; -894.000; -692.000
273.974;  -73.100; -664.000; -615.000
274.114;  -93.200; -772.000; -560.000
274.255;   73.750;  414.000;  373.000
274.395;   13.600; -180.000; -125.000
274.535;   38.000;  199.000;  350.000
274.676;   32.550;  225.000;   94.000
274.816;   15.275;  110.000;   34.000
274.956;  -86.000; -624.000; -690.000
275.097;  -57.975;-1014.000; -922.000
275.237; -114.250; -913.000; -803.000
275.377; -102.050; -778.000; -689.000
275.517; -147.975; -878.000; -937.000
275.658;  -48.075; -590.000; -555.000
275.798;  -60.975; -606.000; -413.000
275.938;   37.550;  215.000;  323.000
276.078;  -86.350; -626.000; -395.000
276.218;    7.650;   99.000;  104.000
276.359; -119.075;-1026.000;-1024.000
276.499;  -62.500; -605.000; -446.000
276.639;  -29.625; -305.000; -151.000
276.779;  -37.950; -475.000; -357.000
276.919;  -97.275; -783.000; -624.000
277.059;  -12.425; -261.000; -212.000
277.199;  -41.225; -357.000; -259.000
277.340;   68.700;  287.000;  175.000
277.480; -115.625; -840.000; -693.000
277.620;   27.575;  192.000;   16.000
277.760; -197.675;-1533.000;-1294.000
277.900;   29.600;  113.000;   33.000
278.040;   25.075;  137.000;  159.000
278.180;   50.400;  270.000;  170.000
278.320;    3.950;   21.000;   56.000
278.460;  -71.625; -443.000; -469.000
278.600; -102.625; -708.000; -598.000
278.740;   72.150;  448.000;  224.000
278.880;   -5.100; -768.000; -791.000
279.020;    5.950; -194.000; -144.000
279.160;  -98.600; -672.000; -595.000
279.300; -115.350; -926.000; -873.000
279.440;  -90.250; -709.000; -622.000
279.579;  -10.075;-1014.000; -929.000
279.719;  -45.700; -410.000; -394.000
279.859;   85.450;   -4.000;   41.000
279.999;   32.050; -208.000;  101.000
280.139;   -0.175; -435.000; -387.000
280.279;  -78.350; -708.000; -745.000
280.419;   -5.850; -229.000; -147.000
280.559;  -20.525; -259.000; -180.000
280.698;  -71.375; -790.000; -639.000
280.838;  -84.050; -778.000; -800.000
280.978;  -94.800; -846.000; -790.000
281.118; -110.725; -811.000; -704.000
281.257;   14.400;   24.000;    6.000
281.397;  -88.875;-1094.000; -960.000
281.537;  -71.775; -599.000; -712.000
281.677;  -24.750; -150.000; -101.000
281.816;  -76.025; -700.000; -630.000
281.956;  -39.000; -193.000; -257.000
282.096;  -59.400; -539.000; -396.000
282.235;  -94.075; -672.000; -638.000
282.375;   -9.125; -243.000;  -98.000
282.515;  -91.675; -715.000; -707.000
282.654;   49.950;   29.000;  106.000
282.794;   24.475;  388.000;  244.000
282.934;  -54.075; -530.000; -491.000
283.073; -119.350;-1030.000; -857.000
283.213;  -46.000; -460.000; -467.000
283.353;  -17.575; -408.000; -349.000
283.492;  -14.675; -264.000; -296.000
283.632;  -39.325; -254.000; -168.000
283.771;  -92.500; -859.000; -730.000
283.911;  -50.125; -369.000; -260.000
284.050; -107.250; -794.000; -748.000
284.190; -148.525;-1229.000;-1096.000
284.329; -138.775;-1055.000; -964.000
284.469;  -46.900; -516.000; -591.000
284.608;  -41.375; -559.000; -598.000
284.748;  -80.675; -614.000; -570.000
284.887;   11.925;  -87.000;  -20.000
285.027; -114.350; -844.000; -892.000
285.166;  -15.675; -192.000; -249.000
285.306;   17.625; -116.000;  -33.000
285.445;  -39.500; -229.000; -343.000
285.584;  -83.900; -630.000; -494.000
285.724;  -41.200; -282.000; -322.000
285.863; -114.575; -857.000; -507.000
286.002;  -39.325; -366.000; -276.000
286.142; -107.675; -715.000; -622.000
286.281;  -64.600; -525.000; -493.000
286.420;  -72.125; -554.000; -417.000
286.560;   90.550;  653.000;  623.000
286.699; -135.150; -958.000; -912.000
286.838;  -76.500; -590.000; -591.000
286.978;  -88.025; -533.000; -537.000
287.117; -117.400;-1085.000; -950.000
287.256;  -28.100; -228.000; -211.000
287.395;  -47.275; -197.000; -378.000
287.535;  -46.225; -370.000; -298.000
287.674;  -55.025; -509.000; -484.000
287.813;   52.025;  661.000;  533.000
287.952; -121.850;-1010.000; -871.000
288.091; -141.350;-1049.000; -915.000
288.231;   17.225;   13.000;   15.000
288.370; -166.025;-1217.000;-1200.000
288.509;  -83.325; -728.000; -645.000
288.648;  -93.700; -770.000; -548.000
288.787;  -23.700; -243.000;  -87.000
288.926;  -53.450; -454.000; -475.000
289.065;  147.600;  859.000;  672.000
289.204;  -45.750; -377.000; -217.000
289.344;  -67.350; -791.000; -690.000
289.483;   29.875;  416.000;  304.000
289.622;  -14.900; -291.000; -149.000
289.761;  -19.675; -309.000; -166.000
289.900; -107.100; -785.000; -626.000
290.039;  -16.400;  -12.000;  -95.000
290.178;  -34.575; -274.000; -180.000
290.317;  -66.625; -618.000; -479.000
290.456;  -65.975; -463.000; -451.000
290.595; -144.850; -961.000; -833.000
290.734; -130.600; -904.000; -891.000
290.873;  -69.725; -456.000; -420.000
291.011;  -93.550; -833.000; -843.000
291.150;  -86.350; -770.000; -682.000
291.289;   -4.475; -343.000; -110.000
291.428;  -98.000; -599.000; -480.000
291.567;  -48.200; -370.000; -442.000
291.706;  -15.650;  109.000;  154.000
291.845;  -69.100; -597.000; -505.000
291.984; -154.150;-1234.000;-1061.000
292.122;   88.125;  602.000;  582.000
292.261;   54.575;  620.000;  463.000
292.400;   14.675; -144.000;  211.000
292.539; -119.200; -959.000; -813.000
292.678;  -19.725; -325.000; -300.000
292.816; -164.350;-1136.000; -965.000
292.955;  -72.750; -844.000; -684.000
293.094;  -21.025; -173.000; -337.000
293.233;  -43.825; -556.000; -400.000
293.371;  -32.950; -225.000;  -84.000
293.510;  -91.600; -866.000; -780.000
293.649; -122.950; -959.000; -924.000
293.787;  -30.700;-1083.000;-1012.000
293.926;    0.575; -113.000;  -32.000
294.065;  -31.325; -379.000; -290.000
294.203;   59.425;  298.000;  406.000
294.342;   33.975;   74.000;  156.000
294.481; 5617.775;51180.000; -836.000
294.619;  -16.875; -425.000; -582.000
294.758; -130.900;-1230.000;-1137.000
294.896;   98.575; -125.000;    5.000
295.035; -104.925;-1040.000;-1006.000
295.174; -113.800;-1082.000; -954.000
295.312;  -37.150; -323.000; -203.000
295.451;   23.200; -307.000; -428.000
295.589;  -35.400; -389.000; -518.000
295.728;   25.475; -292.000; -165.000
295.866;   22.900;  -36.000;  -51.000
296.005;  -55.175; -584.000; -341.000
296.143;  -65.575; -558.000; -596.000
296.282;  -93.700; -957.000; -881.000
296.420;  -70.575; -657.000; -557.000
296.559;  -63.800; -892.000; -633.000
296.697;   74.500; -847.000; -665.000
296.835;  140.925;-1141.000;-1002.000
296.974;   57.150;  -23.000;   39.000
297.112;   47.300; -443.000; -504.000
297.251;  -65.800; -815.000; -755.000
297.389;  147.275; -576.000; -438.000
297.527;   53.975; -145.000;  -83.000
297.666;  -36.075; -486.000; -438.000
297.804;  -45.100; -404.000; -264.000
297.942;    7.075; -136.000; -161.000
298.081;   22.325; -183.000;   63.000
298.219;  112.575;  -17.000;  -19.000
298.357;   81.150; -144.000;  -71.000
298.495;   72.650; -810.000; -812.000
298.634;  114.725;  245.000;  219.000
298.772;  106.500; -220.000; -338.000
298.910;  -37.475; -309.000; -182.000
299.048;   -9.900; -130.000; -153.000
299.187;  -35.675; -350.000; -250.000
299.325;   30.025;   52.000;  122.000
299.463;   94.425; -389.000; -299.000
299.601;  183.450; -327.000; -271.000
299.739;  -75.475; -908.000; -883.000
299.877;  -68.125; -791.000; -703.000
300.016;  -25.675;-1095.000; -935.000
300.154;  207.375;  -19.000; -161.000
300.292;  106.000; -428.000; -348.000
300.430;   71.000; -408.000; -291.000
300.568;  -79.700; -940.000; -874.000
300.706;  -22.900; -366.000; -469.000
300.844;  -60.450;-1108.000; -979.000
300.982;  147.525;  246.000;  282.000
301.120;  -97.975; -965.000; -866.000
301.258;  -51.150; -812.000; -705.000
301.396;   52.700;  104.000;  -41.000
301.534;  151.000; -218.000; -293.000
301.672;   35.075; -664.000; -521.000
301.810;   90.725; -613.000; -545.000
301.948;  152.750;   53.000;  149.000
302.086;  787.900; -250.000;  -32.000
302.224; 1231.500; -610.000; -585.000
302.362;   89.825; -558.000; -622.000
302.500;   23.350; -923.000; -893.000
302.638;  138.850;  128.000;  245.000
302.776;   15.225; -352.000; -408.000
302.913;   53.425;  447.000;  236.000
303.051;   18.700;  -86.000;  -23.000
303.189;   72.525;   90.000;  118.000
303.327;  -31.700; -341.000; -256.000
303.465;  -69.700; -832.000; -588.000
303.603; -104.000; -805.000; -604.000
303.740;  127.375;  417.000;  241.000
303.878;   62.775; -800.000; -759.000
304.016;  -78.350; -915.000; -790.000
304.154; -107.450;-1123.000;-1152.000
304.291;  -20.975; -505.000; -554.000
304.429;    8.800;  102.000;   74.000
304.567; -114.300; -908.000; -893.000
304.705;  -40.150; -408.000; -515.000
304.842;  147.300; -616.000; -540.000
304.980;   75.275;  215.000;   35.000
305.118;   88.250; -367.000; -365.000
305.255;  -36.550; -945.000; -927.000
305.393;   69.100;  178.000;  239.000
305.531;  -84.925;-1173.000; -956.000
305.668;  -56.375; -663.000; -582.000
305.806;  135.525; -358.000; -439.000
305.943;  149.900; -629.000; -637.000
306.081;   78.375; -378.000; -267.000
306.219;  -86.875; -863.000; -748.000
306.356;    0.750;  158.000;   27.000
306.494;  112.225;  981.000;  761.000
306.631;  -13.150;  -11.000;  -55.000
306.769;   26.100; -613.000; -485.000
306.906;  -14.700; -284.000; -258.000
307.044;  -41.875; -473.000; -488.000
307.181;  -64.000; -410.000; -332.000
307.319;   21.925;  112.000;   87.000
307.456; -167.675;-1191.000;-1153.000
307.594;  -88.775; -980.000; -727.000
307.731;  -11.500; -371.000; -164.000
307.868;    1.975;  -15.000;   20.000
308.006; -132.650; -961.000; -847.000
308.143;  -53.175; -618.000; -330.000
308.281;  173.275;  -37.000; -254.000
308.418;    5.800; -748.000; -640.000
308.555;  -65.550; -400.000; -250.000
308.693;  -60.550; -577.000; -573.000
308.830; -101.750; -712.000; -657.000
308.967;   -7.750; -215.000;  -95.000
309.105;  -41.875; -507.000; -396.000
309.242;   35.225; -468.000; -367.000
309.379;  343.575; -577.000; -655.000
309.517;  -33.625; -936.000; -948.000
309.654; -105.450; -910.000; -734.000
309.791;  -48.775; -662.000; -580.000
309.928; -110.700; -977.000; -914.000
310.065;  201.900;  819.000;  697.000
310.203;   18.975; -825.000; -850.000
310.340;   30.950; -465.000; -321.000
310.477;  -63.875; -412.000; -516.000
310.614;  -47.500; -383.000; -473.000
310.751;  -73.500; -427.000; -518.000
310.889;   -4.525;    1.000;   11.000
311.026; -138.150;-1161.000; -939.000
311.163;  -30.200; -386.000; -380.000
311.300;  -67.275; -512.000; -479.000
311.437;  -65.025; -658.000; -619.000
311.574; -143.450;-1226.000; -985.000
311.711;  -52.250; -595.000; -433.000
311.848;  -28.875; -380.000; -388.000
311.985;   30.925;  270.000;   93.000
312.122; -103.300; -932.000; -762.000
312.259; -115.800; -941.000; -994.000
312.396;  -77.300; -508.000; -551.000
312.533;  -73.125; -812.000; -790.000
312.670; -129.000;-1070.000; -898.000
312.807;  -21.925; -352.000; -367.000
312.944;  -60.100; -513.000; -611.000
313.081;  -26.725; -150.000; -415.000
313.218;  -94.925;-1111.000; -867.000
313.355;   38.275; -531.000; -449.000
313.492;   38.300; -455.000; -292.000
313.629;  159.350;  815.000;  735.000
313.766; -152.175;-1176.000;-1008.000
313.902;    0.025; -186.000;   21.000
314.039;  -53.325; -372.000; -289.000
314.176;   47.525;  286.000;  192.000
314.313;  -79.375; -569.000; -473.000
314.450;  -48.150; -788.000; -684.000
314.587;  -52.225; -468.000; -480.000
314.723;   18.800;  -78.000;  130.000
314.860;   45.725;  318.000;  332.000
314.997;   48.850;  223.000;  142.000
315.134;  -35.475; -385.000; -368.000
315.270;  -19.850; -480.000; -496.000
315.407; -109.250;-1094.000; -967.000
315.544;  -33.250; -657.000; -538.000
315.681;  -59.025; -681.000; -565.000
315.817;   53.600; -133.000; -176.000
315.954;   44.750; -613.000; -392.000
316.091; -103.100;-1045.000;-1023.000
316.227;  -18.425;  -71.000; -179.000
316.364;    7.250;   23.000;    6.000
316.500;  -33.700; -113.000; -300.000
316.637;  -29.950; -181.000; -302.000
316.774;  -81.775; -625.000; -358.000
316.910;  -91.650; -598.000; -629.000
317.047;  -57.500; -487.000; -351.000
317.183;  -41.325; -435.000; -566.000
317.320;  -27.225; -367.000; -321.000
317.456;  -77.000; -733.000; -805.000
317.593;  -89.375; -598.000; -641.000
317.729;   23.750;  168.000;  -67.000
317.866; -200.700;-1434.000;-1285.000
318.002;  -91.050; -708.000; -948.000
318.139;  -84.350; -883.000; -867.000
318.275;  -85.800;-1003.000; -738.000
318.412;  -67.725; -517.000; -336.000
318.548;   11.800; -751.000; -720.000
318.685;  -99.050; -985.000; -888.000
318.821;  -83.225; -762.000; -735.000
318.957;   -2.275;   34.000;  -23.000
319.094;   46.100;  297.000;  154.000
319.230;  -46.100; -756.000; -742.000
319.367;  173.175; -471.000; -520.000
319.503;   80.725; -538.000; -436.000
319.639;  -89.450; -877.000; -793.000
319.775;  -55.450; -750.000; -685.000
319.912;  -27.475; -424.000; -519.000
320.048;  -85.375;-1184.000;-1184.000
320.184;   52.075;   59.000;   70.000
320.321;  -56.550; -497.000; -467.000
320.457;   68.275;  475.000;  662.000
320.593;  -63.925; -375.000; -382.000
320.729;  -93.400; -732.000; -734.000
320.866;  -65.125; -577.000; -635.000
321.002;  -56.350; -759.000; -809.000
321.138;   -6.275; -135.000; -211.000
321.274;   95.875; -148.000; -115.000
321.410;  -14.950; -585.000; -353.000
321.546;   11.575;-1011.000; -911.000
321.683;   57.475;  400.000;  185.000
321.819;   15.825;  -48.000; -117.000
321.955; -106.200; -743.000; -722.000
322.091;  -29.175; -585.000; -540.000
322.227;    9.800; -382.000; -202.000
322.363;   -2.275; -320.000; -215.000
322.499;  -38.100; -343.000; -331.000
322.635;  182.825;  636.000;  443.000
322.771;   42.050; -139.000;   12.000
322.907;  106.725;  129.000;  327.000
323.043;  -13.950; -115.000; -206.000
323.179;  -13.150; -394.000; -363.000
323.315;   78.200; -401.000; -371.000
323.451;  163.525; -328.000; -236.000
323.587;   88.825;  -60.000;  -77.000
323.723;   44.275; -682.000; -601.000
323.859;    6.875; -258.000;  -76.000
323.995;  -12.750; -467.000; -409.000
324.131; -118.150; -967.000; -892.000
324.267;  -26.125; -254.000; -276.000
324.402; -122.325; -960.000; -983.000
324.538;    6.925; -279.000; -104.000
324.674;   28.025;  164.000;   77.000
324.810;  214.300;  226.000;  308.000
324.946;   57.450; -810.000; -658.000
325.082;  -65.675; -568.000; -475.000
325.217;    2.800;  -62.000;   16.000
325.353;  -98.550; -764.000; -659.000
325.489;  -84.350; -540.000; -506.000
325.625;  -69.300; -579.000; -525.000
325.760;   59.400;  517.000;  376.000
325.896;  -41.050; -515.000; -702.000
326.032;  -53.550; -403.000; -352.000
326.168;  -58.575; -462.000; -369.000
326.303;  -55.900; -352.000; -461.000
326.439;  -17.750; -336.000; -276.000
326.575;    6.350; -190.000;  -29.000
326.710;    6.850; -156.000;  -30.000
326.846;    4.975;  146.000;  103.000
326.982;  -94.000; -530.000; -548.000
327.117;  -78.700; -481.000; -442.000
327.253;  -79.875; -745.000; -742.000
327.388; -124.250;-1137.000;-1153.000
327.524;  -12.250; -811.000; -578.000
327.659;  -30.175;  -58.000;  -22.000
327.795;  -11.250;   69.000;   45.000
327.931;  -92.800; -723.000; -499.000
328.066;  -23.925; -417.000; -276.000
328.202;   -7.925;   12.000; -129.000
328.337;  114.075;  957.000;  713.000
328.473;   32.350;  -12.000;  -74.000
328.608;   -9.675; -256.000; -267.000
328.743;  -73.525; -799.000; -664.000
328.879;   41.025;  214.000;  114.000
329.014;  -29.525; -102.000; -122.000
329.150;  -71.000; -358.000; -483.000
329.285;  -57.675; -465.000; -466.000
329.421;  -39.675; -548.000; -246.000
329.556;  -20.800;  -36.000;   85.000
329.691;  -87.625; -633.000; -615.000
329.827;  -76.450; -626.000; -480.000
329.962;  -36.325;  131.000; -301.000
330.097;  -91.925; -673.000; -585.000
330.233;  -34.475; -410.000; -223.000
330.368; -115.775; -839.000; -628.000
330.503;   -1.575;    3.000;   98.000
330.638;   24.575;  -93.000; -125.000
330.774;  -20.275; -609.000; -530.000
330.909;  -35.375; -434.000; -244.000
331.044;  -81.525; -714.000; -708.000
331.179; -159.800;-1217.000;-1109.000
331.315;   21.450;   77.000;   20.000
331.450;   22.300;  157.000;  285.000
331.585;  -72.825; -805.000; -706.000
331.720;  -78.325; -510.000; -460.000
331.855;   -1.500;  -35.000; -102.000
331.990;  176.775;   62.000;  138.000
332.126;   95.050; -110.000;   71.000
332.261;  -32.875; -379.000; -265.000
332.396;   -2.825; -135.000; -242.000
332.531; -119.175;-1074.000;-1031.000
332.666;   21.525; -519.000; -363.000
332.801; -105.000; -726.000; -807.000
332.936;  -19.600; -192.000; -122.000
333.071; -122.925; -870.000; -817.000
333.206;   16.500;  307.000;  379.000
333.341;   31.525;  344.000;  418.000
333.476;  -80.025; -627.000; -623.000
333.611;  -28.775; -251.000; -173.000
333.746;  -28.725; -381.000; -464.000
333.881; -103.675; -973.000; -935.000
334.016; -113.975; -936.000; -917.000
334.151; -107.300; -746.000; -702.000
334.286;   47.050;  152.000;  186.000
334.421;    4.600; -125.000; -178.000
334.556;  -56.650; -611.000; -567.000
334.690;  -65.500; -631.000; -577.000
334.825;   63.475;  381.000;   83.000
334.960;  -38.525; -285.000; -413.000
335.095;   34.100;  135.000;  -91.000
335.230;  -83.550; -722.000; -738.000
335.365; -108.075;-1084.000; -990.000
335.499; -106.450;-1108.000;-1037.000
335.634;   53.725;    9.000;  534.000
335.769;  -88.750; -755.000; -720.000
335.904;  -32.100; -603.000; -561.000
336.038;  -45.825; -735.000; -657.000
336.173;  -77.825;-1206.000;-1194.000
336.308;   31.400; -116.000; -189.000
336.443;   40.025; -544.000; -634.000
336.577;  -44.350; -936.000; -787.000
336.712;  105.525;   -4.000;  -12.000
336.847;    2.175; -724.000; -607.000
336.981;  135.375; -272.000; -208.000
337.116;  374.400;  615.000;  501.000
337.250;  240.200; -434.000; -421.000
337.385;  179.150; -297.000; -208.000
337.520;   26.125; -632.000; -603.000
337.654;  -36.325; -215.000; -126.000
337.789; -114.350; -989.000; -933.000
337.923;  -32.250; -104.000; -205.000
338.058;  -56.875; -673.000; -738.000
338.192;  -11.350; -611.000; -488.000
338.327;   12.875;  -18.000; -155.000
338.461;  -66.525; -299.000; -469.000
338.596;  -72.850; -780.000; -638.000
338.730;  -99.600; -767.000; -803.000
338.865;   60.575;  -46.000; -140.000
338.999;  -75.675; -846.000; -702.000
339.134;  -20.850; -634.000; -536.000
339.268;   12.225; -741.000; -603.000
339.403;  285.325; -740.000; -775.000
339.537;   54.100; -894.000; -820.000
339.671; -112.650; -829.000; -813.000
339.806;  -78.575; -556.000; -512.000
339.940;    1.300; -261.000; -235.000
340.074;  -81.900; -685.000; -510.000
340.209;  -35.100; -351.000; -230.000
340.343;  -81.050; -517.000; -573.000
340.477;  159.450;  998.000; 1036.000
340.612;  -73.850;-1033.000; -900.000
340.746;   86.925; -199.000; -243.000
340.880;  -40.950; -924.000; -785.000
341.014;   -9.225;  -45.000; -154.000
341.149; -119.525; -756.000; -718.000
341.283;  -93.000; -839.000; -754.000
341.417;  -60.375;-1124.000; -938.000
341.551;  254.625; -768.000; -708.000
341.685;  -10.350; -633.000; -611.000
341.820;  -45.275; -562.000; -493.000
341.954;  -52.150; -218.000; -349.000
342.088; -143.525;-1102.000;-1019.000
342.222;   47.225;  565.000;  618.000
342.356;  -32.625; -395.000; -335.000
342.490;  -82.175; -880.000; -841.000
342.624;  -26.350; -339.000; -242.000
342.758;   26.575; -364.000; -312.000
342.892;  -32.025; -710.000; -585.000
343.026;  -23.275;  -58.000; -116.000
343.160;  -52.650; -426.000; -376.000
343.294;  -67.575; -474.000; -337.000
343.428;    6.325; -488.000; -448.000
343.562;   -0.525; -172.000;  -23.000
343.696;   -9.500; -385.000; -314.000
343.830;   -0.475; -362.000; -356.000
343.964;   37.350; -231.000; -168.000
344.098; 1238.725;  199.000;   70.000
344.232; 1037.925; -266.000; -127.000
344.366;  114.775; -567.000; -453.000
344.500;  115.175; -665.000; -744.000
344.634;   56.825; -324.000; -164.000
344.768;   24.575; -531.000; -341.000
344.902;   26.250;  278.000;  256.000
345.035;  -71.000; -556.000; -496.000
345.169; -123.075; -933.000; -656.000
345.303;    0.900; -308.000; -482.000
345.437;  -51.275; -826.000; -717.000
345.571;  -64.000; -675.000; -594.000
345.704;  -61.925; -309.000; -532.000
345.838;   -4.375; -331.000; -284.000
345.972;  -17.450; -543.000; -495.000
346.106;  135.250; -179.000; -190.000
346.239;  423.725; -312.000; -243.000
346.373;   39.775; -343.000; -302.000
346.507; -126.900; -950.000; -962.000
346.640;  227.950;  -30.000;   13.000
346.774;  -35.925; -650.000; -797.000
346.908;   -0.750; -138.000;  -11.000
347.041;  -94.400; -646.000; -593.000
347.175;   10.325;  259.000;   27.000
347.309;  -54.850; -698.000; -628.000
347.442;  -99.325; -883.000; -732.000
347.576;  363.425;  670.000;  668.000
347.709;  304.425; -123.000;  -52.000
347.843;  -73.650; -933.000; -825.000
347.976;   50.100;  235.000;  294.000
348.110; -175.075;-1268.000;-1186.000
348.243;  -86.675; -679.000; -772.000
348.377;   -5.100;  -26.000;   60.000
348.510;   68.250;  403.000;  540.000
348.644;  -25.500;  -37.000; -159.000
348.777;   14.475;  180.000;  191.000
348.911;  -40.325; -142.000; -112.000
349.044;  232.900;  471.000;  448.000
349.178;  267.175;-1069.000;-1006.000
349.311;  107.450;  141.000;  255.000
349.444;  -24.075; -927.000; -813.000
349.578;   -0.100; -347.000; -200.000
349.711;  -70.875; -959.000; -862.000
349.845;   39.425; -661.000; -591.000
349.978; -118.675;-1224.000;-1137.000
350.111;  -61.025; -546.000; -612.000
350.244;  -69.375; -596.000; -700.000
350.378;   35.750; -392.000; -393.000
350.511;  -56.525; -393.000; -426.000
350.644; -101.600; -808.000; -806.000
350.778;   12.500;  168.000;  104.000
350.911;   12.650;  134.000;  140.000
351.044;  -86.875; -685.000; -615.000
351.177;  -12.650; -321.000; -281.000
351.310;   -9.775;    3.000; -131.000
351.444;  -42.300; -888.000; -788.000
351.577;  144.050;  140.000;   90.000
351.710;  125.000;  593.000;  417.000
351.843;  -23.500; -165.000;  -77.000
351.976;   -6.825;  149.000;  -79.000
352.109;  -81.625; -621.000; -612.000
352.242;   10.150; -464.000; -419.000
352.376;  -19.900; -580.000; -636.000
352.509;  294.550; -437.000; -356.000
352.642;   70.950; -654.000; -604.000
352.775;  100.825; -141.000;  -98.000
352.908; -113.700; -933.000; -904.000
353.041;  -90.775; -814.000; -824.000
353.174;  -64.225; -551.000; -424.000
353.307;  -70.350; -753.000; -764.000
353.440;   85.675;  541.000;  453.000
353.573;  -94.250; -957.000;-1008.000
353.706;  -31.575; -384.000; -558.000
353.839;   -2.150; -264.000; -220.000
353.971;  -74.900; -657.000; -512.000
354.104;  -63.525; -896.000; -835.000
354.237;  -20.800; -627.000; -662.000
354.370;  -67.100; -846.000; -879.000
354.503; -165.225;-1231.000;-1308.000
354.636;  -20.800; -529.000; -348.000
354.769; -123.675; -937.000; -860.000
354.902;   18.700; -230.000; -139.000
355.034;  -15.000; -164.000; -220.000
355.167;  -16.425; -262.000; -162.000
355.300;  -89.350;-1061.000; -880.000
355.433;  776.100;  -71.000;  -14.000
355.565; 1170.225; -402.000; -384.000
355.698;  295.950; -356.000; -296.000
355.831;   25.275; -882.000; -801.000
355.964;  146.150; -285.000; -170.000
356.096;  -66.925; -856.000; -843.000
356.229;   55.625; -523.000; -530.000
356.362;  236.425; -373.000; -266.000
356.494;  487.150; -229.000; -162.000
356.627;  596.600;  269.000;  377.000
356.760;  585.750;  120.000;   53.000
356.892;  707.325; -286.000; -601.000
357.025;  827.775;  403.000;  389.000
357.157;  799.975; -167.000; -179.000
357.290;  455.425; -856.000; -713.000
357.423;  140.125; -667.000; -556.000
357.555;  163.725; -217.000; -228.000
357.688;  171.350; -483.000; -364.000
357.820;  558.000; -870.000; -877.000
357.953; 4297.675; -563.000; -589.000
358.085; 1068.625; -632.000; -612.000
358.218; 1788.125;-1131.000; -932.000
358.350;  331.325;  -58.000;  312.000
358.483;  -85.825;-1300.000;-1187.000
358.615;   56.075;-1182.000;-1078.000
358.747;   13.250;-1187.000;-1058.000
358.880;   83.500; -810.000; -744.000
359.012;   -1.200; -376.000; -202.000
359.145;  -24.425; -480.000; -511.000
359.277;   99.700; -962.000; -913.000
359.409; 3631.600;  536.000;  231.000
359.542;  980.900; -738.000; -688.000
359.674;   86.700;   46.000;   13.000
359.806;  -47.450; -565.000; -438.000
359.939;  -39.600; -617.000; -516.000
360.071;  -20.550; -583.000; -579.000
360.203;    2.225; -411.000; -364.000
360.335;   63.275;  164.000;  -16.000
360.468;  241.675; -249.000; -307.000
360.600; 2755.850; -547.000; -454.000
360.732; 2121.750; -546.000; -423.000
360.864;  300.975;-1216.000;-1044.000
360.996;  438.300; -516.000; -554.000
361.129;   93.650; -389.000; -598.000
361.261;   35.475;  110.000; -113.000
361.393;  -17.725; -252.000; -214.000
361.525;   50.725;   94.000;  244.000
361.657;  -20.200; -821.000; -703.000
361.789;   25.350; -139.000; -155.000
361.921;  373.600; -642.000; -593.000
362.053;  347.250;  524.000;  541.000
362.185;   84.625;  288.000;   72.000
362.318;  -39.725; -709.000; -705.000
362.450;  202.250;  294.000;  444.000
362.582;  300.125; -913.000; -870.000
362.714;  -16.625; -353.000; -332.000
362.846;  -71.225; -606.000; -490.000
362.978; -142.675; -941.000; -811.000
363.109;   85.000; -161.000; -260.000
363.241;  606.250; -739.000; -749.000
363.373;  341.850; -649.000; -564.000
363.505;  467.450; -186.000;  -91.000
363.637;  133.500; -787.000; -601.000
363.769; -116.675;-1067.000;-1080.000
363.901;  -40.975; -596.000; -654.000
364.033;  -94.675;-1103.000;-1062.000
364.165;   24.375; -283.000; -283.000
364.296;   66.000; -316.000; -177.000
364.428;   22.400;-1344.000;-1220.000
364.560;  -62.650; -679.000; -661.000
364.692;  -33.000; -738.000; -835.000
364.824;  435.650; -588.000; -456.000
364.955;  432.375; -402.000; -564.000
365.087;  546.700;-1097.000; -852.000
365.219;   18.000; -686.000; -816.000
365.351;  -65.125; -526.000; -572.000
365.482;   67.625;  300.000;  240.000
365.614;  -26.625; -402.000; -314.000
365.746;  -84.650; -729.000; -752.000
365.877; -102.725; -706.000; -672.000
366.009;  200.350;  -35.000;  -62.000
366.141; -110.700;-1249.000;-1134.000
366.272; -115.800; -803.000; -719.000
366.404;  -97.475;-1005.000; -874.000
366.535;    5.125; -139.000;  -12.000
366.667; -105.350; -644.000; -649.000
366.799;   46.650;  353.000;  203.000
366.930;  -97.050; -862.000; -996.000
367.062;  132.475; -639.000; -613.000
367.193;   61.900; -872.000; -842.000
367.325;  -54.450; -580.000; -684.000
367.456;  134.550; -246.000;   31.000
367.588;  129.625; -371.000; -318.000
367.719;   17.875;  -44.000;  -45.000
367.851;    4.200; -222.000; -241.000
367.982;  -17.475; -875.000; -732.000
368.113;  172.975; -475.000; -358.000
368.245; -109.225; -960.000; -841.000
368.376;    2.050; -254.000; -302.000
368.508;  -17.750; -188.000; -263.000
368.639; -112.650;-1166.000;-1034.000
368.770;   13.875; -670.000; -589.000
368.902;  -23.650; -836.000; -926.000
369.033; -100.625; -906.000; -855.000
369.164;  -51.300; -720.000; -653.000
369.296; -103.550; -452.000; -601.000
369.427;   36.400; -209.000; -144.000
369.558;  -28.875; -593.000; -377.000
369.689;  -73.000; -721.000; -569.000
369.821; -138.350; -951.000; -845.000
369.952;   -8.450;   42.000; -108.000
370.083;  -46.325; -229.000; -108.000
370.214;  -80.275; -735.000; -650.000
370.345;    4.650;   65.000;   81.000
370.477;  -64.200; -810.000; -790.000
370.608;  341.850; -328.000; -264.000
370.739;    8.625;-1233.000;-1292.000
370.870;    7.075;-1102.000; -923.000
371.001;  161.475; -378.000; -467.000
371.132;  -61.650; -754.000; -735.000
371.263;   -3.650;  -42.000; -148.000
371.394; -110.350; -841.000; -748.000
371.525;   48.750;  345.000;  225.000
371.657;  -80.850; -808.000; -670.000
371.788;   91.125;  103.000;  199.000
371.919;  260.800; -384.000; -304.000
372.050; 4696.650;  -91.000; -156.000
372.181; 1430.575; -188.000; -294.000
372.311;  542.250;   42.000; -127.000
372.442;   68.850; -457.000; -451.000
372.573;    2.675; -444.000; -340.000
372.704; -103.575;-1008.000; -980.000
372.835;  141.550; -228.000; -289.000
372.966;  -31.950; -646.000; -554.000
373.097;  -31.400; -575.000; -711.000
373.228;   -5.875; -717.000; -542.000
373.359;  246.650; -824.000; -536.000
373.490; 1299.150; -881.000; -727.000
373.620; 1620.200;-1001.000; -803.000
373.751; 2439.300; -332.000; -396.000
373.882; 1140.150; -663.000; -733.000
374.013;  120.450; -449.000; -262.000
374.143;  -14.000; -581.000; -659.000
374.274;  -80.300; -987.000; -908.000
374.405;  252.025; -388.000; -276.000
374.536;  611.175; -526.000; -387.000
374.666; 1603.700; -759.000; -807.000
374.797;  360.725; -817.000; -868.000
374.928; 1254.225; -710.000; -560.000
375.058; 1233.025; -535.000; -500.000
375.189;  130.325;  -59.000;  -93.000
375.320;  -84.125; -928.000;-1034.000
375.450;  -18.025; -625.000; -616.000
375.581;  -35.400; -526.000; -436.000
375.712;  -19.125; -574.000; -250.000
375.842;  463.200; -438.000; -415.000
375.973;  345.150; -554.000; -513.000
376.103;    4.850; -665.000; -648.000
376.234;  -72.975; -531.000; -552.000
376.364;    3.275; -944.000; -867.000
376.495;  413.950;  925.000;  529.000
376.625;   63.625; -472.000; -485.000
376.756;  137.625; -709.000; -678.000
376.886;  -40.575;-1178.000;-1026.000
377.017;    7.925;-1048.000;-1061.000
377.147;  219.825; -786.000; -782.000
377.278;   69.400;  174.000;  228.000
377.408; -118.350; -801.000; -815.000
377.538;  -97.825; -707.000; -693.000
377.669;  -84.125; -537.000; -613.000
377.799;  -37.775; -645.000; -635.000
377.929;  -21.550; -610.000; -428.000
378.060;  -98.325; -781.000; -847.000
378.190;  -60.925; -726.000; -531.000
378.320;  -37.625; -401.000; -406.000
378.451;    0.800; -131.000;  -22.000
378.581;   22.775;  -67.000; -110.000
378.711;  210.150; 1035.000;  866.000
378.841;   16.125; -533.000; -675.000
378.972;  -25.850; -871.000; -751.000
379.102;   41.100; -652.000; -579.000
379.232;   -0.550; -126.000;  -73.000
379.362;  -69.725;-1001.000; -885.000
379.492;   58.075; -373.000; -424.000
379.623;  156.275;    0.000;  111.000
379.753;  -76.100;-1107.000; -974.000
379.883;  278.075;   59.000;  156.000
380.013;   77.875;-1081.000;-1017.000
380.143;  -69.450;-1097.000;-1056.000
380.273;  -79.150; -985.000; -861.000
380.403;   14.925; -344.000; -257.000
380.533;   26.250; -651.000; -664.000
380.663;  113.950;  173.000;  128.000
380.793;  -45.100;-1027.000;-1074.000
380.923;    5.875; -103.000;  -34.000
381.053;  -76.475; -613.000; -623.000
381.183;  -11.750; -106.000; -248.000
381.313;   88.150; -656.000; -470.000
381.443;  105.175; -692.000; -473.000
381.573;  325.500; -402.000; -409.000
381.703;  489.200;-1249.000;-1095.000
381.833;  -79.700;-1454.000;-1336.000
381.963;  158.775; -134.000;  -87.000
382.093; 1753.400; -925.000; -909.000
382.223;  566.350; -713.000; -602.000
382.353;   19.850; -801.000; -608.000
382.482;  585.550;-1091.000; -964.000
382.612;  989.600; -872.000; -644.000
382.742;  588.125; -695.000; -622.000
382.872;  426.125; -565.000; -551.000
383.002;  105.475;  347.000; -132.000
383.131;   -0.350; -226.000; -160.000
383.261;  -21.475; -706.000; -768.000
383.391;  286.175; -552.000; -377.000
383.521; 2299.925;  451.000;  263.000
383.650;  464.600; -947.000; -904.000
383.780;  -20.800; -783.000; -656.000
383.910;  125.100;  880.000;  802.000
384.039;   71.025; -794.000; -656.000
384.169;  346.350;-1205.000;-1017.000
384.299;   22.475; -650.000; -662.000
384.428;  -60.225; -764.000; -680.000
384.558;  -30.225; -308.000; -275.000
384.687;   -8.200; -414.000; -334.000
384.817;   52.400;   75.000;   -2.000
384.947;   62.675; -234.000; -141.000
385.076;  368.575;  982.000;  912.000
385.206;  138.950;  369.000;  480.000
385.335;   14.025; -549.000; -417.000
385.465;  -60.375; -655.000; -663.000
385.594;  208.100;  -53.000;  -44.000
385.724;  649.500; -868.000; -838.000
385.853;  203.550; -296.000; -270.000
385.982; 1905.600; -743.000; -787.000
386.112; 2969.225;-1052.000; -871.000
386.241;  225.325; -307.000; -312.000
386.371;   50.450; -174.000;  -87.000
386.500;   27.250; -825.000; -789.000
386.629;   42.550; -874.000; -817.000
386.759;   75.400;  -43.000;   68.000
386.888;   37.600; -170.000; -250.000
387.017;  -56.725; -648.000; -620.000
387.147;  -50.750; -771.000; -798.000
387.276;   46.375; -410.000; -397.000
387.405;   51.600; -398.000; -342.000
387.535;  -18.250; -452.000; -361.000
387.664;  -42.900; -692.000; -620.000
387.793;   90.225; -198.000; -113.000
387.922;  742.650;  255.000;  200.000
388.052;   79.375; -576.000; -423.000
388.181;   89.575; -342.000; -472.000
388.310;   99.025; -889.000; -710.000
388.439;   21.775; -749.000; -742.000
388.568;  284.750;  365.000;  244.000
388.697; 1529.850; -756.000; -653.000
388.826;  344.175; -768.000; -666.000
388.956;  135.550; -285.000; -307.000
389.085;  -13.200; -347.000; -287.000
389.214;  -95.575; -842.000; -872.000
389.343;  -54.850; -645.000; -413.000
389.472;  335.200;  126.000;  149.000
389.601;  480.675;   91.000;    0.000
389.730;   54.125; -568.000; -687.000
389.859;  105.200;  226.000;   46.000
389.988;  301.325; -423.000; -408.000
390.117;  197.000; -168.000; -146.000
390.246;   23.600; -331.000; -320.000
390.375;  205.975; -673.000; -626.000
390.504;  -38.700; -703.000; -621.000
390.633;  -79.950; -672.000; -726.000
390.761;  -32.725; -732.000; -645.000
390.890;   71.450;   -4.000; -130.000
391.019;   26.925; -421.000; -441.000
391.148; -107.400; -826.000; -855.000
391.277;  -39.725; -576.000; -493.000
391.406;  -40.800; -821.000; -805.000
391.534;   43.150;  574.000; -301.000
391.663;  -38.525; -583.000; -645.000
391.792;  -59.925; -673.000; -701.000
391.921;  210.775;   -3.000;   15.000
392.050;  330.375; -287.000; -228.000
392.178;   12.475;-1206.000;-1061.000
392.307;  241.975; -758.000; -712.000
392.436;  140.675; -427.000; -641.000
392.564;   49.900;  166.000;   -6.000
392.693;  -71.025; -860.000; -682.000
392.822;  338.475; -529.000; -534.000
392.950;  185.800; -880.000; -714.000
393.079;  475.525; -188.000; -328.000
393.208;   58.825; -488.000; -511.000
393.336;   -6.825; -170.000; -145.000
393.465;  -36.525; -317.000; -199.000
393.593;   23.275;   62.000;   79.000
393.722; -159.425;-1121.000; -916.000
393.850;  -11.250; -188.000;  -61.000
393.979; -152.200; -926.000; -805.000
394.107;  -63.450; -517.000; -537.000
394.236;   -4.900; -570.000; -507.000
394.364;  221.825;  383.000;  206.000
394.493;  381.725; -911.000; -767.000
394.621;  -13.350; -955.000; -916.000
394.750;  517.900; -873.000; -923.000
394.878; 2268.625; -247.000; -149.000
395.007; 3084.675; -721.000; -807.000
395.135;  223.975; -790.000; -721.000
395.263; -106.325;-1038.000;-1040.000
395.392;   10.400;  -25.000; -107.000
395.520; -143.825; -818.000; -679.000
395.648;  -58.875; -865.000; -915.000
395.777;   21.475; -366.000; -405.000
395.905;  -33.025; -449.000; -564.000
396.033;   25.025;  217.000;  172.000
396.162;  652.300; -399.000; -453.000
396.290;  570.025;  -17.000;   -2.000
396.418;  180.075; -555.000; -514.000
396.546;  -71.075; -571.000; -466.000
396.674;  -79.500; -850.000; -878.000
396.803;   24.150;  -72.000;  -23.000
396.931;  180.800; -179.000; -199.000
397.059;  154.125;-1026.000; -989.000
397.187;  -74.600;-1026.000; -975.000
397.315; -121.750; -884.000; -649.000
397.443;  -79.375; -592.000; -443.000
397.572;  -86.000; -578.000; -424.000
397.700;   40.475; -607.000; -614.000
397.828;   30.250;  120.000;  -90.000
397.956;  -44.900; -508.000; -478.000
398.084;  -75.125; -767.000; -626.000
398.212;   69.450;  137.000;  124.000
398.340;   36.275;  -56.000;  159.000
398.468;   97.975; -390.000; -169.000
398.596; -123.200; -993.000; -953.000
398.724; -108.675; -762.000; -767.000
398.852; -159.475;-1024.000; -976.000
398.980;  -47.500; -560.000; -560.000
399.108;  -27.075; -982.000; -735.000
399.236;   74.425;   13.000;    8.000
399.363;   28.550;  222.000;  196.000
399.491;  -41.650; -404.000; -398.000
399.619; -116.150; -829.000; -800.000
399.747;  -89.300; -859.000; -771.000
399.875;   97.950;  220.000;  234.000
400.003;  -32.425; -359.000; -284.000
400.130;  -93.225; -421.000; -341.000
400.258;  -18.925;  -83.000;   38.000
400.386;  -63.675; -352.000; -168.000
400.514;  -10.750; -526.000; -587.000
400.641;  -61.300; -928.000; -802.000
400.769; -134.325; -979.000; -888.000
400.897;  -80.775; -838.000; -793.000
401.025;    7.125; -166.000; -152.000
401.152;    8.050;  220.000;   38.000
401.280;  -58.125; -430.000; -429.000
401.408; -113.075; -712.000; -576.000
401.535;  -81.775; -735.000; -758.000
401.663; -192.375;-1134.000;-1054.000
401.790;  -81.825; -514.000; -525.000
401.918;   55.575;  436.000;  405.000
402.046;   -2.875;  134.000;  122.000
402.173;  -22.775;  -18.000;    7.000
402.301;  -43.350; -519.000; -397.000
402.428;   31.450;  528.000;  383.000
402.556; -117.525;-1188.000; -913.000
402.683;  -13.825;  -20.000;   -1.000
402.811;   -4.500;  -37.000; -206.000
402.938;   -1.900;   20.000;   27.000
403.066;  312.450; -574.000; -558.000
403.193;  454.425;  299.000;  239.000
403.321;  388.050; -396.000; -574.000
403.448;  439.750;   83.000;   27.000
403.575;  206.775;  -90.000;  -46.000
403.703;  -98.450; -732.000; -557.000
403.830;  -54.950; -531.000; -496.000
403.957; -147.100;-1117.000;-1023.000
404.085;   19.475;  -61.000; -172.000
404.212;  134.525;  -50.000;   63.000
404.339;  222.850; -566.000; -306.000
404.467; 4356.425; -612.000; -524.000
404.594; 3422.975; -287.000; -227.000
404.721; 1016.725; -869.000; -764.000
404.848;   98.375; -113.000; -202.000
404.976;  -87.475; -856.000; -783.000
405.103;   -9.850;  -14.000;  -82.000
405.230;   -2.100;  190.000;  226.000
405.357;   49.475;  117.000;   44.000
405.484;  200.050;  -49.000;    5.000
405.612;   39.325; -548.000; -563.000
405.739;  -53.850; -488.000; -243.000
405.866;  101.600;  669.000;  385.000
405.993;  -32.750; -398.000; -102.000
406.120; -134.475; -801.000; -887.000
406.247;  -38.325; -323.000; -342.000
406.374;  631.825;  540.000;  629.000
406.501;  218.475; -632.000; -702.000
406.628;  -59.675; -621.000; -589.000
406.755;  -84.550; -803.000; -620.000
406.882;  -21.350; -228.000; -277.000
407.009; -102.250; -719.000; -628.000
407.136;  101.225; -480.000; -401.000
407.263;  248.825; -939.000; -829.000
407.390;  -54.925; -692.000; -614.000
407.517; -148.700;-1139.000;-1187.000
407.644;  -52.225; -332.000; -256.000
407.771;  -64.625; -249.000; -287.000
407.898;   17.500;  168.000;  328.000
408.025;  -70.050; -421.000; -313.000
408.151;   -3.675;   82.000;  153.000
408.278;  -59.025; -267.000; -216.000
408.405;  -95.850; -931.000; -899.000
408.532;  -63.300; -549.000; -542.000
408.659; -111.925; -677.000; -648.000
408.785; -200.700;-1298.000;-1170.000
408.912;  -57.250; -412.000; -296.000
409.039; -112.700; -610.000; -686.000
409.166;  -99.350; -591.000; -555.000
409.292;  -99.225; -571.000; -534.000
409.419; -117.775; -665.000; -649.000
409.546;  -79.550; -431.000; -192.000
409.672;  -99.300; -713.000; -545.000
409.799;  -22.800;  -36.000;   34.000
409.926;  -48.200; -180.000; -179.000
410.052; -165.350;-1127.000;-1091.000
410.179;  -44.100; -368.000; -392.000
410.305;  -85.800; -375.000; -493.000
410.432;  -29.225; -220.000; -333.000
410.558;  -87.375; -305.000; -380.000
410.685; -106.775; -688.000; -431.000
410.812;  -99.200; -409.000; -588.000
410.938; -133.325; -964.000; -808.000
411.065; -100.700; -671.000; -645.000
411.191;  -14.375; -189.000; -174.000
411.317; -114.250; -823.000; -742.000
411.444;  -47.425; -317.000; -246.000
411.570;  -77.225; -339.000; -294.000
411.697; -122.825; -758.000; -752.000
411.823; -175.350; -989.000; -999.000
411.949;  -19.175;  -56.000;   17.000
412.076; -118.150; -539.000; -519.000
412.202; -102.350; -758.000; -757.000
412.329; -120.275; -798.000; -752.000
412.455; -101.850; -821.000; -657.000
412.581;  -25.550;  -15.000;  172.000
412.707;  -45.075; -540.000; -457.000
412.834;   20.825;  156.000;  219.000
412.960;  -72.425; -785.000; -784.000
413.086;  -99.975; -743.000; -701.000
413.212;  203.950;  604.000;  578.000
413.339;  -38.800; -685.000; -701.000
413.465;   48.450; -364.000; -310.000
413.591;  -67.050; -757.000; -474.000
413.717;  -43.125; -358.000; -366.000
413.843; -149.450; -839.000; -861.000
413.969;  -60.300;  -47.000; -292.000
414.096;  -96.350; -679.000; -679.000
414.222;    0.350;  -33.000;   85.000
414.348;    1.575; -652.000; -385.000
414.474;  167.850;   38.000;  -52.000
414.600;  -24.450; -126.000; -144.000
414.726;  -15.625;  -96.000;  -55.000
414.852;  -66.150; -365.000; -342.000
414.978;   32.375;  104.000;  -18.000
415.104;   45.525;   38.000;   80.000
415.230;   28.725; -329.000; -330.000
415.356;   24.225; -409.000; -514.000
415.482;  200.425;   13.000;  -35.000
415.608;  231.800; -247.000; -323.000
415.734;  820.950;   67.000;   38.000
415.860;16700.525; -875.000; -767.000
415.986;12106.850; -685.000; -607.000
416.111; 1017.700; -798.000; -652.000
416.237;  202.100; -424.000; -571.000
416.363;  825.775; -765.000; -733.000
416.489; 3196.750; -324.000; -251.000
416.615;  322.225; -707.000; -742.000
416.741;  -36.225; -677.000; -784.000
416.866;  -99.800; -673.000; -736.000
416.992; -123.475; -801.000; -818.000
417.118;  -15.500;  -41.000;  -80.000
417.244;  -61.075; -798.000; -531.000
417.369;  -78.925; -801.000; -612.000
417.495;   18.875; -325.000; -254.000
417.621;  -73.925;-1015.000; -803.000
417.746;   -2.000; -579.000; -572.000
417.872;   35.325; -254.000; -144.000
417.998;   20.800; -515.000; -530.000
418.123;  783.325;-1073.000; -845.000
418.249; 4192.275; -512.000; -601.000
418.374;  544.600; -916.000; -824.000
418.500;   93.100; -383.000; -482.000
418.626;   92.175;   70.000;  -59.000
418.751;  113.175; -549.000; -448.000
418.877;  135.975; -637.000; -643.000
419.002; 1416.750; -688.000; -560.000
419.128; 9735.550; -930.000; -721.000
419.253; 2391.425; -967.000; -837.000
419.379;  285.950; -391.000; -338.000
419.504;  327.875;  325.000;  415.000
419.629;  391.825; -393.000; -212.000
419.755; 2564.575; -317.000; -254.000
419.880;15267.350;  -98.000;   67.000
420.006; 8920.700; -280.000; -221.000
420.131;23768.075; -662.000; -775.000
420.256; 3462.650; -315.000; -316.000
420.382;  449.525; -665.000; -687.000
420.507;   53.550; -649.000; -778.000
420.632;  208.325; -337.000; -339.000
420.758;  406.500; -251.000; -425.000
420.883;  -53.000; -876.000; -672.000
421.008;  -91.475; -775.000; -619.000
421.133;  -67.225; -509.000; -467.000
421.259;  -46.150; -325.000; -259.000
421.384;  -91.375; -834.000; -693.000
421.509;   17.700;-1052.000; -862.000
421.634; 1844.550; -936.000; -820.000
421.759;  818.300; -359.000; -327.000
421.885;  -26.300; -717.000; -656.000
422.010;  -43.625; -673.000; -542.000
422.135; -138.075; -695.000; -727.000
422.260;   49.550;  340.000;  280.000
422.385;  -50.775;   12.000;  -98.000
422.510;   14.600;  151.000;  -26.000
422.635;   12.000;  -87.000;  -43.000
422.760;  118.400; -766.000; -791.000
422.885;   55.925;  -57.000;  -80.000
423.010;  -20.125; -112.000; -169.000
423.135; -102.350; -481.000; -561.000
423.260;   13.600; -150.000; -245.000
423.385;   93.250;  476.000;  222.000
423.510;   51.650;   71.000;  -22.000
423.635;  114.375;  133.000;   45.000
423.760;   75.125;  383.000;  328.000
423.885;   46.450;  336.000;  391.000
424.010;   24.675;  -68.000;  -13.000
424.135;  -18.275;    5.000;  -33.000
424.259;  -69.850; -654.000; -457.000
424.384;  -59.475; -279.000; -272.000
424.509;  -14.650; -260.000; -186.000
424.634; -105.275; -761.000; -623.000
424.759;  -31.700; -688.000; -544.000
424.883;  -11.350; -506.000; -527.000
425.008;  149.225; -502.000; -410.000
425.133; 1557.275; -679.000; -653.000
425.258;  742.100; -517.000; -381.000
425.382; 1283.975; -867.000; -774.000
425.507; 3365.300; -487.000; -543.000
425.632;  496.850; -802.000; -663.000
425.756;  364.200; -256.000; -146.000
425.881; 4505.125; -831.000; -857.000
426.006;11959.750; -604.000; -355.000
426.130; 2003.900; -696.000; -508.000
426.255;  251.575; -611.000; -491.000
426.379;  112.750; -189.000; -577.000
426.504;  324.350;  660.000;  544.000
426.629; 3375.975; -519.000; -466.000
426.753; 2347.525;   64.000;  -46.000
426.878;  267.975; -252.000; -288.000
427.002;  153.325; -651.000; -668.000
427.127; 1341.375;  -35.000; -158.000
427.251; 8905.250;  372.000;  401.000
427.375; 2608.250; -191.000; -173.000
427.500; 2825.300; -616.000; -610.000
427.624;  967.925; -234.000; -400.000
427.749;  141.125; -216.000; -225.000
427.873;  -24.650; -499.000; -412.000
427.997;  -27.375; -222.000; -230.000
428.122;   77.775;  795.000;  703.000
428.246;  104.400;  433.000;  434.000
428.371;  -96.475; -869.000; -773.000
428.495;  -87.800; -624.000; -646.000
428.619;  -23.000; -186.000; -117.000
428.743;   40.175;   65.000;  132.000
428.868;   69.875; -732.000; -643.000
428.992; 1885.025; -219.000; -326.000
429.116;  794.725; -329.000; -357.000
429.240;  381.875;  419.000;  426.000
429.365;    6.275; -454.000; -574.000
429.489;   -9.600; -638.000; -647.000
429.613;   39.150; -236.000; -177.000
429.737;   36.975; -563.000; -432.000
429.861;  240.075; -247.000; -133.000
429.985; 4426.750; -425.000; -305.000
430.109; 4836.300; -770.000; -908.000
430.234;  579.750;   76.000;  -50.000
430.358;   37.800; -250.000; -160.000
430.482;  -51.000; -672.000; -564.000
430.606;  -60.125; -655.000; -375.000
430.730;   62.075; -437.000; -388.000
430.854;  228.425; -909.000; -835.000
430.978;  -43.775; -795.000; -764.000
431.102;  -70.175; -499.000; -422.000
431.226;  -95.550; -874.000; -815.000
431.350;   48.475;  345.000;  422.000
431.474;  -54.625; -661.000; -373.000
431.597; -142.550;-1060.000; -848.000
431.721;  -64.450; -276.000; -267.000
431.845; -136.825; -704.000; -472.000
431.969;  -81.275; -304.000; -349.000
432.093; -103.825; -395.000; -317.000
432.217;  -14.350;   32.000;   82.000
432.341;  -89.150; -523.000; -518.000
432.464;   19.075;   96.000;   40.000
432.588;  315.900; -401.000; -329.000
432.712;  155.775;  -52.000;  -52.000
432.836;   41.950;  213.000;  263.000
432.959;  -19.100; -372.000; -311.000
433.083;   52.825;   11.000;    2.000
433.207;  298.975;  285.000;  930.000
433.330; 3786.700; -391.000; -200.000
433.454; 4733.150; -654.000; -638.000
433.578; 2814.200;  583.000;  278.000
433.701;  549.725; -623.000; -675.000
433.825;  215.425; -292.000; -299.000
433.949;  340.950;   28.000;  -72.000
434.072;  143.425; -410.000; -323.000
434.196;   15.125; -309.000; -117.000
434.319; 3715.225;25482.000;25124.000
434.443;  724.150; -656.000; -603.000
434.566; 2100.325;  281.000;   62.000
434.690;  336.350; -637.000; -383.000
434.813;   45.850; -251.000; -173.000
434.937;  -62.750; -569.000; -696.000
435.060;   -2.950; -423.000; -332.000
435.184;  606.825; -492.000; -217.000
435.307;  322.125;  159.000;  102.000
435.431;    6.500;  -40.000;   24.000
435.554;  -65.900; -399.000; -240.000
435.677;  -76.725; -350.000; -258.000
435.801;  -43.975;  -25.000;   49.000
435.924;   25.600;    1.000;  -67.000
436.048;  -69.625;-1019.000; -732.000
436.171;  -60.100; -240.000;  -66.000
436.294;  -23.000; -248.000; -229.000
436.417;   54.450; -963.000; -849.000
436.541; -102.450; -814.000; -840.000
436.664;  -44.425; -242.000; -316.000
436.787;  -19.525;   13.000;  113.000
436.910;  -95.075; -792.000; -422.000
437.034;   31.900;  142.000;  143.000
437.157;  132.550;  -11.000;    0.000
437.280;   -6.775; -392.000; -292.000
437.403;  -28.500; -982.000; -869.000
437.526; 1096.525; -903.000; -865.000
437.649; 3713.600; -505.000; -332.000
437.772;  640.475; -692.000; -540.000
437.896;  169.350;  700.000;  544.000
438.019;  -76.700; -758.000; -503.000
438.142;  -59.375; -596.000; -506.000
438.265;   54.800; -639.000; -670.000
438.388;  893.375; -520.000; -410.000
438.511;  214.600; -597.000; -394.000
438.634;  -28.775; -247.000; -125.000
438.757; -120.725; -693.000; -619.000
438.880;  -13.100;  -34.000;  -57.000
439.003;  -74.475; -417.000; -437.000
439.126;  -67.800; -287.000; -167.000
439.248;  -77.175;  -98.000; -139.000
439.371;  -50.450;    9.000;  -53.000
439.494;   26.900;  510.000;  439.000
439.617;  -50.400;   65.000;  -88.000
439.740; -184.750; -968.000; -816.000
439.863; -133.950; -755.000; -595.000
439.986; -124.225; -476.000; -431.000
440.108;  -35.025; -161.000; -112.000
440.231; -158.850; -950.000; -836.000
440.354;  -21.650;  -64.000; -150.000
440.477;  100.750; -566.000; -542.000
440.599;   45.800; -200.000; -225.000
440.722; -115.125; -709.000; -586.000
440.845;   72.525;  751.000;  928.000
440.968; -102.625; -415.000; -311.000
441.090;  -71.350; -199.000;  -33.000
441.213; -179.600;-1021.000; -825.000
441.336;  -51.300; -159.000;   -5.000
441.458;  -63.575; -549.000; -396.000
441.581;  -58.075; -628.000; -629.000
441.703;  -64.875; -152.000;   13.000
441.826; -104.150; -557.000; -400.000
441.948;  -44.000;   56.000;   51.000
442.071;   39.700;  555.000;  424.000
442.193; -107.125; -531.000; -485.000
442.316;   27.750;  152.000;   97.000
442.438;   42.625; -233.000;  -10.000
442.561;  100.975;  272.000;  262.000
442.683;  892.350; -809.000; -522.000
442.806; 1856.600;   -8.000;   74.000
442.928;  128.725; -859.000; -604.000
443.051;  -37.500; -577.000; -373.000
443.173;  -86.600; -341.000; -339.000
443.295;  -82.425; -263.000; -371.000
443.418;  -69.100; -321.000;  -29.000
443.540;   15.250; -106.000;   -4.000
443.662; -106.900; -563.000; -465.000
443.785;   -0.650;  335.000;  199.000
443.907; -100.300; -362.000; -208.000
444.029; -123.450; -767.000; -494.000
444.152; -150.950; -644.000; -554.000
444.274;  -19.450;  -18.000;  -24.000
444.396; -109.050; -461.000; -221.000
444.518; -136.050; -691.000; -454.000
444.640; -120.250; -268.000; -111.000
444.763;  -20.800;  388.000;  249.000
444.885; -118.450; -432.000; -392.000
445.007;  -23.575;   35.000;   86.000
445.129; -105.500; -610.000; -515.000
445.251;  -99.225; -372.000; -439.000
445.373; -139.225; -537.000; -386.000
445.495;    1.650;  242.000;  350.000
445.617;   53.975;  853.000;  753.000
445.739;  -70.175; -215.000;  -97.000
445.861;  -16.725; -245.000; -112.000
445.984;   -6.525; -267.000; -101.000
446.105;  328.975; -418.000; -251.000
446.227;  918.275; -176.000;  -19.000
446.349;   55.100; -358.000; -249.000
446.471;  -68.675; -615.000; -448.000
446.593;  -50.525; -316.000;   19.000
446.715;   20.825;  -67.000;   41.000
446.837;   60.225;  697.000;  832.000
446.959;  -94.325; -457.000; -478.000
447.081; -138.725; -628.000; -518.000
447.203;   56.775;  862.000;  834.000
447.325;  -90.725; -270.000;   42.000
447.446;   -1.175;  286.000;  530.000
447.568; -146.425; -921.000; -803.000
447.690;  -76.200; -236.000; -245.000
447.812; -147.875; -798.000; -519.000
447.933;  -25.600;  155.000;  127.000
448.055;  -72.425; -306.000; -261.000
448.177;  204.275;   31.000;   79.000
448.299;  186.675; -935.000; -727.000
448.420;   52.175;  -25.000;  159.000
448.542;  -50.050;   -3.000;   33.000
448.664;  -30.475;  109.000;  322.000
448.785;  -43.925;  265.000;   83.000
448.907;  -67.325; -614.000; -353.000
449.028;  -10.100; -771.000; -471.000
449.150;   62.375;  492.000;  589.000
449.272; -176.925;-1044.000; -913.000
449.393;   25.700;  612.000;  694.000
449.515; -147.475; -634.000; -581.000
449.636;  -37.425; -264.000; -155.000
449.758;  107.775;  763.000;  622.000
449.879;  -92.325; -498.000; -396.000
450.001;  -72.275; -149.000;  -49.000
450.122;  -22.525;  -95.000;  162.000
450.244;  -17.775;   37.000;  364.000
450.365; -103.150; -495.000; -301.000
450.486;  -34.275;   80.000;  268.000
450.608;    6.900;  393.000;  326.000
450.729;   45.300;  578.000;  645.000
450.850;  -36.175; -574.000; -466.000
450.972;  504.900; -552.000; -389.000
451.093; 3523.775;  190.000;  588.000
451.214; 1490.100; -516.000; -337.000
451.336;  310.825;  773.000;  579.000
451.457;   37.025;  264.000;  393.000
451.578;  -49.700; -118.000;  -74.000
451.699; -126.600; -546.000; -540.000
451.821;  -54.575; -284.000;  -50.000
451.942;   -8.475;  278.000;  285.000
452.063;   25.075;  228.000;  419.000
452.184;  410.325;  -54.000;  -49.000
452.305;  839.775;  103.000;  170.000
452.427;   78.600; -549.000; -301.000
452.548;  -21.025;   23.000;   79.000
452.669;  -48.525; -257.000;  -89.000
452.790;  -22.575;    3.000;  -18.000
452.911;   -6.825;  195.000;  259.000
453.032;  -63.900; -289.000;  -60.000
453.153;  -23.275;  -29.000;   81.000
453.274;   62.550;  737.000;  868.000
453.395;  -61.625;  -51.000;  175.000
453.516;  136.125; 1317.000; 1388.000
453.637;  -43.775; -205.000; -150.000
453.758;  -58.900;   15.000;   69.000
453.879; -125.950; -462.000; -250.000
454.000;   84.000; 1086.000;  948.000
454.121; -101.425; -554.000; -326.000
454.242; -119.825; -599.000; -383.000
454.362;  -68.350;  -99.000;  114.000
454.483;  -31.225; -309.000; -229.000
454.604;   80.100;  512.000;  580.000
454.725; -118.600; -627.000; -555.000
454.846; -119.625; -474.000; -406.000
454.967;  -18.275;  230.000;  539.000
455.087;  -52.300;  179.000;  153.000
455.208;   28.525;  554.000;  856.000
455.329;  -65.975;  -22.000;   82.000
455.450;   36.650;  473.000;  633.000
455.570;  -88.625; -234.000; -211.000
455.691;  -31.950;  201.000;  407.000
455.812; -114.525; -270.000;  -92.000
455.932;  -61.700;  107.000;  -97.000
456.053;  -79.950;   36.000;   24.000
456.173; -109.725; -433.000; -355.000
456.294; -132.850; -476.000; -303.000
456.415;  -66.250;  -73.000;   70.000
456.535;  -22.350;  297.000;  273.000
456.656;  -31.300;  132.000;  240.000
456.776;  -87.700;    3.000;  298.000
456.897;    9.850;  308.000;  513.000
457.017;  -69.825; -153.000;   -3.000
457.138;  -94.575; -402.000; -249.000
457.258;  -20.350;  263.000;  224.000
457.379;   -3.025;  509.000;  521.000
457.499;  -38.725;  443.000;  432.000
457.620; -126.500; -407.000; -231.000
457.740; -100.325; -132.000;  -11.000
457.860;  -52.775;   87.000;   44.000
457.981;  -43.725;  132.000;  124.000
458.101;  -57.925;  -89.000;   40.000
458.221;  -26.325;  336.000;  402.000
458.342;  -73.100;   -4.000;  -37.000
458.462;   18.200;  617.000;  352.000
458.582;  -58.950; -302.000; -294.000
458.703;  -21.075;  303.000;  154.000
458.823;  -40.225;   22.000;  163.000
458.943;   20.825;  341.000;  467.000
459.063;    5.275; 1124.000;  192.000
459.183;  -29.100;  328.000;  313.000
459.304;   15.775;  315.000;  517.000
459.424;  -64.625; -246.000;  -89.000
459.544;  261.325;  388.000;  764.000
459.664;  637.100;  499.000;  506.000
459.784;  262.050; 1004.000; 1175.000
459.904;   56.925;  867.000;  744.000
460.024;   88.925;  867.000;  684.000
460.144;   10.925;  449.000;  554.000
460.264;   -1.175;  515.000;  327.000
460.385; -102.325; -145.000; -119.000
460.505;   45.825;  905.000;  858.000
460.625;  -96.450;  -17.000;  -68.000
460.745;  -34.025;  396.000;  541.000
460.864;  -47.925;  153.000;  469.000
460.984;   39.300;  499.000;  573.000
461.104;  149.200; 1656.000; 1775.000
461.224;   25.850;  657.000;  650.000
461.344;  -36.100;  431.000;  360.000
461.464;  -29.700;  258.000;  513.000
461.584;  -25.900;  283.000;  466.000
461.704;  -16.825;   58.000;  108.000
461.824;  -56.700;  238.000;  259.000
461.943;  -32.925;  191.000;  130.000
462.063;  -75.375;    2.000;  324.000
462.183;   45.700;  639.000;  717.000
462.303;   95.200; 1678.000; 1230.000
462.422;   32.150;  781.000;  840.000
462.542;  -27.275;  271.000;  391.000
462.662;   43.050;  353.000;  380.000
462.782;  189.150;  833.000;  572.000
462.901;  399.325;  545.000;  717.000
463.021;  246.075; 1702.000; 1638.000
463.141;   -7.275;  337.000;  770.000
463.260;  -26.050;  614.000;  474.000
463.380;   20.175;  902.000;  884.000
463.499;  -45.175;  342.000;  332.000
463.619;  -30.775;  581.000;  559.000
463.738;  128.600; 1644.000;  903.000
463.858;   19.950;  657.000;  811.000
463.978;  -22.225;  542.000;  396.000
464.097;   53.075;  921.000; 1114.000
464.217;   99.825; 1196.000; 1143.000
464.336;  102.500; 1068.000; 1130.000
464.455;  -48.675;  328.000;  659.000
464.575;   82.650;  597.000;  602.000
464.694;  210.875; 1204.000; 1179.000
464.814;  132.625; 1190.000; 1138.000
464.933;   86.350; 1095.000; 1027.000
465.052;  111.500; 1412.000; 1054.000
465.172;   89.100;  922.000;  799.000
465.291;  159.475; 1376.000; 1320.000
465.410;   19.825;  462.000;  735.000
465.530;   96.475; 1355.000; 1310.000
465.649;   66.650; 1209.000; 1273.000
465.768;  157.050; 1673.000; 1508.000
465.888;   48.050;  941.000; 1174.000
466.007;   95.075; 1335.000; 1440.000
466.126;  -15.075;  721.000;  641.000
466.245;   47.150; 1176.000; 1187.000
466.364;   18.600;  950.000; 1060.000
466.484;   60.350; 1024.000; 1213.000
466.603;   45.125; 1101.000; 1222.000
466.722;  145.400; 1490.000; 1769.000
466.841;  102.650; 1151.000; 1401.000
466.960;   31.850; 1069.000;  972.000
467.079;  123.925; 1971.000; 1786.000
467.198;   58.400; 1238.000; 1181.000
467.317;   83.900; 1768.000; 1162.000
467.436;   76.775; 1709.000; 1261.000
467.555;  116.825; 1796.000; 1746.000
467.674;   80.250; 1227.000; 1329.000
467.793;   48.850; 1376.000; 1374.000
467.912;  100.800; 1658.000; 1539.000
468.031;  132.300; 2038.000; 1930.000
468.150;  140.350; 1842.000; 1837.000
468.269;  197.950; 2313.000; 2090.000
468.388;  194.650; 2168.000; 2339.000
468.507;  249.400; 2884.000; 2903.000
468.626;  233.450; 2555.000; 2541.000
468.744;  141.150; 2018.000; 2174.000
468.863;  202.875; 2312.000; 2523.000
468.982;  101.150; 1503.000; 1555.000
469.101;  225.450; 2788.000; 2692.000
469.220;  142.100; 2333.000; 2176.000
469.338;  257.975; 2935.000; 3051.000
469.457;  181.175; 2719.000; 2545.000
469.576;  370.350; 3953.000; 3784.000
469.695;  254.450; 2877.000; 3066.000
469.813;  429.875; 4148.000; 4192.000
469.932;  399.875; 4255.000; 4485.000
470.051;  392.325; 4075.000; 4161.000
470.169;  741.400; 4470.000; 4338.000
470.288; 1255.075; 4700.000; 4809.000
470.406;  772.850; 5059.000; 5194.000
470.525;  622.500; 6101.000; 5787.000
470.644;  651.775; 6847.000; 6794.000
470.762;  817.575; 8397.000; 7873.000
470.881;  875.725; 8651.000; 8464.000
470.999; 1025.275; 9685.000; 9151.000
471.118; 1108.625;11174.000;10711.000

