
Integration time [ms]: 100.000
Averaging Nr. [scans]: 40
Smoothing Nr. [pixels]: 0
Data measured with spectrometer [name]: 2101012U2
Wave   ;Sample   ;Dark     ;Reference
[nm]   ;[counts] ;[counts] ;[counts] 

197.733;   71.925;  516.000;  404.000
197.879;  -74.925; -610.000; -634.000
198.025;  -46.350; -475.000; -420.000
198.171;  -57.725; -602.000; -612.000
198.317;  -25.650; -401.000; -316.000
198.463;  -59.150; -655.000; -404.000
198.609;   35.150;  181.000; -137.000
198.755;  -76.425; -644.000; -410.000
198.901;  -56.625; -505.000; -424.000
199.047;  -49.625; -615.000; -488.000
199.193;  -31.275; -230.000; -468.000
199.339;  -36.950; -222.000; -369.000
199.485;   34.575;  330.000;  271.000
199.631;   25.725;  227.000;  310.000
199.777;  -51.350; -466.000; -398.000
199.923;  -46.875; -610.000; -424.000
200.069;   -0.450; -141.000;  -58.000
200.215;   55.550;  128.000;  453.000
200.361;   46.525;  243.000;  477.000
200.507;  -59.150; -600.000; -373.000
200.653;  -13.000; -371.000; -194.000
200.798;  -27.825; -215.000; -125.000
200.944;    0.450; -146.000;  -41.000
201.090;   34.750;   61.000;  222.000
201.236;   -1.975; -116.000; -158.000
201.382;  127.875;  874.000;  903.000
201.528;    1.150;  -58.000;  -48.000
201.674;  -44.025; -386.000; -293.000
201.819;  -51.850; -540.000; -439.000
201.965;  -68.350; -699.000; -447.000
202.111;  -21.300; -273.000; -226.000
202.257;  -36.300; -250.000; -238.000
202.402;   24.125;   13.000;  -36.000
202.548;  -20.350; -169.000; -116.000
202.694;   82.975;  410.000; -183.000
202.840;  -62.925; -603.000; -531.000
202.985;  -70.425; -681.000; -639.000
203.131;  -87.675; -832.000; -666.000
203.277;  -17.700; -199.000; -262.000
203.423;  -47.025; -434.000; -520.000
203.568;  -30.975; -462.000; -237.000
203.714;  -55.375; -535.000; -542.000
203.860;  -80.325; -682.000; -641.000
204.005;   26.025;  112.000;  167.000
204.151;   89.175;  561.000;  556.000
204.296;  -40.725; -354.000; -221.000
204.442;  -57.425; -600.000; -547.000
204.588;  -64.550; -592.000; -579.000
204.733;   20.625;  178.000;  168.000
204.879; -110.175;-1018.000; -822.000
205.025;    5.000;  -99.000;  126.000
205.170;   16.125;  -17.000;   94.000
205.316;   81.300;  438.000;  661.000
205.461;  -71.775; -698.000; -554.000
205.607;   88.200;  609.000;  665.000
205.752;  -69.325; -626.000; -551.000
205.898;  -51.000; -501.000; -391.000
206.043;  -59.125; -578.000; -506.000
206.189;  -25.900; -243.000; -285.000
206.334;   85.925;  554.000;  606.000
206.480;   83.600;  409.000;  239.000
206.625;  -78.125; -529.000; -552.000
206.771;  -37.525; -451.000; -373.000
206.916;  -31.250; -210.000; -537.000
207.062;  -51.525; -545.000; -591.000
207.207;  -67.225; -546.000; -443.000
207.353;   59.425;  185.000;  460.000
207.498;   13.875;  196.000;   85.000
207.643;  -44.175; -501.000; -370.000
207.789; -117.550;-1069.000; -910.000
207.934;  -96.125; -665.000; -713.000
208.080;  -14.575; -154.000;   66.000
208.225;   -0.625;  -22.000;  -57.000
208.370;  -75.775; -727.000; -619.000
208.516;  -51.100; -741.000; -487.000
208.661;  -23.600; -127.000;  -69.000
208.806;  -16.900; -165.000; -171.000
208.952; -111.900;-1044.000; -731.000
209.097;   67.850;  378.000;  349.000
209.242;  -31.250; -307.000; -382.000
209.387;   88.750;  392.000;  350.000
209.533;  -46.700; -321.000; -350.000
209.678;   95.050;  472.000;  543.000
209.823;  -47.600; -408.000; -310.000
209.969;  -99.875; -860.000; -757.000
210.114;  -92.375; -907.000; -719.000
210.259; -107.125; -939.000; -889.000
210.404;    5.325; -171.000;  103.000
210.549;    9.000;  108.000;    3.000
210.695;   -3.325;   -3.000;  -95.000
210.840;   33.625;   94.000;   67.000
210.985;  -48.100; -484.000; -303.000
211.130;   70.425;  268.000;  406.000
211.275;   20.475;  207.000;  199.000
211.420;  -33.800; -300.000; -289.000
211.566;  -78.725; -536.000; -489.000
211.711;   29.250;  218.000;  157.000
211.856;  -64.450; -545.000; -519.000
212.001;   14.850;  151.000;   44.000
212.146;   17.075;  153.000;   49.000
212.291;  -18.075; -210.000; -186.000
212.436;  -25.575; -280.000;   -6.000
212.581;  -73.325; -685.000; -653.000
212.726;  -83.575; -487.000; -538.000
212.871;  -49.075; -552.000; -217.000
213.016; -136.225;-1172.000;-1029.000
213.161;   52.400;  406.000;  291.000
213.306;  -69.600; -435.000; -577.000
213.451;  -87.650; -778.000; -689.000
213.596;  -36.025; -455.000; -347.000
213.741;  -44.600; -448.000; -538.000
213.886;  -59.175; -498.000; -517.000
214.031;  -18.125; -294.000; -124.000
214.176;  -46.825; -408.000; -341.000
214.321;   -9.425; -296.000; -157.000
214.466;  -24.625; -163.000;  -43.000
214.611;   -5.575;  -61.000;  -10.000
214.756; -114.125; -948.000; -858.000
214.901;  -12.950; -388.000; -226.000
215.046; -108.725; -797.000; -825.000
215.191;   -1.100;  128.000;   35.000
215.336;  -11.550; -157.000;  -19.000
215.480;  -51.100; -684.000; -505.000
215.625;  -15.200; -175.000;  -19.000
215.770;  -72.925; -757.000; -662.000
215.915;    0.575;   -5.000;  -97.000
216.060;   -8.275; -113.000;  -21.000
216.205;  -94.375; -731.000; -779.000
216.349;  -71.850; -470.000; -533.000
216.494; -126.150; -939.000; -867.000
216.639;  -94.750; -823.000; -888.000
216.784;  -76.550; -577.000; -525.000
216.929;   41.825;  392.000;  281.000
217.073;    2.650; -244.000;  -31.000
217.218;    9.225;   78.000;  -47.000
217.363;  -76.750; -656.000; -618.000
217.507;  -75.625; -623.000; -588.000
217.652; -115.725; -845.000; -874.000
217.797;  -69.825; -708.000; -659.000
217.942; -106.375; -856.000; -720.000
218.086;   68.050;  608.000;  539.000
218.231;  -24.925; -174.000;  -26.000
218.376;  -21.050; -337.000; -229.000
218.520;   11.575;  -41.000;   96.000
218.665;  -27.500; -338.000; -204.000
218.810;  -37.225; -275.000; -233.000
218.954;   16.600;  201.000;   35.000
219.099; -114.500; -713.000; -963.000
219.243;  -71.000; -589.000; -554.000
219.388;  -32.125; -264.000; -136.000
219.532;   -8.850; -116.000; -116.000
219.677;  -68.300; -564.000; -521.000
219.822;    5.700;   33.000;   89.000
219.966;    1.075;   17.000;  -99.000
220.111;  -22.150; -328.000;  -40.000
220.255;  -81.675; -797.000; -750.000
220.400;  -11.450; -180.000; -146.000
220.544;  -57.350; -516.000; -450.000
220.689;  -49.550; -422.000; -451.000
220.833;   -0.775; -123.000;  -58.000
220.978;  -45.150; -393.000; -563.000
221.122;   22.675;  319.000;  307.000
221.267; -101.550; -906.000; -837.000
221.411;  -52.425; -478.000; -394.000
221.555;   -4.900; -104.000;  -23.000
221.700;  -33.200; -329.000; -222.000
221.844;   29.050;  255.000;  272.000
221.989;  -37.800; -328.000; -311.000
222.133;  -18.750; -289.000; -307.000
222.277;   -7.325;    5.000;   78.000
222.422;   24.650;  227.000;  113.000
222.566;  -33.250; -381.000; -214.000
222.711;  -63.075; -414.000; -479.000
222.855;  -69.325; -643.000; -586.000
222.999;  -75.900; -642.000; -717.000
223.144;  -24.000; -195.000; -194.000
223.288;   53.175;  423.000;  251.000
223.432;   26.550;  184.000;  230.000
223.576;   21.200;  152.000;  -21.000
223.721;   42.875;  364.000;  273.000
223.865;  -48.900; -472.000; -475.000
224.009;  242.700; 1673.000; 1631.000
224.153;  -63.575; -660.000; -671.000
224.298;  -56.750; -531.000; -489.000
224.442;  -16.150;  -74.000;  -33.000
224.586;    6.750; -169.000; -106.000
224.730;  -93.350; -858.000; -670.000
224.875; -111.175; -739.000; -688.000
225.019;   20.650;  102.000;  188.000
225.163;   54.475;  208.000;  341.000
225.307;   25.825;   97.000;  -91.000
225.451;   50.050;  360.000;  481.000
225.595;   30.125;  264.000;  176.000
225.739;  -26.725; -170.000;  -94.000
225.884;   -0.775;   86.000;    5.000
226.028; -105.050; -760.000; -626.000
226.172;  -24.225; -260.000; -273.000
226.316; -107.250; -941.000; -902.000
226.460;  -61.175; -645.000; -493.000
226.604;  -51.575; -406.000; -400.000
226.748;  -80.575; -836.000; -733.000
226.892;  -22.775; -227.000; -181.000
227.036;  -52.825; -537.000; -447.000
227.180;  -45.375; -551.000; -375.000
227.324;  -66.175; -561.000; -580.000
227.468;  -99.725; -819.000; -717.000
227.612;   19.425;  242.000;  -28.000
227.756;  -82.900; -845.000; -698.000
227.900;   49.125;  342.000;  441.000
228.044;  -51.450; -509.000; -290.000
228.188;   64.025;  448.000;  568.000
228.332;  -77.950; -546.000; -472.000
228.476;  -25.075; -223.000; -149.000
228.620;  -31.075; -210.000; -150.000
228.764;   63.825;  431.000;  349.000
228.908;  -25.475; -155.000;   30.000
229.052;  -57.100; -615.000; -528.000
229.195;   -4.700; -172.000;   13.000
229.339;  -11.925; -235.000; -305.000
229.483;  -22.750;    5.000; -162.000
229.627;   -2.250; -156.000;  139.000
229.771;  -44.825; -218.000; -294.000
229.915;   23.250;  230.000;   79.000
230.059;  -81.325; -648.000; -663.000
230.202;  -35.125; -370.000; -317.000
230.346;  -18.775; -107.000;  107.000
230.490;  -53.725; -489.000; -521.000
230.634;  -99.725; -736.000; -553.000
230.777;   60.825;  478.000;  509.000
230.921;  -46.250; -450.000; -359.000
231.065;  -32.575; -246.000; -286.000
231.209;   28.450;  261.000;  265.000
231.352;   29.450;   54.000;   40.000
231.496;    8.550;  568.000;  188.000
231.640;  -65.050; -693.000; -621.000
231.783;   63.375;  546.000;  525.000
231.927;  -36.350; -294.000; -365.000
232.071; -121.425; -962.000; -736.000
232.214; -102.050; -980.000; -764.000
232.358;  -95.800; -683.000; -599.000
232.502;    5.225;  -19.000;    7.000
232.645; -128.125;-1090.000; -927.000
232.789;  -11.725; -257.000; -218.000
232.933;  -39.575; -407.000; -224.000
233.076; -113.975;-1038.000; -897.000
233.220;  -94.200; -752.000; -777.000
233.363;  -76.425; -669.000; -477.000
233.507;   53.100;  371.000;  129.000
233.650;  -95.325; -764.000; -834.000
233.794;   65.525;  438.000;  461.000
233.938;  -54.125; -530.000; -362.000
234.081;  -13.500;  -93.000;   31.000
234.225;  -52.275; -631.000; -539.000
234.368;  -93.200; -773.000; -723.000
234.512;  -45.425; -385.000; -299.000
234.655;  -88.150; -582.000; -555.000
234.798;  -60.925; -493.000; -466.000
234.942; -117.000; -884.000;-1002.000
235.085;  -61.425; -651.000; -443.000
235.229;  -68.950; -405.000; -410.000
235.372;  -50.950; -247.000; -191.000
235.516;  -56.775; -397.000; -321.000
235.659;   11.725;   92.000;  121.000
235.802;  -16.200;  -38.000;  -22.000
235.946;   35.550;  335.000;  215.000
236.089;   30.325;  126.000;  250.000
236.233;   57.375;  275.000;  298.000
236.376;  -33.400; -235.000; -378.000
236.519;  -40.825; -297.000; -319.000
236.663;  -20.800; -215.000; -117.000
236.806; -120.800;-1029.000; -999.000
236.949;   54.375;  543.000;  431.000
237.092;   66.500;  412.000;  391.000
237.236;  -86.450; -589.000; -502.000
237.379;   59.875;  352.000;  428.000
237.522;  -99.550; -879.000; -768.000
237.666;  -19.250; -271.000;   18.000
237.809; -110.450; -851.000; -823.000
237.952;   40.250;  469.000;  271.000
238.095;  -52.500; -447.000; -442.000
238.238;   84.900;  688.000;  700.000
238.382;    3.650;  166.000;  103.000
238.525;  -61.425; -598.000; -511.000
238.668; -131.975;-1060.000; -985.000
238.811;  -70.150; -638.000; -643.000
238.954;  -51.025; -483.000; -334.000
239.097;   88.250;  617.000;  664.000
239.241;   21.525;  394.000;  326.000
239.384;  -26.550; -254.000; -214.000
239.527;  -68.875; -424.000; -224.000
239.670; -146.825; -994.000;-1091.000
239.813; -107.050; -696.000; -658.000
239.956;   77.325;  579.000;  473.000
240.099; -103.825; -778.000; -725.000
240.242;   62.025;  428.000;  432.000
240.385;   52.925;  466.000;  450.000
240.528;  -67.925; -706.000; -473.000
240.671;   17.225;  189.000;  134.000
240.814;  -34.475; -441.000; -158.000
240.957;  -90.200; -767.000; -578.000
241.100;  -80.575; -779.000; -755.000
241.243; -126.875;-1234.000; -893.000
241.386;  -52.125; -508.000; -379.000
241.529;  -88.825; -735.000; -547.000
241.672;  -55.750; -566.000; -495.000
241.815; -103.150; -832.000; -808.000
241.958;  -21.025; -125.000; -182.000
242.101;  -61.475; -545.000; -390.000
242.244;  -47.100; -270.000; -325.000
242.387;  -39.450; -304.000; -246.000
242.530;   50.150;  470.000;  134.000
242.673;  -41.200; -381.000; -309.000
242.815; -104.275; -925.000; -899.000
242.958;  -66.725; -482.000; -381.000
243.101;   23.875;  132.000;  187.000
243.244;  -68.925; -564.000; -521.000
243.387;  -42.200; -313.000; -316.000
243.530;  -88.325; -657.000; -674.000
243.672;   -1.425;   43.000;  -92.000
243.815;  -49.275; -355.000; -283.000
243.958;    3.875;   98.000;  -26.000
244.101;    7.450;   59.000;  -16.000
244.243;   -8.025;  -47.000;  101.000
244.386; -111.425; -761.000; -630.000
244.529;  -15.550; -132.000; -139.000
244.672; -136.525;-1154.000; -951.000
244.814;  -88.950; -621.000; -794.000
244.957;  -51.900; -380.000; -304.000
245.100;  -72.225; -489.000; -489.000
245.242;  -52.950; -387.000; -374.000
245.385;    0.275;  -59.000;  -39.000
245.528; -116.800; -871.000; -705.000
245.670;   83.750;  612.000;  634.000
245.813;  -71.175; -599.000; -547.000
245.956;  -32.650; -324.000; -275.000
246.098;  -70.250; -508.000; -650.000
246.241;    8.400;  194.000;   48.000
246.383;  -14.175; -119.000;  -73.000
246.526;  -72.250; -454.000; -525.000
246.669; -103.425; -889.000; -780.000
246.811;   25.075;  172.000;   -1.000
246.954;  -63.350; -512.000; -426.000
247.096;  -19.175;  -84.000;   -6.000
247.239;  -62.350; -482.000; -445.000
247.381;  -64.425; -647.000; -488.000
247.524;   68.175;  645.000;  679.000
247.666;    2.375;   58.000;   11.000
247.809; -117.175; -887.000; -691.000
247.951;  -12.200;  -75.000;  138.000
248.094;   25.525;  432.000;  308.000
248.236; -153.575;-1262.000;-1238.000
248.378;  -13.075; -356.000;  -81.000
248.521;  -26.750; -334.000; -337.000
248.663;  -30.100; -236.000; -267.000
248.806;  -22.475; -300.000; -266.000
248.948; -115.025; -886.000; -763.000
249.090;  -63.275; -428.000; -398.000
249.233;  -65.925; -344.000; -381.000
249.375;  -63.150; -474.000; -451.000
249.518;  -16.500;  -83.000; -133.000
249.660;    6.125; -103.000;    3.000
249.802; -166.050;-1303.000;-1189.000
249.945;  -67.575; -612.000; -540.000
250.087; -114.225; -834.000; -768.000
250.229;  -57.425; -362.000; -480.000
250.371;  -70.350; -494.000; -439.000
250.514;  -37.050; -310.000; -244.000
250.656;   -0.375;   69.000;  102.000
250.798; -108.000; -849.000; -800.000
250.940;  -50.475; -322.000; -322.000
251.083;  -19.750; -335.000; -111.000
251.225;   66.075;  338.000;  310.000
251.367;  -39.525; -274.000; -373.000
251.509;  -27.850; -265.000; -210.000
251.651;  -91.550; -731.000; -671.000
251.794;   47.850;  538.000;  632.000
251.936; -102.525; -821.000; -747.000
252.078;  -79.600; -540.000; -461.000
252.220;  -62.350; -645.000; -477.000
252.362;   72.175;  344.000;  462.000
252.504;  -73.800; -677.000; -584.000
252.646; -109.100; -875.000; -722.000
252.788;    1.875;   14.000; -128.000
252.931;  -40.975; -257.000; -253.000
253.073;  -37.450; -376.000; -317.000
253.215;    3.925;  141.000;  122.000
253.357;  -10.350;   82.000; -153.000
253.499;  -42.850; -374.000; -234.000
253.641;  -71.800; -749.000; -594.000
253.783;  -89.975; -609.000; -527.000
253.925;  -77.825; -586.000; -591.000
254.067; -103.100; -744.000; -667.000
254.209;  -33.800; -391.000; -259.000
254.351; -121.750; -865.000; -883.000
254.493;  -63.375; -441.000; -417.000
254.635; -113.875; -936.000; -818.000
254.777;  -81.700; -752.000; -687.000
254.918;  -73.150; -512.000; -430.000
255.060;  -59.200; -551.000; -395.000
255.202;  -53.475; -473.000; -261.000
255.344;  -77.975; -658.000; -455.000
255.486;  -69.575; -471.000; -406.000
255.628; -103.525; -780.000; -781.000
255.770;  -82.625; -676.000; -536.000
255.912;  -62.025; -559.000; -468.000
256.053;  -92.000; -730.000; -508.000
256.195;  149.025; 1008.000;  903.000
256.337;  -89.925; -861.000; -595.000
256.479;   57.850;  532.000;  416.000
256.621;  -43.125; -394.000; -212.000
256.762; -101.200; -789.000; -742.000
256.904;   50.800;  485.000;  487.000
257.046;  -41.100; -381.000; -271.000
257.188;  -31.775; -351.000; -264.000
257.329;  -56.850; -525.000; -464.000
257.471; -106.500; -939.000; -807.000
257.613;  -51.650; -584.000; -498.000
257.755; -135.750;-1073.000; -982.000
257.896;   43.125;  286.000;  392.000
258.038;  -63.850; -403.000; -352.000
258.180;  -33.300; -354.000; -279.000
258.321;  -71.650; -581.000; -457.000
258.463;   -9.700;  -71.000;  133.000
258.605;  -86.800; -562.000; -570.000
258.746;  -87.925; -886.000; -772.000
258.888; -154.375;-1026.000;-1020.000
259.029;   14.875;  121.000;   -8.000
259.171;  -75.200; -614.000; -550.000
259.313;   -7.225;  -49.000;  -47.000
259.454;  -69.625; -536.000; -414.000
259.596;  -45.075; -483.000; -390.000
259.737;  -71.825; -590.000; -474.000
259.879;   36.650;  217.000;  311.000
260.020;   85.075;  901.000;  636.000
260.162;  -19.200; -146.000; -253.000
260.303;  -95.400; -768.000; -687.000
260.445;  -75.675; -609.000; -613.000
260.586;   21.025;  392.000;  157.000
260.728;  -41.100; -360.000; -248.000
260.869;  -72.175; -350.000; -343.000
261.011;   76.550;  706.000;  537.000
261.152;  -49.975; -479.000; -319.000
261.293;  -76.175; -576.000; -595.000
261.435;  -36.200; -219.000; -184.000
261.576;  -50.675; -455.000; -325.000
261.718;   58.475;  420.000;  470.000
261.859; -129.000; -940.000; -949.000
262.000; -123.350; -951.000;-1016.000
262.142;  -14.800;  -52.000;  -60.000
262.283; -106.750; -808.000; -691.000
262.424;  -84.975; -666.000; -625.000
262.566; -173.375;-1161.000; -983.000
262.707; -111.050; -840.000; -830.000
262.848; -113.825; -769.000; -726.000
262.990;  -38.550; -362.000; -345.000
263.131;   85.725;  650.000;  681.000
263.272;   11.950;  -61.000;  -41.000
263.413;  -81.025; -589.000; -561.000
263.555;  -48.275; -669.000; -143.000
263.696;  -93.400; -550.000; -641.000
263.837;  -34.075; -449.000; -551.000
263.978;   -4.225;   -5.000;  -77.000
264.119;  -52.800; -283.000; -264.000
264.261; -104.050; -847.000; -630.000
264.402;   17.025;   33.000;   40.000
264.543;  -79.525; -509.000; -524.000
264.684;  -11.175;   61.000;  -50.000
264.825;  -60.925; -816.000; -538.000
264.966;  -10.525;  -84.000;  -67.000
265.107;  -86.250; -646.000; -670.000
265.248; -109.150; -825.000; -812.000
265.390;    3.625;  152.000;   -9.000
265.531;  -11.200; -238.000; -107.000
265.672;  -78.800; -557.000; -630.000
265.813;   76.475;  563.000;  439.000
265.954; -127.775; -959.000; -940.000
266.095;  -25.350; -372.000; -322.000
266.236;  -86.350; -686.000; -548.000
266.377;  -36.850; -243.000; -297.000
266.518;  -77.800; -619.000; -547.000
266.659;   38.525;  170.000;  268.000
266.800;    8.075;   83.000;   85.000
266.941;  -56.125; -487.000; -478.000
267.082;   22.525;  354.000;   99.000
267.223;  -53.725; -344.000; -273.000
267.364; -112.500; -892.000; -686.000
267.504;  -15.325;    3.000;  135.000
267.645;   11.500;  160.000;   67.000
267.786;  -24.100; -147.000;  -86.000
267.927;  -65.275; -473.000; -379.000
268.068;   -6.925; -186.000;  -61.000
268.209;  -42.250; -175.000; -413.000
268.350;  -56.050; -388.000; -532.000
268.490;  -73.825; -648.000; -521.000
268.631;   42.775;  127.000;  225.000
268.772; -102.125; -874.000; -647.000
268.913;  -46.825; -328.000; -476.000
269.054;   -0.900; -117.000;   12.000
269.194;  -31.425; -418.000; -402.000
269.335; -149.700;-1137.000;-1074.000
269.476;   -2.950;   33.000;  -35.000
269.617;  -58.325; -347.000; -392.000
269.757;  -76.950; -713.000; -646.000
269.898; -101.100; -856.000; -613.000
270.039;  -55.100; -415.000; -405.000
270.180; -116.475; -952.000; -816.000
270.320;  -31.125; -190.000; -250.000
270.461;  -33.050; -277.000; -249.000
270.602;   -6.575; -186.000; -156.000
270.742; -106.700; -868.000; -943.000
270.883;  -47.275; -442.000; -390.000
271.023;  -54.425; -358.000; -357.000
271.164;  -66.650; -607.000; -528.000
271.305;  -97.975; -666.000; -654.000
271.445;  -81.800; -722.000; -683.000
271.586;  -68.275; -462.000; -283.000
271.726;  -39.850; -397.000; -322.000
271.867;  -64.100; -594.000; -534.000
272.008;   86.225; -473.000; -285.000
272.148;   76.500;  462.000;  468.000
272.289;   11.325; -113.000; -181.000
272.429;    8.400;   19.000;  185.000
272.570;  -80.775; -633.000; -737.000
272.710;  -97.575; -825.000; -775.000
272.851;   -8.825;  113.000; -130.000
272.991; -143.475;-1173.000;-1077.000
273.131;  -56.150; -419.000; -459.000
273.272;  -98.850; -683.000; -723.000
273.412;   -1.100; -143.000;  -31.000
273.553;  -61.925; -488.000; -507.000
273.693;  127.875;  913.000;  858.000
273.834;  -95.000; -894.000; -692.000
273.974;  -63.150; -664.000; -615.000
274.114;  -96.775; -772.000; -560.000
274.255;   80.175;  414.000;  373.000
274.395;  -27.125; -180.000; -125.000
274.535;   30.550;  199.000;  350.000
274.676;   27.950;  225.000;   94.000
274.816;   10.250;  110.000;   34.000
274.956;  -80.325; -624.000; -690.000
275.097;  -81.225;-1014.000; -922.000
275.237; -102.625; -913.000; -803.000
275.377;  -93.550; -778.000; -689.000
275.517; -135.800; -878.000; -937.000
275.658;  -58.800; -590.000; -555.000
275.798;  -59.625; -606.000; -413.000
275.938;   24.900;  215.000;  323.000
276.078;  -67.825; -626.000; -395.000
276.218;   -4.900;   99.000;  104.000
276.359; -126.500;-1026.000;-1024.000
276.499;  -63.000; -605.000; -446.000
276.639;  -32.350; -305.000; -151.000
276.779;  -36.300; -475.000; -357.000
276.919;  -84.375; -783.000; -624.000
277.059;  -12.500; -261.000; -212.000
277.199;  -45.325; -357.000; -259.000
277.340;   54.350;  287.000;  175.000
277.480;  -95.650; -840.000; -693.000
277.620;   27.800;  192.000;   16.000
277.760; -191.950;-1533.000;-1294.000
277.900;    3.500;  113.000;   33.000
278.040;   11.100;  137.000;  159.000
278.180;   37.350;  270.000;  170.000
278.320;   14.650;   21.000;   56.000
278.460;  -56.500; -443.000; -469.000
278.600;  -73.350; -708.000; -598.000
278.740;   54.000;  448.000;  224.000
278.880;  -93.150; -768.000; -791.000
279.020;  -14.925; -194.000; -144.000
279.160;  -79.100; -672.000; -595.000
279.300; -109.650; -926.000; -873.000
279.440;  -88.475; -709.000; -622.000
279.579;  -59.800;-1014.000; -929.000
279.719;  -52.175; -410.000; -394.000
279.859;   55.325;   -4.000;   41.000
279.999;   19.050; -208.000;  101.000
280.139;  -21.475; -435.000; -387.000
280.279;  -73.700; -708.000; -745.000
280.419;   -7.550; -229.000; -147.000
280.559;  -36.625; -259.000; -180.000
280.698;  -76.500; -790.000; -639.000
280.838;  -98.575; -778.000; -800.000
280.978;  -92.575; -846.000; -790.000
281.118; -109.975; -811.000; -704.000
281.257;   13.375;   24.000;    6.000
281.397; -123.575;-1094.000; -960.000
281.537;  -95.475; -599.000; -712.000
281.677;  -13.275; -150.000; -101.000
281.816;  -78.825; -700.000; -630.000
281.956;  -24.325; -193.000; -257.000
282.096;  -48.850; -539.000; -396.000
282.235;  -96.275; -672.000; -638.000
282.375;  -17.625; -243.000;  -98.000
282.515;  -95.375; -715.000; -707.000
282.654;   31.925;   29.000;  106.000
282.794;   36.900;  388.000;  244.000
282.934;  -51.075; -530.000; -491.000
283.073; -124.925;-1030.000; -857.000
283.213;  -47.275; -460.000; -467.000
283.353;  -48.250; -408.000; -349.000
283.492;  -21.775; -264.000; -296.000
283.632;  -31.225; -254.000; -168.000
283.771;  -75.575; -859.000; -730.000
283.911;  -49.750; -369.000; -260.000
284.050;  -90.825; -794.000; -748.000
284.190; -139.450;-1229.000;-1096.000
284.329; -119.525;-1055.000; -964.000
284.469;  -68.825; -516.000; -591.000
284.608;  -50.975; -559.000; -598.000
284.748;  -65.275; -614.000; -570.000
284.887;   -3.125;  -87.000;  -20.000
285.027; -122.075; -844.000; -892.000
285.166;  -19.900; -192.000; -249.000
285.306;   -0.075; -116.000;  -33.000
285.445;  -34.225; -229.000; -343.000
285.584;  -98.200; -630.000; -494.000
285.724;  -41.075; -282.000; -322.000
285.863;  -97.450; -857.000; -507.000
286.002;  -44.225; -366.000; -276.000
286.142;  -93.675; -715.000; -622.000
286.281;  -59.950; -525.000; -493.000
286.420;  -75.650; -554.000; -417.000
286.560;  105.675;  653.000;  623.000
286.699; -145.475; -958.000; -912.000
286.838;  -80.500; -590.000; -591.000
286.978;  -75.350; -533.000; -537.000
287.117; -131.075;-1085.000; -950.000
287.256;  -24.750; -228.000; -211.000
287.395;  -47.350; -197.000; -378.000
287.535;  -52.475; -370.000; -298.000
287.674;  -73.700; -509.000; -484.000
287.813;   55.725;  661.000;  533.000
287.952; -113.725;-1010.000; -871.000
288.091; -134.325;-1049.000; -915.000
288.231;   -0.100;   13.000;   15.000
288.370; -160.875;-1217.000;-1200.000
288.509;  -72.475; -728.000; -645.000
288.648;  -84.025; -770.000; -548.000
288.787;  -34.975; -243.000;  -87.000
288.926;  -51.000; -454.000; -475.000
289.065;  117.400;  859.000;  672.000
289.204;  -32.825; -377.000; -217.000
289.344;  -89.625; -791.000; -690.000
289.483;   19.650;  416.000;  304.000
289.622;  -18.425; -291.000; -149.000
289.761;  -27.750; -309.000; -166.000
289.900;  -98.825; -785.000; -626.000
290.039;   -7.100;  -12.000;  -95.000
290.178;  -26.075; -274.000; -180.000
290.317;  -69.025; -618.000; -479.000
290.456;  -60.675; -463.000; -451.000
290.595; -120.225; -961.000; -833.000
290.734; -126.525; -904.000; -891.000
290.873;  -50.600; -456.000; -420.000
291.011; -108.975; -833.000; -843.000
291.150; -106.700; -770.000; -682.000
291.289;  -27.250; -343.000; -110.000
291.428;  -75.325; -599.000; -480.000
291.567;  -48.825; -370.000; -442.000
291.706;   14.000;  109.000;  154.000
291.845;  -69.625; -597.000; -505.000
291.984; -150.300;-1234.000;-1061.000
292.122;   85.700;  602.000;  582.000
292.261;   44.975;  620.000;  463.000
292.400;   16.100; -144.000;  211.000
292.539; -103.675; -959.000; -813.000
292.678;  -19.225; -325.000; -300.000
292.816; -149.650;-1136.000; -965.000
292.955;  -91.600; -844.000; -684.000
293.094;  -32.500; -173.000; -337.000
293.233;  -50.450; -556.000; -400.000
293.371;  -24.225; -225.000;  -84.000
293.510;  -96.650; -866.000; -780.000
293.649; -135.775; -959.000; -924.000
293.787;  -85.225;-1083.000;-1012.000
293.926;  -15.150; -113.000;  -32.000
294.065;  -45.175; -379.000; -290.000
294.203;   44.550;  298.000;  406.000
294.342;   41.725;   74.000;  156.000
294.481; 6619.125;51180.000; -836.000
294.619;  -10.750; -425.000; -582.000
294.758; -147.575;-1230.000;-1137.000
294.896;   34.525; -125.000;    5.000
295.035; -118.600;-1040.000;-1006.000
295.174; -117.875;-1082.000; -954.000
295.312;  -33.775; -323.000; -203.000
295.451;  -23.725; -307.000; -428.000
295.589;  -56.250; -389.000; -518.000
295.728;   20.825; -292.000; -165.000
295.866;   12.625;  -36.000;  -51.000
296.005;  -42.550; -584.000; -341.000
296.143;  -72.250; -558.000; -596.000
296.282; -106.375; -957.000; -881.000
296.420;  -85.400; -657.000; -557.000
296.559;  -73.375; -892.000; -633.000
296.697;  -33.600; -847.000; -665.000
296.835;  -48.125;-1141.000;-1002.000
296.974;   31.975;  -23.000;   39.000
297.112;  -21.575; -443.000; -504.000
297.251;  -88.350; -815.000; -755.000
297.389;   23.150; -576.000; -438.000
297.527;    7.275; -145.000;  -83.000
297.666;  -42.725; -486.000; -438.000
297.804;  -38.425; -404.000; -264.000
297.942;    6.775; -136.000; -161.000
298.081;    1.025; -183.000;   63.000
298.219;   35.825;  -17.000;  -19.000
298.357;   13.775; -144.000;  -71.000
298.495;  -36.100; -810.000; -812.000
298.634;   25.300;  245.000;  219.000
298.772;    0.625; -220.000; -338.000
298.910;  -53.925; -309.000; -182.000
299.048;   -9.825; -130.000; -153.000
299.187;  -32.850; -350.000; -250.000
299.325;    1.475;   52.000;  122.000
299.463;   -0.075; -389.000; -299.000
299.601;   33.250; -327.000; -271.000
299.739; -110.400; -908.000; -883.000
299.877;  -79.000; -791.000; -703.000
300.016;  -78.475;-1095.000; -935.000
300.154;   73.550;  -19.000; -161.000
300.292;  -10.250; -428.000; -348.000
300.430;   -4.750; -408.000; -291.000
300.568; -119.975; -940.000; -874.000
300.706;  -47.100; -366.000; -469.000
300.844; -103.750;-1108.000; -979.000
300.982;   80.725;  246.000;  282.000
301.120; -109.125; -965.000; -866.000
301.258;  -86.875; -812.000; -705.000
301.396;   18.125;  104.000;  -41.000
301.534;   -4.050; -218.000; -293.000
301.672;  -48.200; -664.000; -521.000
301.810;  -35.625; -613.000; -545.000
301.948;   42.400;   53.000;  149.000
302.086;  309.000; -250.000;  -32.000
302.224;  390.750; -610.000; -585.000
302.362;  -16.975; -558.000; -622.000
302.500;  -67.125; -923.000; -893.000
302.638;   41.925;  128.000;  245.000
302.776;  -24.100; -352.000; -408.000
302.913;   43.750;  447.000;  236.000
303.051;  -22.750;  -86.000;  -23.000
303.189;   28.875;   90.000;  118.000
303.327;  -34.125; -341.000; -256.000
303.465;  -73.050; -832.000; -588.000
303.603;  -87.750; -805.000; -604.000
303.740;   72.225;  417.000;  241.000
303.878;  -48.375; -800.000; -759.000
304.016; -105.825; -915.000; -790.000
304.154; -140.450;-1123.000;-1152.000
304.291;  -46.350; -505.000; -554.000
304.429;    9.075;  102.000;   74.000
304.567; -122.900; -908.000; -893.000
304.705;  -58.150; -408.000; -515.000
304.842;    4.475; -616.000; -540.000
304.980;   36.375;  215.000;   35.000
305.118;   -1.725; -367.000; -365.000
305.255; -100.500; -945.000; -927.000
305.393;   45.450;  178.000;  239.000
305.531; -105.400;-1173.000; -956.000
305.668;  -51.750; -663.000; -582.000
305.806;   28.800; -358.000; -439.000
305.943;   21.700; -629.000; -637.000
306.081;   21.300; -378.000; -267.000
306.219;  -97.500; -863.000; -748.000
306.356;   11.400;  158.000;   27.000
306.494;  137.025;  981.000;  761.000
306.631;   22.850;  -11.000;  -55.000
306.769;  -12.425; -613.000; -485.000
306.906;   -5.950; -284.000; -258.000
307.044;  -41.300; -473.000; -488.000
307.181;  -44.700; -410.000; -332.000
307.319;   38.050;  112.000;   87.000
307.456; -144.875;-1191.000;-1153.000
307.594;  -93.725; -980.000; -727.000
307.731;  -14.425; -371.000; -164.000
307.868;    4.375;  -15.000;   20.000
308.006; -115.950; -961.000; -847.000
308.143;  -61.350; -618.000; -330.000
308.281;   89.400;  -37.000; -254.000
308.418;  -31.150; -748.000; -640.000
308.555;  -48.250; -400.000; -250.000
308.693;  -60.275; -577.000; -573.000
308.830;  -89.725; -712.000; -657.000
308.967;    0.225; -215.000;  -95.000
309.105;  -18.475; -507.000; -396.000
309.242;   14.525; -468.000; -367.000
309.379;  132.375; -577.000; -655.000
309.517;  -67.500; -936.000; -948.000
309.654;  -83.525; -910.000; -734.000
309.791;  -57.450; -662.000; -580.000
309.928;  -93.300; -977.000; -914.000
310.065;  160.725;  819.000;  697.000
310.203;  -49.900; -825.000; -850.000
310.340;  -13.675; -465.000; -321.000
310.477;  -64.850; -412.000; -516.000
310.614;  -37.100; -383.000; -473.000
310.751;  -44.300; -427.000; -518.000
310.889;  -14.475;    1.000;   11.000
311.026; -131.850;-1161.000; -939.000
311.163;  -29.450; -386.000; -380.000
311.300;  -60.950; -512.000; -479.000
311.437;  -40.125; -658.000; -619.000
311.574; -132.375;-1226.000; -985.000
311.711;  -31.300; -595.000; -433.000
311.848;  -26.650; -380.000; -388.000
311.985;   20.450;  270.000;   93.000
312.122; -105.775; -932.000; -762.000
312.259;  -84.825; -941.000; -994.000
312.396;  -58.425; -508.000; -551.000
312.533;  -56.800; -812.000; -790.000
312.670; -113.525;-1070.000; -898.000
312.807;  -19.700; -352.000; -367.000
312.944;  -56.325; -513.000; -611.000
313.081;   10.425; -150.000; -415.000
313.218;  -69.425;-1111.000; -867.000
313.355;   11.150; -531.000; -449.000
313.492;   18.900; -455.000; -292.000
313.629;  170.875;  815.000;  735.000
313.766; -120.850;-1176.000;-1008.000
313.902;  -10.350; -186.000;   21.000
314.039;  -36.075; -372.000; -289.000
314.176;   40.875;  286.000;  192.000
314.313;  -50.650; -569.000; -473.000
314.450;  -46.450; -788.000; -684.000
314.587;  -28.400; -468.000; -480.000
314.723;   35.125;  -78.000;  130.000
314.860;   68.500;  318.000;  332.000
314.997;   61.000;  223.000;  142.000
315.134;  -11.800; -385.000; -368.000
315.270;   -8.300; -480.000; -496.000
315.407;  -78.050;-1094.000; -967.000
315.544;  -13.850; -657.000; -538.000
315.681;  -25.775; -681.000; -565.000
315.817;   93.050; -133.000; -176.000
315.954;   93.600; -613.000; -392.000
316.091;  -86.725;-1045.000;-1023.000
316.227;  -20.600;  -71.000; -179.000
316.364;   11.750;   23.000;    6.000
316.500;  -47.000; -113.000; -300.000
316.637;  -13.925; -181.000; -302.000
316.774;  -64.825; -625.000; -358.000
316.910;  -84.625; -598.000; -629.000
317.047;  -50.825; -487.000; -351.000
317.183;  -37.250; -435.000; -566.000
317.320;   13.925; -367.000; -321.000
317.456;  -33.150; -733.000; -805.000
317.593;  -72.450; -598.000; -641.000
317.729;    9.000;  168.000;  -67.000
317.866; -176.175;-1434.000;-1285.000
318.002;  -75.125; -708.000; -948.000
318.139;  -97.100; -883.000; -867.000
318.275; -102.525;-1003.000; -738.000
318.412;  -47.375; -517.000; -336.000
318.548;  -52.675; -751.000; -720.000
318.685;  -96.900; -985.000; -888.000
318.821;  -83.525; -762.000; -735.000
318.957;  -19.775;   34.000;  -23.000
319.094;   38.175;  297.000;  154.000
319.230;  -76.075; -756.000; -742.000
319.367;   20.525; -471.000; -520.000
319.503;    4.150; -538.000; -436.000
319.639;  -94.150; -877.000; -793.000
319.775;  -78.050; -750.000; -685.000
319.912;  -39.700; -424.000; -519.000
320.048;  -96.775;-1184.000;-1184.000
320.184;   74.350;   59.000;   70.000
320.321;  -40.125; -497.000; -467.000
320.457;   81.200;  475.000;  662.000
320.593;  -59.925; -375.000; -382.000
320.729;  -99.650; -732.000; -734.000
320.866;  -73.500; -577.000; -635.000
321.002;  -78.200; -759.000; -809.000
321.138;  -21.725; -135.000; -211.000
321.274;   36.475; -148.000; -115.000
321.410;  -41.575; -585.000; -353.000
321.546;  -84.100;-1011.000; -911.000
321.683;   44.550;  400.000;  185.000
321.819;    2.325;  -48.000; -117.000
321.955; -100.475; -743.000; -722.000
322.091;  -51.050; -585.000; -540.000
322.227;  -32.625; -382.000; -202.000
322.363;  -28.775; -320.000; -215.000
322.499;  -35.200; -343.000; -331.000
322.635;  111.100;  636.000;  443.000
322.771;    5.050; -139.000;   12.000
322.907;   70.575;  129.000;  327.000
323.043;  -22.050; -115.000; -206.000
323.179;  -24.525; -394.000; -363.000
323.315;  -26.650; -401.000; -371.000
323.451;   46.650; -328.000; -236.000
323.587;   48.200;  -60.000;  -77.000
323.723;  -37.500; -682.000; -601.000
323.859;  -18.425; -258.000;  -76.000
323.995;  -38.300; -467.000; -409.000
324.131; -116.350; -967.000; -892.000
324.267;  -31.450; -254.000; -276.000
324.402; -115.800; -960.000; -983.000
324.538;  -28.350; -279.000; -104.000
324.674;    1.250;  164.000;   77.000
324.810;   75.975;  226.000;  308.000
324.946;  -43.300; -810.000; -658.000
325.082;  -58.475; -568.000; -475.000
325.217;  -11.975;  -62.000;   16.000
325.353;  -98.175; -764.000; -659.000
325.489;  -94.425; -540.000; -506.000
325.625;  -62.300; -579.000; -525.000
325.760;   69.350;  517.000;  376.000
325.896;   -3.200; -515.000; -702.000
326.032;  -55.625; -403.000; -352.000
326.168;  -57.800; -462.000; -369.000
326.303;  -52.650; -352.000; -461.000
326.439;   -8.425; -336.000; -276.000
326.575;   -2.000; -190.000;  -29.000
326.710;   -7.125; -156.000;  -30.000
326.846;  -10.300;  146.000;  103.000
326.982;  -78.775; -530.000; -548.000
327.117;  -67.675; -481.000; -442.000
327.253;  -75.850; -745.000; -742.000
327.388; -148.425;-1137.000;-1153.000
327.524;  -55.525; -811.000; -578.000
327.659;  -27.575;  -58.000;  -22.000
327.795;    0.550;   69.000;   45.000
327.931;  -79.825; -723.000; -499.000
328.066;  -19.850; -417.000; -276.000
328.202;   -7.425;   12.000; -129.000
328.337;  104.250;  957.000;  713.000
328.473;   46.375;  -12.000;  -74.000
328.608;   -6.100; -256.000; -267.000
328.743;  -94.350; -799.000; -664.000
328.879;   36.100;  214.000;  114.000
329.014;  -38.350; -102.000; -122.000
329.150;  -75.925; -358.000; -483.000
329.285;  -78.375; -465.000; -466.000
329.421;  -38.225; -548.000; -246.000
329.556;  -26.925;  -36.000;   85.000
329.691;  -75.750; -633.000; -615.000
329.827;  -78.900; -626.000; -480.000
329.962;  -32.850;  131.000; -301.000
330.097;  -69.075; -673.000; -585.000
330.233;  -36.975; -410.000; -223.000
330.368; -104.925; -839.000; -628.000
330.503;   -1.875;    3.000;   98.000
330.638;    2.800;  -93.000; -125.000
330.774;  -70.300; -609.000; -530.000
330.909;  -36.075; -434.000; -244.000
331.044;  -76.450; -714.000; -708.000
331.179; -159.800;-1217.000;-1109.000
331.315;   18.700;   77.000;   20.000
331.450;    5.650;  157.000;  285.000
331.585;  -72.750; -805.000; -706.000
331.720;  -62.125; -510.000; -460.000
331.855;   11.650;  -35.000; -102.000
331.990;  378.275;   62.000;  138.000
332.126;  196.650; -110.000;   71.000
332.261;   -7.800; -379.000; -265.000
332.396;   20.350; -135.000; -242.000
332.531;  -51.325;-1074.000;-1031.000
332.666;   84.150; -519.000; -363.000
332.801;  -75.300; -726.000; -807.000
332.936;   -1.500; -192.000; -122.000
333.071; -111.550; -870.000; -817.000
333.206;   32.100;  307.000;  379.000
333.341;   37.400;  344.000;  418.000
333.476;  -70.475; -627.000; -623.000
333.611;  -13.950; -251.000; -173.000
333.746;  -20.350; -381.000; -464.000
333.881;  -97.525; -973.000; -935.000
334.016;  -95.275; -936.000; -917.000
334.151; -102.525; -746.000; -702.000
334.286;   40.250;  152.000;  186.000
334.421;   12.275; -125.000; -178.000
334.556;  -61.975; -611.000; -567.000
334.690;  -58.150; -631.000; -577.000
334.825;   85.675;  381.000;   83.000
334.960;  -26.450; -285.000; -413.000
335.095;   39.950;  135.000;  -91.000
335.230;  -56.675; -722.000; -738.000
335.365;  -77.900;-1084.000; -990.000
335.499;  -87.000;-1108.000;-1037.000
335.634;   41.375;    9.000;  534.000
335.769;  -43.975; -755.000; -720.000
335.904;   -2.100; -603.000; -561.000
336.038;    2.725; -735.000; -657.000
336.173;  -58.875;-1206.000;-1194.000
336.308;   61.425; -116.000; -189.000
336.443;  113.750; -544.000; -634.000
336.577;   16.475; -936.000; -787.000
336.712;  138.325;   -4.000;  -12.000
336.847;   67.225; -724.000; -607.000
336.981;  153.350; -272.000; -208.000
337.116;  449.450;  615.000;  501.000
337.250;  241.350; -434.000; -421.000
337.385;  378.775; -297.000; -208.000
337.520;  174.775; -632.000; -603.000
337.654;  -27.925; -215.000; -126.000
337.789; -118.475; -989.000; -933.000
337.923;  -27.900; -104.000; -205.000
338.058;  -82.075; -673.000; -738.000
338.192;  -48.575; -611.000; -488.000
338.327;    2.775;  -18.000; -155.000
338.461;  -61.575; -299.000; -469.000
338.596;  -83.275; -780.000; -638.000
338.730;  -82.750; -767.000; -803.000
338.865;  128.475;  -46.000; -140.000
338.999;   -9.975; -846.000; -702.000
339.134;  -12.225; -634.000; -536.000
339.268;   12.150; -741.000; -603.000
339.403;  475.050; -740.000; -775.000
339.537;  206.725; -894.000; -820.000
339.671;  -85.775; -829.000; -813.000
339.806;  -33.250; -556.000; -512.000
339.940;   46.150; -261.000; -235.000
340.074;  -93.200; -685.000; -510.000
340.209;  -45.550; -351.000; -230.000
340.343;  -78.100; -517.000; -573.000
340.477;  136.800;  998.000; 1036.000
340.612;  -20.800;-1033.000; -900.000
340.746;  182.675; -199.000; -243.000
340.880;  -93.400; -924.000; -785.000
341.014;   -9.175;  -45.000; -154.000
341.149; -116.425; -756.000; -718.000
341.283; -106.300; -839.000; -754.000
341.417; -109.075;-1124.000; -938.000
341.551;    8.875; -768.000; -708.000
341.685;  -53.500; -633.000; -611.000
341.820;  -47.525; -562.000; -493.000
341.954;  -59.225; -218.000; -349.000
342.088; -139.000;-1102.000;-1019.000
342.222;   51.000;  565.000;  618.000
342.356;  -55.000; -395.000; -335.000
342.490;  -91.675; -880.000; -841.000
342.624;  -45.600; -339.000; -242.000
342.758;  -48.225; -364.000; -312.000
342.892;  -89.550; -710.000; -585.000
343.026;  -42.100;  -58.000; -116.000
343.160;  -52.275; -426.000; -376.000
343.294;  -72.675; -474.000; -337.000
343.428;  -60.625; -488.000; -448.000
343.562;  -21.325; -172.000;  -23.000
343.696;  -39.150; -385.000; -314.000
343.830;  -34.075; -362.000; -356.000
343.964;  -21.450; -231.000; -168.000
344.098;  479.275;  199.000;   70.000
344.232;  391.275; -266.000; -127.000
344.366;   72.225; -567.000; -453.000
344.500;  -13.225; -665.000; -744.000
344.634;  -22.625; -324.000; -164.000
344.768;  -36.225; -531.000; -341.000
344.902;    5.725;  278.000;  256.000
345.035;  -72.575; -556.000; -496.000
345.169; -129.000; -933.000; -656.000
345.303;  -45.750; -308.000; -482.000
345.437;  -90.800; -826.000; -717.000
345.571;  -62.125; -675.000; -594.000
345.704;  -55.200; -309.000; -532.000
345.838;  -18.100; -331.000; -284.000
345.972;  -38.975; -543.000; -495.000
346.106;  208.775; -179.000; -190.000
346.239;  440.000; -312.000; -243.000
346.373;   -4.000; -343.000; -302.000
346.507; -127.575; -950.000; -962.000
346.640;   61.250;  -30.000;   13.000
346.774;  -67.475; -650.000; -797.000
346.908;  -10.800; -138.000;  -11.000
347.041;  -93.600; -646.000; -593.000
347.175;   12.775;  259.000;   27.000
347.309;  -77.650; -698.000; -628.000
347.442; -104.325; -883.000; -732.000
347.576;  160.525;  670.000;  668.000
347.709;  101.425; -123.000;  -52.000
347.843; -104.075; -933.000; -825.000
347.976;   24.025;  235.000;  294.000
348.110; -162.350;-1268.000;-1186.000
348.243;  -91.900; -679.000; -772.000
348.377;    3.100;  -26.000;   60.000
348.510;   68.550;  403.000;  540.000
348.644;  -20.675;  -37.000; -159.000
348.777;    0.975;  180.000;  191.000
348.911;  -46.775; -142.000; -112.000
349.044;  123.800;  471.000;  448.000
349.178;   39.325;-1069.000;-1006.000
349.311;  110.700;  141.000;  255.000
349.444;   28.875; -927.000; -813.000
349.578;  -21.525; -347.000; -200.000
349.711; -118.300; -959.000; -862.000
349.845;  -30.200; -661.000; -591.000
349.978; -147.275;-1224.000;-1137.000
350.111;  -75.425; -546.000; -612.000
350.244;  -97.325; -596.000; -700.000
350.378;  -34.500; -392.000; -393.000
350.511;  -76.475; -393.000; -426.000
350.644;  -89.300; -808.000; -806.000
350.778;   10.425;  168.000;  104.000
350.911;    8.325;  134.000;  140.000
351.044;  -94.250; -685.000; -615.000
351.177;  -32.250; -321.000; -281.000
351.310;    0.450;    3.000; -131.000
351.444;  -94.725; -888.000; -788.000
351.577;   60.250;  140.000;   90.000
351.710;   92.600;  593.000;  417.000
351.843;  -22.050; -165.000;  -77.000
351.976;   18.400;  149.000;  -79.000
352.109;  -77.375; -621.000; -612.000
352.242;  -40.500; -464.000; -419.000
352.376;  -59.750; -580.000; -636.000
352.509;   84.825; -437.000; -356.000
352.642;  -47.425; -654.000; -604.000
352.775;   34.400; -141.000;  -98.000
352.908;  -93.475; -933.000; -904.000
353.041;  -78.750; -814.000; -824.000
353.174;  -41.200; -551.000; -424.000
353.307;  -67.450; -753.000; -764.000
353.440;   73.075;  541.000;  453.000
353.573;  -72.050; -957.000;-1008.000
353.706;  -11.550; -384.000; -558.000
353.839;  -10.275; -264.000; -220.000
353.971;  -68.925; -657.000; -512.000
354.104;  -75.750; -896.000; -835.000
354.237;  -63.700; -627.000; -662.000
354.370;  -63.700; -846.000; -879.000
354.503; -147.775;-1231.000;-1308.000
354.636;  -12.825; -529.000; -348.000
354.769;  -96.550; -937.000; -860.000
354.902;    4.525; -230.000; -139.000
355.034;  -11.300; -164.000; -220.000
355.167;   28.825; -262.000; -162.000
355.300;  -47.125;-1061.000; -880.000
355.433; 1375.175;  -71.000;  -14.000
355.565; 2109.650; -402.000; -384.000
355.698;  553.425; -356.000; -296.000
355.831;   15.075; -882.000; -801.000
355.964;   58.650; -285.000; -170.000
356.096;  -38.275; -856.000; -843.000
356.229;   40.600; -523.000; -530.000
356.362;  482.750; -373.000; -266.000
356.494;  840.575; -229.000; -162.000
356.627;  364.475;  269.000;  377.000
356.760;  849.175;  120.000;   53.000
356.892; 1390.100; -286.000; -601.000
357.025;  445.325;  403.000;  389.000
357.157;  334.900; -167.000; -179.000
357.290;  996.450; -856.000; -713.000
357.423;  347.050; -667.000; -556.000
357.555;  167.050; -217.000; -228.000
357.688;  214.575; -483.000; -364.000
357.820;  311.875; -870.000; -877.000
357.953; 2168.800; -563.000; -589.000
358.085;  402.550; -632.000; -612.000
358.218;  346.875;-1131.000; -932.000
358.350;   95.150;  -58.000;  312.000
358.483; -144.800;-1300.000;-1187.000
358.615;  -95.775;-1182.000;-1078.000
358.747; -120.125;-1187.000;-1058.000
358.880;  -23.225; -810.000; -744.000
359.012;   -9.375; -376.000; -202.000
359.145;  -47.600; -480.000; -511.000
359.277;   -8.925; -962.000; -913.000
359.409; 1808.875;  536.000;  231.000
359.542;  453.500; -738.000; -688.000
359.674;   45.650;   46.000;   13.000
359.806;  -52.350; -565.000; -438.000
359.939;  -42.175; -617.000; -516.000
360.071;   25.250; -583.000; -579.000
360.203;  -13.525; -411.000; -364.000
360.335;   46.800;  164.000;  -16.000
360.468;  121.825; -249.000; -307.000
360.600; 1672.850; -547.000; -454.000
360.732; 3601.150; -546.000; -423.000
360.864;  538.325;-1216.000;-1044.000
360.996;  116.900; -516.000; -554.000
361.129;  -14.475; -389.000; -598.000
361.261;    7.525;  110.000; -113.000
361.393;  -45.025; -252.000; -214.000
361.525;   15.925;   94.000;  244.000
361.657;  -88.600; -821.000; -703.000
361.789;  -23.600; -139.000; -155.000
361.921;   14.925; -642.000; -593.000
362.053;  124.950;  524.000;  541.000
362.185;   10.075;  288.000;   72.000
362.318;  -90.775; -709.000; -705.000
362.450;   71.575;  294.000;  444.000
362.582;  -10.000; -913.000; -870.000
362.714;  -46.850; -353.000; -332.000
362.846;  -73.350; -606.000; -490.000
362.978; -126.775; -941.000; -811.000
363.109;   -2.300; -161.000; -260.000
363.241;  216.800; -739.000; -749.000
363.373;  583.250; -649.000; -564.000
363.505;  901.550; -186.000;  -91.000
363.637;  212.675; -787.000; -601.000
363.769; -125.325;-1067.000;-1080.000
363.901;  -80.175; -596.000; -654.000
364.033; -142.450;-1103.000;-1062.000
364.165;  -24.275; -283.000; -283.000
364.296;   98.350; -316.000; -177.000
364.428;  166.275;-1344.000;-1220.000
364.560;  -64.000; -679.000; -661.000
364.692;  -69.450; -738.000; -835.000
364.824;   49.825; -588.000; -456.000
364.955;  429.075; -402.000; -564.000
365.087; 1309.250;-1097.000; -852.000
365.219;   72.675; -686.000; -816.000
365.351;  -59.950; -526.000; -572.000
365.482;   34.500;  300.000;  240.000
365.614;  -56.600; -402.000; -314.000
365.746; -104.100; -729.000; -752.000
365.877;  -78.650; -706.000; -672.000
366.009;  371.025;  -35.000;  -62.000
366.141;  -36.475;-1249.000;-1134.000
366.272;  -98.950; -803.000; -719.000
366.404; -117.775;-1005.000; -874.000
366.535;   -6.250; -139.000;  -12.000
366.667; -106.750; -644.000; -649.000
366.799;   53.400;  353.000;  203.000
366.930; -119.500; -862.000; -996.000
367.062;  180.575; -639.000; -613.000
367.193;  293.900; -872.000; -842.000
367.325;  -51.850; -580.000; -684.000
367.456;   35.100; -246.000;   31.000
367.588;  232.925; -371.000; -318.000
367.719;   41.625;  -44.000;  -45.000
367.851;  -30.650; -222.000; -241.000
367.982;  -89.075; -875.000; -732.000
368.113;   19.425; -475.000; -358.000
368.245; -124.900; -960.000; -841.000
368.376;  -43.375; -254.000; -302.000
368.508;  -49.650; -188.000; -263.000
368.639; -145.425;-1166.000;-1034.000
368.770;  -61.625; -670.000; -589.000
368.902;  -89.650; -836.000; -926.000
369.033; -108.700; -906.000; -855.000
369.164;  -22.875; -720.000; -653.000
369.296;  -86.075; -452.000; -601.000
369.427;  -11.050; -209.000; -144.000
369.558;  -62.375; -593.000; -377.000
369.689;  -75.400; -721.000; -569.000
369.821; -116.925; -951.000; -845.000
369.952;  -15.600;   42.000; -108.000
370.083;  -34.725; -229.000; -108.000
370.214;  -87.525; -735.000; -650.000
370.345;    0.700;   65.000;   81.000
370.477; -102.550; -810.000; -790.000
370.608;  103.850; -328.000; -264.000
370.739;  -99.625;-1233.000;-1292.000
370.870;  -88.925;-1102.000; -923.000
371.001;   28.375; -378.000; -467.000
371.132;  -93.125; -754.000; -735.000
371.263;  -27.425;  -42.000; -148.000
371.394; -126.450; -841.000; -748.000
371.525;   19.550;  345.000;  225.000
371.657; -106.375; -808.000; -670.000
371.788;   43.925;  103.000;  199.000
371.919;   55.200; -384.000; -304.000
372.050; 1951.975;  -91.000; -156.000
372.181;  607.100; -188.000; -294.000
372.311;  192.975;   42.000; -127.000
372.442;  -13.875; -457.000; -451.000
372.573;  -37.450; -444.000; -340.000
372.704; -137.700;-1008.000; -980.000
372.835;   -5.000; -228.000; -289.000
372.966;  -56.600; -646.000; -554.000
373.097;  -80.175; -575.000; -711.000
373.228;  -65.175; -717.000; -542.000
373.359;   11.200; -824.000; -536.000
373.490;  336.350; -881.000; -727.000
373.620;  464.350;-1001.000; -803.000
373.751;  888.100; -332.000; -396.000
373.882;  412.600; -663.000; -733.000
374.013;   17.425; -449.000; -262.000
374.143;  -49.375; -581.000; -659.000
374.274;  -92.350; -987.000; -908.000
374.405;   90.400; -388.000; -276.000
374.536;  211.725; -526.000; -387.000
374.666;  572.100; -759.000; -807.000
374.797;   69.925; -817.000; -868.000
374.928;  372.125; -710.000; -560.000
375.058;  371.400; -535.000; -500.000
375.189;   55.150;  -59.000;  -93.000
375.320;  -95.025; -928.000;-1034.000
375.450;  -18.675; -625.000; -616.000
375.581;  -27.100; -526.000; -436.000
375.712;  -33.650; -574.000; -250.000
375.842;   73.925; -438.000; -415.000
375.973;   58.700; -554.000; -513.000
376.103;  -84.200; -665.000; -648.000
376.234;  -75.575; -531.000; -552.000
376.364;  -85.250; -944.000; -867.000
376.495;  200.050;  925.000;  529.000
376.625;  -45.925; -472.000; -485.000
376.756;  -15.325; -709.000; -678.000
376.886; -121.800;-1178.000;-1026.000
377.017;  122.150;-1048.000;-1061.000
377.147;  547.725; -786.000; -782.000
377.278;   90.000;  174.000;  228.000
377.408; -108.375; -801.000; -815.000
377.538;  -72.175; -707.000; -693.000
377.669;  -55.100; -537.000; -613.000
377.799;  -92.775; -645.000; -635.000
377.929;  -65.525; -610.000; -428.000
378.060; -112.550; -781.000; -847.000
378.190;  -35.525; -726.000; -531.000
378.320;  -44.000; -401.000; -406.000
378.451;  -14.575; -131.000;  -22.000
378.581;  -12.350;  -67.000; -110.000
378.711;  131.425; 1035.000;  866.000
378.841;  -63.875; -533.000; -675.000
378.972;  -81.675; -871.000; -751.000
379.102;  -48.425; -652.000; -579.000
379.232;   -0.325; -126.000;  -73.000
379.362;  -93.175;-1001.000; -885.000
379.492;  -28.175; -373.000; -424.000
379.623;   64.600;    0.000;  111.000
379.753;  -92.075;-1107.000; -974.000
379.883;  124.250;   59.000;  156.000
380.013;  -45.325;-1081.000;-1017.000
380.143;  -95.475;-1097.000;-1056.000
380.273;  -78.650; -985.000; -861.000
380.403;   40.925; -344.000; -257.000
380.533;    3.325; -651.000; -664.000
380.663;   43.475;  173.000;  128.000
380.793; -144.125;-1027.000;-1074.000
380.923;  -33.525; -103.000;  -34.000
381.053; -101.475; -613.000; -623.000
381.183;  -35.600; -106.000; -248.000
381.313;  -28.900; -656.000; -470.000
381.443;  -31.850; -692.000; -473.000
381.573;   15.650; -402.000; -409.000
381.703;  -17.925;-1249.000;-1095.000
381.833; -169.200;-1454.000;-1336.000
381.963;   58.575; -134.000;  -87.000
382.093;  597.675; -925.000; -909.000
382.223;  195.875; -713.000; -602.000
382.353;  -61.875; -801.000; -608.000
382.482;  109.300;-1091.000; -964.000
382.612;  312.825; -872.000; -644.000
382.742;  165.350; -695.000; -622.000
382.872;   29.800; -565.000; -551.000
383.002;   36.925;  347.000; -132.000
383.131;  -23.725; -226.000; -160.000
383.261;  -39.525; -706.000; -768.000
383.391;  297.675; -552.000; -377.000
383.521; 4219.550;  451.000;  263.000
383.650; 1212.175; -947.000; -904.000
383.780;   21.025; -783.000; -656.000
383.910;   96.075;  880.000;  802.000
384.039;  -71.450; -794.000; -656.000
384.169;  -14.050;-1205.000;-1017.000
384.299;  -64.400; -650.000; -662.000
384.428;  -98.575; -764.000; -680.000
384.558;  -47.300; -308.000; -275.000
384.687;  -64.175; -414.000; -334.000
384.817;   -1.550;   75.000;   -2.000
384.947;  -17.925; -234.000; -141.000
385.076;  189.850;  982.000;  912.000
385.206;   55.575;  369.000;  480.000
385.335;  -51.600; -549.000; -417.000
385.465;  -95.175; -655.000; -663.000
385.594;   41.400;  -53.000;  -44.000
385.724;  150.375; -868.000; -838.000
385.853;   36.875; -296.000; -270.000
385.982;  586.750; -743.000; -787.000
386.112; 1066.150;-1052.000; -871.000
386.241;   53.675; -307.000; -312.000
386.371;   -1.850; -174.000;  -87.000
386.500;  -26.925; -825.000; -789.000
386.629;    5.675; -874.000; -817.000
386.759;   72.300;  -43.000;   68.000
386.888;    2.050; -170.000; -250.000
387.017;  -92.400; -648.000; -620.000
387.147;  -97.250; -771.000; -798.000
387.276;  -32.300; -410.000; -397.000
387.405;  -17.725; -398.000; -342.000
387.535;  -71.350; -452.000; -361.000
387.664;  -57.200; -692.000; -620.000
387.793;   11.150; -198.000; -113.000
387.922;  263.500;  255.000;  200.000
388.052;  -26.050; -576.000; -423.000
388.181;  -23.100; -342.000; -472.000
388.310;  -52.250; -889.000; -710.000
388.439;  -88.100; -749.000; -742.000
388.568;   88.900;  365.000;  244.000
388.697;  469.275; -756.000; -653.000
388.826;   63.325; -768.000; -666.000
388.956;  -18.500; -285.000; -307.000
389.085;  -45.775; -347.000; -287.000
389.214; -101.075; -842.000; -872.000
389.343;  -59.750; -645.000; -413.000
389.472;  508.425;  126.000;  149.000
389.601;  599.425;   91.000;    0.000
389.730;  -10.850; -568.000; -687.000
389.859;   22.100;  226.000;   46.000
389.988;   90.575; -423.000; -408.000
390.117;   79.625; -168.000; -146.000
390.246;  -35.400; -331.000; -320.000
390.375;  -23.525; -673.000; -626.000
390.504;  -87.325; -703.000; -621.000
390.633; -119.150; -672.000; -726.000
390.761;  -91.225; -732.000; -645.000
390.890;  -13.825;   -4.000; -130.000
391.019;  -64.175; -421.000; -441.000
391.148; -120.575; -826.000; -855.000
391.277;  -68.925; -576.000; -493.000
391.406; -100.775; -821.000; -805.000
391.534;   19.350;  574.000; -301.000
391.663;  -86.800; -583.000; -645.000
391.792;  -91.225; -673.000; -701.000
391.921;   12.775;   -3.000;   15.000
392.050;   39.325; -287.000; -228.000
392.178; -104.025;-1206.000;-1061.000
392.307;   39.625; -758.000; -712.000
392.436;  -15.825; -427.000; -641.000
392.564;   13.625;  166.000;   -6.000
392.693;  -95.600; -860.000; -682.000
392.822;   56.925; -529.000; -534.000
392.950;    0.500; -880.000; -714.000
393.079;  143.675; -188.000; -328.000
393.208;  -27.575; -488.000; -511.000
393.336;  -28.425; -170.000; -145.000
393.465;  -42.325; -317.000; -199.000
393.593;    9.275;   62.000;   79.000
393.722; -140.175;-1121.000; -916.000
393.850;  -14.950; -188.000;  -61.000
393.979; -140.375; -926.000; -805.000
394.107;  -54.625; -517.000; -537.000
394.236;  -32.625; -570.000; -507.000
394.364;  146.200;  383.000;  206.000
394.493;  165.050; -911.000; -767.000
394.621;   14.525; -955.000; -916.000
394.750; 1055.650; -873.000; -923.000
394.878; 4119.100; -247.000; -149.000
395.007; 5999.225; -721.000; -807.000
395.135;  543.275; -790.000; -721.000
395.263;  -64.425;-1038.000;-1040.000
395.392;    5.725;  -25.000; -107.000
395.520; -115.250; -818.000; -679.000
395.648; -109.375; -865.000; -915.000
395.777;  -48.400; -366.000; -405.000
395.905;  -76.950; -449.000; -564.000
396.033;    4.725;  217.000;  172.000
396.162;  246.850; -399.000; -453.000
396.290;  253.625;  -17.000;   -2.000
396.418;  -10.725; -555.000; -514.000
396.546;  -86.925; -571.000; -466.000
396.674; -113.850; -850.000; -878.000
396.803;  -11.975;  -72.000;  -23.000
396.931;   -9.125; -179.000; -199.000
397.059;  -91.550;-1026.000; -989.000
397.187; -127.100;-1026.000; -975.000
397.315; -138.600; -884.000; -649.000
397.443; -100.925; -592.000; -443.000
397.572;  -80.075; -578.000; -424.000
397.700;  -76.625; -607.000; -614.000
397.828;  -24.525;  120.000;  -90.000
397.956;  -26.500; -508.000; -478.000
398.084;  -36.350; -767.000; -626.000
398.212;   17.025;  137.000;  124.000
398.340;  -15.850;  -56.000;  159.000
398.468;  -15.875; -390.000; -169.000
398.596; -141.000; -993.000; -953.000
398.724; -113.075; -762.000; -767.000
398.852; -146.825;-1024.000; -976.000
398.980;  -69.275; -560.000; -560.000
399.108;  -81.350; -982.000; -735.000
399.236;    1.575;   13.000;    8.000
399.363;   -0.300;  222.000;  196.000
399.491;  -51.450; -404.000; -398.000
399.619; -111.875; -829.000; -800.000
399.747;  -92.425; -859.000; -771.000
399.875;   60.475;  220.000;  234.000
400.003;  -64.800; -359.000; -284.000
400.130;  -96.550; -421.000; -341.000
400.258;  -30.600;  -83.000;   38.000
400.386;  -64.150; -352.000; -168.000
400.514;  -83.550; -526.000; -587.000
400.641; -122.325; -928.000; -802.000
400.769; -138.500; -979.000; -888.000
400.897; -116.200; -838.000; -793.000
401.025;  -21.775; -166.000; -152.000
401.152;   -6.575;  220.000;   38.000
401.280;  -71.150; -430.000; -429.000
401.408;  -94.500; -712.000; -576.000
401.535; -114.650; -735.000; -758.000
401.663; -186.875;-1134.000;-1054.000
401.790;  -94.300; -514.000; -525.000
401.918;   29.800;  436.000;  405.000
402.046;  -13.075;  134.000;  122.000
402.173;  -43.650;  -18.000;    7.000
402.301;  -61.725; -519.000; -397.000
402.428;   28.025;  528.000;  383.000
402.556; -141.950;-1188.000; -913.000
402.683;  -43.650;  -20.000;   -1.000
402.811;  -28.100;  -37.000; -206.000
402.938;    4.100;   20.000;   27.000
403.066;   49.400; -574.000; -558.000
403.193;  178.025;  299.000;  239.000
403.321;  136.525; -396.000; -574.000
403.448;  188.700;   83.000;   27.000
403.575;   76.875;  -90.000;  -46.000
403.703;  -95.225; -732.000; -557.000
403.830;  -35.275; -531.000; -496.000
403.957; -119.700;-1117.000;-1023.000
404.085;   31.875;  -61.000; -172.000
404.212;  122.800;  -50.000;   63.000
404.339;  407.950; -566.000; -306.000
404.467; 8210.400; -612.000; -524.000
404.594; 5123.775; -287.000; -227.000
404.721;  946.175; -869.000; -764.000
404.848;  115.075; -113.000; -202.000
404.976;  -91.875; -856.000; -783.000
405.103;    1.100;  -14.000;  -82.000
405.230;    2.675;  190.000;  226.000
405.357;   69.925;  117.000;   44.000
405.484;  388.050;  -49.000;    5.000
405.612;  117.800; -548.000; -563.000
405.739;  -39.025; -488.000; -243.000
405.866;   84.725;  669.000;  385.000
405.993;  -42.300; -398.000; -102.000
406.120; -131.400; -801.000; -887.000
406.247;  -80.825; -323.000; -342.000
406.374;  180.625;  540.000;  629.000
406.501;  -32.675; -632.000; -702.000
406.628; -103.100; -621.000; -589.000
406.755; -108.000; -803.000; -620.000
406.882;  -49.975; -228.000; -277.000
407.009; -113.050; -719.000; -628.000
407.136;  -19.175; -480.000; -401.000
407.263;    0.900; -939.000; -829.000
407.390;  -90.100; -692.000; -614.000
407.517; -163.950;-1139.000;-1187.000
407.644;  -64.650; -332.000; -256.000
407.771;  -59.925; -249.000; -287.000
407.898;    0.450;  168.000;  328.000
408.025;  -69.425; -421.000; -313.000
408.151;   -4.425;   82.000;  153.000
408.278;  -56.825; -267.000; -216.000
408.405; -117.900; -931.000; -899.000
408.532;  -71.975; -549.000; -542.000
408.659; -111.650; -677.000; -648.000
408.785; -193.025;-1298.000;-1170.000
408.912;  -66.650; -412.000; -296.000
409.039; -109.125; -610.000; -686.000
409.166; -102.200; -591.000; -555.000
409.292; -103.250; -571.000; -534.000
409.419; -116.950; -665.000; -649.000
409.546;  -84.800; -431.000; -192.000
409.672; -103.175; -713.000; -545.000
409.799;  -25.775;  -36.000;   34.000
409.926;  -35.300; -180.000; -179.000
410.052; -175.950;-1127.000;-1091.000
410.179;  -73.525; -368.000; -392.000
410.305;  -86.300; -375.000; -493.000
410.432;  -28.725; -220.000; -333.000
410.558;  -89.450; -305.000; -380.000
410.685; -102.075; -688.000; -431.000
410.812; -106.700; -409.000; -588.000
410.938; -136.325; -964.000; -808.000
411.065; -101.550; -671.000; -645.000
411.191;  -37.800; -189.000; -174.000
411.317; -111.075; -823.000; -742.000
411.444;  -65.900; -317.000; -246.000
411.570;  -84.500; -339.000; -294.000
411.697; -109.150; -758.000; -752.000
411.823; -177.700; -989.000; -999.000
411.949;  -43.300;  -56.000;   17.000
412.076; -129.325; -539.000; -519.000
412.202; -121.150; -758.000; -757.000
412.329; -128.925; -798.000; -752.000
412.455; -113.100; -821.000; -657.000
412.581;  -20.100;  -15.000;  172.000
412.707;  -90.025; -540.000; -457.000
412.834;   -2.550;  156.000;  219.000
412.960; -101.375; -785.000; -784.000
413.086; -109.425; -743.000; -701.000
413.212;  137.300;  604.000;  578.000
413.339;  -70.850; -685.000; -701.000
413.465;  -33.250; -364.000; -310.000
413.591;  -99.000; -757.000; -474.000
413.717;  -49.150; -358.000; -366.000
413.843; -137.650; -839.000; -861.000
413.969;  -33.825;  -47.000; -292.000
414.096;  -94.075; -679.000; -679.000
414.222;  -11.625;  -33.000;   85.000
414.348;  -74.275; -652.000; -385.000
414.474;   24.700;   38.000;  -52.000
414.600;   -9.375; -126.000; -144.000
414.726;   -2.625;  -96.000;  -55.000
414.852;  -32.100; -365.000; -342.000
414.978;   51.125;  104.000;  -18.000
415.104;   59.100;   38.000;   80.000
415.230;   49.600; -329.000; -330.000
415.356;   61.925; -409.000; -514.000
415.482;  239.625;   13.000;  -35.000
415.608;  382.675; -247.000; -323.000
415.734; 1295.800;   67.000;   38.000
415.860;26881.975; -875.000; -767.000
415.986;21821.525; -685.000; -607.000
416.111; 2011.650; -798.000; -652.000
416.237;  438.950; -424.000; -571.000
416.363; 1526.375; -765.000; -733.000
416.489; 6102.525; -324.000; -251.000
416.615;  832.325; -707.000; -742.000
416.741;   28.700; -677.000; -784.000
416.866;  -66.300; -673.000; -736.000
416.992;  -99.250; -801.000; -818.000
417.118;  -23.175;  -41.000;  -80.000
417.244;  -61.250; -798.000; -531.000
417.369;  -78.775; -801.000; -612.000
417.495;   -1.025; -325.000; -254.000
417.621;  -86.075;-1015.000; -803.000
417.746;   14.875; -579.000; -572.000
417.872;   63.150; -254.000; -144.000
417.998;  127.525; -515.000; -530.000
418.123; 1429.625;-1073.000; -845.000
418.249; 7921.500; -512.000; -601.000
418.374; 1320.800; -916.000; -824.000
418.500;  200.500; -383.000; -482.000
418.626;  140.675;   70.000;  -59.000
418.751;  152.375; -549.000; -448.000
418.877;  302.975; -637.000; -643.000
419.002; 2357.300; -688.000; -560.000
419.128;17869.375; -930.000; -721.000
419.253; 4986.650; -967.000; -837.000
419.379;  705.800; -391.000; -338.000
419.504;  538.150;  325.000;  415.000
419.629;  756.050; -393.000; -212.000
419.755; 4809.900; -317.000; -254.000
419.880;30977.450;  -98.000;   67.000
420.006;16003.275; -280.000; -221.000
420.131;40625.850; -662.000; -775.000
420.256; 6474.075; -315.000; -316.000
420.382;  879.200; -665.000; -687.000
420.507;  164.275; -649.000; -778.000
420.632;   65.950; -337.000; -339.000
420.758;  128.125; -251.000; -425.000
420.883;  -79.275; -876.000; -672.000
421.008;  -95.525; -775.000; -619.000
421.133;  -89.050; -509.000; -467.000
421.259;  -45.450; -325.000; -259.000
421.384; -128.700; -834.000; -693.000
421.509;  -87.250;-1052.000; -862.000
421.634;  500.200; -936.000; -820.000
421.759;  243.800; -359.000; -327.000
421.885;  -72.125; -717.000; -656.000
422.010;  -75.950; -673.000; -542.000
422.135; -146.575; -695.000; -727.000
422.260;   21.200;  340.000;  280.000
422.385;  -34.525;   12.000;  -98.000
422.510;   -9.725;  151.000;  -26.000
422.635;  -17.675;  -87.000;  -43.000
422.760;   17.500; -766.000; -791.000
422.885;   35.975;  -57.000;  -80.000
423.010;  -17.500; -112.000; -169.000
423.135;  -92.900; -481.000; -561.000
423.260;  -34.800; -150.000; -245.000
423.385;   24.750;  476.000;  222.000
423.510;    3.050;   71.000;  -22.000
423.635;   15.375;  133.000;   45.000
423.760;   66.350;  383.000;  328.000
423.885;   38.200;  336.000;  391.000
424.010;    7.850;  -68.000;  -13.000
424.135;  -12.100;    5.000;  -33.000
424.259;  -54.575; -654.000; -457.000
424.384;  -39.975; -279.000; -272.000
424.509;  -13.375; -260.000; -186.000
424.634;  -83.850; -761.000; -623.000
424.759;  -27.775; -688.000; -544.000
424.883;    1.100; -506.000; -527.000
425.008;  205.900; -502.000; -410.000
425.133; 2662.600; -679.000; -653.000
425.258; 1421.325; -517.000; -381.000
425.382;  661.600; -867.000; -774.000
425.507; 1641.200; -487.000; -543.000
425.632;  388.325; -802.000; -663.000
425.756;  615.350; -256.000; -146.000
425.881; 8591.425; -831.000; -857.000
426.006;26263.600; -604.000; -355.000
426.130; 4296.225; -696.000; -508.000
426.255;  583.375; -611.000; -491.000
426.379;  252.500; -189.000; -577.000
426.504;  489.475;  660.000;  544.000
426.629; 5592.075; -519.000; -466.000
426.753; 4337.950;   64.000;  -46.000
426.878;  533.175; -252.000; -288.000
427.002;  286.600; -651.000; -668.000
427.127; 1931.850;  -35.000; -158.000
427.251;15743.950;  372.000;  401.000
427.375; 5086.350; -191.000; -173.000
427.500; 1676.925; -616.000; -610.000
427.624;  579.600; -234.000; -400.000
427.749;  133.575; -216.000; -225.000
427.873;    1.350; -499.000; -412.000
427.997;  -32.800; -222.000; -230.000
428.122;   71.425;  795.000;  703.000
428.246;   44.425;  433.000;  434.000
428.371; -117.275; -869.000; -773.000
428.495;  -93.975; -624.000; -646.000
428.619;  -28.500; -186.000; -117.000
428.743;    7.600;   65.000;  132.000
428.868;  -39.550; -732.000; -643.000
428.992;  765.775; -219.000; -326.000
429.116;  331.775; -329.000; -357.000
429.240;  175.925;  419.000;  426.000
429.365;  -36.275; -454.000; -574.000
429.489;  -50.075; -638.000; -647.000
429.613;   32.125; -236.000; -177.000
429.737;   87.250; -563.000; -432.000
429.861;  370.975; -247.000; -133.000
429.985; 7487.300; -425.000; -305.000
430.109; 9386.875; -770.000; -908.000
430.234; 1137.950;   76.000;  -50.000
430.358;  132.875; -250.000; -160.000
430.482;  -32.650; -672.000; -564.000
430.606;  -69.050; -655.000; -375.000
430.730;  -45.525; -437.000; -388.000
430.854;  -41.625; -909.000; -835.000
430.978;  -81.700; -795.000; -764.000
431.102;  -80.500; -499.000; -422.000
431.226; -118.525; -874.000; -815.000
431.350;   37.550;  345.000;  422.000
431.474;  -69.700; -661.000; -373.000
431.597; -153.800;-1060.000; -848.000
431.721;  -67.700; -276.000; -267.000
431.845; -136.050; -704.000; -472.000
431.969;  -76.000; -304.000; -349.000
432.093;  -78.175; -395.000; -317.000
432.217;   -3.475;   32.000;   82.000
432.341;  -95.375; -523.000; -518.000
432.464;    6.450;   96.000;   40.000
432.588;   18.725; -401.000; -329.000
432.712;   38.950;  -52.000;  -52.000
432.836;   47.400;  213.000;  263.000
432.959;   14.850; -372.000; -311.000
433.083;  139.300;   11.000;    2.000
433.207;  542.700;  285.000;  930.000
433.330; 6980.925; -391.000; -200.000
433.454; 9573.525; -654.000; -638.000
433.578; 5367.550;  583.000;  278.000
433.701; 1164.925; -623.000; -675.000
433.825;  170.150; -292.000; -299.000
433.949;   96.475;   28.000;  -72.000
434.072;    9.025; -410.000; -323.000
434.196;   -9.625; -309.000; -117.000
434.319; 3600.000;25482.000;25124.000
434.443;  822.525; -656.000; -603.000
434.566; 3730.625;  281.000;   62.000
434.690;  769.475; -637.000; -383.000
434.813;  141.950; -251.000; -173.000
434.937;  -35.950; -569.000; -696.000
435.060;  -54.300; -423.000; -332.000
435.184;   84.900; -492.000; -217.000
435.307;   57.575;  159.000;  102.000
435.431;  -26.550;  -40.000;   24.000
435.554;  -85.825; -399.000; -240.000
435.677;  -84.250; -350.000; -258.000
435.801;  -57.125;  -25.000;   49.000
435.924;  -26.975;    1.000;  -67.000
436.048; -133.200;-1019.000; -732.000
436.171;  -82.600; -240.000;  -66.000
436.294;   -4.125; -248.000; -229.000
436.417;  204.675; -963.000; -849.000
436.541;  -31.650; -814.000; -840.000
436.664;  -45.700; -242.000; -316.000
436.787;  -30.225;   13.000;  113.000
436.910; -105.450; -792.000; -422.000
437.034;  -14.300;  142.000;  143.000
437.157;   26.425;  -11.000;    0.000
437.280;  -62.975; -392.000; -292.000
437.403; -129.700; -982.000; -869.000
437.526;  197.050; -903.000; -865.000
437.649; 1095.700; -505.000; -332.000
437.772;  133.850; -692.000; -540.000
437.896;   79.775;  700.000;  544.000
438.019;  -85.950; -758.000; -503.000
438.142;  -99.075; -596.000; -506.000
438.265;  -94.250; -639.000; -670.000
438.388;  125.300; -520.000; -410.000
438.511;  -32.950; -597.000; -394.000
438.634;  -59.025; -247.000; -125.000
438.757; -140.375; -693.000; -619.000
438.880;  -24.750;  -34.000;  -57.000
439.003;  -91.025; -417.000; -437.000
439.126;  -64.650; -287.000; -167.000
439.248;  -62.725;  -98.000; -139.000
439.371;  -46.150;    9.000;  -53.000
439.494;    9.775;  510.000;  439.000
439.617;  -45.975;   65.000;  -88.000
439.740; -178.975; -968.000; -816.000
439.863; -140.575; -755.000; -595.000
439.986; -117.050; -476.000; -431.000
440.108;  -38.425; -161.000; -112.000
440.231; -154.100; -950.000; -836.000
440.354;  -62.100;  -64.000; -150.000
440.477;  -87.675; -566.000; -542.000
440.599;  -76.250; -200.000; -225.000
440.722; -114.925; -709.000; -586.000
440.845;   65.000;  751.000;  928.000
440.968; -106.000; -415.000; -311.000
441.090;  -73.925; -199.000;  -33.000
441.213; -176.600;-1021.000; -825.000
441.336;  -62.500; -159.000;   -5.000
441.458;  -92.550; -549.000; -396.000
441.581; -106.075; -628.000; -629.000
441.703;  -62.025; -152.000;   13.000
441.826; -114.500; -557.000; -400.000
441.948;  -50.050;   56.000;   51.000
442.071;   23.750;  555.000;  424.000
442.193; -114.850; -531.000; -485.000
442.316;    5.725;  152.000;   97.000
442.438;   61.650; -233.000;  -10.000
442.561;   61.925;  272.000;  262.000
442.683;  216.400; -809.000; -522.000
442.806;  565.375;   -8.000;   74.000
442.928;  -39.550; -859.000; -604.000
443.051;  -70.275; -577.000; -373.000
443.173;  -93.675; -341.000; -339.000
443.295;  -86.925; -263.000; -371.000
443.418;  -69.750; -321.000;  -29.000
443.540;  -24.300; -106.000;   -4.000
443.662; -115.775; -563.000; -465.000
443.785;   -7.275;  335.000;  199.000
443.907;  -87.375; -362.000; -208.000
444.029; -128.825; -767.000; -494.000
444.152; -146.950; -644.000; -554.000
444.274;  -38.300;  -18.000;  -24.000
444.396; -126.100; -461.000; -221.000
444.518; -125.825; -691.000; -454.000
444.640;  -88.800; -268.000; -111.000
444.763;  -17.050;  388.000;  249.000
444.885; -117.025; -432.000; -392.000
445.007;  -32.750;   35.000;   86.000
445.129; -118.925; -610.000; -515.000
445.251; -115.950; -372.000; -439.000
445.373; -131.300; -537.000; -386.000
445.495;   -6.400;  242.000;  350.000
445.617;   30.100;  853.000;  753.000
445.739;  -76.350; -215.000;  -97.000
445.861;  -56.475; -245.000; -112.000
445.984;  -62.150; -267.000; -101.000
446.105;   37.500; -418.000; -251.000
446.227;  255.200; -176.000;  -19.000
446.349;  -36.025; -358.000; -249.000
446.471; -119.050; -615.000; -448.000
446.593;  -83.350; -316.000;   19.000
446.715;  -28.925;  -67.000;   41.000
446.837;   47.150;  697.000;  832.000
446.959;  -92.350; -457.000; -478.000
447.081; -136.400; -628.000; -518.000
447.203;   28.850;  862.000;  834.000
447.325;  -86.775; -270.000;   42.000
447.446;    0.675;  286.000;  530.000
447.568; -150.825; -921.000; -803.000
447.690;  -88.275; -236.000; -245.000
447.812; -139.750; -798.000; -519.000
447.933;  -34.600;  155.000;  127.000
448.055;  -63.325; -306.000; -261.000
448.177;   59.950;   31.000;   79.000
448.299;  -42.025; -935.000; -727.000
448.420;    9.475;  -25.000;  159.000
448.542;  -54.750;   -3.000;   33.000
448.664;  -26.075;  109.000;  322.000
448.785;  -28.775;  265.000;   83.000
448.907;  -92.100; -614.000; -353.000
449.028;  -84.450; -771.000; -471.000
449.150;   42.625;  492.000;  589.000
449.272; -172.625;-1044.000; -913.000
449.393;   23.575;  612.000;  694.000
449.515; -137.875; -634.000; -581.000
449.636;  -61.175; -264.000; -155.000
449.758;   57.100;  763.000;  622.000
449.879;  -81.675; -498.000; -396.000
450.001;  -76.950; -149.000;  -49.000
450.122;  -28.050;  -95.000;  162.000
450.244;  -29.700;   37.000;  364.000
450.365;  -68.225; -495.000; -301.000
450.486;   -9.650;   80.000;  268.000
450.608;   49.000;  393.000;  326.000
450.729;   90.675;  578.000;  645.000
450.850;   70.675; -574.000; -466.000
450.972; 1073.200; -552.000; -389.000
451.093; 7097.925;  190.000;  588.000
451.214; 3564.875; -516.000; -337.000
451.336;  622.475;  773.000;  579.000
451.457;  105.925;  264.000;  393.000
451.578;  -24.575; -118.000;  -74.000
451.699; -112.500; -546.000; -540.000
451.821;  -58.175; -284.000;  -50.000
451.942;   -0.250;  278.000;  285.000
452.063;   49.500;  228.000;  419.000
452.184;  756.275;  -54.000;  -49.000
452.305; 1604.975;  103.000;  170.000
452.427;  292.950; -549.000; -301.000
452.548;   -0.825;   23.000;   79.000
452.669;  -55.050; -257.000;  -89.000
452.790;  -45.675;    3.000;  -18.000
452.911;  -11.950;  195.000;  259.000
453.032;  -63.600; -289.000;  -60.000
453.153;  -61.975;  -29.000;   81.000
453.274;   46.625;  737.000;  868.000
453.395;  -62.425;  -51.000;  175.000
453.516;  114.800; 1317.000; 1388.000
453.637;  -80.225; -205.000; -150.000
453.758;  -56.325;   15.000;   69.000
453.879; -115.475; -462.000; -250.000
454.000;   80.550; 1086.000;  948.000
454.121; -128.075; -554.000; -326.000
454.242; -124.575; -599.000; -383.000
454.362;  -60.550;  -99.000;  114.000
454.483;  -28.125; -309.000; -229.000
454.604;   67.550;  512.000;  580.000
454.725; -129.175; -627.000; -555.000
454.846; -113.025; -474.000; -406.000
454.967;  -17.250;  230.000;  539.000
455.087;  -37.725;  179.000;  153.000
455.208;    5.375;  554.000;  856.000
455.329;  -55.750;  -22.000;   82.000
455.450;   53.100;  473.000;  633.000
455.570;  -71.250; -234.000; -211.000
455.691;  -52.075;  201.000;  407.000
455.812; -105.425; -270.000;  -92.000
455.932;  -46.500;  107.000;  -97.000
456.053;  -65.900;   36.000;   24.000
456.173; -106.000; -433.000; -355.000
456.294; -122.825; -476.000; -303.000
456.415;  -65.025;  -73.000;   70.000
456.535;  -36.500;  297.000;  273.000
456.656;  -44.700;  132.000;  240.000
456.776;  -63.525;    3.000;  298.000
456.897;   -0.425;  308.000;  513.000
457.017;  -69.075; -153.000;   -3.000
457.138;  -96.175; -402.000; -249.000
457.258;  -43.300;  263.000;  224.000
457.379;   -2.500;  509.000;  521.000
457.499;  -35.725;  443.000;  432.000
457.620; -112.325; -407.000; -231.000
457.740;  -84.425; -132.000;  -11.000
457.860;  -48.725;   87.000;   44.000
457.981;  -30.625;  132.000;  124.000
458.101;  -67.850;  -89.000;   40.000
458.221;  -11.900;  336.000;  402.000
458.342;  -59.850;   -4.000;  -37.000
458.462;   50.100;  617.000;  352.000
458.582;   -9.325; -302.000; -294.000
458.703;   46.350;  303.000;  154.000
458.823;    1.900;   22.000;  163.000
458.943;   49.400;  341.000;  467.000
459.063;   25.300; 1124.000;  192.000
459.183;  -20.925;  328.000;  313.000
459.304;   15.750;  315.000;  517.000
459.424;  -49.625; -246.000;  -89.000
459.544;  434.700;  388.000;  764.000
459.664; 1201.650;  499.000;  506.000
459.784;  485.225; 1004.000; 1175.000
459.904;   80.550;  867.000;  744.000
460.024;   64.950;  867.000;  684.000
460.144;   -5.225;  449.000;  554.000
460.264;  -25.550;  515.000;  327.000
460.385;  -99.100; -145.000; -119.000
460.505;   47.975;  905.000;  858.000
460.625;  -85.975;  -17.000;  -68.000
460.745;  -11.700;  396.000;  541.000
460.864;  -30.900;  153.000;  469.000
460.984;   46.300;  499.000;  573.000
461.104;  157.725; 1656.000; 1775.000
461.224;   22.600;  657.000;  650.000
461.344;  -46.425;  431.000;  360.000
461.464;  -31.525;  258.000;  513.000
461.584;  -32.400;  283.000;  466.000
461.704;  -67.425;   58.000;  108.000
461.824;  -46.800;  238.000;  259.000
461.943;  -40.125;  191.000;  130.000
462.063;  -74.600;    2.000;  324.000
462.183;   16.500;  639.000;  717.000
462.303;   84.075; 1678.000; 1230.000
462.422;   28.975;  781.000;  840.000
462.542;  -44.375;  271.000;  391.000
462.662;   42.475;  353.000;  380.000
462.782;  336.775;  833.000;  572.000
462.901;  704.075;  545.000;  717.000
463.021;  368.875; 1702.000; 1638.000
463.141;    6.425;  337.000;  770.000
463.260;  -13.050;  614.000;  474.000
463.380;    7.125;  902.000;  884.000
463.499;  -28.750;  342.000;  332.000
463.619;  -30.000;  581.000;  559.000
463.738;  106.600; 1644.000;  903.000
463.858;   23.975;  657.000;  811.000
463.978;  -28.500;  542.000;  396.000
464.097;   53.525;  921.000; 1114.000
464.217;  143.625; 1196.000; 1143.000
464.336;  139.225; 1068.000; 1130.000
464.455;  -35.800;  328.000;  659.000
464.575;   33.050;  597.000;  602.000
464.694;  108.350; 1204.000; 1179.000
464.814;  149.925; 1190.000; 1138.000
464.933;   67.225; 1095.000; 1027.000
465.052;   95.850; 1412.000; 1054.000
465.172;   77.450;  922.000;  799.000
465.291;  100.825; 1376.000; 1320.000
465.410;   14.525;  462.000;  735.000
465.530;   67.425; 1355.000; 1310.000
465.649;   49.675; 1209.000; 1273.000
465.768;  154.675; 1673.000; 1508.000
465.888;   67.650;  941.000; 1174.000
466.007;   98.225; 1335.000; 1440.000
466.126;   -6.100;  721.000;  641.000
466.245;   41.025; 1176.000; 1187.000
466.364;   17.600;  950.000; 1060.000
466.484;   61.300; 1024.000; 1213.000
466.603;   32.675; 1101.000; 1222.000
466.722;  102.800; 1490.000; 1769.000
466.841;   73.925; 1151.000; 1401.000
466.960;   29.950; 1069.000;  972.000
467.079;  123.600; 1971.000; 1786.000
467.198;   62.900; 1238.000; 1181.000
467.317;   87.900; 1768.000; 1162.000
467.436;   85.400; 1709.000; 1261.000
467.555;  136.550; 1796.000; 1746.000
467.674;   70.125; 1227.000; 1329.000
467.793;   39.400; 1376.000; 1374.000
467.912;   76.825; 1658.000; 1539.000
468.031;  140.450; 2038.000; 1930.000
468.150;  130.000; 1842.000; 1837.000
468.269;  183.025; 2313.000; 2090.000
468.388;  186.075; 2168.000; 2339.000
468.507;  256.300; 2884.000; 2903.000
468.626;  276.275; 2555.000; 2541.000
468.744;  137.400; 2018.000; 2174.000
468.863;  219.900; 2312.000; 2523.000
468.982;   97.400; 1503.000; 1555.000
469.101;  230.025; 2788.000; 2692.000
469.220;  139.875; 2333.000; 2176.000
469.338;  259.425; 2935.000; 3051.000
469.457;  177.400; 2719.000; 2545.000
469.576;  328.800; 3953.000; 3784.000
469.695;  252.675; 2877.000; 3066.000
469.813;  418.100; 4148.000; 4192.000
469.932;  409.525; 4255.000; 4485.000
470.051;  430.925; 4075.000; 4161.000
470.169;  997.575; 4470.000; 4338.000
470.288; 1896.950; 4700.000; 4809.000
470.406; 1089.775; 5059.000; 5194.000
470.525;  665.950; 6101.000; 5787.000
470.644;  649.100; 6847.000; 6794.000
470.762;  798.675; 8397.000; 7873.000
470.881;  904.475; 8651.000; 8464.000
470.999; 1058.100; 9685.000; 9151.000
471.118; 1128.325;11174.000;10711.000

