
Integration time [ms]: 100.000
Averaging Nr. [scans]: 40
Smoothing Nr. [pixels]: 0
Data measured with spectrometer [name]: 2101012U2
Wave   ;Sample   ;Dark     ;Reference
[nm]   ;[counts] ;[counts] ;[counts] 

197.733;   46.225;  516.000;  404.000
197.879;  -76.225; -610.000; -634.000
198.025;  -62.850; -475.000; -420.000
198.171;  -82.175; -602.000; -612.000
198.317;  -37.475; -401.000; -316.000
198.463;  -61.550; -655.000; -404.000
198.609;   40.125;  181.000; -137.000
198.755;  -80.050; -644.000; -410.000
198.901;  -76.600; -505.000; -424.000
199.047;  -64.750; -615.000; -488.000
199.193;  -44.775; -230.000; -468.000
199.339;  -38.250; -222.000; -369.000
199.485;   34.850;  330.000;  271.000
199.631;    8.950;  227.000;  310.000
199.777;  -38.300; -466.000; -398.000
199.923;  -75.250; -610.000; -424.000
200.069;   -2.075; -141.000;  -58.000
200.215;   51.425;  128.000;  453.000
200.361;   41.425;  243.000;  477.000
200.507;  -70.125; -600.000; -373.000
200.653;  -34.450; -371.000; -194.000
200.798;  -32.125; -215.000; -125.000
200.944;   -2.050; -146.000;  -41.000
201.090;   36.000;   61.000;  222.000
201.236;   -9.900; -116.000; -158.000
201.382;  124.125;  874.000;  903.000
201.528;    5.400;  -58.000;  -48.000
201.674;  -60.825; -386.000; -293.000
201.819;  -67.500; -540.000; -439.000
201.965;  -93.400; -699.000; -447.000
202.111;  -17.950; -273.000; -226.000
202.257;  -40.250; -250.000; -238.000
202.402;   10.575;   13.000;  -36.000
202.548;  -26.175; -169.000; -116.000
202.694;   80.800;  410.000; -183.000
202.840;  -77.550; -603.000; -531.000
202.985;  -71.150; -681.000; -639.000
203.131; -100.575; -832.000; -666.000
203.277;  -20.775; -199.000; -262.000
203.423;  -49.600; -434.000; -520.000
203.568;  -33.675; -462.000; -237.000
203.714;  -67.875; -535.000; -542.000
203.860;  -97.225; -682.000; -641.000
204.005;   15.275;  112.000;  167.000
204.151;   87.925;  561.000;  556.000
204.296;  -48.025; -354.000; -221.000
204.442;  -75.625; -600.000; -547.000
204.588;  -63.800; -592.000; -579.000
204.733;   11.150;  178.000;  168.000
204.879; -139.450;-1018.000; -822.000
205.025;   12.225;  -99.000;  126.000
205.170;   14.025;  -17.000;   94.000
205.316;   82.825;  438.000;  661.000
205.461;  -95.525; -698.000; -554.000
205.607;   96.975;  609.000;  665.000
205.752;  -73.650; -626.000; -551.000
205.898;  -57.050; -501.000; -391.000
206.043;  -74.650; -578.000; -506.000
206.189;  -45.825; -243.000; -285.000
206.334;   77.550;  554.000;  606.000
206.480;   76.625;  409.000;  239.000
206.625;  -79.725; -529.000; -552.000
206.771;  -46.800; -451.000; -373.000
206.916;  -31.325; -210.000; -537.000
207.062;  -69.575; -545.000; -591.000
207.207;  -56.925; -546.000; -443.000
207.353;   40.950;  185.000;  460.000
207.498;   11.275;  196.000;   85.000
207.643;  -55.500; -501.000; -370.000
207.789; -124.400;-1069.000; -910.000
207.934; -105.175; -665.000; -713.000
208.080;  -30.900; -154.000;   66.000
208.225;    1.425;  -22.000;  -57.000
208.370;  -72.800; -727.000; -619.000
208.516;  -83.375; -741.000; -487.000
208.661;  -23.475; -127.000;  -69.000
208.806;  -29.550; -165.000; -171.000
208.952; -135.850;-1044.000; -731.000
209.097;   66.725;  378.000;  349.000
209.242;  -39.900; -307.000; -382.000
209.387;   60.325;  392.000;  350.000
209.533;  -56.575; -321.000; -350.000
209.678;   70.875;  472.000;  543.000
209.823;  -50.475; -408.000; -310.000
209.969; -116.150; -860.000; -757.000
210.114; -114.425; -907.000; -719.000
210.259; -130.900; -939.000; -889.000
210.404;   -8.750; -171.000;  103.000
210.549;    7.625;  108.000;    3.000
210.695;  -25.975;   -3.000;  -95.000
210.840;   25.625;   94.000;   67.000
210.985;  -66.175; -484.000; -303.000
211.130;   82.300;  268.000;  406.000
211.275;    4.525;  207.000;  199.000
211.420;  -63.675; -300.000; -289.000
211.566;  -72.450; -536.000; -489.000
211.711;   15.725;  218.000;  157.000
211.856;  -66.775; -545.000; -519.000
212.001;   19.300;  151.000;   44.000
212.146;   26.450;  153.000;   49.000
212.291;  -22.850; -210.000; -186.000
212.436;  -29.425; -280.000;   -6.000
212.581;  -82.075; -685.000; -653.000
212.726;  -73.075; -487.000; -538.000
212.871;  -58.525; -552.000; -217.000
213.016; -157.525;-1172.000;-1029.000
213.161;   48.075;  406.000;  291.000
213.306;  -90.925; -435.000; -577.000
213.451;  -95.525; -778.000; -689.000
213.596;  -54.325; -455.000; -347.000
213.741;  -60.850; -448.000; -538.000
213.886;  -80.150; -498.000; -517.000
214.031;  -34.675; -294.000; -124.000
214.176;  -54.025; -408.000; -341.000
214.321;  -25.325; -296.000; -157.000
214.466;  -17.275; -163.000;  -43.000
214.611;   -1.200;  -61.000;  -10.000
214.756; -133.975; -948.000; -858.000
214.901;  -22.850; -388.000; -226.000
215.046; -119.025; -797.000; -825.000
215.191;   11.950;  128.000;   35.000
215.336;  -21.650; -157.000;  -19.000
215.480;  -82.925; -684.000; -505.000
215.625;  -14.650; -175.000;  -19.000
215.770;  -76.425; -757.000; -662.000
215.915;  -12.800;   -5.000;  -97.000
216.060;    2.500; -113.000;  -21.000
216.205; -130.375; -731.000; -779.000
216.349;  -60.500; -470.000; -533.000
216.494; -134.075; -939.000; -867.000
216.639; -117.450; -823.000; -888.000
216.784;  -85.675; -577.000; -525.000
216.929;   51.325;  392.000;  281.000
217.073;  -15.800; -244.000;  -31.000
217.218;   18.450;   78.000;  -47.000
217.363;  -92.400; -656.000; -618.000
217.507;  -78.775; -623.000; -588.000
217.652; -124.275; -845.000; -874.000
217.797;  -94.725; -708.000; -659.000
217.942; -111.675; -856.000; -720.000
218.086;   62.925;  608.000;  539.000
218.231;  -20.550; -174.000;  -26.000
218.376;  -39.375; -337.000; -229.000
218.520;    1.875;  -41.000;   96.000
218.665;  -27.400; -338.000; -204.000
218.810;  -43.125; -275.000; -233.000
218.954;   18.325;  201.000;   35.000
219.099; -121.100; -713.000; -963.000
219.243;  -77.150; -589.000; -554.000
219.388;  -33.725; -264.000; -136.000
219.532;   -4.000; -116.000; -116.000
219.677;  -85.050; -564.000; -521.000
219.822;    6.325;   33.000;   89.000
219.966;   -2.800;   17.000;  -99.000
220.111;  -30.850; -328.000;  -40.000
220.255; -102.725; -797.000; -750.000
220.400;  -18.025; -180.000; -146.000
220.544;  -79.200; -516.000; -450.000
220.689;  -53.475; -422.000; -451.000
220.833;   -7.400; -123.000;  -58.000
220.978;  -50.475; -393.000; -563.000
221.122;   19.375;  319.000;  307.000
221.267; -111.250; -906.000; -837.000
221.411;  -74.100; -478.000; -394.000
221.555;  -10.600; -104.000;  -23.000
221.700;  -51.075; -329.000; -222.000
221.844;   29.250;  255.000;  272.000
221.989;  -46.425; -328.000; -311.000
222.133;  -55.750; -289.000; -307.000
222.277;   -0.875;    5.000;   78.000
222.422;   27.275;  227.000;  113.000
222.566;  -46.225; -381.000; -214.000
222.711;  -66.100; -414.000; -479.000
222.855;  -80.375; -643.000; -586.000
222.999;  -93.300; -642.000; -717.000
223.144;  -33.175; -195.000; -194.000
223.288;   47.550;  423.000;  251.000
223.432;   23.375;  184.000;  230.000
223.576;   18.325;  152.000;  -21.000
223.721;   41.875;  364.000;  273.000
223.865;  -65.250; -472.000; -475.000
224.009;  280.150; 1673.000; 1631.000
224.153;  -74.425; -660.000; -671.000
224.298;  -88.525; -531.000; -489.000
224.442;  -14.900;  -74.000;  -33.000
224.586;  -14.500; -169.000; -106.000
224.730; -102.675; -858.000; -670.000
224.875; -114.900; -739.000; -688.000
225.019;    9.950;  102.000;  188.000
225.163;   51.300;  208.000;  341.000
225.307;   15.225;   97.000;  -91.000
225.451;   50.500;  360.000;  481.000
225.595;   31.600;  264.000;  176.000
225.739;  -15.600; -170.000;  -94.000
225.884;    6.425;   86.000;    5.000
226.028; -112.475; -760.000; -626.000
226.172;  -30.775; -260.000; -273.000
226.316; -121.350; -941.000; -902.000
226.460;  -85.725; -645.000; -493.000
226.604;  -63.500; -406.000; -400.000
226.748; -102.100; -836.000; -733.000
226.892;  -44.100; -227.000; -181.000
227.036;  -46.525; -537.000; -447.000
227.180;  -67.350; -551.000; -375.000
227.324;  -62.600; -561.000; -580.000
227.468; -111.350; -819.000; -717.000
227.612;   13.850;  242.000;  -28.000
227.756; -100.550; -845.000; -698.000
227.900;   44.500;  342.000;  441.000
228.044;  -46.225; -509.000; -290.000
228.188;   59.100;  448.000;  568.000
228.332;  -91.750; -546.000; -472.000
228.476;  -40.075; -223.000; -149.000
228.620;  -35.325; -210.000; -150.000
228.764;   68.500;  431.000;  349.000
228.908;  -22.700; -155.000;   30.000
229.052;  -64.525; -615.000; -528.000
229.195;  -16.300; -172.000;   13.000
229.339;  -28.825; -235.000; -305.000
229.483;  -26.450;    5.000; -162.000
229.627;   -7.550; -156.000;  139.000
229.771;  -47.800; -218.000; -294.000
229.915;   26.050;  230.000;   79.000
230.059; -100.950; -648.000; -663.000
230.202;  -35.725; -370.000; -317.000
230.346;  -16.325; -107.000;  107.000
230.490;  -71.450; -489.000; -521.000
230.634; -116.750; -736.000; -553.000
230.777;   88.600;  478.000;  509.000
230.921;  -49.975; -450.000; -359.000
231.065;  -45.150; -246.000; -286.000
231.209;   18.100;  261.000;  265.000
231.352;   22.300;   54.000;   40.000
231.496;   24.725;  568.000;  188.000
231.640;  -81.800; -693.000; -621.000
231.783;   67.350;  546.000;  525.000
231.927;  -65.650; -294.000; -365.000
232.071; -126.300; -962.000; -736.000
232.214; -108.600; -980.000; -764.000
232.358; -101.025; -683.000; -599.000
232.502;   -0.925;  -19.000;    7.000
232.645; -138.850;-1090.000; -927.000
232.789;  -20.750; -257.000; -218.000
232.933;  -46.800; -407.000; -224.000
233.076; -133.300;-1038.000; -897.000
233.220; -112.375; -752.000; -777.000
233.363;  -80.225; -669.000; -477.000
233.507;   45.450;  371.000;  129.000
233.650; -100.800; -764.000; -834.000
233.794;   57.500;  438.000;  461.000
233.938;  -76.775; -530.000; -362.000
234.081;  -16.600;  -93.000;   31.000
234.225;  -81.600; -631.000; -539.000
234.368; -113.475; -773.000; -723.000
234.512;  -51.325; -385.000; -299.000
234.655; -105.350; -582.000; -555.000
234.798;  -69.350; -493.000; -466.000
234.942; -124.825; -884.000;-1002.000
235.085;  -79.775; -651.000; -443.000
235.229;  -79.175; -405.000; -410.000
235.372;  -38.350; -247.000; -191.000
235.516;  -59.100; -397.000; -321.000
235.659;   22.425;   92.000;  121.000
235.802;   -8.225;  -38.000;  -22.000
235.946;   27.975;  335.000;  215.000
236.089;   33.300;  126.000;  250.000
236.233;   53.000;  275.000;  298.000
236.376;  -49.950; -235.000; -378.000
236.519;  -45.025; -297.000; -319.000
236.663;  -36.775; -215.000; -117.000
236.806; -147.025;-1029.000; -999.000
236.949;   54.850;  543.000;  431.000
237.092;   56.125;  412.000;  391.000
237.236;  -89.975; -589.000; -502.000
237.379;   47.650;  352.000;  428.000
237.522; -121.175; -879.000; -768.000
237.666;  -18.825; -271.000;   18.000
237.809; -126.675; -851.000; -823.000
237.952;   38.025;  469.000;  271.000
238.095;  -81.975; -447.000; -442.000
238.238;   87.925;  688.000;  700.000
238.382;   -5.850;  166.000;  103.000
238.525;  -81.525; -598.000; -511.000
238.668; -148.650;-1060.000; -985.000
238.811;  -88.150; -638.000; -643.000
238.954;  -61.350; -483.000; -334.000
239.097;  100.725;  617.000;  664.000
239.241;   26.850;  394.000;  326.000
239.384;  -36.125; -254.000; -214.000
239.527;  -56.000; -424.000; -224.000
239.670; -154.125; -994.000;-1091.000
239.813; -122.050; -696.000; -658.000
239.956;   65.825;  579.000;  473.000
240.099; -117.300; -778.000; -725.000
240.242;   62.100;  428.000;  432.000
240.385;   48.425;  466.000;  450.000
240.528;  -79.500; -706.000; -473.000
240.671;   14.975;  189.000;  134.000
240.814;  -49.150; -441.000; -158.000
240.957; -109.350; -767.000; -578.000
241.100;  -93.550; -779.000; -755.000
241.243; -155.675;-1234.000; -893.000
241.386;  -81.850; -508.000; -379.000
241.529; -102.900; -735.000; -547.000
241.672;  -70.150; -566.000; -495.000
241.815; -130.600; -832.000; -808.000
241.958;  -29.300; -125.000; -182.000
242.101;  -78.950; -545.000; -390.000
242.244;  -41.075; -270.000; -325.000
242.387;  -44.325; -304.000; -246.000
242.530;   46.525;  470.000;  134.000
242.673;  -59.200; -381.000; -309.000
242.815; -128.175; -925.000; -899.000
242.958;  -64.750; -482.000; -381.000
243.101;    0.875;  132.000;  187.000
243.244;  -79.050; -564.000; -521.000
243.387;  -48.600; -313.000; -316.000
243.530;  -98.525; -657.000; -674.000
243.672;    3.900;   43.000;  -92.000
243.815;  -52.850; -355.000; -283.000
243.958;    7.725;   98.000;  -26.000
244.101;   -1.325;   59.000;  -16.000
244.243;  -15.325;  -47.000;  101.000
244.386; -116.350; -761.000; -630.000
244.529;  -30.000; -132.000; -139.000
244.672; -157.025;-1154.000; -951.000
244.814; -115.275; -621.000; -794.000
244.957;  -48.475; -380.000; -304.000
245.100;  -78.050; -489.000; -489.000
245.242;  -69.675; -387.000; -374.000
245.385;    8.025;  -59.000;  -39.000
245.528; -131.850; -871.000; -705.000
245.670;   69.925;  612.000;  634.000
245.813;  -89.700; -599.000; -547.000
245.956;  -29.700; -324.000; -275.000
246.098;  -79.900; -508.000; -650.000
246.241;    5.425;  194.000;   48.000
246.383;  -20.500; -119.000;  -73.000
246.526;  -76.200; -454.000; -525.000
246.669; -133.275; -889.000; -780.000
246.811;    2.200;  172.000;   -1.000
246.954;  -59.225; -512.000; -426.000
247.096;  -21.800;  -84.000;   -6.000
247.239;  -76.200; -482.000; -445.000
247.381;  -88.175; -647.000; -488.000
247.524;   88.500;  645.000;  679.000
247.666;   -9.475;   58.000;   11.000
247.809; -110.675; -887.000; -691.000
247.951;  -22.825;  -75.000;  138.000
248.094;   23.550;  432.000;  308.000
248.236; -174.025;-1262.000;-1238.000
248.378;  -60.125; -356.000;  -81.000
248.521;  -44.000; -334.000; -337.000
248.663;  -43.625; -236.000; -267.000
248.806;  -50.700; -300.000; -266.000
248.948; -145.750; -886.000; -763.000
249.090;  -74.750; -428.000; -398.000
249.233;  -79.850; -344.000; -381.000
249.375;  -80.275; -474.000; -451.000
249.518;  -22.325;  -83.000; -133.000
249.660;  -22.900; -103.000;    3.000
249.802; -197.275;-1303.000;-1189.000
249.945;  -97.000; -612.000; -540.000
250.087; -123.450; -834.000; -768.000
250.229;  -59.275; -362.000; -480.000
250.371;  -71.675; -494.000; -439.000
250.514;  -53.100; -310.000; -244.000
250.656;  -61.325;   69.000;  102.000
250.798; -123.375; -849.000; -800.000
250.940;  -75.725; -322.000; -322.000
251.083;  -32.125; -335.000; -111.000
251.225;   45.100;  338.000;  310.000
251.367;  -50.800; -274.000; -373.000
251.509;  -44.125; -265.000; -210.000
251.651;  -96.850; -731.000; -671.000
251.794;   73.775;  538.000;  632.000
251.936; -126.525; -821.000; -747.000
252.078;  -74.175; -540.000; -461.000
252.220;  -95.125; -645.000; -477.000
252.362;   26.125;  344.000;  462.000
252.504;  -87.075; -677.000; -584.000
252.646; -119.700; -875.000; -722.000
252.788;  -27.900;   14.000; -128.000
252.931;  -38.775; -257.000; -253.000
253.073;  -59.575; -376.000; -317.000
253.215;  -13.875;  141.000;  122.000
253.357;  -23.150;   82.000; -153.000
253.499;  -64.050; -374.000; -234.000
253.641;  -96.850; -749.000; -594.000
253.783;  -99.975; -609.000; -527.000
253.925;  -96.600; -586.000; -591.000
254.067; -116.850; -744.000; -667.000
254.209;  -42.050; -391.000; -259.000
254.351; -138.300; -865.000; -883.000
254.493;  -80.975; -441.000; -417.000
254.635; -141.525; -936.000; -818.000
254.777; -107.550; -752.000; -687.000
254.918;  -67.650; -512.000; -430.000
255.060;  -62.800; -551.000; -395.000
255.202;  -72.350; -473.000; -261.000
255.344;  -93.450; -658.000; -455.000
255.486;  -92.725; -471.000; -406.000
255.628; -114.550; -780.000; -781.000
255.770;  -79.900; -676.000; -536.000
255.912;  -81.125; -559.000; -468.000
256.053;  -90.375; -730.000; -508.000
256.195;  159.725; 1008.000;  903.000
256.337; -102.800; -861.000; -595.000
256.479;   48.975;  532.000;  416.000
256.621;  -64.750; -394.000; -212.000
256.762; -112.575; -789.000; -742.000
256.904;   51.250;  485.000;  487.000
257.046;  -51.600; -381.000; -271.000
257.188;  -47.825; -351.000; -264.000
257.329;  -76.275; -525.000; -464.000
257.471; -126.725; -939.000; -807.000
257.613;  -79.125; -584.000; -498.000
257.755; -160.750;-1073.000; -982.000
257.896;   21.950;  286.000;  392.000
258.038;  -82.850; -403.000; -352.000
258.180;  -50.825; -354.000; -279.000
258.321;  -87.425; -581.000; -457.000
258.463;  -18.600;  -71.000;  133.000
258.605; -116.800; -562.000; -570.000
258.746; -122.600; -886.000; -772.000
258.888; -160.425;-1026.000;-1020.000
259.029;   16.000;  121.000;   -8.000
259.171;  -94.500; -614.000; -550.000
259.313;  -12.175;  -49.000;  -47.000
259.454; -100.600; -536.000; -414.000
259.596;  -74.550; -483.000; -390.000
259.737;  -71.550; -590.000; -474.000
259.879;   23.525;  217.000;  311.000
260.020;   82.000;  901.000;  636.000
260.162;  -47.500; -146.000; -253.000
260.303; -128.825; -768.000; -687.000
260.445;  -90.725; -609.000; -613.000
260.586;   25.000;  392.000;  157.000
260.728;  -61.400; -360.000; -248.000
260.869; -129.000; -350.000; -343.000
261.011;   80.725;  706.000;  537.000
261.152;  -72.700; -479.000; -319.000
261.293;  -79.775; -576.000; -595.000
261.435;  -32.350; -219.000; -184.000
261.576;  -65.950; -455.000; -325.000
261.718;   52.400;  420.000;  470.000
261.859; -134.775; -940.000; -949.000
262.000; -135.450; -951.000;-1016.000
262.142;  -38.600;  -52.000;  -60.000
262.283; -130.375; -808.000; -691.000
262.424; -106.250; -666.000; -625.000
262.566; -164.575;-1161.000; -983.000
262.707; -121.150; -840.000; -830.000
262.848; -133.900; -769.000; -726.000
262.990;  -43.925; -362.000; -345.000
263.131;   72.625;  650.000;  681.000
263.272;  -30.400;  -61.000;  -41.000
263.413;  -99.675; -589.000; -561.000
263.555;  -73.025; -669.000; -143.000
263.696;  -97.425; -550.000; -641.000
263.837;  -76.375; -449.000; -551.000
263.978;  -25.750;   -5.000;  -77.000
264.119;  -51.325; -283.000; -264.000
264.261; -135.175; -847.000; -630.000
264.402;   -3.075;   33.000;   40.000
264.543;  -86.350; -509.000; -524.000
264.684;  -20.600;   61.000;  -50.000
264.825;  -85.900; -816.000; -538.000
264.966;  -14.925;  -84.000;  -67.000
265.107; -131.325; -646.000; -670.000
265.248; -132.100; -825.000; -812.000
265.390;  -29.875;  152.000;   -9.000
265.531;  -25.100; -238.000; -107.000
265.672;  -92.600; -557.000; -630.000
265.813;   50.925;  563.000;  439.000
265.954; -147.025; -959.000; -940.000
266.095;  -25.250; -372.000; -322.000
266.236; -108.700; -686.000; -548.000
266.377;  -45.850; -243.000; -297.000
266.518;  -75.125; -619.000; -547.000
266.659;   26.300;  170.000;  268.000
266.800;   -4.250;   83.000;   85.000
266.941;  -82.600; -487.000; -478.000
267.082;    9.850;  354.000;   99.000
267.223;  -56.400; -344.000; -273.000
267.364; -136.975; -892.000; -686.000
267.504;  -35.825;    3.000;  135.000
267.645;  -13.150;  160.000;   67.000
267.786;  -34.525; -147.000;  -86.000
267.927;  -80.000; -473.000; -379.000
268.068;  -33.625; -186.000;  -61.000
268.209;  -55.650; -175.000; -413.000
268.350;  -78.050; -388.000; -532.000
268.490;  -99.225; -648.000; -521.000
268.631;   18.075;  127.000;  225.000
268.772; -117.925; -874.000; -647.000
268.913;  -55.850; -328.000; -476.000
269.054;  -28.900; -117.000;   12.000
269.194;  -62.400; -418.000; -402.000
269.335; -159.400;-1137.000;-1074.000
269.476;  -33.925;   33.000;  -35.000
269.617;  -58.050; -347.000; -392.000
269.757; -103.900; -713.000; -646.000
269.898; -119.475; -856.000; -613.000
270.039;  -81.325; -415.000; -405.000
270.180; -163.325; -952.000; -816.000
270.320;  -32.800; -190.000; -250.000
270.461;  -52.900; -277.000; -249.000
270.602;  -30.425; -186.000; -156.000
270.742; -137.925; -868.000; -943.000
270.883;  -76.150; -442.000; -390.000
271.023;  -67.800; -358.000; -357.000
271.164;  -98.825; -607.000; -528.000
271.305; -124.550; -666.000; -654.000
271.445;  -90.200; -722.000; -683.000
271.586;  -87.175; -462.000; -283.000
271.726;  -57.325; -397.000; -322.000
271.867;  -89.950; -594.000; -534.000
272.008;  -43.275; -473.000; -285.000
272.148;   38.550;  462.000;  468.000
272.289;  -34.775; -113.000; -181.000
272.429;  -10.425;   19.000;  185.000
272.570; -122.475; -633.000; -737.000
272.710; -132.625; -825.000; -775.000
272.851;  -32.050;  113.000; -130.000
272.991; -174.575;-1173.000;-1077.000
273.131;  -72.475; -419.000; -459.000
273.272; -118.850; -683.000; -723.000
273.412;  -31.175; -143.000;  -31.000
273.553; -103.900; -488.000; -507.000
273.693;  104.200;  913.000;  858.000
273.834; -150.150; -894.000; -692.000
273.974; -115.450; -664.000; -615.000
274.114; -116.400; -772.000; -560.000
274.255;   44.200;  414.000;  373.000
274.395;  -63.075; -180.000; -125.000
274.535;    7.500;  199.000;  350.000
274.676;   15.425;  225.000;   94.000
274.816;  -14.025;  110.000;   34.000
274.956; -115.825; -624.000; -690.000
275.097; -137.350;-1014.000; -922.000
275.237; -130.300; -913.000; -803.000
275.377; -125.625; -778.000; -689.000
275.517; -160.175; -878.000; -937.000
275.658;  -85.375; -590.000; -555.000
275.798;  -95.825; -606.000; -413.000
275.938;    8.275;  215.000;  323.000
276.078;  -94.775; -626.000; -395.000
276.218;   -7.600;   99.000;  104.000
276.359; -155.925;-1026.000;-1024.000
276.499;  -89.300; -605.000; -446.000
276.639;  -41.950; -305.000; -151.000
276.779;  -55.350; -475.000; -357.000
276.919; -116.300; -783.000; -624.000
277.059;  -37.950; -261.000; -212.000
277.199;  -66.125; -357.000; -259.000
277.340;   27.650;  287.000;  175.000
277.480; -127.900; -840.000; -693.000
277.620;   18.100;  192.000;   16.000
277.760; -210.650;-1533.000;-1294.000
277.900;  -26.450;  113.000;   33.000
278.040;   -8.900;  137.000;  159.000
278.180;    1.375;  270.000;  170.000
278.320;  -11.100;   21.000;   56.000
278.460;  -74.450; -443.000; -469.000
278.600; -103.400; -708.000; -598.000
278.740;   31.825;  448.000;  224.000
278.880; -146.475; -768.000; -791.000
279.020;  -42.400; -194.000; -144.000
279.160; -105.325; -672.000; -595.000
279.300; -143.725; -926.000; -873.000
279.440; -114.775; -709.000; -622.000
279.579; -148.775;-1014.000; -929.000
279.719;  -79.975; -410.000; -394.000
279.859;   -3.175;   -4.000;   41.000
279.999;  -31.875; -208.000;  101.000
280.139;  -70.800; -435.000; -387.000
280.279; -126.050; -708.000; -745.000
280.419;  -14.850; -229.000; -147.000
280.559;  -48.525; -259.000; -180.000
280.698; -119.975; -790.000; -639.000
280.838; -132.125; -778.000; -800.000
280.978; -115.800; -846.000; -790.000
281.118; -135.875; -811.000; -704.000
281.257;   -4.475;   24.000;    6.000
281.397; -177.675;-1094.000; -960.000
281.537; -115.950; -599.000; -712.000
281.677;  -31.800; -150.000; -101.000
281.816; -101.775; -700.000; -630.000
281.956;  -50.000; -193.000; -257.000
282.096;  -85.650; -539.000; -396.000
282.235; -130.375; -672.000; -638.000
282.375;  -42.900; -243.000;  -98.000
282.515; -126.750; -715.000; -707.000
282.654;   -3.000;   29.000;  106.000
282.794;    7.425;  388.000;  244.000
282.934;  -78.050; -530.000; -491.000
283.073; -144.625;-1030.000; -857.000
283.213;  -80.325; -460.000; -467.000
283.353;  -81.550; -408.000; -349.000
283.492;  -32.225; -264.000; -296.000
283.632;  -63.550; -254.000; -168.000
283.771; -111.425; -859.000; -730.000
283.911;  -69.550; -369.000; -260.000
284.050; -121.475; -794.000; -748.000
284.190; -179.775;-1229.000;-1096.000
284.329; -164.550;-1055.000; -964.000
284.469; -117.000; -516.000; -591.000
284.608;  -85.425; -559.000; -598.000
284.748;  -95.250; -614.000; -570.000
284.887;  -23.450;  -87.000;  -20.000
285.027; -147.225; -844.000; -892.000
285.166;  -53.350; -192.000; -249.000
285.306;  -31.575; -116.000;  -33.000
285.445;  -74.400; -229.000; -343.000
285.584; -104.375; -630.000; -494.000
285.724;  -62.675; -282.000; -322.000
285.863; -128.850; -857.000; -507.000
286.002;  -81.900; -366.000; -276.000
286.142; -116.400; -715.000; -622.000
286.281;  -76.200; -525.000; -493.000
286.420;  -88.525; -554.000; -417.000
286.560;   91.300;  653.000;  623.000
286.699; -155.050; -958.000; -912.000
286.838;  -99.275; -590.000; -591.000
286.978; -107.800; -533.000; -537.000
287.117; -158.125;-1085.000; -950.000
287.256;  -56.325; -228.000; -211.000
287.395;  -72.850; -197.000; -378.000
287.535;  -69.050; -370.000; -298.000
287.674; -110.750; -509.000; -484.000
287.813;   38.875;  661.000;  533.000
287.952; -147.600;-1010.000; -871.000
288.091; -177.225;-1049.000; -915.000
288.231;  -12.000;   13.000;   15.000
288.370; -191.200;-1217.000;-1200.000
288.509; -113.275; -728.000; -645.000
288.648;  -98.400; -770.000; -548.000
288.787;  -48.300; -243.000;  -87.000
288.926;  -83.325; -454.000; -475.000
289.065;   99.675;  859.000;  672.000
289.204;  -85.300; -377.000; -217.000
289.344; -121.200; -791.000; -690.000
289.483;   -4.350;  416.000;  304.000
289.622;  -46.850; -291.000; -149.000
289.761;  -33.375; -309.000; -166.000
289.900; -123.700; -785.000; -626.000
290.039;  -43.425;  -12.000;  -95.000
290.178;  -62.125; -274.000; -180.000
290.317;  -92.625; -618.000; -479.000
290.456;  -71.550; -463.000; -451.000
290.595; -158.600; -961.000; -833.000
290.734; -149.825; -904.000; -891.000
290.873;  -79.150; -456.000; -420.000
291.011; -134.700; -833.000; -843.000
291.150; -116.600; -770.000; -682.000
291.289;  -52.225; -343.000; -110.000
291.428; -121.925; -599.000; -480.000
291.567;  -71.400; -370.000; -442.000
291.706;  -18.825;  109.000;  154.000
291.845; -121.000; -597.000; -505.000
291.984; -192.925;-1234.000;-1061.000
292.122;   51.725;  602.000;  582.000
292.261;   25.975;  620.000;  463.000
292.400;   -7.525; -144.000;  211.000
292.539; -148.850; -959.000; -813.000
292.678;  -63.350; -325.000; -300.000
292.816; -174.450;-1136.000; -965.000
292.955; -117.450; -844.000; -684.000
293.094;  -57.550; -173.000; -337.000
293.233;  -81.350; -556.000; -400.000
293.371;  -60.050; -225.000;  -84.000
293.510; -130.375; -866.000; -780.000
293.649; -156.100; -959.000; -924.000
293.787; -170.300;-1083.000;-1012.000
293.926;  -33.725; -113.000;  -32.000
294.065;  -66.000; -379.000; -290.000
294.203;   20.400;  298.000;  406.000
294.342;   -8.225;   74.000;  156.000
294.481; 7021.000;51180.000; -836.000
294.619;  -46.500; -425.000; -582.000
294.758; -167.825;-1230.000;-1137.000
294.896;  -26.725; -125.000;    5.000
295.035; -167.900;-1040.000;-1006.000
295.174; -159.850;-1082.000; -954.000
295.312;  -70.450; -323.000; -203.000
295.451;  -82.400; -307.000; -428.000
295.589;  -97.150; -389.000; -518.000
295.728;  -10.675; -292.000; -165.000
295.866;  -20.900;  -36.000;  -51.000
296.005; -106.250; -584.000; -341.000
296.143;  -93.475; -558.000; -596.000
296.282; -135.700; -957.000; -881.000
296.420; -112.275; -657.000; -557.000
296.559; -131.625; -892.000; -633.000
296.697; -116.975; -847.000; -665.000
296.835; -159.100;-1141.000;-1002.000
296.974;  -25.525;  -23.000;   39.000
297.112;  -95.800; -443.000; -504.000
297.251; -128.275; -815.000; -755.000
297.389;  -92.900; -576.000; -438.000
297.527;  -35.425; -145.000;  -83.000
297.666; -106.700; -486.000; -438.000
297.804;  -92.725; -404.000; -264.000
297.942;  -37.625; -136.000; -161.000
298.081;  -40.875; -183.000;   63.000
298.219;  -23.325;  -17.000;  -19.000
298.357;  -51.250; -144.000;  -71.000
298.495; -143.250; -810.000; -812.000
298.634;   -8.225;  245.000;  219.000
298.772;  -51.575; -220.000; -338.000
298.910;  -70.925; -309.000; -182.000
299.048;  -39.600; -130.000; -153.000
299.187;  -60.525; -350.000; -250.000
299.325;  -19.000;   52.000;  122.000
299.463;  -88.300; -389.000; -299.000
299.601;  -51.750; -327.000; -271.000
299.739; -143.000; -908.000; -883.000
299.877; -117.225; -791.000; -703.000
300.016; -168.925;-1095.000; -935.000
300.154;  -27.925;  -19.000; -161.000
300.292;  -78.050; -428.000; -348.000
300.430;  -63.725; -408.000; -291.000
300.568; -156.900; -940.000; -874.000
300.706;  -79.125; -366.000; -469.000
300.844; -178.000;-1108.000; -979.000
300.982;   19.400;  246.000;  282.000
301.120; -150.550; -965.000; -866.000
301.258; -116.050; -812.000; -705.000
301.396;   -8.700;  104.000;  -41.000
301.534;  -65.025; -218.000; -293.000
301.672; -104.975; -664.000; -521.000
301.810; -106.525; -613.000; -545.000
301.948;  -30.300;   53.000;  149.000
302.086;  -45.575; -250.000;  -32.000
302.224; -122.725; -610.000; -585.000
302.362; -108.775; -558.000; -622.000
302.500; -156.875; -923.000; -893.000
302.638;   -1.825;  128.000;  245.000
302.776;  -55.925; -352.000; -408.000
302.913;   27.825;  447.000;  236.000
303.051;  -48.300;  -86.000;  -23.000
303.189;    3.675;   90.000;  118.000
303.327;  -65.750; -341.000; -256.000
303.465; -114.050; -832.000; -588.000
303.603; -121.200; -805.000; -604.000
303.740;   21.775;  417.000;  241.000
303.878; -139.100; -800.000; -759.000
304.016; -124.300; -915.000; -790.000
304.154; -184.650;-1123.000;-1152.000
304.291;  -89.150; -505.000; -554.000
304.429;   -1.625;  102.000;   74.000
304.567; -157.525; -908.000; -893.000
304.705; -100.050; -408.000; -515.000
304.842; -107.625; -616.000; -540.000
304.980;  -10.350;  215.000;   35.000
305.118;  -76.400; -367.000; -365.000
305.255; -165.825; -945.000; -927.000
305.393;    2.725;  178.000;  239.000
305.531; -170.175;-1173.000; -956.000
305.668; -116.500; -663.000; -582.000
305.806;  -73.525; -358.000; -439.000
305.943;  -99.350; -629.000; -637.000
306.081;  -67.650; -378.000; -267.000
306.219; -139.500; -863.000; -748.000
306.356;  -19.900;  158.000;   27.000
306.494;   65.400;  981.000;  761.000
306.631;  -44.250;  -11.000;  -55.000
306.769;  -78.725; -613.000; -485.000
306.906;  -85.825; -284.000; -258.000
307.044;  -81.700; -473.000; -488.000
307.181;  -88.500; -410.000; -332.000
307.319;  -14.250;  112.000;   87.000
307.456; -190.400;-1191.000;-1153.000
307.594; -153.525; -980.000; -727.000
307.731;  -55.225; -371.000; -164.000
307.868;  -22.050;  -15.000;   20.000
308.006; -159.700; -961.000; -847.000
308.143; -110.350; -618.000; -330.000
308.281;  -41.675;  -37.000; -254.000
308.418; -113.075; -748.000; -640.000
308.555; -106.050; -400.000; -250.000
308.693;  -95.725; -577.000; -573.000
308.830; -136.975; -712.000; -657.000
308.967;  -36.625; -215.000;  -95.000
309.105;  -79.825; -507.000; -396.000
309.242;  -77.925; -468.000; -367.000
309.379; -118.575; -577.000; -655.000
309.517; -168.400; -936.000; -948.000
309.654; -149.325; -910.000; -734.000
309.791; -108.075; -662.000; -580.000
309.928; -148.050; -977.000; -914.000
310.065;   71.400;  819.000;  697.000
310.203; -148.500; -825.000; -850.000
310.340;  -92.675; -465.000; -321.000
310.477;  -92.775; -412.000; -516.000
310.614;  -84.575; -383.000; -473.000
310.751; -112.300; -427.000; -518.000
310.889;  -25.650;    1.000;   11.000
311.026; -175.300;-1161.000; -939.000
311.163;  -77.875; -386.000; -380.000
311.300; -104.850; -512.000; -479.000
311.437; -104.875; -658.000; -619.000
311.574; -192.975;-1226.000; -985.000
311.711;  -89.100; -595.000; -433.000
311.848;  -75.675; -380.000; -388.000
311.985;   -8.975;  270.000;   93.000
312.122; -154.625; -932.000; -762.000
312.259; -149.600; -941.000; -994.000
312.396; -117.425; -508.000; -551.000
312.533; -121.725; -812.000; -790.000
312.670; -172.725;-1070.000; -898.000
312.807;  -77.200; -352.000; -367.000
312.944; -111.325; -513.000; -611.000
313.081;  -71.625; -150.000; -415.000
313.218; -156.650;-1111.000; -867.000
313.355;  -76.075; -531.000; -449.000
313.492;  -83.850; -455.000; -292.000
313.629;   76.775;  815.000;  735.000
313.766; -179.000;-1176.000;-1008.000
313.902;  -18.425; -186.000;   21.000
314.039;  -68.100; -372.000; -289.000
314.176;   -5.375;  286.000;  192.000
314.313; -110.775; -569.000; -473.000
314.450; -138.025; -788.000; -684.000
314.587; -100.725; -468.000; -480.000
314.723;  -33.150;  -78.000;  130.000
314.860;   -3.925;  318.000;  332.000
314.997;   -7.600;  223.000;  142.000
315.134;  -89.750; -385.000; -368.000
315.270;  -99.825; -480.000; -496.000
315.407; -174.475;-1094.000; -967.000
315.544; -114.800; -657.000; -538.000
315.681; -108.500; -681.000; -565.000
315.817;  -54.925; -133.000; -176.000
315.954; -100.675; -613.000; -392.000
316.091; -175.250;-1045.000;-1023.000
316.227;  -70.275;  -71.000; -179.000
316.364;  -24.700;   23.000;    6.000
316.500;  -63.900; -113.000; -300.000
316.637;  -65.425; -181.000; -302.000
316.774; -118.750; -625.000; -358.000
316.910; -113.675; -598.000; -629.000
317.047; -117.200; -487.000; -351.000
317.183;  -90.675; -435.000; -566.000
317.320;  -89.425; -367.000; -321.000
317.456; -138.075; -733.000; -805.000
317.593; -115.325; -598.000; -641.000
317.729;  -11.625;  168.000;  -67.000
317.866; -223.525;-1434.000;-1285.000
318.002; -131.675; -708.000; -948.000
318.139; -155.025; -883.000; -867.000
318.275; -143.400;-1003.000; -738.000
318.412;  -97.650; -517.000; -336.000
318.548; -122.450; -751.000; -720.000
318.685; -166.500; -985.000; -888.000
318.821; -136.500; -762.000; -735.000
318.957;  -52.400;   34.000;  -23.000
319.094;   12.250;  297.000;  154.000
319.230; -132.075; -756.000; -742.000
319.367;  -91.375; -471.000; -520.000
319.503;  -93.625; -538.000; -436.000
319.639; -151.250; -877.000; -793.000
319.775; -130.325; -750.000; -685.000
319.912; -105.875; -424.000; -519.000
320.048; -188.500;-1184.000;-1184.000
320.184;   -7.475;   59.000;   70.000
320.321;  -85.625; -497.000; -467.000
320.457;   35.575;  475.000;  662.000
320.593;  -93.325; -375.000; -382.000
320.729; -145.850; -732.000; -734.000
320.866; -109.675; -577.000; -635.000
321.002; -131.500; -759.000; -809.000
321.138;  -82.125; -135.000; -211.000
321.274;  -26.825; -148.000; -115.000
321.410;  -99.000; -585.000; -353.000
321.546; -171.725;-1011.000; -911.000
321.683;   17.375;  400.000;  185.000
321.819;  -37.000;  -48.000; -117.000
321.955; -149.325; -743.000; -722.000
322.091;  -97.650; -585.000; -540.000
322.227;  -77.450; -382.000; -202.000
322.363;  -64.725; -320.000; -215.000
322.499;  -76.900; -343.000; -331.000
322.635;   44.925;  636.000;  443.000
322.771;  -53.375; -139.000;   12.000
322.907;   34.450;  129.000;  327.000
323.043;  -68.575; -115.000; -206.000
323.179;  -97.550; -394.000; -363.000
323.315;  -89.825; -401.000; -371.000
323.451;  -81.225; -328.000; -236.000
323.587;  -72.625;  -60.000;  -77.000
323.723; -108.225; -682.000; -601.000
323.859;  -49.225; -258.000;  -76.000
323.995;  -88.425; -467.000; -409.000
324.131; -160.850; -967.000; -892.000
324.267;  -62.400; -254.000; -276.000
324.402; -165.875; -960.000; -983.000
324.538;  -59.500; -279.000; -104.000
324.674;  -20.525;  164.000;   77.000
324.810;   -2.550;  226.000;  308.000
324.946;  -78.725; -810.000; -658.000
325.082; -107.825; -568.000; -475.000
325.217;  -32.225;  -62.000;   16.000
325.353; -126.800; -764.000; -659.000
325.489; -112.375; -540.000; -506.000
325.625;  -96.025; -579.000; -525.000
325.760;   13.675;  517.000;  376.000
325.896; -110.600; -515.000; -702.000
326.032;  -83.225; -403.000; -352.000
326.168;  -82.025; -462.000; -369.000
326.303;  -86.650; -352.000; -461.000
326.439;  -41.850; -336.000; -276.000
326.575;  -52.400; -190.000;  -29.000
326.710;  -35.050; -156.000;  -30.000
326.846;  -44.275;  146.000;  103.000
326.982; -110.300; -530.000; -548.000
327.117; -106.350; -481.000; -442.000
327.253; -128.575; -745.000; -742.000
327.388; -211.425;-1137.000;-1153.000
327.524; -118.050; -811.000; -578.000
327.659;  -37.400;  -58.000;  -22.000
327.795;  -37.525;   69.000;   45.000
327.931; -120.000; -723.000; -499.000
328.066;  -69.600; -417.000; -276.000
328.202;  -38.650;   12.000; -129.000
328.337;   76.075;  957.000;  713.000
328.473;   14.625;  -12.000;  -74.000
328.608;  -43.750; -256.000; -267.000
328.743; -152.250; -799.000; -664.000
328.879;  -12.925;  214.000;  114.000
329.014;  -46.075; -102.000; -122.000
329.150; -121.900; -358.000; -483.000
329.285; -106.425; -465.000; -466.000
329.421;  -77.575; -548.000; -246.000
329.556;  -42.000;  -36.000;   85.000
329.691; -130.350; -633.000; -615.000
329.827; -116.850; -626.000; -480.000
329.962;  -63.550;  131.000; -301.000
330.097; -124.425; -673.000; -585.000
330.233;  -83.350; -410.000; -223.000
330.368; -162.450; -839.000; -628.000
330.503;  -27.700;    3.000;   98.000
330.638;  -33.650;  -93.000; -125.000
330.774; -115.150; -609.000; -530.000
330.909;  -64.425; -434.000; -244.000
331.044; -120.700; -714.000; -708.000
331.179; -188.800;-1217.000;-1109.000
331.315;  -14.875;   77.000;   20.000
331.450;   -5.650;  157.000;  285.000
331.585; -125.900; -805.000; -706.000
331.720; -105.400; -510.000; -460.000
331.855;  -48.050;  -35.000; -102.000
331.990;  -34.300;   62.000;  138.000
332.126;  -39.650; -110.000;   71.000
332.261;  -82.125; -379.000; -265.000
332.396;  -73.500; -135.000; -242.000
332.531; -186.225;-1074.000;-1031.000
332.666;  -81.925; -519.000; -363.000
332.801; -140.500; -726.000; -807.000
332.936;  -51.100; -192.000; -122.000
333.071; -180.650; -870.000; -817.000
333.206;   -1.850;  307.000;  379.000
333.341;    4.075;  344.000;  418.000
333.476; -122.125; -627.000; -623.000
333.611;  -59.525; -251.000; -173.000
333.746;  -70.650; -381.000; -464.000
333.881; -168.850; -973.000; -935.000
334.016; -159.000; -936.000; -917.000
334.151; -155.725; -746.000; -702.000
334.286;  -16.200;  152.000;  186.000
334.421;  -50.175; -125.000; -178.000
334.556; -110.450; -611.000; -567.000
334.690; -114.100; -631.000; -577.000
334.825;   34.200;  381.000;   83.000
334.960;  -95.175; -285.000; -413.000
335.095;  -53.850;  135.000;  -91.000
335.230; -141.100; -722.000; -738.000
335.365; -181.000;-1084.000; -990.000
335.499; -195.950;-1108.000;-1037.000
335.634;  -36.700;    9.000;  534.000
335.769; -152.775; -755.000; -720.000
335.904; -117.375; -603.000; -561.000
336.038; -140.650; -735.000; -657.000
336.173; -193.000;-1206.000;-1194.000
336.308;  -64.050; -116.000; -189.000
336.443;  -86.125; -544.000; -634.000
336.577; -170.400; -936.000; -787.000
336.712;  -33.525;   -4.000;  -12.000
336.847; -139.950; -724.000; -607.000
336.981;  -78.725; -272.000; -208.000
337.116;   23.000;  615.000;  501.000
337.250;  -89.550; -434.000; -421.000
337.385;  -77.900; -297.000; -208.000
337.520; -111.725; -632.000; -603.000
337.654;  -80.125; -215.000; -126.000
337.789; -163.325; -989.000; -933.000
337.923;  -66.100; -104.000; -205.000
338.058; -132.600; -673.000; -738.000
338.192; -122.125; -611.000; -488.000
338.327;  -40.925;  -18.000; -155.000
338.461; -100.925; -299.000; -469.000
338.596; -140.000; -780.000; -638.000
338.730; -145.400; -767.000; -803.000
338.865;  -44.175;  -46.000; -140.000
338.999; -164.725; -846.000; -702.000
339.134; -118.775; -634.000; -536.000
339.268; -118.150; -741.000; -603.000
339.403; -142.675; -740.000; -775.000
339.537; -141.275; -894.000; -820.000
339.671; -149.475; -829.000; -813.000
339.806; -115.500; -556.000; -512.000
339.940;  -58.525; -261.000; -235.000
340.074; -131.200; -685.000; -510.000
340.209;  -66.600; -351.000; -230.000
340.343; -114.350; -517.000; -573.000
340.477;  120.975;  998.000; 1036.000
340.612; -164.550;-1033.000; -900.000
340.746;  -72.225; -199.000; -243.000
340.880; -164.850; -924.000; -785.000
341.014;  -38.025;  -45.000; -154.000
341.149; -135.575; -756.000; -718.000
341.283; -152.625; -839.000; -754.000
341.417; -162.000;-1124.000; -938.000
341.551; -133.875; -768.000; -708.000
341.685; -119.550; -633.000; -611.000
341.820; -127.450; -562.000; -493.000
341.954;  -97.250; -218.000; -349.000
342.088; -170.875;-1102.000;-1019.000
342.222;   47.450;  565.000;  618.000
342.356;  -97.650; -395.000; -335.000
342.490; -150.275; -880.000; -841.000
342.624;  -76.875; -339.000; -242.000
342.758;  -69.850; -364.000; -312.000
342.892; -119.500; -710.000; -585.000
343.026;  -68.000;  -58.000; -116.000
343.160;  -90.200; -426.000; -376.000
343.294;  -96.850; -474.000; -337.000
343.428; -115.925; -488.000; -448.000
343.562;  -60.075; -172.000;  -23.000
343.696;  -69.675; -385.000; -314.000
343.830;  -84.450; -362.000; -356.000
343.964;  -66.525; -231.000; -168.000
344.098;  -34.375;  199.000;   70.000
344.232;  -76.325; -266.000; -127.000
344.366; -115.550; -567.000; -453.000
344.500; -128.050; -665.000; -744.000
344.634;  -77.000; -324.000; -164.000
344.768; -105.900; -531.000; -341.000
344.902;  -10.950;  278.000;  256.000
345.035; -105.875; -556.000; -496.000
345.169; -163.475; -933.000; -656.000
345.303;  -95.100; -308.000; -482.000
345.437; -146.625; -826.000; -717.000
345.571; -128.475; -675.000; -594.000
345.704; -108.925; -309.000; -532.000
345.838;  -67.275; -331.000; -284.000
345.972; -114.100; -543.000; -495.000
346.106;  -40.400; -179.000; -190.000
346.239;  -77.125; -312.000; -243.000
346.373;  -82.425; -343.000; -302.000
346.507; -178.450; -950.000; -962.000
346.640;  -62.575;  -30.000;   13.000
346.774; -143.600; -650.000; -797.000
346.908;  -34.200; -138.000;  -11.000
347.041; -130.725; -646.000; -593.000
347.175;  -19.175;  259.000;   27.000
347.309; -143.300; -698.000; -628.000
347.442; -143.175; -883.000; -732.000
347.576;   51.250;  670.000;  668.000
347.709;  -39.400; -123.000;  -52.000
347.843; -178.375; -933.000; -825.000
347.976;   -3.025;  235.000;  294.000
348.110; -216.450;-1268.000;-1186.000
348.243; -141.800; -679.000; -772.000
348.377;  -31.025;  -26.000;   60.000
348.510;   21.300;  403.000;  540.000
348.644;  -73.700;  -37.000; -159.000
348.777;  -21.350;  180.000;  191.000
348.911;  -73.400; -142.000; -112.000
349.044;    2.525;  471.000;  448.000
349.178; -193.575;-1069.000;-1006.000
349.311;  -13.175;  141.000;  255.000
349.444; -164.125; -927.000; -813.000
349.578;  -71.650; -347.000; -200.000
349.711; -166.300; -959.000; -862.000
349.845; -124.550; -661.000; -591.000
349.978; -205.075;-1224.000;-1137.000
350.111; -131.325; -546.000; -612.000
350.244; -119.375; -596.000; -700.000
350.378;  -97.900; -392.000; -393.000
350.511;  -95.500; -393.000; -426.000
350.644; -147.950; -808.000; -806.000
350.778;  -44.525;  168.000;  104.000
350.911;  -17.175;  134.000;  140.000
351.044; -129.775; -685.000; -615.000
351.177;  -72.575; -321.000; -281.000
351.310;  -45.675;    3.000; -131.000
351.444; -165.600; -888.000; -788.000
351.577;  -26.625;  140.000;   90.000
351.710;   49.725;  593.000;  417.000
351.843;  -57.575; -165.000;  -77.000
351.976;  -32.025;  149.000;  -79.000
352.109; -121.950; -621.000; -612.000
352.242;  -97.725; -464.000; -419.000
352.376; -129.075; -580.000; -636.000
352.509; -102.575; -437.000; -356.000
352.642; -190.800; -654.000; -604.000
352.775;  -53.675; -141.000;  -98.000
352.908; -166.600; -933.000; -904.000
353.041; -143.375; -814.000; -824.000
353.174; -110.550; -551.000; -424.000
353.307; -147.725; -753.000; -764.000
353.440;   18.800;  541.000;  453.000
353.573; -163.025; -957.000;-1008.000
353.706; -101.350; -384.000; -558.000
353.839;  -79.525; -264.000; -220.000
353.971; -116.800; -657.000; -512.000
354.104; -151.250; -896.000; -835.000
354.237; -147.125; -627.000; -662.000
354.370; -138.975; -846.000; -879.000
354.503; -219.775;-1231.000;-1308.000
354.636;  -89.300; -529.000; -348.000
354.769; -166.100; -937.000; -860.000
354.902;  -82.450; -230.000; -139.000
355.034;  -68.100; -164.000; -220.000
355.167;  -71.300; -262.000; -162.000
355.300; -186.425;-1061.000; -880.000
355.433;  -40.525;  -71.000;  -14.000
355.565; -100.850; -402.000; -384.000
355.698;  -77.500; -356.000; -296.000
355.831; -170.450; -882.000; -801.000
355.964;  -57.975; -285.000; -170.000
356.096; -176.050; -856.000; -843.000
356.229; -117.775; -523.000; -530.000
356.362;  -81.500; -373.000; -266.000
356.494;  -64.525; -229.000; -162.000
356.627;   -6.700;  269.000;  377.000
356.760;  -16.375;  120.000;   53.000
356.892; -137.800; -286.000; -601.000
357.025;   17.700;  403.000;  389.000
357.157;  -75.875; -167.000; -179.000
357.290; -155.375; -856.000; -713.000
357.423; -151.350; -667.000; -556.000
357.555;  -55.275; -217.000; -228.000
357.688; -112.700; -483.000; -364.000
357.820; -157.025; -870.000; -877.000
357.953; -134.125; -563.000; -589.000
358.085; -142.750; -632.000; -612.000
358.218; -188.300;-1131.000; -932.000
358.350;  -38.625;  -58.000;  312.000
358.483; -208.975;-1300.000;-1187.000
358.615; -196.475;-1182.000;-1078.000
358.747; -211.850;-1187.000;-1058.000
358.880; -138.775; -810.000; -744.000
359.012;  -99.175; -376.000; -202.000
359.145;  -93.125; -480.000; -511.000
359.277; -177.200; -962.000; -913.000
359.409;   16.225;  536.000;  231.000
359.542; -148.700; -738.000; -688.000
359.674;  -30.325;   46.000;   13.000
359.806; -112.800; -565.000; -438.000
359.939; -111.250; -617.000; -516.000
360.071; -126.575; -583.000; -579.000
360.203;  -78.425; -411.000; -364.000
360.335;  -34.275;  164.000;  -16.000
360.468;  -76.500; -249.000; -307.000
360.600; -130.600; -547.000; -454.000
360.732; -121.275; -546.000; -423.000
360.864; -203.075;-1216.000;-1044.000
360.996;  -90.250; -516.000; -554.000
361.129; -125.800; -389.000; -598.000
361.261;  -45.250;  110.000; -113.000
361.393;  -76.950; -252.000; -214.000
361.525;  -15.375;   94.000;  244.000
361.657; -157.100; -821.000; -703.000
361.789;  -52.950; -139.000; -155.000
361.921; -137.525; -642.000; -593.000
362.053;   26.975;  524.000;  541.000
362.185;  -28.200;  288.000;   72.000
362.318; -163.450; -709.000; -705.000
362.450;   -1.000;  294.000;  444.000
362.582; -154.625; -913.000; -870.000
362.714;  -99.050; -353.000; -332.000
362.846; -122.050; -606.000; -490.000
362.978; -177.925; -941.000; -811.000
363.109;  -87.775; -161.000; -260.000
363.241; -141.700; -739.000; -749.000
363.373; -121.025; -649.000; -564.000
363.505;  -61.700; -186.000;  -91.000
363.637; -123.750; -787.000; -601.000
363.769; -199.300;-1067.000;-1080.000
363.901; -114.550; -596.000; -654.000
364.033; -198.150;-1103.000;-1062.000
364.165;  -72.225; -283.000; -283.000
364.296;  -83.075; -316.000; -177.000
364.428; -224.925;-1344.000;-1220.000
364.560; -132.625; -679.000; -661.000
364.692; -125.550; -738.000; -835.000
364.824; -116.575; -588.000; -456.000
364.955;  -82.575; -402.000; -564.000
365.087; -186.075;-1097.000; -852.000
365.219; -142.775; -686.000; -816.000
365.351; -127.850; -526.000; -572.000
365.482;  -15.475;  300.000;  240.000
365.614;  -88.675; -402.000; -314.000
365.746; -144.750; -729.000; -752.000
365.877; -147.225; -706.000; -672.000
366.009;  -56.375;  -35.000;  -62.000
366.141; -216.975;-1249.000;-1134.000
366.272; -147.250; -803.000; -719.000
366.404; -163.700;-1005.000; -874.000
366.535;  -52.950; -139.000;  -12.000
366.667; -137.100; -644.000; -649.000
366.799;    5.150;  353.000;  203.000
366.930; -185.475; -862.000; -996.000
367.062; -115.575; -639.000; -613.000
367.193; -159.600; -872.000; -842.000
367.325; -123.675; -580.000; -684.000
367.456;  -77.975; -246.000;   31.000
367.588;  -92.125; -371.000; -318.000
367.719;  -61.175;  -44.000;  -45.000
367.851;  -66.500; -222.000; -241.000
367.982; -166.250; -875.000; -732.000
368.113;  -96.150; -475.000; -358.000
368.245; -178.500; -960.000; -841.000
368.376;  -72.400; -254.000; -302.000
368.508;  -84.975; -188.000; -263.000
368.639; -199.900;-1166.000;-1034.000
368.770; -140.425; -670.000; -589.000
368.902; -173.600; -836.000; -926.000
369.033; -169.650; -906.000; -855.000
369.164; -131.175; -720.000; -653.000
369.296; -139.000; -452.000; -601.000
369.427;  -63.525; -209.000; -144.000
369.558; -117.625; -593.000; -377.000
369.689; -129.750; -721.000; -569.000
369.821; -176.850; -951.000; -845.000
369.952;  -41.675;   42.000; -108.000
370.083;  -84.025; -229.000; -108.000
370.214; -149.850; -735.000; -650.000
370.345;  -41.675;   65.000;   81.000
370.477; -164.975; -810.000; -790.000
370.608;  -76.475; -328.000; -264.000
370.739; -202.575;-1233.000;-1292.000
370.870; -180.900;-1102.000; -923.000
371.001;  -90.475; -378.000; -467.000
371.132; -143.675; -754.000; -735.000
371.263;  -60.950;  -42.000; -148.000
371.394; -162.850; -841.000; -748.000
371.525;   -3.700;  345.000;  225.000
371.657; -150.500; -808.000; -670.000
371.788;  -21.925;  103.000;  199.000
371.919; -114.925; -384.000; -304.000
372.050;  -70.600;  -91.000; -156.000
372.181;  -59.675; -188.000; -294.000
372.311;  -43.125;   42.000; -127.000
372.442; -112.675; -457.000; -451.000
372.573;  -91.900; -444.000; -340.000
372.704; -179.750;-1008.000; -980.000
372.835;  -83.100; -228.000; -289.000
372.966; -136.600; -646.000; -554.000
373.097; -156.600; -575.000; -711.000
373.228; -142.425; -717.000; -542.000
373.359; -144.850; -824.000; -536.000
373.490; -162.600; -881.000; -727.000
373.620; -172.700;-1001.000; -803.000
373.751; -116.450; -332.000; -396.000
373.882; -126.200; -663.000; -733.000
374.013;  -79.275; -449.000; -262.000
374.143; -123.500; -581.000; -659.000
374.274; -176.600; -987.000; -908.000
374.405;  -79.525; -388.000; -276.000
374.536; -114.475; -526.000; -387.000
374.666; -151.775; -759.000; -807.000
374.797; -164.450; -817.000; -868.000
374.928; -118.550; -710.000; -560.000
375.058; -128.875; -535.000; -500.000
375.189;  -67.250;  -59.000;  -93.000
375.320; -180.450; -928.000;-1034.000
375.450; -131.775; -625.000; -616.000
375.581; -117.350; -526.000; -436.000
375.712;  -77.675; -574.000; -250.000
375.842; -112.825; -438.000; -415.000
375.973; -123.000; -554.000; -513.000
376.103; -151.200; -665.000; -648.000
376.234; -124.700; -531.000; -552.000
376.364; -179.375; -944.000; -867.000
376.495;   74.875;  925.000;  529.000
376.625; -120.575; -472.000; -485.000
376.756; -143.850; -709.000; -678.000
376.886; -208.450;-1178.000;-1026.000
377.017; -198.000;-1048.000;-1061.000
377.147; -176.825; -786.000; -782.000
377.278;  -10.450;  174.000;  228.000
377.408; -161.750; -801.000; -815.000
377.538; -142.975; -707.000; -693.000
377.669; -131.150; -537.000; -613.000
377.799; -141.275; -645.000; -635.000
377.929; -120.825; -610.000; -428.000
378.060; -167.400; -781.000; -847.000
378.190; -141.575; -726.000; -531.000
378.320; -113.900; -401.000; -406.000
378.451;  -46.775; -131.000;  -22.000
378.581;  -53.225;  -67.000; -110.000
378.711;   61.375; 1035.000;  866.000
378.841; -131.400; -533.000; -675.000
378.972; -166.950; -871.000; -751.000
379.102; -127.475; -652.000; -579.000
379.232;  -73.050; -126.000;  -73.000
379.362; -172.175;-1001.000; -885.000
379.492; -125.200; -373.000; -424.000
379.623;  -31.675;    0.000;  111.000
379.753; -183.850;-1107.000; -974.000
379.883;  -31.175;   59.000;  156.000
380.013; -195.100;-1081.000;-1017.000
380.143; -195.450;-1097.000;-1056.000
380.273; -172.325; -985.000; -861.000
380.403;  -69.900; -344.000; -257.000
380.533; -164.275; -651.000; -664.000
380.663;  -32.125;  173.000;  128.000
380.793; -210.325;-1027.000;-1074.000
380.923;  -85.750; -103.000;  -34.000
381.053; -148.375; -613.000; -623.000
381.183;  -71.125; -106.000; -248.000
381.313; -125.700; -656.000; -470.000
381.443; -118.250; -692.000; -473.000
381.573; -130.250; -402.000; -409.000
381.703; -203.575;-1249.000;-1095.000
381.833; -238.950;-1454.000;-1336.000
381.963;  -35.650; -134.000;  -87.000
382.093; -177.875; -925.000; -909.000
382.223; -129.075; -713.000; -602.000
382.353; -134.400; -801.000; -608.000
382.482; -183.625;-1091.000; -964.000
382.612; -154.650; -872.000; -644.000
382.742; -130.725; -695.000; -622.000
382.872; -127.950; -565.000; -551.000
383.002;  -33.750;  347.000; -132.000
383.131;  -88.225; -226.000; -160.000
383.261; -141.500; -706.000; -768.000
383.391; -112.400; -552.000; -377.000
383.521;   -3.500;  451.000;  263.000
383.650; -182.950; -947.000; -904.000
383.780; -140.725; -783.000; -656.000
383.910;   36.525;  880.000;  802.000
384.039; -177.100; -794.000; -656.000
384.169; -214.875;-1205.000;-1017.000
384.299; -128.125; -650.000; -662.000
384.428; -149.800; -764.000; -680.000
384.558;  -87.825; -308.000; -275.000
384.687; -112.725; -414.000; -334.000
384.817;  -38.800;   75.000;   -2.000
384.947;  -83.175; -234.000; -141.000
385.076;   90.975;  982.000;  912.000
385.206;    2.175;  369.000;  480.000
385.335; -107.950; -549.000; -417.000
385.465; -157.000; -655.000; -663.000
385.594;  -40.725;  -53.000;  -44.000
385.724; -170.750; -868.000; -838.000
385.853;  -92.950; -296.000; -270.000
385.982; -163.725; -743.000; -787.000
386.112; -175.500;-1052.000; -871.000
386.241;  -93.325; -307.000; -312.000
386.371;  -62.425; -174.000;  -87.000
386.500; -160.875; -825.000; -789.000
386.629; -154.475; -874.000; -817.000
386.759;  -54.250;  -43.000;   68.000
386.888;  -79.500; -170.000; -250.000
387.017; -140.425; -648.000; -620.000
387.147; -161.200; -771.000; -798.000
387.276; -123.075; -410.000; -397.000
387.405;  -92.500; -398.000; -342.000
387.535; -115.275; -452.000; -361.000
387.664; -144.150; -692.000; -620.000
387.793;  -74.475; -198.000; -113.000
387.922;  -13.550;  255.000;  200.000
388.052; -129.500; -576.000; -423.000
388.181; -102.325; -342.000; -472.000
388.310; -156.250; -889.000; -710.000
388.439; -176.550; -749.000; -742.000
388.568;  -35.375;  365.000;  244.000
388.697; -142.950; -756.000; -653.000
388.826; -139.825; -768.000; -666.000
388.956;  -84.200; -285.000; -307.000
389.085;  -97.700; -347.000; -287.000
389.214; -154.250; -842.000; -872.000
389.343; -146.050; -645.000; -413.000
389.472;  -31.800;  126.000;  149.000
389.601;  -33.350;   91.000;    0.000
389.730; -129.275; -568.000; -687.000
389.859;  -14.925;  226.000;   46.000
389.988; -106.250; -423.000; -408.000
390.117;  -79.150; -168.000; -146.000
390.246;  -93.025; -331.000; -320.000
390.375; -150.500; -673.000; -626.000
390.504; -137.225; -703.000; -621.000
390.633; -165.500; -672.000; -726.000
390.761; -146.125; -732.000; -645.000
390.890;  -67.475;   -4.000; -130.000
391.019; -110.950; -421.000; -441.000
391.148; -176.725; -826.000; -855.000
391.277; -131.700; -576.000; -493.000
391.406; -171.775; -821.000; -805.000
391.534;  -25.400;  574.000; -301.000
391.663; -132.650; -583.000; -645.000
391.792; -154.875; -673.000; -701.000
391.921;  -43.875;   -3.000;   15.000
392.050;  -81.525; -287.000; -228.000
392.178; -205.825;-1206.000;-1061.000
392.307; -158.200; -758.000; -712.000
392.436; -143.675; -427.000; -641.000
392.564;  -37.525;  166.000;   -6.000
392.693; -167.000; -860.000; -682.000
392.822; -124.900; -529.000; -534.000
392.950; -151.350; -880.000; -714.000
393.079;  -92.000; -188.000; -328.000
393.208; -123.825; -488.000; -511.000
393.336;  -75.525; -170.000; -145.000
393.465;  -88.950; -317.000; -199.000
393.593;  -42.575;   62.000;   79.000
393.722; -193.275;-1121.000; -916.000
393.850;  -81.250; -188.000;  -61.000
393.979; -187.325; -926.000; -805.000
394.107; -122.125; -517.000; -537.000
394.236; -132.400; -570.000; -507.000
394.364;  -14.025;  383.000;  206.000
394.493; -165.475; -911.000; -767.000
394.621; -177.850; -955.000; -916.000
394.750; -163.700; -873.000; -923.000
394.878;  -81.725; -247.000; -149.000
395.007; -164.175; -721.000; -807.000
395.135; -144.425; -790.000; -721.000
395.263; -192.075;-1038.000;-1040.000
395.392;  -53.200;  -25.000; -107.000
395.520; -169.275; -818.000; -679.000
395.648; -170.625; -865.000; -915.000
395.777; -115.700; -366.000; -405.000
395.905; -116.000; -449.000; -564.000
396.033;  -42.700;  217.000;  172.000
396.162;  -98.825; -399.000; -453.000
396.290;  -75.675;  -17.000;   -2.000
396.418; -119.400; -555.000; -514.000
396.546; -152.225; -571.000; -466.000
396.674; -174.900; -850.000; -878.000
396.803;  -61.675;  -72.000;  -23.000
396.931;  -68.250; -179.000; -199.000
397.059; -196.175;-1026.000; -989.000
397.187; -167.900;-1026.000; -975.000
397.315; -168.275; -884.000; -649.000
397.443; -131.650; -592.000; -443.000
397.572; -107.850; -578.000; -424.000
397.700; -144.450; -607.000; -614.000
397.828;  -68.600;  120.000;  -90.000
397.956; -123.325; -508.000; -478.000
398.084; -153.775; -767.000; -626.000
398.212;  -40.075;  137.000;  124.000
398.340;  -52.075;  -56.000;  159.000
398.468;  -93.700; -390.000; -169.000
398.596; -186.425; -993.000; -953.000
398.724; -159.825; -762.000; -767.000
398.852; -195.800;-1024.000; -976.000
398.980; -118.925; -560.000; -560.000
399.108; -144.150; -982.000; -735.000
399.236;  -32.600;   13.000;    8.000
399.363;  -25.275;  222.000;  196.000
399.491; -127.175; -404.000; -398.000
399.619; -188.900; -829.000; -800.000
399.747; -163.175; -859.000; -771.000
399.875;  -18.000;  220.000;  234.000
400.003; -101.075; -359.000; -284.000
400.130; -123.900; -421.000; -341.000
400.258;  -58.675;  -83.000;   38.000
400.386;  -76.425; -352.000; -168.000
400.514; -126.775; -526.000; -587.000
400.641; -197.075; -928.000; -802.000
400.769; -178.275; -979.000; -888.000
400.897; -152.800; -838.000; -793.000
401.025;  -61.075; -166.000; -152.000
401.152;  -18.775;  220.000;   38.000
401.280; -116.075; -430.000; -429.000
401.408; -147.175; -712.000; -576.000
401.535; -147.250; -735.000; -758.000
401.663; -218.575;-1134.000;-1054.000
401.790; -127.550; -514.000; -525.000
401.918;   11.850;  436.000;  405.000
402.046;  -47.550;  134.000;  122.000
402.173;  -59.425;  -18.000;    7.000
402.301; -101.175; -519.000; -397.000
402.428;   10.025;  528.000;  383.000
402.556; -209.750;-1188.000; -913.000
402.683;  -75.500;  -20.000;   -1.000
402.811;  -62.125;  -37.000; -206.000
402.938;  -61.200;   20.000;   27.000
403.066; -132.175; -574.000; -558.000
403.193;  -45.025;  299.000;  239.000
403.321; -118.675; -396.000; -574.000
403.448;  -36.325;   83.000;   27.000
403.575;  -60.400;  -90.000;  -46.000
403.703; -163.550; -732.000; -557.000
403.830; -122.300; -531.000; -496.000
403.957; -203.375;-1117.000;-1023.000
404.085;  -80.675;  -61.000; -172.000
404.212;  -61.875;  -50.000;   63.000
404.339; -111.375; -566.000; -306.000
404.467; -125.425; -612.000; -524.000
404.594;  -85.075; -287.000; -227.000
404.721; -154.475; -869.000; -764.000
404.848;  -76.875; -113.000; -202.000
404.976; -173.750; -856.000; -783.000
405.103;  -58.425;  -14.000;  -82.000
405.230;  -37.350;  190.000;  226.000
405.357;  -51.925;  117.000;   44.000
405.484;  -83.350;  -49.000;    5.000
405.612; -127.650; -548.000; -563.000
405.739; -117.875; -488.000; -243.000
405.866;   19.425;  669.000;  385.000
405.993;  -98.825; -398.000; -102.000
406.120; -182.825; -801.000; -887.000
406.247; -114.075; -323.000; -342.000
406.374;   19.675;  540.000;  629.000
406.501; -145.600; -632.000; -702.000
406.628; -138.275; -621.000; -589.000
406.755; -163.250; -803.000; -620.000
406.882;  -95.125; -228.000; -277.000
407.009; -132.750; -719.000; -628.000
407.136; -104.750; -480.000; -401.000
407.263; -180.975; -939.000; -829.000
407.390; -150.250; -692.000; -614.000
407.517; -233.475;-1139.000;-1187.000
407.644; -106.000; -332.000; -256.000
407.771; -116.800; -249.000; -287.000
407.898;  -30.500;  168.000;  328.000
408.025; -116.250; -421.000; -313.000
408.151;  -38.775;   82.000;  153.000
408.278; -105.950; -267.000; -216.000
408.405; -177.200; -931.000; -899.000
408.532; -140.375; -549.000; -542.000
408.659; -158.025; -677.000; -648.000
408.785; -219.750;-1298.000;-1170.000
408.912;  -85.900; -412.000; -296.000
409.039; -121.325; -610.000; -686.000
409.166; -136.800; -591.000; -555.000
409.292; -140.800; -571.000; -534.000
409.419; -149.700; -665.000; -649.000
409.546; -108.150; -431.000; -192.000
409.672; -142.725; -713.000; -545.000
409.799;  -78.200;  -36.000;   34.000
409.926;  -85.800; -180.000; -179.000
410.052; -214.075;-1127.000;-1091.000
410.179; -102.200; -368.000; -392.000
410.305; -122.050; -375.000; -493.000
410.432;  -93.675; -220.000; -333.000
410.558; -126.375; -305.000; -380.000
410.685; -129.675; -688.000; -431.000
410.812; -128.675; -409.000; -588.000
410.938; -172.175; -964.000; -808.000
411.065; -141.125; -671.000; -645.000
411.191;  -92.300; -189.000; -174.000
411.317; -185.425; -823.000; -742.000
411.444;  -82.525; -317.000; -246.000
411.570; -106.875; -339.000; -294.000
411.697; -148.775; -758.000; -752.000
411.823; -201.975; -989.000; -999.000
411.949;  -69.700;  -56.000;   17.000
412.076; -135.125; -539.000; -519.000
412.202; -148.875; -758.000; -757.000
412.329; -173.475; -798.000; -752.000
412.455; -170.025; -821.000; -657.000
412.581;  -62.275;  -15.000;  172.000
412.707; -125.400; -540.000; -457.000
412.834;  -31.925;  156.000;  219.000
412.960; -163.500; -785.000; -784.000
413.086; -158.625; -743.000; -701.000
413.212;   13.500;  604.000;  578.000
413.339; -155.500; -685.000; -701.000
413.465; -110.475; -364.000; -310.000
413.591; -155.925; -757.000; -474.000
413.717;  -97.250; -358.000; -366.000
413.843; -191.825; -839.000; -861.000
413.969; -102.125;  -47.000; -292.000
414.096; -157.325; -679.000; -679.000
414.222;  -44.250;  -33.000;   85.000
414.348; -150.600; -652.000; -385.000
414.474;  -71.050;   38.000;  -52.000
414.600;  -84.375; -126.000; -144.000
414.726;  -74.875;  -96.000;  -55.000
414.852; -126.425; -365.000; -342.000
414.978;  -43.700;  104.000;  -18.000
415.104;  -61.100;   38.000;   80.000
415.230; -103.550; -329.000; -330.000
415.356; -132.425; -409.000; -514.000
415.482;  -74.875;   13.000;  -35.000
415.608; -103.425; -247.000; -323.000
415.734;  -52.925;   67.000;   38.000
415.860; -166.300; -875.000; -767.000
415.986; -168.375; -685.000; -607.000
416.111; -157.475; -798.000; -652.000
416.237; -129.900; -424.000; -571.000
416.363; -175.300; -765.000; -733.000
416.489; -103.750; -324.000; -251.000
416.615; -174.325; -707.000; -742.000
416.741; -147.700; -677.000; -784.000
416.866; -163.750; -673.000; -736.000
416.992; -173.125; -801.000; -818.000
417.118; -101.500;  -41.000;  -80.000
417.244; -153.075; -798.000; -531.000
417.369; -165.550; -801.000; -612.000
417.495;  -96.425; -325.000; -254.000
417.621; -201.050;-1015.000; -803.000
417.746; -132.025; -579.000; -572.000
417.872;  -84.800; -254.000; -144.000
417.998; -123.225; -515.000; -530.000
418.123; -204.700;-1073.000; -845.000
418.249; -133.225; -512.000; -601.000
418.374; -189.850; -916.000; -824.000
418.500; -107.000; -383.000; -482.000
418.626;  -51.700;   70.000;  -59.000
418.751; -123.600; -549.000; -448.000
418.877; -163.225; -637.000; -643.000
419.002; -151.300; -688.000; -560.000
419.128; -176.750; -930.000; -721.000
419.253; -187.575; -967.000; -837.000
419.379; -133.750; -391.000; -338.000
419.504;  -17.550;  325.000;  415.000
419.629;  -85.625; -393.000; -212.000
419.755;  -84.500; -317.000; -254.000
419.880;  -96.375;  -98.000;   67.000
420.006;  -92.725; -280.000; -221.000
420.131; -162.800; -662.000; -775.000
420.256;  -93.775; -315.000; -316.000
420.382; -150.900; -665.000; -687.000
420.507; -163.225; -649.000; -778.000
420.632; -116.150; -337.000; -339.000
420.758;  -84.475; -251.000; -425.000
420.883; -158.550; -876.000; -672.000
421.008; -162.775; -775.000; -619.000
421.133; -138.850; -509.000; -467.000
421.259;  -95.650; -325.000; -259.000
421.384; -174.850; -834.000; -693.000
421.509; -173.400;-1052.000; -862.000
421.634; -195.900; -936.000; -820.000
421.759; -111.450; -359.000; -327.000
421.885; -148.125; -717.000; -656.000
422.010; -127.050; -673.000; -542.000
422.135; -181.875; -695.000; -727.000
422.260;  -14.100;  340.000;  280.000
422.385;  -98.175;   12.000;  -98.000
422.510;  -27.950;  151.000;  -26.000
422.635;  -67.850;  -87.000;  -43.000
422.760; -147.300; -766.000; -791.000
422.885;  -66.775;  -57.000;  -80.000
423.010;  -70.300; -112.000; -169.000
423.135; -134.900; -481.000; -561.000
423.260;  -90.025; -150.000; -245.000
423.385;  -21.350;  476.000;  222.000
423.510;  -47.025;   71.000;  -22.000
423.635;  -65.400;  133.000;   45.000
423.760;   -4.775;  383.000;  328.000
423.885;  -39.500;  336.000;  391.000
424.010;  -60.700;  -68.000;  -13.000
424.135;  -72.150;    5.000;  -33.000
424.259; -134.050; -654.000; -457.000
424.384; -124.675; -279.000; -272.000
424.509;  -80.050; -260.000; -186.000
424.634; -168.350; -761.000; -623.000
424.759; -152.800; -688.000; -544.000
424.883; -135.150; -506.000; -527.000
425.008; -140.275; -502.000; -410.000
425.133; -161.150; -679.000; -653.000
425.258; -120.675; -517.000; -381.000
425.382; -174.425; -867.000; -774.000
425.507; -131.325; -487.000; -543.000
425.632; -179.750; -802.000; -663.000
425.756;  -99.200; -256.000; -146.000
425.881; -173.525; -831.000; -857.000
426.006; -119.050; -604.000; -355.000
426.130; -163.625; -696.000; -508.000
426.255; -125.025; -611.000; -491.000
426.379;  -96.450; -189.000; -577.000
426.504;   29.425;  660.000;  544.000
426.629; -149.650; -519.000; -466.000
426.753;  -78.400;   64.000;  -46.000
426.878;  -92.050; -252.000; -288.000
427.002; -172.800; -651.000; -668.000
427.127;  -91.000;  -35.000; -158.000
427.251;  -16.350;  372.000;  401.000
427.375; -112.275; -191.000; -173.000
427.500; -157.175; -616.000; -610.000
427.624; -113.925; -234.000; -400.000
427.749;  -95.975; -216.000; -225.000
427.873; -122.375; -499.000; -412.000
427.997;  -84.975; -222.000; -230.000
428.122;   15.875;  795.000;  703.000
428.246;    3.825;  433.000;  434.000
428.371; -187.300; -869.000; -773.000
428.495; -146.725; -624.000; -646.000
428.619;  -96.725; -186.000; -117.000
428.743;  -37.100;   65.000;  132.000
428.868; -176.900; -732.000; -643.000
428.992; -113.150; -219.000; -326.000
429.116; -106.925; -329.000; -357.000
429.240;  -39.750;  419.000;  426.000
429.365; -126.600; -454.000; -574.000
429.489; -143.950; -638.000; -647.000
429.613;  -96.600; -236.000; -177.000
429.737; -132.400; -563.000; -432.000
429.861; -110.275; -247.000; -133.000
429.985; -113.400; -425.000; -305.000
430.109; -197.300; -770.000; -908.000
430.234;  -39.375;   76.000;  -50.000
430.358; -108.400; -250.000; -160.000
430.482; -159.250; -672.000; -564.000
430.606; -136.925; -655.000; -375.000
430.730; -123.700; -437.000; -388.000
430.854; -189.125; -909.000; -835.000
430.978; -175.600; -795.000; -764.000
431.102; -151.400; -499.000; -422.000
431.226; -181.800; -874.000; -815.000
431.350;   -9.075;  345.000;  422.000
431.474; -125.750; -661.000; -373.000
431.597; -216.950;-1060.000; -848.000
431.721; -116.425; -276.000; -267.000
431.845; -163.600; -704.000; -472.000
431.969; -108.200; -304.000; -349.000
432.093; -115.425; -395.000; -317.000
432.217;  -51.225;   32.000;   82.000
432.341; -143.575; -523.000; -518.000
432.464;  -75.600;   96.000;   40.000
432.588; -144.800; -401.000; -329.000
432.712;  -86.550;  -52.000;  -52.000
432.836;  -35.275;  213.000;  263.000
432.959; -110.600; -372.000; -311.000
433.083;  -84.525;   11.000;    2.000
433.207;    0.150;  285.000;  930.000
433.330; -104.475; -391.000; -200.000
433.454; -151.600; -654.000; -638.000
433.578;   13.300;  583.000;  278.000
433.701; -175.475; -623.000; -675.000
433.825; -113.275; -292.000; -299.000
433.949;  -69.725;   28.000;  -72.000
434.072; -108.950; -410.000; -323.000
434.196;  -87.600; -309.000; -117.000
434.319; 3723.725;25482.000;25124.000
434.443; -164.350; -656.000; -603.000
434.566;  -61.025;  281.000;   62.000
434.690; -129.100; -637.000; -383.000
434.813;  -98.775; -251.000; -173.000
434.937; -147.725; -569.000; -696.000
435.060; -123.000; -423.000; -332.000
435.184; -118.575; -492.000; -217.000
435.307;  -58.000;  159.000;  102.000
435.431;  -55.475;  -40.000;   24.000
435.554; -108.600; -399.000; -240.000
435.677; -108.100; -350.000; -258.000
435.801;  -68.600;  -25.000;   49.000
435.924;  -69.025;    1.000;  -67.000
436.048; -187.850;-1019.000; -732.000
436.171; -111.425; -240.000;  -66.000
436.294; -113.925; -248.000; -229.000
436.417; -199.850; -963.000; -849.000
436.541; -173.300; -814.000; -840.000
436.664;  -81.425; -242.000; -316.000
436.787;  -67.000;   13.000;  113.000
436.910; -157.625; -792.000; -422.000
437.034;  -54.125;  142.000;  143.000
437.157;  -61.350;  -11.000;    0.000
437.280; -125.950; -392.000; -292.000
437.403; -180.975; -982.000; -869.000
437.526; -199.500; -903.000; -865.000
437.649; -133.600; -505.000; -332.000
437.772; -170.325; -692.000; -540.000
437.896;   15.900;  700.000;  544.000
438.019; -164.200; -758.000; -503.000
438.142; -144.825; -596.000; -506.000
438.265; -164.750; -639.000; -670.000
438.388; -113.550; -520.000; -410.000
438.511; -148.950; -597.000; -394.000
438.634; -119.525; -247.000; -125.000
438.757; -162.275; -693.000; -619.000
438.880;  -73.725;  -34.000;  -57.000
439.003; -135.275; -417.000; -437.000
439.126; -100.900; -287.000; -167.000
439.248;  -90.800;  -98.000; -139.000
439.371;  -73.650;    9.000;  -53.000
439.494;    7.125;  510.000;  439.000
439.617;  -66.425;   65.000;  -88.000
439.740; -193.925; -968.000; -816.000
439.863; -162.450; -755.000; -595.000
439.986; -149.800; -476.000; -431.000
440.108;  -99.150; -161.000; -112.000
440.231; -202.375; -950.000; -836.000
440.354;  -97.900;  -64.000; -150.000
440.477; -165.075; -566.000; -542.000
440.599; -131.300; -200.000; -225.000
440.722; -156.325; -709.000; -586.000
440.845;   45.900;  751.000;  928.000
440.968; -133.975; -415.000; -311.000
441.090;  -95.100; -199.000;  -33.000
441.213; -195.200;-1021.000; -825.000
441.336;  -74.125; -159.000;   -5.000
441.458; -123.400; -549.000; -396.000
441.581; -167.725; -628.000; -629.000
441.703;  -90.025; -152.000;   13.000
441.826; -142.825; -557.000; -400.000
441.948;  -71.300;   56.000;   51.000
442.071;   13.225;  555.000;  424.000
442.193; -152.650; -531.000; -485.000
442.316;  -55.375;  152.000;   97.000
442.438;  -95.850; -233.000;  -10.000
442.561;  -42.825;  272.000;  262.000
442.683; -178.250; -809.000; -522.000
442.806;  -83.075;   -8.000;   74.000
442.928; -177.850; -859.000; -604.000
443.051; -139.100; -577.000; -373.000
443.173; -141.750; -341.000; -339.000
443.295; -128.475; -263.000; -371.000
443.418; -113.650; -321.000;  -29.000
443.540;  -74.475; -106.000;   -4.000
443.662; -167.000; -563.000; -465.000
443.785;  -24.775;  335.000;  199.000
443.907; -137.975; -362.000; -208.000
444.029; -152.800; -767.000; -494.000
444.152; -162.075; -644.000; -554.000
444.274;  -58.775;  -18.000;  -24.000
444.396; -143.025; -461.000; -221.000
444.518; -154.625; -691.000; -454.000
444.640; -131.250; -268.000; -111.000
444.763;  -41.200;  388.000;  249.000
444.885; -139.100; -432.000; -392.000
445.007;  -63.425;   35.000;   86.000
445.129; -140.850; -610.000; -515.000
445.251; -152.125; -372.000; -439.000
445.373; -166.100; -537.000; -386.000
445.495;  -30.175;  242.000;  350.000
445.617;   26.900;  853.000;  753.000
445.739; -111.050; -215.000;  -97.000
445.861; -103.450; -245.000; -112.000
445.984;  -92.775; -267.000; -101.000
446.105; -122.925; -418.000; -251.000
446.227;  -98.425; -176.000;  -19.000
446.349; -140.050; -358.000; -249.000
446.471; -146.125; -615.000; -448.000
446.593; -121.175; -316.000;   19.000
446.715;  -82.550;  -67.000;   41.000
446.837;   28.375;  697.000;  832.000
446.959; -131.300; -457.000; -478.000
447.081; -155.100; -628.000; -518.000
447.203;   36.100;  862.000;  834.000
447.325; -103.850; -270.000;   42.000
447.446;  -31.175;  286.000;  530.000
447.568; -194.000; -921.000; -803.000
447.690; -118.575; -236.000; -245.000
447.812; -177.425; -798.000; -519.000
447.933;  -64.575;  155.000;  127.000
448.055; -118.000; -306.000; -261.000
448.177;  -61.175;   31.000;   79.000
448.299; -226.200; -935.000; -727.000
448.420;  -65.100;  -25.000;  159.000
448.542;  -83.050;   -3.000;   33.000
448.664;  -49.225;  109.000;  322.000
448.785;  -59.150;  265.000;   83.000
448.907; -147.875; -614.000; -353.000
449.028; -165.100; -771.000; -471.000
449.150;   12.350;  492.000;  589.000
449.272; -208.475;-1044.000; -913.000
449.393;    5.900;  612.000;  694.000
449.515; -168.025; -634.000; -581.000
449.636; -105.375; -264.000; -155.000
449.758;   16.175;  763.000;  622.000
449.879; -129.275; -498.000; -396.000
450.001; -104.075; -149.000;  -49.000
450.122;  -71.275;  -95.000;  162.000
450.244;  -59.025;   37.000;  364.000
450.365; -131.975; -495.000; -301.000
450.486;  -83.925;   80.000;  268.000
450.608;  -42.275;  393.000;  326.000
450.729;   -6.950;  578.000;  645.000
450.850; -151.250; -574.000; -466.000
450.972; -176.200; -552.000; -389.000
451.093;  -25.400;  190.000;  588.000
451.214; -142.800; -516.000; -337.000
451.336;   42.025;  773.000;  579.000
451.457;  -37.075;  264.000;  393.000
451.578;  -83.025; -118.000;  -74.000
451.699; -150.750; -546.000; -540.000
451.821;  -97.500; -284.000;  -50.000
451.942;  -35.775;  278.000;  285.000
452.063;  -51.550;  228.000;  419.000
452.184; -104.300;  -54.000;  -49.000
452.305;  -50.600;  103.000;  170.000
452.427; -146.700; -549.000; -301.000
452.548;  -88.200;   23.000;   79.000
452.669; -109.075; -257.000;  -89.000
452.790; -107.100;    3.000;  -18.000
452.911;  -55.625;  195.000;  259.000
453.032; -112.050; -289.000;  -60.000
453.153;  -80.575;  -29.000;   81.000
453.274;   41.600;  737.000;  868.000
453.395;  -93.500;  -51.000;  175.000
453.516;   80.025; 1317.000; 1388.000
453.637; -123.500; -205.000; -150.000
453.758;  -81.600;   15.000;   69.000
453.879; -151.675; -462.000; -250.000
454.000;   69.325; 1086.000;  948.000
454.121; -166.400; -554.000; -326.000
454.242; -146.675; -599.000; -383.000
454.362;  -85.000;  -99.000;  114.000
454.483; -119.125; -309.000; -229.000
454.604;  -32.225;  512.000;  580.000
454.725; -157.300; -627.000; -555.000
454.846; -139.825; -474.000; -406.000
454.967;  -42.475;  230.000;  539.000
455.087;  -50.075;  179.000;  153.000
455.208;    3.800;  554.000;  856.000
455.329;  -89.150;  -22.000;   82.000
455.450;  -15.150;  473.000;  633.000
455.570; -117.350; -234.000; -211.000
455.691;  -63.225;  201.000;  407.000
455.812; -120.050; -270.000;  -92.000
455.932;  -88.575;  107.000;  -97.000
456.053; -103.425;   36.000;   24.000
456.173; -129.600; -433.000; -355.000
456.294; -152.625; -476.000; -303.000
456.415;  -92.800;  -73.000;   70.000
456.535;  -58.575;  297.000;  273.000
456.656;  -59.525;  132.000;  240.000
456.776;  -89.525;    3.000;  298.000
456.897;  -35.350;  308.000;  513.000
457.017; -110.500; -153.000;   -3.000
457.138; -136.625; -402.000; -249.000
457.258;  -48.125;  263.000;  224.000
457.379;  -40.350;  509.000;  521.000
457.499;  -31.025;  443.000;  432.000
457.620; -140.650; -407.000; -231.000
457.740; -117.750; -132.000;  -11.000
457.860;  -75.475;   87.000;   44.000
457.981;  -80.950;  132.000;  124.000
458.101; -115.925;  -89.000;   40.000
458.221;  -48.625;  336.000;  402.000
458.342;  -96.175;   -4.000;  -37.000
458.462;  -29.325;  617.000;  352.000
458.582; -126.225; -302.000; -294.000
458.703;  -80.925;  303.000;  154.000
458.823;  -92.050;   22.000;  163.000
458.943;  -52.325;  341.000;  467.000
459.063;  -82.675; 1124.000;  192.000
459.183;  -58.550;  328.000;  313.000
459.304;  -31.250;  315.000;  517.000
459.424; -114.000; -246.000;  -89.000
459.544;  -21.325;  388.000;  764.000
459.664;  -19.400;  499.000;  506.000
459.784;   43.450; 1004.000; 1175.000
459.904;   -2.700;  867.000;  744.000
460.024;   17.400;  867.000;  684.000
460.144;  -52.075;  449.000;  554.000
460.264;  -11.825;  515.000;  327.000
460.385; -116.675; -145.000; -119.000
460.505;   24.900;  905.000;  858.000
460.625; -109.075;  -17.000;  -68.000
460.745;  -36.725;  396.000;  541.000
460.864;  -77.825;  153.000;  469.000
460.984;  -33.925;  499.000;  573.000
461.104;  104.525; 1656.000; 1775.000
461.224;   10.050;  657.000;  650.000
461.344;  -49.175;  431.000;  360.000
461.464;  -57.275;  258.000;  513.000
461.584;  -53.925;  283.000;  466.000
461.704;  -83.050;   58.000;  108.000
461.824;  -87.025;  238.000;  259.000
461.943;  -67.225;  191.000;  130.000
462.063; -100.500;    2.000;  324.000
462.183;   -5.175;  639.000;  717.000
462.303;   60.725; 1678.000; 1230.000
462.422;    0.750;  781.000;  840.000
462.542;  -84.400;  271.000;  391.000
462.662;  -38.850;  353.000;  380.000
462.782;  -14.200;  833.000;  572.000
462.901;  -31.425;  545.000;  717.000
463.021;  103.700; 1702.000; 1638.000
463.141;  -51.025;  337.000;  770.000
463.260;  -57.675;  614.000;  474.000
463.380;   -9.850;  902.000;  884.000
463.499;  -56.650;  342.000;  332.000
463.619;  -38.800;  581.000;  559.000
463.738;   76.925; 1644.000;  903.000
463.858;  -16.575;  657.000;  811.000
463.978;  -47.225;  542.000;  396.000
464.097;   30.000;  921.000; 1114.000
464.217;   45.150; 1196.000; 1143.000
464.336;   47.575; 1068.000; 1130.000
464.455;  -83.775;  328.000;  659.000
464.575;  -12.500;  597.000;  602.000
464.694;   52.525; 1204.000; 1179.000
464.814;    8.900; 1190.000; 1138.000
464.933;   33.625; 1095.000; 1027.000
465.052;   56.000; 1412.000; 1054.000
465.172;   -4.550;  922.000;  799.000
465.291;   56.325; 1376.000; 1320.000
465.410;  -18.925;  462.000;  735.000
465.530;   54.275; 1355.000; 1310.000
465.649;   21.825; 1209.000; 1273.000
465.768;  100.025; 1673.000; 1508.000
465.888;    9.425;  941.000; 1174.000
466.007;   72.500; 1335.000; 1440.000
466.126;  -14.250;  721.000;  641.000
466.245;   15.225; 1176.000; 1187.000
466.364;    3.550;  950.000; 1060.000
466.484;   39.825; 1024.000; 1213.000
466.603;    9.450; 1101.000; 1222.000
466.722;   91.475; 1490.000; 1769.000
466.841;   42.300; 1151.000; 1401.000
466.960;   37.400; 1069.000;  972.000
467.079;  116.800; 1971.000; 1786.000
467.198;   35.800; 1238.000; 1181.000
467.317;   74.025; 1768.000; 1162.000
467.436;   49.475; 1709.000; 1261.000
467.555;  100.600; 1796.000; 1746.000
467.674;   53.575; 1227.000; 1329.000
467.793;   24.675; 1376.000; 1374.000
467.912;   64.950; 1658.000; 1539.000
468.031;  118.700; 2038.000; 1930.000
468.150;  106.175; 1842.000; 1837.000
468.269;  159.125; 2313.000; 2090.000
468.388;  173.700; 2168.000; 2339.000
468.507;  254.025; 2884.000; 2903.000
468.626;  202.375; 2555.000; 2541.000
468.744;  127.450; 2018.000; 2174.000
468.863;  188.200; 2312.000; 2523.000
468.982;   78.025; 1503.000; 1555.000
469.101;  216.725; 2788.000; 2692.000
469.220;  127.200; 2333.000; 2176.000
469.338;  228.375; 2935.000; 3051.000
469.457;  186.300; 2719.000; 2545.000
469.576;  350.850; 3953.000; 3784.000
469.695;  213.150; 2877.000; 3066.000
469.813;  401.100; 4148.000; 4192.000
469.932;  369.850; 4255.000; 4485.000
470.051;  342.125; 4075.000; 4161.000
470.169;  393.825; 4470.000; 4338.000
470.288;  418.200; 4700.000; 4809.000
470.406;  462.475; 5059.000; 5194.000
470.525;  550.950; 6101.000; 5787.000
470.644;  625.900; 6847.000; 6794.000
470.762;  810.150; 8397.000; 7873.000
470.881;  846.950; 8651.000; 8464.000
470.999;  956.750; 9685.000; 9151.000
471.118; 1060.775;11174.000;10711.000

