
Integration time [ms]: 100.000
Averaging Nr. [scans]: 40
Smoothing Nr. [pixels]: 0
Data measured with spectrometer [name]: 2101012U2
Wave   ;Sample   ;Dark     ;Reference
[nm]   ;[counts] ;[counts] ;[counts] 

197.733;   54.725;  516.000;  404.000
197.879;  -80.550; -610.000; -634.000
198.025;  -57.200; -475.000; -420.000
198.171;  -73.800; -602.000; -612.000
198.317;  -32.350; -401.000; -316.000
198.463;  -48.775; -655.000; -404.000
198.609;   30.125;  181.000; -137.000
198.755;  -88.575; -644.000; -410.000
198.901;  -75.500; -505.000; -424.000
199.047;  -72.675; -615.000; -488.000
199.193;  -43.875; -230.000; -468.000
199.339;  -41.175; -222.000; -369.000
199.485;   29.800;  330.000;  271.000
199.631;   16.600;  227.000;  310.000
199.777;  -63.725; -466.000; -398.000
199.923;  -67.475; -610.000; -424.000
200.069;   -5.100; -141.000;  -58.000
200.215;   51.125;  128.000;  453.000
200.361;   29.275;  243.000;  477.000
200.507;  -82.375; -600.000; -373.000
200.653;  -40.975; -371.000; -194.000
200.798;  -39.025; -215.000; -125.000
200.944;   -5.325; -146.000;  -41.000
201.090;   33.575;   61.000;  222.000
201.236;   -0.150; -116.000; -158.000
201.382;  131.575;  874.000;  903.000
201.528;    1.500;  -58.000;  -48.000
201.674;  -73.675; -386.000; -293.000
201.819;  -76.425; -540.000; -439.000
201.965;  -87.875; -699.000; -447.000
202.111;  -31.125; -273.000; -226.000
202.257;  -34.050; -250.000; -238.000
202.402;    0.600;   13.000;  -36.000
202.548;  -33.175; -169.000; -116.000
202.694;   69.225;  410.000; -183.000
202.840;  -76.575; -603.000; -531.000
202.985;  -81.100; -681.000; -639.000
203.131; -111.025; -832.000; -666.000
203.277;  -34.300; -199.000; -262.000
203.423;  -50.750; -434.000; -520.000
203.568;  -39.400; -462.000; -237.000
203.714;  -65.425; -535.000; -542.000
203.860;  -87.600; -682.000; -641.000
204.005;   14.600;  112.000;  167.000
204.151;   71.300;  561.000;  556.000
204.296;  -46.200; -354.000; -221.000
204.442;  -67.475; -600.000; -547.000
204.588;  -80.550; -592.000; -579.000
204.733;   10.475;  178.000;  168.000
204.879; -139.775;-1018.000; -822.000
205.025;   -6.500;  -99.000;  126.000
205.170;   -0.075;  -17.000;   94.000
205.316;   90.150;  438.000;  661.000
205.461;  -79.675; -698.000; -554.000
205.607;   86.725;  609.000;  665.000
205.752;  -87.200; -626.000; -551.000
205.898;  -58.575; -501.000; -391.000
206.043;  -58.975; -578.000; -506.000
206.189;  -56.275; -243.000; -285.000
206.334;   80.450;  554.000;  606.000
206.480;   72.575;  409.000;  239.000
206.625;  -86.500; -529.000; -552.000
206.771;  -51.775; -451.000; -373.000
206.916;  -29.825; -210.000; -537.000
207.062;  -89.900; -545.000; -591.000
207.207;  -44.450; -546.000; -443.000
207.353;   53.875;  185.000;  460.000
207.498;   16.750;  196.000;   85.000
207.643;  -65.375; -501.000; -370.000
207.789; -127.350;-1069.000; -910.000
207.934;  -99.425; -665.000; -713.000
208.080;  -28.350; -154.000;   66.000
208.225;   -8.350;  -22.000;  -57.000
208.370;  -91.000; -727.000; -619.000
208.516;  -91.825; -741.000; -487.000
208.661;  -38.725; -127.000;  -69.000
208.806;  -33.700; -165.000; -171.000
208.952; -142.450;-1044.000; -731.000
209.097;   63.350;  378.000;  349.000
209.242;  -52.750; -307.000; -382.000
209.387;   66.525;  392.000;  350.000
209.533;  -52.525; -321.000; -350.000
209.678;   67.250;  472.000;  543.000
209.823;  -66.225; -408.000; -310.000
209.969; -111.425; -860.000; -757.000
210.114; -101.350; -907.000; -719.000
210.259; -122.150; -939.000; -889.000
210.404;  -14.625; -171.000;  103.000
210.549;    4.500;  108.000;    3.000
210.695;  -11.950;   -3.000;  -95.000
210.840;   24.125;   94.000;   67.000
210.985;  -63.825; -484.000; -303.000
211.130;   76.775;  268.000;  406.000
211.275;   14.425;  207.000;  199.000
211.420;  -55.450; -300.000; -289.000
211.566;  -63.675; -536.000; -489.000
211.711;   20.625;  218.000;  157.000
211.856;  -63.875; -545.000; -519.000
212.001;    6.550;  151.000;   44.000
212.146;   23.975;  153.000;   49.000
212.291;  -33.125; -210.000; -186.000
212.436;  -16.900; -280.000;   -6.000
212.581;  -85.675; -685.000; -653.000
212.726;  -63.775; -487.000; -538.000
212.871;  -51.650; -552.000; -217.000
213.016; -146.300;-1172.000;-1029.000
213.161;   56.950;  406.000;  291.000
213.306;  -78.700; -435.000; -577.000
213.451; -107.275; -778.000; -689.000
213.596;  -43.700; -455.000; -347.000
213.741;  -68.050; -448.000; -538.000
213.886;  -77.450; -498.000; -517.000
214.031;  -29.000; -294.000; -124.000
214.176;  -53.825; -408.000; -341.000
214.321;  -29.975; -296.000; -157.000
214.466;  -21.100; -163.000;  -43.000
214.611;   -1.975;  -61.000;  -10.000
214.756; -124.550; -948.000; -858.000
214.901;  -36.600; -388.000; -226.000
215.046; -120.725; -797.000; -825.000
215.191;    9.025;  128.000;   35.000
215.336;  -10.850; -157.000;  -19.000
215.480;  -68.350; -684.000; -505.000
215.625;  -16.750; -175.000;  -19.000
215.770;  -97.700; -757.000; -662.000
215.915;   -3.950;   -5.000;  -97.000
216.060;    7.950; -113.000;  -21.000
216.205; -110.775; -731.000; -779.000
216.349;  -77.925; -470.000; -533.000
216.494; -134.550; -939.000; -867.000
216.639; -130.625; -823.000; -888.000
216.784;  -87.650; -577.000; -525.000
216.929;   50.050;  392.000;  281.000
217.073;   -9.175; -244.000;  -31.000
217.218;   -3.250;   78.000;  -47.000
217.363;  -85.925; -656.000; -618.000
217.507; -100.325; -623.000; -588.000
217.652; -127.050; -845.000; -874.000
217.797; -103.750; -708.000; -659.000
217.942; -109.225; -856.000; -720.000
218.086;   71.700;  608.000;  539.000
218.231;   -2.850; -174.000;  -26.000
218.376;  -34.075; -337.000; -229.000
218.520;    3.400;  -41.000;   96.000
218.665;  -29.975; -338.000; -204.000
218.810;  -47.825; -275.000; -233.000
218.954;   -1.350;  201.000;   35.000
219.099; -117.650; -713.000; -963.000
219.243;  -76.250; -589.000; -554.000
219.388;  -27.875; -264.000; -136.000
219.532;  -20.825; -116.000; -116.000
219.677;  -78.750; -564.000; -521.000
219.822;   -8.700;   33.000;   89.000
219.966;   -0.475;   17.000;  -99.000
220.111;  -39.550; -328.000;  -40.000
220.255; -100.600; -797.000; -750.000
220.400;  -22.750; -180.000; -146.000
220.544;  -78.675; -516.000; -450.000
220.689;  -70.300; -422.000; -451.000
220.833;  -22.150; -123.000;  -58.000
220.978;  -59.075; -393.000; -563.000
221.122;   42.700;  319.000;  307.000
221.267; -118.700; -906.000; -837.000
221.411;  -68.000; -478.000; -394.000
221.555;  -28.000; -104.000;  -23.000
221.700;  -46.300; -329.000; -222.000
221.844;   24.925;  255.000;  272.000
221.989;  -47.750; -328.000; -311.000
222.133;  -39.650; -289.000; -307.000
222.277;  -29.625;    5.000;   78.000
222.422;    8.275;  227.000;  113.000
222.566;  -40.225; -381.000; -214.000
222.711;  -64.175; -414.000; -479.000
222.855;  -73.900; -643.000; -586.000
222.999;  -95.725; -642.000; -717.000
223.144;  -23.900; -195.000; -194.000
223.288;   46.850;  423.000;  251.000
223.432;   32.350;  184.000;  230.000
223.576;   18.375;  152.000;  -21.000
223.721;   40.575;  364.000;  273.000
223.865;  -74.950; -472.000; -475.000
224.009;  256.500; 1673.000; 1631.000
224.153;  -87.100; -660.000; -671.000
224.298;  -71.850; -531.000; -489.000
224.442;  -29.550;  -74.000;  -33.000
224.586;  -15.075; -169.000; -106.000
224.730; -105.150; -858.000; -670.000
224.875; -108.100; -739.000; -688.000
225.019;   15.075;  102.000;  188.000
225.163;   70.300;  208.000;  341.000
225.307;   10.100;   97.000;  -91.000
225.451;   51.700;  360.000;  481.000
225.595;   32.125;  264.000;  176.000
225.739;   -1.775; -170.000;  -94.000
225.884;   10.450;   86.000;    5.000
226.028; -100.925; -760.000; -626.000
226.172;  -43.050; -260.000; -273.000
226.316; -129.925; -941.000; -902.000
226.460;  -76.700; -645.000; -493.000
226.604;  -49.625; -406.000; -400.000
226.748; -111.325; -836.000; -733.000
226.892;  -24.475; -227.000; -181.000
227.036;  -60.500; -537.000; -447.000
227.180;  -47.575; -551.000; -375.000
227.324;  -72.475; -561.000; -580.000
227.468; -126.600; -819.000; -717.000
227.612;   14.100;  242.000;  -28.000
227.756; -105.575; -845.000; -698.000
227.900;   50.050;  342.000;  441.000
228.044;  -56.700; -509.000; -290.000
228.188;   47.050;  448.000;  568.000
228.332;  -84.250; -546.000; -472.000
228.476;  -26.950; -223.000; -149.000
228.620;  -29.725; -210.000; -150.000
228.764;   65.225;  431.000;  349.000
228.908;  -21.175; -155.000;   30.000
229.052;  -69.350; -615.000; -528.000
229.195;  -34.350; -172.000;   13.000
229.339;  -31.275; -235.000; -305.000
229.483;  -38.875;    5.000; -162.000
229.627;  -12.975; -156.000;  139.000
229.771;  -55.175; -218.000; -294.000
229.915;    0.800;  230.000;   79.000
230.059;  -96.275; -648.000; -663.000
230.202;  -36.275; -370.000; -317.000
230.346;  -10.650; -107.000;  107.000
230.490;  -68.150; -489.000; -521.000
230.634; -112.550; -736.000; -553.000
230.777;   82.325;  478.000;  509.000
230.921;  -55.250; -450.000; -359.000
231.065;  -47.650; -246.000; -286.000
231.209;   25.550;  261.000;  265.000
231.352;   19.025;   54.000;   40.000
231.496;   26.650;  568.000;  188.000
231.640; -100.900; -693.000; -621.000
231.783;   75.575;  546.000;  525.000
231.927;  -54.975; -294.000; -365.000
232.071; -129.875; -962.000; -736.000
232.214; -119.875; -980.000; -764.000
232.358; -100.175; -683.000; -599.000
232.502;   10.800;  -19.000;    7.000
232.645; -138.975;-1090.000; -927.000
232.789;  -24.525; -257.000; -218.000
232.933;  -35.900; -407.000; -224.000
233.076; -132.875;-1038.000; -897.000
233.220;  -98.200; -752.000; -777.000
233.363;  -85.300; -669.000; -477.000
233.507;   71.550;  371.000;  129.000
233.650;  -97.275; -764.000; -834.000
233.794;   57.675;  438.000;  461.000
233.938;  -65.425; -530.000; -362.000
234.081;  -31.550;  -93.000;   31.000
234.225;  -80.050; -631.000; -539.000
234.368; -101.975; -773.000; -723.000
234.512;  -40.975; -385.000; -299.000
234.655;  -95.200; -582.000; -555.000
234.798;  -70.400; -493.000; -466.000
234.942; -128.500; -884.000;-1002.000
235.085;  -83.025; -651.000; -443.000
235.229;  -82.475; -405.000; -410.000
235.372;  -50.950; -247.000; -191.000
235.516;  -54.500; -397.000; -321.000
235.659;   10.325;   92.000;  121.000
235.802;  -20.300;  -38.000;  -22.000
235.946;   24.150;  335.000;  215.000
236.089;   22.050;  126.000;  250.000
236.233;   55.850;  275.000;  298.000
236.376;  -51.375; -235.000; -378.000
236.519;  -55.300; -297.000; -319.000
236.663;  -24.025; -215.000; -117.000
236.806; -148.975;-1029.000; -999.000
236.949;   78.075;  543.000;  431.000
237.092;   57.825;  412.000;  391.000
237.236;  -89.275; -589.000; -502.000
237.379;   60.575;  352.000;  428.000
237.522; -119.650; -879.000; -768.000
237.666;  -27.775; -271.000;   18.000
237.809; -123.650; -851.000; -823.000
237.952;   30.925;  469.000;  271.000
238.095;  -66.175; -447.000; -442.000
238.238;   78.175;  688.000;  700.000
238.382;   11.525;  166.000;  103.000
238.525;  -88.200; -598.000; -511.000
238.668; -146.425;-1060.000; -985.000
238.811;  -91.950; -638.000; -643.000
238.954;  -56.600; -483.000; -334.000
239.097;   99.850;  617.000;  664.000
239.241;   30.425;  394.000;  326.000
239.384;  -40.900; -254.000; -214.000
239.527;  -59.275; -424.000; -224.000
239.670; -161.600; -994.000;-1091.000
239.813; -107.125; -696.000; -658.000
239.956;   73.300;  579.000;  473.000
240.099; -104.675; -778.000; -725.000
240.242;   56.250;  428.000;  432.000
240.385;   50.650;  466.000;  450.000
240.528;  -84.300; -706.000; -473.000
240.671;   31.925;  189.000;  134.000
240.814;  -50.750; -441.000; -158.000
240.957; -100.775; -767.000; -578.000
241.100;  -98.175; -779.000; -755.000
241.243; -149.150;-1234.000; -893.000
241.386;  -76.025; -508.000; -379.000
241.529;  -85.800; -735.000; -547.000
241.672;  -83.025; -566.000; -495.000
241.815; -120.850; -832.000; -808.000
241.958;  -24.725; -125.000; -182.000
242.101;  -81.350; -545.000; -390.000
242.244;  -47.125; -270.000; -325.000
242.387;  -44.475; -304.000; -246.000
242.530;   63.800;  470.000;  134.000
242.673;  -48.275; -381.000; -309.000
242.815; -143.675; -925.000; -899.000
242.958;  -72.525; -482.000; -381.000
243.101;    9.575;  132.000;  187.000
243.244;  -87.225; -564.000; -521.000
243.387;  -44.475; -313.000; -316.000
243.530;  -97.550; -657.000; -674.000
243.672;   -7.575;   43.000;  -92.000
243.815;  -55.875; -355.000; -283.000
243.958;  -10.000;   98.000;  -26.000
244.101;  -10.875;   59.000;  -16.000
244.243;   -9.350;  -47.000;  101.000
244.386; -109.100; -761.000; -630.000
244.529;  -36.350; -132.000; -139.000
244.672; -157.875;-1154.000; -951.000
244.814; -118.075; -621.000; -794.000
244.957;  -37.825; -380.000; -304.000
245.100;  -89.625; -489.000; -489.000
245.242;  -57.375; -387.000; -374.000
245.385;  -13.825;  -59.000;  -39.000
245.528; -124.000; -871.000; -705.000
245.670;   85.250;  612.000;  634.000
245.813;  -76.000; -599.000; -547.000
245.956;  -31.350; -324.000; -275.000
246.098;  -84.975; -508.000; -650.000
246.241;    7.450;  194.000;   48.000
246.383;   -7.950; -119.000;  -73.000
246.526;  -88.450; -454.000; -525.000
246.669; -120.175; -889.000; -780.000
246.811;   -0.700;  172.000;   -1.000
246.954;  -59.300; -512.000; -426.000
247.096;  -22.800;  -84.000;   -6.000
247.239;  -78.900; -482.000; -445.000
247.381;  -76.475; -647.000; -488.000
247.524;   77.450;  645.000;  679.000
247.666;  -17.425;   58.000;   11.000
247.809; -122.325; -887.000; -691.000
247.951;  -28.075;  -75.000;  138.000
248.094;   26.625;  432.000;  308.000
248.236; -169.300;-1262.000;-1238.000
248.378;  -21.150; -356.000;  -81.000
248.521;  -45.500; -334.000; -337.000
248.663;  -48.725; -236.000; -267.000
248.806;  -23.475; -300.000; -266.000
248.948; -115.025; -886.000; -763.000
249.090;  -72.350; -428.000; -398.000
249.233;  -68.225; -344.000; -381.000
249.375;  -78.200; -474.000; -451.000
249.518;  -20.200;  -83.000; -133.000
249.660;  -20.475; -103.000;    3.000
249.802; -193.225;-1303.000;-1189.000
249.945;  -93.150; -612.000; -540.000
250.087; -120.700; -834.000; -768.000
250.229;  -66.775; -362.000; -480.000
250.371;  -86.150; -494.000; -439.000
250.514;  -67.725; -310.000; -244.000
250.656;  -42.300;   69.000;  102.000
250.798; -129.775; -849.000; -800.000
250.940;  -66.350; -322.000; -322.000
251.083;  -52.625; -335.000; -111.000
251.225;   62.150;  338.000;  310.000
251.367;  -46.525; -274.000; -373.000
251.509;  -43.825; -265.000; -210.000
251.651; -109.575; -731.000; -671.000
251.794;   60.675;  538.000;  632.000
251.936; -109.075; -821.000; -747.000
252.078;  -81.175; -540.000; -461.000
252.220;  -95.925; -645.000; -477.000
252.362;   39.850;  344.000;  462.000
252.504;  -89.075; -677.000; -584.000
252.646; -110.250; -875.000; -722.000
252.788;  -22.450;   14.000; -128.000
252.931;  -46.425; -257.000; -253.000
253.073;  -59.550; -376.000; -317.000
253.215;   -5.475;  141.000;  122.000
253.357;  -14.800;   82.000; -153.000
253.499;  -66.800; -374.000; -234.000
253.641; -109.525; -749.000; -594.000
253.783;  -98.975; -609.000; -527.000
253.925; -102.925; -586.000; -591.000
254.067; -119.875; -744.000; -667.000
254.209;  -56.275; -391.000; -259.000
254.351; -137.825; -865.000; -883.000
254.493;  -81.525; -441.000; -417.000
254.635; -144.250; -936.000; -818.000
254.777; -104.375; -752.000; -687.000
254.918;  -79.500; -512.000; -430.000
255.060;  -80.550; -551.000; -395.000
255.202;  -52.700; -473.000; -261.000
255.344;  -86.100; -658.000; -455.000
255.486;  -87.225; -471.000; -406.000
255.628; -115.400; -780.000; -781.000
255.770;  -93.775; -676.000; -536.000
255.912;  -71.250; -559.000; -468.000
256.053;  -92.600; -730.000; -508.000
256.195;  154.600; 1008.000;  903.000
256.337; -110.025; -861.000; -595.000
256.479;   50.275;  532.000;  416.000
256.621;  -53.350; -394.000; -212.000
256.762; -108.800; -789.000; -742.000
256.904;   49.975;  485.000;  487.000
257.046;  -48.325; -381.000; -271.000
257.188;  -52.150; -351.000; -264.000
257.329;  -92.700; -525.000; -464.000
257.471; -131.100; -939.000; -807.000
257.613;  -84.300; -584.000; -498.000
257.755; -158.275;-1073.000; -982.000
257.896;   16.250;  286.000;  392.000
258.038;  -66.025; -403.000; -352.000
258.180;  -51.800; -354.000; -279.000
258.321;  -88.575; -581.000; -457.000
258.463;  -18.800;  -71.000;  133.000
258.605; -111.025; -562.000; -570.000
258.746; -112.300; -886.000; -772.000
258.888; -152.825;-1026.000;-1020.000
259.029;   16.125;  121.000;   -8.000
259.171;  -85.250; -614.000; -550.000
259.313;   -2.725;  -49.000;  -47.000
259.454;  -83.975; -536.000; -414.000
259.596;  -59.075; -483.000; -390.000
259.737;  -84.250; -590.000; -474.000
259.879;   34.525;  217.000;  311.000
260.020;   83.000;  901.000;  636.000
260.162;  -50.825; -146.000; -253.000
260.303; -122.400; -768.000; -687.000
260.445;  -87.575; -609.000; -613.000
260.586;   21.175;  392.000;  157.000
260.728;  -62.250; -360.000; -248.000
260.869; -122.475; -350.000; -343.000
261.011;   69.150;  706.000;  537.000
261.152;  -67.175; -479.000; -319.000
261.293;  -92.475; -576.000; -595.000
261.435;  -35.825; -219.000; -184.000
261.576;  -66.875; -455.000; -325.000
261.718;   68.425;  420.000;  470.000
261.859; -141.325; -940.000; -949.000
262.000; -130.025; -951.000;-1016.000
262.142;  -28.600;  -52.000;  -60.000
262.283; -116.150; -808.000; -691.000
262.424; -105.350; -666.000; -625.000
262.566; -157.400;-1161.000; -983.000
262.707; -125.775; -840.000; -830.000
262.848; -124.225; -769.000; -726.000
262.990;  -55.900; -362.000; -345.000
263.131;   93.025;  650.000;  681.000
263.272;   -8.525;  -61.000;  -41.000
263.413;  -86.075; -589.000; -561.000
263.555;  -81.525; -669.000; -143.000
263.696;  -93.600; -550.000; -641.000
263.837;  -66.200; -449.000; -551.000
263.978;  -14.350;   -5.000;  -77.000
264.119;  -67.825; -283.000; -264.000
264.261; -131.725; -847.000; -630.000
264.402;   -7.550;   33.000;   40.000
264.543;  -87.575; -509.000; -524.000
264.684;  -30.750;   61.000;  -50.000
264.825;  -69.700; -816.000; -538.000
264.966;  -23.750;  -84.000;  -67.000
265.107; -116.000; -646.000; -670.000
265.248; -135.525; -825.000; -812.000
265.390;   -9.925;  152.000;   -9.000
265.531;  -21.175; -238.000; -107.000
265.672; -100.000; -557.000; -630.000
265.813;   56.725;  563.000;  439.000
265.954; -144.375; -959.000; -940.000
266.095;  -34.850; -372.000; -322.000
266.236; -100.650; -686.000; -548.000
266.377;  -43.350; -243.000; -297.000
266.518;  -75.975; -619.000; -547.000
266.659;   18.150;  170.000;  268.000
266.800;    1.525;   83.000;   85.000
266.941; -107.525; -487.000; -478.000
267.082;    9.125;  354.000;   99.000
267.223;  -60.375; -344.000; -273.000
267.364; -121.675; -892.000; -686.000
267.504;  -11.700;    3.000;  135.000
267.645;  -18.400;  160.000;   67.000
267.786;  -34.275; -147.000;  -86.000
267.927;  -82.150; -473.000; -379.000
268.068;  -23.725; -186.000;  -61.000
268.209;  -54.750; -175.000; -413.000
268.350;  -68.775; -388.000; -532.000
268.490;  -97.625; -648.000; -521.000
268.631;   21.425;  127.000;  225.000
268.772; -115.925; -874.000; -647.000
268.913;  -64.550; -328.000; -476.000
269.054;  -17.450; -117.000;   12.000
269.194;  -56.450; -418.000; -402.000
269.335; -161.675;-1137.000;-1074.000
269.476;  -23.775;   33.000;  -35.000
269.617;  -68.625; -347.000; -392.000
269.757; -106.850; -713.000; -646.000
269.898; -112.925; -856.000; -613.000
270.039;  -72.900; -415.000; -405.000
270.180; -143.275; -952.000; -816.000
270.320;  -39.800; -190.000; -250.000
270.461;  -52.600; -277.000; -249.000
270.602;  -34.625; -186.000; -156.000
270.742; -133.525; -868.000; -943.000
270.883;  -64.700; -442.000; -390.000
271.023;  -62.550; -358.000; -357.000
271.164; -104.275; -607.000; -528.000
271.305; -114.275; -666.000; -654.000
271.445; -108.825; -722.000; -683.000
271.586;  -77.900; -462.000; -283.000
271.726;  -59.375; -397.000; -322.000
271.867;  -82.350; -594.000; -534.000
272.008;   18.275; -473.000; -285.000
272.148;   65.525;  462.000;  468.000
272.289;  -15.325; -113.000; -181.000
272.429;    8.925;   19.000;  185.000
272.570; -111.925; -633.000; -737.000
272.710; -109.625; -825.000; -775.000
272.851;  -39.125;  113.000; -130.000
272.991; -172.000;-1173.000;-1077.000
273.131;  -83.075; -419.000; -459.000
273.272;  -98.575; -683.000; -723.000
273.412;  -15.925; -143.000;  -31.000
273.553;  -75.500; -488.000; -507.000
273.693;  109.800;  913.000;  858.000
273.834; -128.125; -894.000; -692.000
273.974;  -87.850; -664.000; -615.000
274.114; -108.675; -772.000; -560.000
274.255;   37.150;  414.000;  373.000
274.395;  -31.475; -180.000; -125.000
274.535;    8.575;  199.000;  350.000
274.676;   19.625;  225.000;   94.000
274.816;   -1.650;  110.000;   34.000
274.956; -100.475; -624.000; -690.000
275.097; -132.525;-1014.000; -922.000
275.237; -127.300; -913.000; -803.000
275.377; -110.325; -778.000; -689.000
275.517; -157.600; -878.000; -937.000
275.658;  -94.200; -590.000; -555.000
275.798;  -98.150; -606.000; -413.000
275.938;   17.450;  215.000;  323.000
276.078;  -88.875; -626.000; -395.000
276.218;   -2.700;   99.000;  104.000
276.359; -151.450;-1026.000;-1024.000
276.499;  -81.225; -605.000; -446.000
276.639;  -50.625; -305.000; -151.000
276.779;  -65.925; -475.000; -357.000
276.919; -117.450; -783.000; -624.000
277.059;  -39.750; -261.000; -212.000
277.199;  -54.975; -357.000; -259.000
277.340;   26.925;  287.000;  175.000
277.480; -118.125; -840.000; -693.000
277.620;    2.750;  192.000;   16.000
277.760; -203.175;-1533.000;-1294.000
277.900;   -6.625;  113.000;   33.000
278.040;   -5.400;  137.000;  159.000
278.180;   21.500;  270.000;  170.000
278.320;   -9.450;   21.000;   56.000
278.460;  -80.750; -443.000; -469.000
278.600; -100.175; -708.000; -598.000
278.740;   49.850;  448.000;  224.000
278.880; -130.025; -768.000; -791.000
279.020;  -47.600; -194.000; -144.000
279.160; -100.825; -672.000; -595.000
279.300; -125.350; -926.000; -873.000
279.440; -112.700; -709.000; -622.000
279.579; -110.850;-1014.000; -929.000
279.719;  -57.775; -410.000; -394.000
279.859;   29.425;   -4.000;   41.000
279.999;  -13.075; -208.000;  101.000
280.139;  -73.525; -435.000; -387.000
280.279; -101.450; -708.000; -745.000
280.419;  -20.225; -229.000; -147.000
280.559;  -44.775; -259.000; -180.000
280.698; -108.775; -790.000; -639.000
280.838; -115.250; -778.000; -800.000
280.978; -115.450; -846.000; -790.000
281.118; -116.800; -811.000; -704.000
281.257;  -14.275;   24.000;    6.000
281.397; -169.125;-1094.000; -960.000
281.537; -115.350; -599.000; -712.000
281.677;  -29.125; -150.000; -101.000
281.816;  -89.900; -700.000; -630.000
281.956;  -38.075; -193.000; -257.000
282.096;  -66.375; -539.000; -396.000
282.235; -113.625; -672.000; -638.000
282.375;  -38.325; -243.000;  -98.000
282.515; -118.500; -715.000; -707.000
282.654;    5.825;   29.000;  106.000
282.794;   22.675;  388.000;  244.000
282.934;  -58.125; -530.000; -491.000
283.073; -134.575;-1030.000; -857.000
283.213;  -76.700; -460.000; -467.000
283.353;  -76.175; -408.000; -349.000
283.492;  -43.700; -264.000; -296.000
283.632;  -45.500; -254.000; -168.000
283.771; -122.175; -859.000; -730.000
283.911;  -62.575; -369.000; -260.000
284.050; -119.775; -794.000; -748.000
284.190; -162.625;-1229.000;-1096.000
284.329; -171.275;-1055.000; -964.000
284.469; -100.425; -516.000; -591.000
284.608;  -71.800; -559.000; -598.000
284.748;  -97.950; -614.000; -570.000
284.887;  -23.125;  -87.000;  -20.000
285.027; -133.725; -844.000; -892.000
285.166;  -46.200; -192.000; -249.000
285.306;  -22.425; -116.000;  -33.000
285.445;  -50.350; -229.000; -343.000
285.584;  -98.325; -630.000; -494.000
285.724;  -60.500; -282.000; -322.000
285.863; -121.550; -857.000; -507.000
286.002;  -61.025; -366.000; -276.000
286.142;  -97.550; -715.000; -622.000
286.281;  -98.325; -525.000; -493.000
286.420;  -90.500; -554.000; -417.000
286.560;   84.625;  653.000;  623.000
286.699; -146.950; -958.000; -912.000
286.838;  -96.950; -590.000; -591.000
286.978; -106.225; -533.000; -537.000
287.117; -155.225;-1085.000; -950.000
287.256;  -41.650; -228.000; -211.000
287.395;  -75.800; -197.000; -378.000
287.535;  -59.900; -370.000; -298.000
287.674;  -74.575; -509.000; -484.000
287.813;   46.875;  661.000;  533.000
287.952; -154.800;-1010.000; -871.000
288.091; -172.375;-1049.000; -915.000
288.231;   -8.200;   13.000;   15.000
288.370; -188.350;-1217.000;-1200.000
288.509; -107.575; -728.000; -645.000
288.648;  -97.375; -770.000; -548.000
288.787;  -53.325; -243.000;  -87.000
288.926;  -67.050; -454.000; -475.000
289.065;   93.350;  859.000;  672.000
289.204;  -59.000; -377.000; -217.000
289.344; -109.025; -791.000; -690.000
289.483;    8.575;  416.000;  304.000
289.622;  -42.175; -291.000; -149.000
289.761;  -22.825; -309.000; -166.000
289.900; -119.950; -785.000; -626.000
290.039;  -34.800;  -12.000;  -95.000
290.178;  -53.675; -274.000; -180.000
290.317;  -94.050; -618.000; -479.000
290.456;  -78.525; -463.000; -451.000
290.595; -154.375; -961.000; -833.000
290.734; -142.675; -904.000; -891.000
290.873;  -84.275; -456.000; -420.000
291.011; -125.200; -833.000; -843.000
291.150; -111.100; -770.000; -682.000
291.289;  -43.725; -343.000; -110.000
291.428;  -91.800; -599.000; -480.000
291.567;  -63.500; -370.000; -442.000
291.706;    0.425;  109.000;  154.000
291.845; -110.825; -597.000; -505.000
291.984; -181.025;-1234.000;-1061.000
292.122;   64.275;  602.000;  582.000
292.261;   24.375;  620.000;  463.000
292.400;  -12.725; -144.000;  211.000
292.539; -128.675; -959.000; -813.000
292.678;  -52.025; -325.000; -300.000
292.816; -161.000;-1136.000; -965.000
292.955; -111.975; -844.000; -684.000
293.094;  -39.575; -173.000; -337.000
293.233;  -67.600; -556.000; -400.000
293.371;  -41.150; -225.000;  -84.000
293.510; -122.475; -866.000; -780.000
293.649; -134.300; -959.000; -924.000
293.787; -148.075;-1083.000;-1012.000
293.926;  -22.650; -113.000;  -32.000
294.065;  -57.825; -379.000; -290.000
294.203;   33.975;  298.000;  406.000
294.342;   23.650;   74.000;  156.000
294.481; 6331.850;51180.000; -836.000
294.619;  -52.000; -425.000; -582.000
294.758; -182.300;-1230.000;-1137.000
294.896;   10.225; -125.000;    5.000
295.035; -149.975;-1040.000;-1006.000
295.174; -152.150;-1082.000; -954.000
295.312;  -58.450; -323.000; -203.000
295.451;  -49.950; -307.000; -428.000
295.589;  -72.900; -389.000; -518.000
295.728;   -7.050; -292.000; -165.000
295.866;  -17.025;  -36.000;  -51.000
296.005;  -86.850; -584.000; -341.000
296.143;  -86.300; -558.000; -596.000
296.282; -135.450; -957.000; -881.000
296.420;  -88.975; -657.000; -557.000
296.559; -110.550; -892.000; -633.000
296.697;  -79.050; -847.000; -665.000
296.835; -129.275;-1141.000;-1002.000
296.974;   13.425;  -23.000;   39.000
297.112;  -64.725; -443.000; -504.000
297.251; -120.900; -815.000; -755.000
297.389;  -55.000; -576.000; -438.000
297.527;   -4.425; -145.000;  -83.000
297.666;  -80.775; -486.000; -438.000
297.804;  -59.050; -404.000; -264.000
297.942;   -8.675; -136.000; -161.000
298.081;  -14.425; -183.000;   63.000
298.219;   -5.400;  -17.000;  -19.000
298.357;  -31.525; -144.000;  -71.000
298.495;  -98.875; -810.000; -812.000
298.634;    0.100;  245.000;  219.000
298.772;  -36.850; -220.000; -338.000
298.910;  -63.075; -309.000; -182.000
299.048;  -23.050; -130.000; -153.000
299.187;  -59.250; -350.000; -250.000
299.325;  -11.675;   52.000;  122.000
299.463;  -59.525; -389.000; -299.000
299.601;  -23.150; -327.000; -271.000
299.739; -143.600; -908.000; -883.000
299.877; -110.550; -791.000; -703.000
300.016; -139.975;-1095.000; -935.000
300.154;    4.525;  -19.000; -161.000
300.292;  -64.025; -428.000; -348.000
300.430;  -42.875; -408.000; -291.000
300.568; -135.700; -940.000; -874.000
300.706;  -84.975; -366.000; -469.000
300.844; -158.900;-1108.000; -979.000
300.982;   42.250;  246.000;  282.000
301.120; -145.550; -965.000; -866.000
301.258; -105.450; -812.000; -705.000
301.396;    5.800;  104.000;  -41.000
301.534;  -34.150; -218.000; -293.000
301.672;  -89.850; -664.000; -521.000
301.810;  -90.225; -613.000; -545.000
301.948;   -2.850;   53.000;  149.000
302.086;  105.250; -250.000;  -32.000
302.224;  106.200; -610.000; -585.000
302.362;  -80.350; -558.000; -622.000
302.500; -132.775; -923.000; -893.000
302.638;    0.050;  128.000;  245.000
302.776;  -37.875; -352.000; -408.000
302.913;   23.725;  447.000;  236.000
303.051;  -35.175;  -86.000;  -23.000
303.189;  -11.975;   90.000;  118.000
303.327;  -60.325; -341.000; -256.000
303.465; -107.400; -832.000; -588.000
303.603; -122.525; -805.000; -604.000
303.740;   35.800;  417.000;  241.000
303.878;  -99.775; -800.000; -759.000
304.016; -120.300; -915.000; -790.000
304.154; -169.975;-1123.000;-1152.000
304.291;  -78.050; -505.000; -554.000
304.429;    1.300;  102.000;   74.000
304.567; -146.500; -908.000; -893.000
304.705;  -73.550; -408.000; -515.000
304.842;  -50.825; -616.000; -540.000
304.980;   10.450;  215.000;   35.000
305.118;  -42.600; -367.000; -365.000
305.255; -127.525; -945.000; -927.000
305.393;   33.350;  178.000;  239.000
305.531; -147.525;-1173.000; -956.000
305.668; -101.800; -663.000; -582.000
305.806;  -35.475; -358.000; -439.000
305.943;  -56.600; -629.000; -637.000
306.081;  -31.025; -378.000; -267.000
306.219; -129.900; -863.000; -748.000
306.356;    7.300;  158.000;   27.000
306.494;   92.925;  981.000;  761.000
306.631;  -19.400;  -11.000;  -55.000
306.769;  -48.625; -613.000; -485.000
306.906;  -47.775; -284.000; -258.000
307.044;  -66.975; -473.000; -488.000
307.181;  -74.175; -410.000; -332.000
307.319;    3.775;  112.000;   87.000
307.456; -188.450;-1191.000;-1153.000
307.594; -133.275; -980.000; -727.000
307.731;  -40.650; -371.000; -164.000
307.868;  -21.125;  -15.000;   20.000
308.006; -156.550; -961.000; -847.000
308.143;  -90.450; -618.000; -330.000
308.281;   -4.750;  -37.000; -254.000
308.418;  -95.850; -748.000; -640.000
308.555;  -89.575; -400.000; -250.000
308.693;  -87.675; -577.000; -573.000
308.830; -124.175; -712.000; -657.000
308.967;  -23.275; -215.000;  -95.000
309.105;  -71.975; -507.000; -396.000
309.242;  -65.525; -468.000; -367.000
309.379;  -34.250; -577.000; -655.000
309.517; -127.600; -936.000; -948.000
309.654; -122.800; -910.000; -734.000
309.791;  -95.425; -662.000; -580.000
309.928; -140.450; -977.000; -914.000
310.065;  105.725;  819.000;  697.000
310.203; -109.450; -825.000; -850.000
310.340;  -81.450; -465.000; -321.000
310.477;  -87.675; -412.000; -516.000
310.614;  -83.350; -383.000; -473.000
310.751;  -77.575; -427.000; -518.000
310.889;  -34.625;    1.000;   11.000
311.026; -157.375;-1161.000; -939.000
311.163;  -55.300; -386.000; -380.000
311.300;  -92.775; -512.000; -479.000
311.437;  -86.450; -658.000; -619.000
311.574; -165.725;-1226.000; -985.000
311.711;  -87.025; -595.000; -433.000
311.848;  -40.125; -380.000; -388.000
311.985;    0.000;  270.000;   93.000
312.122; -131.950; -932.000; -762.000
312.259; -149.250; -941.000; -994.000
312.396;  -77.075; -508.000; -551.000
312.533; -108.625; -812.000; -790.000
312.670; -149.225;-1070.000; -898.000
312.807;  -41.575; -352.000; -367.000
312.944;  -84.950; -513.000; -611.000
313.081;  -28.075; -150.000; -415.000
313.218; -115.525;-1111.000; -867.000
313.355;  -40.650; -531.000; -449.000
313.492;  -31.800; -455.000; -292.000
313.629;  104.100;  815.000;  735.000
313.766; -168.375;-1176.000;-1008.000
313.902;  -10.850; -186.000;   21.000
314.039;  -55.425; -372.000; -289.000
314.176;    3.925;  286.000;  192.000
314.313;  -93.650; -569.000; -473.000
314.450; -100.925; -788.000; -684.000
314.587;  -65.675; -468.000; -480.000
314.723;  -24.700;  -78.000;  130.000
314.860;   16.475;  318.000;  332.000
314.997;   18.175;  223.000;  142.000
315.134;  -55.175; -385.000; -368.000
315.270;  -59.075; -480.000; -496.000
315.407; -145.975;-1094.000; -967.000
315.544;  -82.475; -657.000; -538.000
315.681;  -87.075; -681.000; -565.000
315.817;   11.300; -133.000; -176.000
315.954;   -2.425; -613.000; -392.000
316.091; -140.600;-1045.000;-1023.000
316.227;  -35.150;  -71.000; -179.000
316.364;  -17.900;   23.000;    6.000
316.500;  -45.525; -113.000; -300.000
316.637;  -56.025; -181.000; -302.000
316.774;  -98.225; -625.000; -358.000
316.910; -109.800; -598.000; -629.000
317.047;  -90.275; -487.000; -351.000
317.183;  -87.800; -435.000; -566.000
317.320;  -12.000; -367.000; -321.000
317.456;  -88.500; -733.000; -805.000
317.593; -101.500; -598.000; -641.000
317.729;  -11.250;  168.000;  -67.000
317.866; -217.200;-1434.000;-1285.000
318.002; -108.700; -708.000; -948.000
318.139; -126.175; -883.000; -867.000
318.275; -137.300;-1003.000; -738.000
318.412;  -75.500; -517.000; -336.000
318.548;  -97.300; -751.000; -720.000
318.685; -136.100; -985.000; -888.000
318.821; -118.425; -762.000; -735.000
318.957;  -40.700;   34.000;  -23.000
319.094;    8.075;  297.000;  154.000
319.230; -112.000; -756.000; -742.000
319.367;  -26.325; -471.000; -520.000
319.503;  -59.775; -538.000; -436.000
319.639; -125.375; -877.000; -793.000
319.775; -104.425; -750.000; -685.000
319.912;  -78.275; -424.000; -519.000
320.048; -142.150;-1184.000;-1184.000
320.184;   40.125;   59.000;   70.000
320.321;  -69.750; -497.000; -467.000
320.457;   43.775;  475.000;  662.000
320.593;  -65.000; -375.000; -382.000
320.729; -124.100; -732.000; -734.000
320.866;  -94.700; -577.000; -635.000
321.002; -106.500; -759.000; -809.000
321.138;  -55.675; -135.000; -211.000
321.274;   -4.800; -148.000; -115.000
321.410;  -83.750; -585.000; -353.000
321.546; -129.725;-1011.000; -911.000
321.683;   19.950;  400.000;  185.000
321.819;  -33.075;  -48.000; -117.000
321.955; -128.600; -743.000; -722.000
322.091;  -94.175; -585.000; -540.000
322.227;  -53.375; -382.000; -202.000
322.363;  -62.375; -320.000; -215.000
322.499;  -66.750; -343.000; -331.000
322.635;   64.825;  636.000;  443.000
322.771;  -20.250; -139.000;   12.000
322.907;   51.200;  129.000;  327.000
323.043;  -46.425; -115.000; -206.000
323.179;  -70.250; -394.000; -363.000
323.315;  -58.325; -401.000; -371.000
323.451;  -19.075; -328.000; -236.000
323.587;   13.425;  -60.000;  -77.000
323.723;  -84.450; -682.000; -601.000
323.859;  -22.575; -258.000;  -76.000
323.995;  -64.000; -467.000; -409.000
324.131; -136.175; -967.000; -892.000
324.267;  -52.700; -254.000; -276.000
324.402; -160.150; -960.000; -983.000
324.538;  -54.500; -279.000; -104.000
324.674;   -5.150;  164.000;   77.000
324.810;   14.625;  226.000;  308.000
324.946;  -68.575; -810.000; -658.000
325.082;  -96.925; -568.000; -475.000
325.217;  -25.700;  -62.000;   16.000
325.353; -125.625; -764.000; -659.000
325.489; -112.925; -540.000; -506.000
325.625;  -85.550; -579.000; -525.000
325.760;   56.725;  517.000;  376.000
325.896;  -28.100; -515.000; -702.000
326.032;  -60.250; -403.000; -352.000
326.168;  -68.900; -462.000; -369.000
326.303;  -58.725; -352.000; -461.000
326.439;  -41.350; -336.000; -276.000
326.575;  -27.375; -190.000;  -29.000
326.710;  -34.225; -156.000;  -30.000
326.846;  -17.600;  146.000;  103.000
326.982; -109.475; -530.000; -548.000
327.117;  -79.875; -481.000; -442.000
327.253; -120.325; -745.000; -742.000
327.388; -189.400;-1137.000;-1153.000
327.524; -105.975; -811.000; -578.000
327.659;  -35.250;  -58.000;  -22.000
327.795;  -19.525;   69.000;   45.000
327.931;  -93.975; -723.000; -499.000
328.066;  -56.625; -417.000; -276.000
328.202;  -31.625;   12.000; -129.000
328.337;   86.200;  957.000;  713.000
328.473;   34.600;  -12.000;  -74.000
328.608;  -32.850; -256.000; -267.000
328.743; -116.950; -799.000; -664.000
328.879;  -11.425;  214.000;  114.000
329.014;  -42.350; -102.000; -122.000
329.150;  -90.375; -358.000; -483.000
329.285;  -82.275; -465.000; -466.000
329.421;  -69.700; -548.000; -246.000
329.556;  -27.025;  -36.000;   85.000
329.691; -117.350; -633.000; -615.000
329.827;  -92.800; -626.000; -480.000
329.962;  -54.100;  131.000; -301.000
330.097; -109.850; -673.000; -585.000
330.233;  -54.475; -410.000; -223.000
330.368; -124.775; -839.000; -628.000
330.503;  -15.650;    3.000;   98.000
330.638;  -28.175;  -93.000; -125.000
330.774;  -97.875; -609.000; -530.000
330.909;  -55.500; -434.000; -244.000
331.044; -115.875; -714.000; -708.000
331.179; -182.650;-1217.000;-1109.000
331.315;   -9.975;   77.000;   20.000
331.450;    4.775;  157.000;  285.000
331.585; -122.625; -805.000; -706.000
331.720;  -97.800; -510.000; -460.000
331.855;  -19.575;  -35.000; -102.000
331.990;  217.900;   62.000;  138.000
332.126;  123.725; -110.000;   71.000
332.261;  -24.000; -379.000; -265.000
332.396;  -21.700; -135.000; -242.000
332.531; -108.350;-1074.000;-1031.000
332.666;   14.475; -519.000; -363.000
332.801; -114.650; -726.000; -807.000
332.936;  -34.075; -192.000; -122.000
333.071; -165.500; -870.000; -817.000
333.206;   -1.825;  307.000;  379.000
333.341;   44.375;  344.000;  418.000
333.476; -105.550; -627.000; -623.000
333.611;  -64.350; -251.000; -173.000
333.746;  -65.150; -381.000; -464.000
333.881; -133.200; -973.000; -935.000
334.016; -147.200; -936.000; -917.000
334.151; -131.975; -746.000; -702.000
334.286;  -12.625;  152.000;  186.000
334.421;  -33.000; -125.000; -178.000
334.556; -102.625; -611.000; -567.000
334.690;  -95.275; -631.000; -577.000
334.825;   36.050;  381.000;   83.000
334.960;  -66.825; -285.000; -413.000
335.095;   -3.375;  135.000;  -91.000
335.230; -111.975; -722.000; -738.000
335.365; -151.750;-1084.000; -990.000
335.499; -152.375;-1108.000;-1037.000
335.634;    6.375;    9.000;  534.000
335.769;  -97.550; -755.000; -720.000
335.904;  -87.625; -603.000; -561.000
336.038;  -67.375; -735.000; -657.000
336.173; -150.975;-1206.000;-1194.000
336.308;  -17.350; -116.000; -189.000
336.443;   11.400; -544.000; -634.000
336.577;  -81.125; -936.000; -787.000
336.712;   51.975;   -4.000;  -12.000
336.847;  -60.350; -724.000; -607.000
336.981;   20.550; -272.000; -208.000
337.116;  226.475;  615.000;  501.000
337.250;   43.625; -434.000; -421.000
337.385;  229.850; -297.000; -208.000
337.520;   71.350; -632.000; -603.000
337.654;  -47.050; -215.000; -126.000
337.789; -144.500; -989.000; -933.000
337.923;  -48.650; -104.000; -205.000
338.058; -118.650; -673.000; -738.000
338.192;  -96.075; -611.000; -488.000
338.327;  -34.075;  -18.000; -155.000
338.461; -101.100; -299.000; -469.000
338.596; -121.850; -780.000; -638.000
338.730; -113.050; -767.000; -803.000
338.865;   78.750;  -46.000; -140.000
338.999;  -64.200; -846.000; -702.000
339.134;  -62.875; -634.000; -536.000
339.268;  -26.325; -741.000; -603.000
339.403;  256.975; -740.000; -775.000
339.537;   81.500; -894.000; -820.000
339.671; -133.725; -829.000; -813.000
339.806;  -76.500; -556.000; -512.000
339.940;    1.325; -261.000; -235.000
340.074; -106.350; -685.000; -510.000
340.209;  -69.625; -351.000; -230.000
340.343; -111.350; -517.000; -573.000
340.477;  137.625;  998.000; 1036.000
340.612;  -83.075;-1033.000; -900.000
340.746;  107.950; -199.000; -243.000
340.880; -149.600; -924.000; -785.000
341.014;  -30.200;  -45.000; -154.000
341.149; -137.975; -756.000; -718.000
341.283; -147.425; -839.000; -754.000
341.417; -158.600;-1124.000; -938.000
341.551;  -71.325; -768.000; -708.000
341.685;  -80.825; -633.000; -611.000
341.820;  -80.950; -562.000; -493.000
341.954;  -75.050; -218.000; -349.000
342.088; -176.375;-1102.000;-1019.000
342.222;   59.325;  565.000;  618.000
342.356;  -87.375; -395.000; -335.000
342.490; -147.575; -880.000; -841.000
342.624;  -71.500; -339.000; -242.000
342.758;  -80.525; -364.000; -312.000
342.892; -111.425; -710.000; -585.000
343.026;  -52.225;  -58.000; -116.000
343.160;  -84.775; -426.000; -376.000
343.294;  -94.175; -474.000; -337.000
343.428;  -88.975; -488.000; -448.000
343.562;  -37.500; -172.000;  -23.000
343.696;  -81.950; -385.000; -314.000
343.830;  -65.475; -362.000; -356.000
343.964;  -40.725; -231.000; -168.000
344.098;  171.275;  199.000;   70.000
344.232;  141.875; -266.000; -127.000
344.366;   -6.900; -567.000; -453.000
344.500;  -75.600; -665.000; -744.000
344.634;  -47.650; -324.000; -164.000
344.768;  -81.200; -531.000; -341.000
344.902;    1.375;  278.000;  256.000
345.035; -100.000; -556.000; -496.000
345.169; -159.025; -933.000; -656.000
345.303;  -79.925; -308.000; -482.000
345.437; -116.150; -826.000; -717.000
345.571;  -89.875; -675.000; -594.000
345.704;  -83.400; -309.000; -532.000
345.838;  -49.600; -331.000; -284.000
345.972;  -88.725; -543.000; -495.000
346.106;  131.450; -179.000; -190.000
346.239;  261.700; -312.000; -243.000
346.373;  -52.550; -343.000; -302.000
346.507; -171.575; -950.000; -962.000
346.640;  -12.825;  -30.000;   13.000
346.774; -122.000; -650.000; -797.000
346.908;  -36.225; -138.000;  -11.000
347.041; -115.775; -646.000; -593.000
347.175;  -18.050;  259.000;   27.000
347.309; -120.575; -698.000; -628.000
347.442; -141.025; -883.000; -732.000
347.576;   94.925;  670.000;  668.000
347.709;    2.000; -123.000;  -52.000
347.843; -160.075; -933.000; -825.000
347.976;   10.750;  235.000;  294.000
348.110; -197.375;-1268.000;-1186.000
348.243; -120.350; -679.000; -772.000
348.377;   -7.050;  -26.000;   60.000
348.510;   35.850;  403.000;  540.000
348.644;  -45.575;  -37.000; -159.000
348.777;  -13.000;  180.000;  191.000
348.911;  -68.550; -142.000; -112.000
349.044;   55.250;  471.000;  448.000
349.178; -109.000;-1069.000;-1006.000
349.311;   51.425;  141.000;  255.000
349.444;  -53.575; -927.000; -813.000
349.578;  -51.225; -347.000; -200.000
349.711; -139.650; -959.000; -862.000
349.845;  -94.900; -661.000; -591.000
349.978; -179.250;-1224.000;-1137.000
350.111; -116.400; -546.000; -612.000
350.244; -119.300; -596.000; -700.000
350.378;  -86.900; -392.000; -393.000
350.511;  -69.225; -393.000; -426.000
350.644; -121.175; -808.000; -806.000
350.778;   -2.450;  168.000;  104.000
350.911;  -16.875;  134.000;  140.000
351.044; -110.675; -685.000; -615.000
351.177;  -60.175; -321.000; -281.000
351.310;  -31.950;    3.000; -131.000
351.444; -131.925; -888.000; -788.000
351.577;   22.575;  140.000;   90.000
351.710;   77.600;  593.000;  417.000
351.843;  -47.850; -165.000;  -77.000
351.976;  -24.775;  149.000;  -79.000
352.109; -109.950; -621.000; -612.000
352.242;  -83.775; -464.000; -419.000
352.376; -101.875; -580.000; -636.000
352.509;  -18.625; -437.000; -356.000
352.642; -121.875; -654.000; -604.000
352.775;  -28.175; -141.000;  -98.000
352.908; -141.175; -933.000; -904.000
353.041; -132.500; -814.000; -824.000
353.174;  -84.450; -551.000; -424.000
353.307; -120.950; -753.000; -764.000
353.440;   53.225;  541.000;  453.000
353.573; -133.375; -957.000;-1008.000
353.706;  -54.000; -384.000; -558.000
353.839;  -53.800; -264.000; -220.000
353.971;  -98.050; -657.000; -512.000
354.104; -137.925; -896.000; -835.000
354.237;  -96.075; -627.000; -662.000
354.370; -124.350; -846.000; -879.000
354.503; -186.200;-1231.000;-1308.000
354.636;  -46.450; -529.000; -348.000
354.769; -141.675; -937.000; -860.000
354.902;  -52.250; -230.000; -139.000
355.034;  -36.150; -164.000; -220.000
355.167;  -32.725; -262.000; -162.000
355.300; -119.700;-1061.000; -880.000
355.433;  824.625;  -71.000;  -14.000
355.565; 1264.700; -402.000; -384.000
355.698;  277.800; -356.000; -296.000
355.831;  -69.500; -882.000; -801.000
355.964;   -8.175; -285.000; -170.000
356.096; -102.375; -856.000; -843.000
356.229;  -49.425; -523.000; -530.000
356.362;  270.375; -373.000; -266.000
356.494;  515.175; -229.000; -162.000
356.627;  180.600;  269.000;  377.000
356.760;  529.625;  120.000;   53.000
356.892;  832.975; -286.000; -601.000
357.025;  219.925;  403.000;  389.000
357.157;  137.825; -167.000; -179.000
357.290;  657.500; -856.000; -713.000
357.423;  151.625; -667.000; -556.000
357.555;   48.525; -217.000; -228.000
357.688;   61.225; -483.000; -364.000
357.820;   41.000; -870.000; -877.000
357.953;  929.200; -563.000; -589.000
358.085;   63.600; -632.000; -612.000
358.218;    0.600;-1131.000; -932.000
358.350;   -3.275;  -58.000;  312.000
358.483; -185.775;-1300.000;-1187.000
358.615; -154.950;-1182.000;-1078.000
358.747; -168.425;-1187.000;-1058.000
358.880;  -93.225; -810.000; -744.000
359.012;  -55.775; -376.000; -202.000
359.145;  -82.675; -480.000; -511.000
359.277;  -97.050; -962.000; -913.000
359.409;  805.100;  536.000;  231.000
359.542;  114.525; -738.000; -688.000
359.674;   -2.150;   46.000;   13.000
359.806; -101.600; -565.000; -438.000
359.939;  -79.675; -617.000; -516.000
360.071;  -39.150; -583.000; -579.000
360.203;  -56.775; -411.000; -364.000
360.335;   10.050;  164.000;  -16.000
360.468;   12.400; -249.000; -307.000
360.600;  766.825; -547.000; -454.000
360.732; 2382.725; -546.000; -423.000
360.864;  252.625;-1216.000;-1044.000
360.996;  -13.325; -516.000; -554.000
361.129;  -65.700; -389.000; -598.000
361.261;  -31.775;  110.000; -113.000
361.393;  -61.575; -252.000; -214.000
361.525;  -23.450;   94.000;  244.000
361.657; -117.050; -821.000; -703.000
361.789;  -44.800; -139.000; -155.000
361.921;  -72.325; -642.000; -593.000
362.053;   67.400;  524.000;  541.000
362.185;   -3.625;  288.000;   72.000
362.318; -139.175; -709.000; -705.000
362.450;   28.950;  294.000;  444.000
362.582; -120.450; -913.000; -870.000
362.714;  -73.500; -353.000; -332.000
362.846; -108.600; -606.000; -490.000
362.978; -155.800; -941.000; -811.000
363.109;  -48.225; -161.000; -260.000
363.241;   43.775; -739.000; -749.000
363.373;  310.050; -649.000; -564.000
363.505;  591.250; -186.000;  -91.000
363.637;   49.225; -787.000; -601.000
363.769; -178.125;-1067.000;-1080.000
363.901; -108.750; -596.000; -654.000
364.033; -173.725;-1103.000;-1062.000
364.165;  -53.100; -283.000; -283.000
364.296;   27.150; -316.000; -177.000
364.428;    7.300;-1344.000;-1220.000
364.560; -103.125; -679.000; -661.000
364.692; -113.675; -738.000; -835.000
364.824;  -50.675; -588.000; -456.000
364.955;  249.650; -402.000; -564.000
365.087;  875.325;-1097.000; -852.000
365.219;  -17.700; -686.000; -816.000
365.351; -106.050; -526.000; -572.000
365.482;   -1.625;  300.000;  240.000
365.614;  -87.575; -402.000; -314.000
365.746; -130.700; -729.000; -752.000
365.877; -120.750; -706.000; -672.000
366.009;  221.625;  -35.000;  -62.000
366.141; -115.425;-1249.000;-1134.000
366.272; -135.200; -803.000; -719.000
366.404; -147.575;-1005.000; -874.000
366.535;  -34.600; -139.000;  -12.000
366.667; -122.725; -644.000; -649.000
366.799;   27.550;  353.000;  203.000
366.930; -151.600; -862.000; -996.000
367.062;   57.325; -639.000; -613.000
367.193;  132.900; -872.000; -842.000
367.325;  -93.325; -580.000; -684.000
367.456;  -24.425; -246.000;   31.000
367.588;  123.675; -371.000; -318.000
367.719;   -4.725;  -44.000;  -45.000
367.851;  -52.875; -222.000; -241.000
367.982; -138.400; -875.000; -732.000
368.113;  -45.275; -475.000; -358.000
368.245; -166.350; -960.000; -841.000
368.376;  -78.800; -254.000; -302.000
368.508;  -54.025; -188.000; -263.000
368.639; -182.050;-1166.000;-1034.000
368.770; -116.275; -670.000; -589.000
368.902; -140.150; -836.000; -926.000
369.033; -149.375; -906.000; -855.000
369.164;  -78.250; -720.000; -653.000
369.296; -124.800; -452.000; -601.000
369.427;  -51.725; -209.000; -144.000
369.558;  -83.125; -593.000; -377.000
369.689;  -96.975; -721.000; -569.000
369.821; -148.550; -951.000; -845.000
369.952;  -26.500;   42.000; -108.000
370.083;  -60.700; -229.000; -108.000
370.214; -120.425; -735.000; -650.000
370.345;  -27.750;   65.000;   81.000
370.477; -132.275; -810.000; -790.000
370.608;   -7.700; -328.000; -264.000
370.739; -161.000;-1233.000;-1292.000
370.870; -132.875;-1102.000; -923.000
371.001;  -52.000; -378.000; -467.000
371.132; -122.075; -754.000; -735.000
371.263;  -49.200;  -42.000; -148.000
371.394; -152.950; -841.000; -748.000
371.525;   16.550;  345.000;  225.000
371.657; -134.575; -808.000; -670.000
371.788;   17.875;  103.000;  199.000
371.919;  -26.025; -384.000; -304.000
372.050;  829.875;  -91.000; -156.000
372.181;  197.550; -188.000; -294.000
372.311;   60.500;   42.000; -127.000
372.442;  -71.475; -457.000; -451.000
372.573;  -59.275; -444.000; -340.000
372.704; -170.325;-1008.000; -980.000
372.835;  -48.775; -228.000; -289.000
372.966; -102.275; -646.000; -554.000
373.097; -121.575; -575.000; -711.000
373.228; -109.850; -717.000; -542.000
373.359;  -83.425; -824.000; -536.000
373.490;   48.625; -881.000; -727.000
373.620;   94.000;-1001.000; -803.000
373.751;  317.950; -332.000; -396.000
373.882;   73.700; -663.000; -733.000
374.013;  -45.775; -449.000; -262.000
374.143;  -96.575; -581.000; -659.000
374.274; -155.450; -987.000; -908.000
374.405;    1.325; -388.000; -276.000
374.536;   26.825; -526.000; -387.000
374.666;  123.375; -759.000; -807.000
374.797;  -58.425; -817.000; -868.000
374.928;   58.050; -710.000; -560.000
375.058;   69.525; -535.000; -500.000
375.189;  -30.275;  -59.000;  -93.000
375.320; -144.850; -928.000;-1034.000
375.450;  -86.025; -625.000; -616.000
375.581;  -75.225; -526.000; -436.000
375.712;  -67.150; -574.000; -250.000
375.842;  -33.250; -438.000; -415.000
375.973;  -72.450; -554.000; -513.000
376.103; -116.125; -665.000; -648.000
376.234; -110.600; -531.000; -552.000
376.364; -142.850; -944.000; -867.000
376.495;  105.250;  925.000;  529.000
376.625;  -83.275; -472.000; -485.000
376.756;  -90.225; -709.000; -678.000
376.886; -174.625;-1178.000;-1026.000
377.017;   17.925;-1048.000;-1061.000
377.147;  292.100; -786.000; -782.000
377.278;   40.300;  174.000;  228.000
377.408; -137.100; -801.000; -815.000
377.538; -121.675; -707.000; -693.000
377.669; -112.550; -537.000; -613.000
377.799; -129.425; -645.000; -635.000
377.929;  -93.350; -610.000; -428.000
378.060; -138.850; -781.000; -847.000
378.190;  -80.800; -726.000; -531.000
378.320;  -75.150; -401.000; -406.000
378.451;  -42.600; -131.000;  -22.000
378.581;  -40.900;  -67.000; -110.000
378.711;   87.325; 1035.000;  866.000
378.841;  -95.075; -533.000; -675.000
378.972; -130.375; -871.000; -751.000
379.102;  -95.550; -652.000; -579.000
379.232;  -56.350; -126.000;  -73.000
379.362; -142.675;-1001.000; -885.000
379.492;  -90.325; -373.000; -424.000
379.623;   15.075;    0.000;  111.000
379.753; -146.875;-1107.000; -974.000
379.883;   19.200;   59.000;  156.000
380.013; -126.525;-1081.000;-1017.000
380.143; -153.025;-1097.000;-1056.000
380.273; -136.075; -985.000; -861.000
380.403;  -31.825; -344.000; -257.000
380.533;  -84.700; -651.000; -664.000
380.663;    2.775;  173.000;  128.000
380.793; -178.225;-1027.000;-1074.000
380.923;  -60.300; -103.000;  -34.000
381.053; -111.975; -613.000; -623.000
381.183;  -57.350; -106.000; -248.000
381.313;  -99.250; -656.000; -470.000
381.443;  -99.400; -692.000; -473.000
381.573;  -63.075; -402.000; -409.000
381.703; -157.525;-1249.000;-1095.000
381.833; -213.575;-1454.000;-1336.000
381.963;   -1.525; -134.000;  -87.000
382.093;  192.375; -925.000; -909.000
382.223;  -10.950; -713.000; -602.000
382.353; -128.875; -801.000; -608.000
382.482;  -63.425;-1091.000; -964.000
382.612;   57.850; -872.000; -644.000
382.742;   -9.825; -695.000; -622.000
382.872;  -59.050; -565.000; -551.000
383.002;   -7.250;  347.000; -132.000
383.131;  -58.375; -226.000; -160.000
383.261;  -89.200; -706.000; -768.000
383.391;  142.975; -552.000; -377.000
383.521; 2986.300;  451.000;  263.000
383.650;  682.400; -947.000; -904.000
383.780;  -55.950; -783.000; -656.000
383.910;   93.550;  880.000;  802.000
384.039; -130.575; -794.000; -656.000
384.169; -142.050;-1205.000;-1017.000
384.299; -107.375; -650.000; -662.000
384.428; -131.675; -764.000; -680.000
384.558;  -76.425; -308.000; -275.000
384.687;  -98.225; -414.000; -334.000
384.817;  -29.000;   75.000;   -2.000
384.947;  -56.550; -234.000; -141.000
385.076;  139.175;  982.000;  912.000
385.206;   34.550;  369.000;  480.000
385.335;  -99.500; -549.000; -417.000
385.465; -136.400; -655.000; -663.000
385.594;  -24.200;  -53.000;  -44.000
385.724;  -30.375; -868.000; -838.000
385.853;  -43.750; -296.000; -270.000
385.982;  191.300; -743.000; -787.000
386.112;  347.900;-1052.000; -871.000
386.241;  -34.075; -307.000; -312.000
386.371;  -42.475; -174.000;  -87.000
386.500; -105.200; -825.000; -789.000
386.629;  -64.525; -874.000; -817.000
386.759;   23.550;  -43.000;   68.000
386.888;  -46.975; -170.000; -250.000
387.017; -118.350; -648.000; -620.000
387.147; -147.825; -771.000; -798.000
387.276;  -92.850; -410.000; -397.000
387.405;  -70.775; -398.000; -342.000
387.535; -100.000; -452.000; -361.000
387.664;  -89.775; -692.000; -620.000
387.793;  -50.775; -198.000; -113.000
387.922;   91.200;  255.000;  200.000
388.052;  -98.250; -576.000; -423.000
388.181;  -84.100; -342.000; -472.000
388.310; -120.375; -889.000; -710.000
388.439; -131.850; -749.000; -742.000
388.568;   29.975;  365.000;  244.000
388.697;  107.550; -756.000; -653.000
388.826;  -45.200; -768.000; -666.000
388.956;  -65.375; -285.000; -307.000
389.085;  -72.725; -347.000; -287.000
389.214; -135.475; -842.000; -872.000
389.343;  -97.400; -645.000; -413.000
389.472;  333.650;  126.000;  149.000
389.601;  341.075;   91.000;    0.000
389.730;  -83.975; -568.000; -687.000
389.859;    4.025;  226.000;   46.000
389.988;  -16.225; -423.000; -408.000
390.117;  -27.975; -168.000; -146.000
390.246;  -64.375; -331.000; -320.000
390.375;  -94.925; -673.000; -626.000
390.504; -114.375; -703.000; -621.000
390.633; -139.950; -672.000; -726.000
390.761; -129.600; -732.000; -645.000
390.890;  -42.575;   -4.000; -130.000
391.019;  -93.725; -421.000; -441.000
391.148; -156.925; -826.000; -855.000
391.277; -111.900; -576.000; -493.000
391.406; -138.625; -821.000; -805.000
391.534;    3.175;  574.000; -301.000
391.663; -110.000; -583.000; -645.000
391.792; -131.400; -673.000; -701.000
391.921;   -3.425;   -3.000;   15.000
392.050;  -44.225; -287.000; -228.000
392.178; -179.975;-1206.000;-1061.000
392.307;  -80.825; -758.000; -712.000
392.436;  -91.800; -427.000; -641.000
392.564;  -31.125;  166.000;   -6.000
392.693; -136.675; -860.000; -682.000
392.822;  -46.400; -529.000; -534.000
392.950;  -96.200; -880.000; -714.000
393.079;  -17.700; -188.000; -328.000
393.208;  -76.300; -488.000; -511.000
393.336;  -36.050; -170.000; -145.000
393.465;  -70.475; -317.000; -199.000
393.593;   -6.925;   62.000;   79.000
393.722; -184.850;-1121.000; -916.000
393.850;  -61.175; -188.000;  -61.000
393.979; -172.925; -926.000; -805.000
394.107; -100.575; -517.000; -537.000
394.236;  -83.150; -570.000; -507.000
394.364;   56.700;  383.000;  206.000
394.493;  -52.350; -911.000; -767.000
394.621;  -87.675; -955.000; -916.000
394.750;  636.850; -873.000; -923.000
394.878; 2664.925; -247.000; -149.000
395.007; 3490.275; -721.000; -807.000
395.135;  211.700; -790.000; -721.000
395.263; -117.375;-1038.000;-1040.000
395.392;  -25.850;  -25.000; -107.000
395.520; -162.300; -818.000; -679.000
395.648; -146.300; -865.000; -915.000
395.777;  -91.125; -366.000; -405.000
395.905; -114.875; -449.000; -564.000
396.033;  -16.600;  217.000;  172.000
396.162;  -12.450; -399.000; -453.000
396.290;    0.525;  -17.000;   -2.000
396.418;  -81.125; -555.000; -514.000
396.546; -147.900; -571.000; -466.000
396.674; -154.350; -850.000; -878.000
396.803;  -31.350;  -72.000;  -23.000
396.931;  -55.475; -179.000; -199.000
397.059; -165.925;-1026.000; -989.000
397.187; -173.225;-1026.000; -975.000
397.315; -173.925; -884.000; -649.000
397.443; -122.625; -592.000; -443.000
397.572;  -91.700; -578.000; -424.000
397.700; -118.275; -607.000; -614.000
397.828;  -54.100;  120.000;  -90.000
397.956;  -80.000; -508.000; -478.000
398.084;  -88.850; -767.000; -626.000
398.212;  -18.975;  137.000;  124.000
398.340;  -40.950;  -56.000;  159.000
398.468;  -68.025; -390.000; -169.000
398.596; -160.075; -993.000; -953.000
398.724; -144.225; -762.000; -767.000
398.852; -179.100;-1024.000; -976.000
398.980; -114.025; -560.000; -560.000
399.108; -125.200; -982.000; -735.000
399.236;  -34.675;   13.000;    8.000
399.363;  -10.000;  222.000;  196.000
399.491;  -86.775; -404.000; -398.000
399.619; -138.375; -829.000; -800.000
399.747; -138.925; -859.000; -771.000
399.875;   28.575;  220.000;  234.000
400.003;  -87.625; -359.000; -284.000
400.130; -116.500; -421.000; -341.000
400.258;  -47.850;  -83.000;   38.000
400.386;  -64.425; -352.000; -168.000
400.514;  -96.500; -526.000; -587.000
400.641; -167.125; -928.000; -802.000
400.769; -164.700; -979.000; -888.000
400.897; -152.475; -838.000; -793.000
401.025;  -65.625; -166.000; -152.000
401.152;  -10.150;  220.000;   38.000
401.280;  -97.825; -430.000; -429.000
401.408; -123.200; -712.000; -576.000
401.535; -133.225; -735.000; -758.000
401.663; -207.025;-1134.000;-1054.000
401.790; -103.400; -514.000; -525.000
401.918;   24.325;  436.000;  405.000
402.046;  -35.725;  134.000;  122.000
402.173;  -53.575;  -18.000;    7.000
402.301;  -95.525; -519.000; -397.000
402.428;   23.900;  528.000;  383.000
402.556; -175.575;-1188.000; -913.000
402.683;  -58.650;  -20.000;   -1.000
402.811;  -56.750;  -37.000; -206.000
402.938;  -29.625;   20.000;   27.000
403.066;  -41.875; -574.000; -558.000
403.193;   60.350;  299.000;  239.000
403.321;  -11.100; -396.000; -574.000
403.448;   64.975;   83.000;   27.000
403.575;    3.075;  -90.000;  -46.000
403.703; -138.125; -732.000; -557.000
403.830; -101.850; -531.000; -496.000
403.957; -172.600;-1117.000;-1023.000
404.085;  -15.000;  -61.000; -172.000
404.212;   48.425;  -50.000;   63.000
404.339;  215.975; -566.000; -306.000
404.467; 5370.800; -612.000; -524.000
404.594; 2801.300; -287.000; -227.000
404.721;  426.200; -869.000; -764.000
404.848;   13.400; -113.000; -202.000
404.976; -138.725; -856.000; -783.000
405.103;  -28.600;  -14.000;  -82.000
405.230;  -10.575;  190.000;  226.000
405.357;    4.000;  117.000;   44.000
405.484;  229.025;  -49.000;    5.000
405.612;  -10.350; -548.000; -563.000
405.739;  -90.200; -488.000; -243.000
405.866;   65.525;  669.000;  385.000
405.993;  -72.250; -398.000; -102.000
406.120; -152.725; -801.000; -887.000
406.247;  -96.150; -323.000; -342.000
406.374;   78.475;  540.000;  629.000
406.501; -120.225; -632.000; -702.000
406.628; -125.825; -621.000; -589.000
406.755; -142.425; -803.000; -620.000
406.882;  -70.575; -228.000; -277.000
407.009; -131.825; -719.000; -628.000
407.136;  -73.225; -480.000; -401.000
407.263; -104.350; -939.000; -829.000
407.390; -134.175; -692.000; -614.000
407.517; -192.275;-1139.000;-1187.000
407.644;  -83.900; -332.000; -256.000
407.771;  -92.375; -249.000; -287.000
407.898;  -28.100;  168.000;  328.000
408.025;  -91.575; -421.000; -313.000
408.151;  -41.625;   82.000;  153.000
408.278;  -88.325; -267.000; -216.000
408.405; -171.375; -931.000; -899.000
408.532; -125.800; -549.000; -542.000
408.659; -150.400; -677.000; -648.000
408.785; -211.150;-1298.000;-1170.000
408.912;  -82.075; -412.000; -296.000
409.039; -114.075; -610.000; -686.000
409.166; -130.775; -591.000; -555.000
409.292; -116.900; -571.000; -534.000
409.419; -135.075; -665.000; -649.000
409.546;  -99.400; -431.000; -192.000
409.672; -134.600; -713.000; -545.000
409.799;  -36.500;  -36.000;   34.000
409.926;  -77.400; -180.000; -179.000
410.052; -196.675;-1127.000;-1091.000
410.179;  -93.100; -368.000; -392.000
410.305;  -96.150; -375.000; -493.000
410.432;  -61.050; -220.000; -333.000
410.558; -111.900; -305.000; -380.000
410.685; -135.725; -688.000; -431.000
410.812; -128.075; -409.000; -588.000
410.938; -160.600; -964.000; -808.000
411.065; -140.775; -671.000; -645.000
411.191;  -76.550; -189.000; -174.000
411.317; -148.975; -823.000; -742.000
411.444;  -90.475; -317.000; -246.000
411.570;  -80.025; -339.000; -294.000
411.697; -135.225; -758.000; -752.000
411.823; -191.625; -989.000; -999.000
411.949;  -61.825;  -56.000;   17.000
412.076; -126.175; -539.000; -519.000
412.202; -152.700; -758.000; -757.000
412.329; -145.625; -798.000; -752.000
412.455; -150.800; -821.000; -657.000
412.581;  -44.525;  -15.000;  172.000
412.707; -110.850; -540.000; -457.000
412.834;  -17.625;  156.000;  219.000
412.960; -137.450; -785.000; -784.000
413.086; -140.300; -743.000; -701.000
413.212;   70.775;  604.000;  578.000
413.339; -143.850; -685.000; -701.000
413.465;  -86.225; -364.000; -310.000
413.591; -136.125; -757.000; -474.000
413.717;  -71.850; -358.000; -366.000
413.843; -161.500; -839.000; -861.000
413.969;  -80.175;  -47.000; -292.000
414.096; -124.975; -679.000; -679.000
414.222;  -38.750;  -33.000;   85.000
414.348; -111.275; -652.000; -385.000
414.474;  -26.500;   38.000;  -52.000
414.600;  -41.050; -126.000; -144.000
414.726;  -34.000;  -96.000;  -55.000
414.852;  -91.700; -365.000; -342.000
414.978;  -17.925;  104.000;  -18.000
415.104;    0.600;   38.000;   80.000
415.230;  -30.175; -329.000; -330.000
415.356;  -23.425; -409.000; -514.000
415.482;   95.775;   13.000;  -35.000
415.608;  196.725; -247.000; -323.000
415.734;  789.125;   67.000;   38.000
415.860;17042.000; -875.000; -767.000
415.986;11775.000; -685.000; -607.000
416.111;  946.000; -798.000; -652.000
416.237;  181.625; -424.000; -571.000
416.363; 1049.200; -765.000; -733.000
416.489; 3768.950; -324.000; -251.000
416.615;  356.575; -707.000; -742.000
416.741;  -50.500; -677.000; -784.000
416.866; -107.025; -673.000; -736.000
416.992; -140.500; -801.000; -818.000
417.118;  -69.850;  -41.000;  -80.000
417.244; -113.225; -798.000; -531.000
417.369; -115.950; -801.000; -612.000
417.495;  -54.675; -325.000; -254.000
417.621; -139.550;-1015.000; -803.000
417.746;  -62.825; -579.000; -572.000
417.872;   -1.050; -254.000; -144.000
417.998;   -0.075; -515.000; -530.000
418.123;  965.500;-1073.000; -845.000
418.249; 4768.725; -512.000; -601.000
418.374;  598.400; -916.000; -824.000
418.500;   53.100; -383.000; -482.000
418.626;   77.375;   70.000;  -59.000
418.751;   39.125; -549.000; -448.000
418.877;  111.325; -637.000; -643.000
419.002; 1634.175; -688.000; -560.000
419.128;11311.700; -930.000; -721.000
419.253; 2556.600; -967.000; -837.000
419.379;  318.700; -391.000; -338.000
419.504;  316.500;  325.000;  415.000
419.629;  428.825; -393.000; -212.000
419.755; 3516.625; -317.000; -254.000
419.880;20049.700;  -98.000;   67.000
420.006;10013.800; -280.000; -221.000
420.131;24319.250; -662.000; -775.000
420.256; 3275.025; -315.000; -316.000
420.382;  397.375; -665.000; -687.000
420.507;    2.325; -649.000; -778.000
420.632;  -21.525; -337.000; -339.000
420.758;  -18.125; -251.000; -425.000
420.883; -119.775; -876.000; -672.000
421.008; -142.125; -775.000; -619.000
421.133; -108.975; -509.000; -467.000
421.259;  -70.900; -325.000; -259.000
421.384; -147.750; -834.000; -693.000
421.509; -155.825;-1052.000; -862.000
421.634;   79.475; -936.000; -820.000
421.759;    1.550; -359.000; -327.000
421.885; -118.475; -717.000; -656.000
422.010; -111.575; -673.000; -542.000
422.135; -163.325; -695.000; -727.000
422.260;    1.000;  340.000;  280.000
422.385;  -70.175;   12.000;  -98.000
422.510;  -18.625;  151.000;  -26.000
422.635;  -41.250;  -87.000;  -43.000
422.760;  -66.325; -766.000; -791.000
422.885;  -20.275;  -57.000;  -80.000
423.010;  -57.625; -112.000; -169.000
423.135; -121.475; -481.000; -561.000
423.260;  -76.425; -150.000; -245.000
423.385;   15.950;  476.000;  222.000
423.510;  -28.750;   71.000;  -22.000
423.635;  -21.000;  133.000;   45.000
423.760;    5.850;  383.000;  328.000
423.885;   16.650;  336.000;  391.000
424.010;  -28.975;  -68.000;  -13.000
424.135;  -56.325;    5.000;  -33.000
424.259; -107.350; -654.000; -457.000
424.384;  -82.925; -279.000; -272.000
424.509;  -47.650; -260.000; -186.000
424.634; -127.350; -761.000; -623.000
424.759;  -82.050; -688.000; -544.000
424.883;  -62.325; -506.000; -527.000
425.008;   82.225; -502.000; -410.000
425.133; 1678.000; -679.000; -653.000
425.258;  711.500; -517.000; -381.000
425.382;  261.950; -867.000; -774.000
425.507;  634.150; -487.000; -543.000
425.632;  121.050; -802.000; -663.000
425.756;  336.925; -256.000; -146.000
425.881; 6519.850; -831.000; -857.000
426.006;17012.700; -604.000; -355.000
426.130; 2301.525; -696.000; -508.000
426.255;  262.475; -611.000; -491.000
426.379;  108.175; -189.000; -577.000
426.504;  326.050;  660.000;  544.000
426.629; 3473.600; -519.000; -466.000
426.753; 2249.425;   64.000;  -46.000
426.878;  226.125; -252.000; -288.000
427.002;   55.900; -651.000; -668.000
427.127; 1335.700;  -35.000; -158.000
427.251;10302.325;  372.000;  401.000
427.375; 2664.700; -191.000; -173.000
427.500;  710.775; -616.000; -610.000
427.624;  168.975; -234.000; -400.000
427.749;   13.025; -216.000; -225.000
427.873;  -62.250; -499.000; -412.000
427.997;  -67.475; -222.000; -230.000
428.122;   48.825;  795.000;  703.000
428.246;   14.700;  433.000;  434.000
428.371; -158.200; -869.000; -773.000
428.495; -146.375; -624.000; -646.000
428.619;  -61.750; -186.000; -117.000
428.743;  -32.400;   65.000;  132.000
428.868; -120.450; -732.000; -643.000
428.992;  270.625; -219.000; -326.000
429.116;   49.225; -329.000; -357.000
429.240;   66.575;  419.000;  426.000
429.365;  -84.375; -454.000; -574.000
429.489;  -96.150; -638.000; -647.000
429.613;  -23.225; -236.000; -177.000
429.737;  -15.700; -563.000; -432.000
429.861;  180.825; -247.000; -133.000
429.985; 4983.250; -425.000; -305.000
430.109; 5271.100; -770.000; -908.000
430.234;  556.875;   76.000;  -50.000
430.358;   29.550; -250.000; -160.000
430.482;  -95.325; -672.000; -564.000
430.606;  -91.025; -655.000; -375.000
430.730;  -83.100; -437.000; -388.000
430.854; -134.400; -909.000; -835.000
430.978; -121.250; -795.000; -764.000
431.102; -110.825; -499.000; -422.000
431.226; -145.100; -874.000; -815.000
431.350;    4.350;  345.000;  422.000
431.474; -108.150; -661.000; -373.000
431.597; -179.625;-1060.000; -848.000
431.721; -101.325; -276.000; -267.000
431.845; -144.475; -704.000; -472.000
431.969;  -91.075; -304.000; -349.000
432.093; -105.150; -395.000; -317.000
432.217;  -54.575;   32.000;   82.000
432.341; -111.700; -523.000; -518.000
432.464;  -52.475;   96.000;   40.000
432.588;  -80.175; -401.000; -329.000
432.712;  -26.525;  -52.000;  -52.000
432.836;   16.700;  213.000;  263.000
432.959;  -34.550; -372.000; -311.000
433.083;   73.550;   11.000;    2.000
433.207;  346.125;  285.000;  930.000
433.330; 4763.650; -391.000; -200.000
433.454; 5640.700; -654.000; -638.000
433.578; 3221.925;  583.000;  278.000
433.701;  498.025; -623.000; -675.000
433.825;   11.725; -292.000; -299.000
433.949;    0.750;   28.000;  -72.000
434.072;  -58.250; -410.000; -323.000
434.196;  -40.375; -309.000; -117.000
434.319; 3779.125;25482.000;25124.000
434.443;  499.825; -656.000; -603.000
434.566; 2297.575;  281.000;   62.000
434.690;  337.300; -637.000; -383.000
434.813;   32.775; -251.000; -173.000
434.937;  -96.100; -569.000; -696.000
435.060; -102.275; -423.000; -332.000
435.184;  -71.925; -492.000; -217.000
435.307;  -22.150;  159.000;  102.000
435.431;  -51.625;  -40.000;   24.000
435.554;  -99.725; -399.000; -240.000
435.677; -101.025; -350.000; -258.000
435.801;  -59.225;  -25.000;   49.000
435.924;  -69.325;    1.000;  -67.000
436.048; -166.150;-1019.000; -732.000
436.171;  -94.100; -240.000;  -66.000
436.294;  -58.100; -248.000; -229.000
436.417;   29.625; -963.000; -849.000
436.541; -118.875; -814.000; -840.000
436.664;  -78.125; -242.000; -316.000
436.787;  -50.825;   13.000;  113.000
436.910; -139.600; -792.000; -422.000
437.034;  -21.625;  142.000;  143.000
437.157;  -31.975;  -11.000;    0.000
437.280; -107.900; -392.000; -292.000
437.403; -188.325; -982.000; -869.000
437.526;  -47.100; -903.000; -865.000
437.649;  284.525; -505.000; -332.000
437.772;  -72.725; -692.000; -540.000
437.896;   37.900;  700.000;  544.000
438.019; -124.750; -758.000; -503.000
438.142; -119.500; -596.000; -506.000
438.265; -134.500; -639.000; -670.000
438.388;  -23.725; -520.000; -410.000
438.511; -105.900; -597.000; -394.000
438.634; -103.350; -247.000; -125.000
438.757; -153.425; -693.000; -619.000
438.880;  -70.875;  -34.000;  -57.000
439.003; -114.575; -417.000; -437.000
439.126; -103.125; -287.000; -167.000
439.248;  -68.275;  -98.000; -139.000
439.371;  -62.425;    9.000;  -53.000
439.494;   19.200;  510.000;  439.000
439.617;  -72.025;   65.000;  -88.000
439.740; -201.450; -968.000; -816.000
439.863; -159.750; -755.000; -595.000
439.986; -135.500; -476.000; -431.000
440.108;  -63.650; -161.000; -112.000
440.231; -186.175; -950.000; -836.000
440.354;  -88.225;  -64.000; -150.000
440.477; -127.000; -566.000; -542.000
440.599; -106.900; -200.000; -225.000
440.722; -146.275; -709.000; -586.000
440.845;   60.425;  751.000;  928.000
440.968; -114.700; -415.000; -311.000
441.090;  -81.125; -199.000;  -33.000
441.213; -183.950;-1021.000; -825.000
441.336;  -85.550; -159.000;   -5.000
441.458; -118.500; -549.000; -396.000
441.581; -155.875; -628.000; -629.000
441.703;  -81.925; -152.000;   13.000
441.826; -125.500; -557.000; -400.000
441.948;  -58.600;   56.000;   51.000
442.071;   11.700;  555.000;  424.000
442.193; -141.725; -531.000; -485.000
442.316;  -21.600;  152.000;   97.000
442.438;    3.425; -233.000;  -10.000
442.561;   21.800;  272.000;  262.000
442.683;  -22.225; -809.000; -522.000
442.806;  131.400;   -8.000;   74.000
442.928; -150.525; -859.000; -604.000
443.051; -109.425; -577.000; -373.000
443.173; -119.900; -341.000; -339.000
443.295; -129.875; -263.000; -371.000
443.418; -108.650; -321.000;  -29.000
443.540;  -79.075; -106.000;   -4.000
443.662; -151.250; -563.000; -465.000
443.785;  -32.000;  335.000;  199.000
443.907; -132.625; -362.000; -208.000
444.029; -150.800; -767.000; -494.000
444.152; -164.525; -644.000; -554.000
444.274;  -44.875;  -18.000;  -24.000
444.396; -132.575; -461.000; -221.000
444.518; -153.750; -691.000; -454.000
444.640; -114.875; -268.000; -111.000
444.763;  -42.075;  388.000;  249.000
444.885; -130.175; -432.000; -392.000
445.007;  -65.950;   35.000;   86.000
445.129; -135.075; -610.000; -515.000
445.251; -124.425; -372.000; -439.000
445.373; -149.325; -537.000; -386.000
445.495;  -15.325;  242.000;  350.000
445.617;   32.575;  853.000;  753.000
445.739; -105.650; -215.000;  -97.000
445.861;  -71.150; -245.000; -112.000
445.984;  -96.750; -267.000; -101.000
446.105;  -45.175; -418.000; -251.000
446.227;   29.775; -176.000;  -19.000
446.349; -108.475; -358.000; -249.000
446.471; -153.050; -615.000; -448.000
446.593;  -93.750; -316.000;   19.000
446.715;  -63.200;  -67.000;   41.000
446.837;   32.475;  697.000;  832.000
446.959; -131.050; -457.000; -478.000
447.081; -152.475; -628.000; -518.000
447.203;   58.975;  862.000;  834.000
447.325; -109.150; -270.000;   42.000
447.446;  -33.800;  286.000;  530.000
447.568; -177.025; -921.000; -803.000
447.690;  -97.125; -236.000; -245.000
447.812; -174.200; -798.000; -519.000
447.933;  -59.850;  155.000;  127.000
448.055;  -82.275; -306.000; -261.000
448.177;  -13.300;   31.000;   79.000
448.299; -153.350; -935.000; -727.000
448.420;  -37.725;  -25.000;  159.000
448.542;  -75.775;   -3.000;   33.000
448.664;  -29.525;  109.000;  322.000
448.785;  -37.575;  265.000;   83.000
448.907; -124.675; -614.000; -353.000
449.028; -148.575; -771.000; -471.000
449.150;    6.075;  492.000;  589.000
449.272; -201.325;-1044.000; -913.000
449.393;   19.975;  612.000;  694.000
449.515; -164.375; -634.000; -581.000
449.636; -106.100; -264.000; -155.000
449.758;   30.025;  763.000;  622.000
449.879; -110.950; -498.000; -396.000
450.001; -100.750; -149.000;  -49.000
450.122;  -50.375;  -95.000;  162.000
450.244;  -30.450;   37.000;  364.000
450.365; -114.975; -495.000; -301.000
450.486;  -39.100;   80.000;  268.000
450.608;    3.525;  393.000;  326.000
450.729;   61.100;  578.000;  645.000
450.850;  -16.800; -574.000; -466.000
450.972;  733.050; -552.000; -389.000
451.093; 4787.450;  190.000;  588.000
451.214; 1920.775; -516.000; -337.000
451.336;  336.125;  773.000;  579.000
451.457;   44.200;  264.000;  393.000
451.578;  -63.900; -118.000;  -74.000
451.699; -125.550; -546.000; -540.000
451.821;  -77.350; -284.000;  -50.000
451.942;   -8.250;  278.000;  285.000
452.063;   21.850;  228.000;  419.000
452.184;  488.850;  -54.000;  -49.000
452.305;  925.625;  103.000;  170.000
452.427;   58.850; -549.000; -301.000
452.548;  -63.125;   23.000;   79.000
452.669;  -93.550; -257.000;  -89.000
452.790;  -77.850;    3.000;  -18.000
452.911;  -35.250;  195.000;  259.000
453.032; -107.475; -289.000;  -60.000
453.153;  -73.325;  -29.000;   81.000
453.274;   37.575;  737.000;  868.000
453.395;  -79.925;  -51.000;  175.000
453.516;   88.700; 1317.000; 1388.000
453.637; -118.575; -205.000; -150.000
453.758;  -77.150;   15.000;   69.000
453.879; -133.925; -462.000; -250.000
454.000;   57.025; 1086.000;  948.000
454.121; -134.650; -554.000; -326.000
454.242; -146.275; -599.000; -383.000
454.362;  -76.725;  -99.000;  114.000
454.483;  -48.350; -309.000; -229.000
454.604;   36.350;  512.000;  580.000
454.725; -151.300; -627.000; -555.000
454.846; -131.350; -474.000; -406.000
454.967;  -36.175;  230.000;  539.000
455.087;  -53.000;  179.000;  153.000
455.208;    4.775;  554.000;  856.000
455.329;  -63.975;  -22.000;   82.000
455.450;   27.950;  473.000;  633.000
455.570;  -97.775; -234.000; -211.000
455.691;  -73.175;  201.000;  407.000
455.812; -131.975; -270.000;  -92.000
455.932;  -72.225;  107.000;  -97.000
456.053; -108.750;   36.000;   24.000
456.173; -130.825; -433.000; -355.000
456.294; -144.000; -476.000; -303.000
456.415;  -73.825;  -73.000;   70.000
456.535;  -47.525;  297.000;  273.000
456.656;  -59.250;  132.000;  240.000
456.776;  -69.550;    3.000;  298.000
456.897;  -22.250;  308.000;  513.000
457.017;  -96.050; -153.000;   -3.000
457.138; -140.550; -402.000; -249.000
457.258;  -48.625;  263.000;  224.000
457.379;  -18.525;  509.000;  521.000
457.499;  -25.050;  443.000;  432.000
457.620; -142.425; -407.000; -231.000
457.740; -102.700; -132.000;  -11.000
457.860;  -69.425;   87.000;   44.000
457.981;  -73.750;  132.000;  124.000
458.101;  -99.800;  -89.000;   40.000
458.221;  -17.700;  336.000;  402.000
458.342;  -80.750;   -4.000;  -37.000
458.462;   11.725;  617.000;  352.000
458.582;  -42.450; -302.000; -294.000
458.703;  -13.875;  303.000;  154.000
458.823;  -40.450;   22.000;  163.000
458.943;    5.325;  341.000;  467.000
459.063;  -41.025; 1124.000;  192.000
459.183;  -46.200;  328.000;  313.000
459.304;  -14.500;  315.000;  517.000
459.424;  -76.775; -246.000;  -89.000
459.544;  282.675;  388.000;  764.000
459.664;  745.400;  499.000;  506.000
459.784;  260.450; 1004.000; 1175.000
459.904;   43.025;  867.000;  744.000
460.024;   38.875;  867.000;  684.000
460.144;  -28.300;  449.000;  554.000
460.264;  -32.850;  515.000;  327.000
460.385;  -98.125; -145.000; -119.000
460.505;   14.975;  905.000;  858.000
460.625; -101.425;  -17.000;  -68.000
460.745;  -37.450;  396.000;  541.000
460.864;  -54.775;  153.000;  469.000
460.984;    7.800;  499.000;  573.000
461.104;  125.575; 1656.000; 1775.000
461.224;   -4.100;  657.000;  650.000
461.344;  -42.025;  431.000;  360.000
461.464;  -39.325;  258.000;  513.000
461.584;  -33.725;  283.000;  466.000
461.704;  -84.600;   58.000;  108.000
461.824;  -73.750;  238.000;  259.000
461.943;  -62.275;  191.000;  130.000
462.063;  -83.300;    2.000;  324.000
462.183;   -4.725;  639.000;  717.000
462.303;   81.550; 1678.000; 1230.000
462.422;   22.775;  781.000;  840.000
462.542;  -52.250;  271.000;  391.000
462.662;    5.475;  353.000;  380.000
462.782;  217.150;  833.000;  572.000
462.901;  423.925;  545.000;  717.000
463.021;  251.800; 1702.000; 1638.000
463.141;  -25.625;  337.000;  770.000
463.260;  -32.375;  614.000;  474.000
463.380;  -10.225;  902.000;  884.000
463.499;  -41.350;  342.000;  332.000
463.619;  -55.625;  581.000;  559.000
463.738;   97.725; 1644.000;  903.000
463.858;    5.875;  657.000;  811.000
463.978;  -56.425;  542.000;  396.000
464.097;   25.200;  921.000; 1114.000
464.217;  119.175; 1196.000; 1143.000
464.336;  101.775; 1068.000; 1130.000
464.455;  -40.075;  328.000;  659.000
464.575;  -18.500;  597.000;  602.000
464.694;   92.800; 1204.000; 1179.000
464.814;   94.525; 1190.000; 1138.000
464.933;   58.775; 1095.000; 1027.000
465.052;   60.725; 1412.000; 1054.000
465.172;   45.025;  922.000;  799.000
465.291;   93.625; 1376.000; 1320.000
465.410;    1.525;  462.000;  735.000
465.530;   58.625; 1355.000; 1310.000
465.649;   36.325; 1209.000; 1273.000
465.768;  121.225; 1673.000; 1508.000
465.888;   46.150;  941.000; 1174.000
466.007;   86.675; 1335.000; 1440.000
466.126;   -5.425;  721.000;  641.000
466.245;   27.150; 1176.000; 1187.000
466.364;    9.950;  950.000; 1060.000
466.484;   40.525; 1024.000; 1213.000
466.603;   26.400; 1101.000; 1222.000
466.722;   94.175; 1490.000; 1769.000
466.841;   65.100; 1151.000; 1401.000
466.960;   10.700; 1069.000;  972.000
467.079;  123.125; 1971.000; 1786.000
467.198;   40.875; 1238.000; 1181.000
467.317;   87.375; 1768.000; 1162.000
467.436;   46.400; 1709.000; 1261.000
467.555;  119.775; 1796.000; 1746.000
467.674;   49.025; 1227.000; 1329.000
467.793;   32.050; 1376.000; 1374.000
467.912;   63.700; 1658.000; 1539.000
468.031;  131.700; 2038.000; 1930.000
468.150;  116.250; 1842.000; 1837.000
468.269;  172.200; 2313.000; 2090.000
468.388;  176.900; 2168.000; 2339.000
468.507;  230.625; 2884.000; 2903.000
468.626;  210.700; 2555.000; 2541.000
468.744;  146.200; 2018.000; 2174.000
468.863;  185.300; 2312.000; 2523.000
468.982;   69.525; 1503.000; 1555.000
469.101;  207.550; 2788.000; 2692.000
469.220;  146.850; 2333.000; 2176.000
469.338;  244.575; 2935.000; 3051.000
469.457;  187.525; 2719.000; 2545.000
469.576;  321.150; 3953.000; 3784.000
469.695;  243.800; 2877.000; 3066.000
469.813;  401.425; 4148.000; 4192.000
469.932;  379.925; 4255.000; 4485.000
470.051;  401.975; 4075.000; 4161.000
470.169;  811.800; 4470.000; 4338.000
470.288; 1329.150; 4700.000; 4809.000
470.406;  795.150; 5059.000; 5194.000
470.525;  615.525; 6101.000; 5787.000
470.644;  642.575; 6847.000; 6794.000
470.762;  801.250; 8397.000; 7873.000
470.881;  920.050; 8651.000; 8464.000
470.999; 1043.050; 9685.000; 9151.000
471.118; 1078.925;11174.000;10711.000

