
Integration time [ms]: 100.000
Averaging Nr. [scans]: 40
Smoothing Nr. [pixels]: 0
Data measured with spectrometer [name]: 2101012U2
Wave   ;Sample   ;Dark     ;Reference
[nm]   ;[counts] ;[counts] ;[counts] 

197.733;   65.250;  516.000;  404.000
197.879;  -79.100; -610.000; -634.000
198.025;  -31.550; -475.000; -420.000
198.171;  -69.050; -602.000; -612.000
198.317;  -17.825; -401.000; -316.000
198.463;  -56.175; -655.000; -404.000
198.609;   33.725;  181.000; -137.000
198.755;  -73.775; -644.000; -410.000
198.901;  -70.850; -505.000; -424.000
199.047;  -63.800; -615.000; -488.000
199.193;  -32.850; -230.000; -468.000
199.339;  -38.725; -222.000; -369.000
199.485;   41.250;  330.000;  271.000
199.631;   16.625;  227.000;  310.000
199.777;  -42.850; -466.000; -398.000
199.923;  -46.175; -610.000; -424.000
200.069;    1.575; -141.000;  -58.000
200.215;   47.875;  128.000;  453.000
200.361;   42.200;  243.000;  477.000
200.507;  -65.350; -600.000; -373.000
200.653;  -24.350; -371.000; -194.000
200.798;  -22.325; -215.000; -125.000
200.944;   -2.125; -146.000;  -41.000
201.090;   42.975;   61.000;  222.000
201.236;    2.350; -116.000; -158.000
201.382;  129.025;  874.000;  903.000
201.528;    9.750;  -58.000;  -48.000
201.674;  -53.100; -386.000; -293.000
201.819;  -54.600; -540.000; -439.000
201.965;  -80.275; -699.000; -447.000
202.111;  -14.200; -273.000; -226.000
202.257;  -32.800; -250.000; -238.000
202.402;   18.100;   13.000;  -36.000
202.548;  -42.800; -169.000; -116.000
202.694;   85.125;  410.000; -183.000
202.840;  -68.150; -603.000; -531.000
202.985;  -61.150; -681.000; -639.000
203.131; -102.850; -832.000; -666.000
203.277;    1.425; -199.000; -262.000
203.423;  -55.200; -434.000; -520.000
203.568;  -26.800; -462.000; -237.000
203.714;  -57.350; -535.000; -542.000
203.860;  -88.400; -682.000; -641.000
204.005;   15.950;  112.000;  167.000
204.151;   72.350;  561.000;  556.000
204.296;  -43.450; -354.000; -221.000
204.442;  -62.400; -600.000; -547.000
204.588;  -64.325; -592.000; -579.000
204.733;   29.950;  178.000;  168.000
204.879; -120.025;-1018.000; -822.000
205.025;   15.300;  -99.000;  126.000
205.170;    7.600;  -17.000;   94.000
205.316;   84.925;  438.000;  661.000
205.461;  -85.125; -698.000; -554.000
205.607;   91.250;  609.000;  665.000
205.752;  -73.725; -626.000; -551.000
205.898;  -48.150; -501.000; -391.000
206.043;  -53.425; -578.000; -506.000
206.189;  -42.775; -243.000; -285.000
206.334;   89.450;  554.000;  606.000
206.480;   74.300;  409.000;  239.000
206.625;  -73.875; -529.000; -552.000
206.771;  -44.975; -451.000; -373.000
206.916;  -26.550; -210.000; -537.000
207.062;  -66.625; -545.000; -591.000
207.207;  -58.775; -546.000; -443.000
207.353;   59.325;  185.000;  460.000
207.498;   10.425;  196.000;   85.000
207.643;  -35.575; -501.000; -370.000
207.789; -119.950;-1069.000; -910.000
207.934;  -78.175; -665.000; -713.000
208.080;  -12.500; -154.000;   66.000
208.225;   -2.550;  -22.000;  -57.000
208.370;  -83.275; -727.000; -619.000
208.516;  -67.725; -741.000; -487.000
208.661;  -15.850; -127.000;  -69.000
208.806;  -10.525; -165.000; -171.000
208.952; -119.025;-1044.000; -731.000
209.097;   70.700;  378.000;  349.000
209.242;  -41.450; -307.000; -382.000
209.387;   70.475;  392.000;  350.000
209.533;  -46.325; -321.000; -350.000
209.678;   78.900;  472.000;  543.000
209.823;  -49.775; -408.000; -310.000
209.969;  -74.500; -860.000; -757.000
210.114;  -98.475; -907.000; -719.000
210.259; -109.275; -939.000; -889.000
210.404;   -1.425; -171.000;  103.000
210.549;    4.950;  108.000;    3.000
210.695;   -9.425;   -3.000;  -95.000
210.840;   36.325;   94.000;   67.000
210.985;  -66.850; -484.000; -303.000
211.130;   77.225;  268.000;  406.000
211.275;   32.150;  207.000;  199.000
211.420;  -51.225; -300.000; -289.000
211.566;  -52.125; -536.000; -489.000
211.711;   26.200;  218.000;  157.000
211.856;  -59.575; -545.000; -519.000
212.001;   15.875;  151.000;   44.000
212.146;   23.075;  153.000;   49.000
212.291;  -20.925; -210.000; -186.000
212.436;  -15.850; -280.000;   -6.000
212.581;  -80.275; -685.000; -653.000
212.726;  -66.000; -487.000; -538.000
212.871;  -40.525; -552.000; -217.000
213.016; -131.425;-1172.000;-1029.000
213.161;   64.700;  406.000;  291.000
213.306;  -65.450; -435.000; -577.000
213.451;  -70.275; -778.000; -689.000
213.596;  -43.550; -455.000; -347.000
213.741;  -42.000; -448.000; -538.000
213.886;  -71.625; -498.000; -517.000
214.031;  -15.975; -294.000; -124.000
214.176;  -50.275; -408.000; -341.000
214.321;  -17.775; -296.000; -157.000
214.466;  -23.400; -163.000;  -43.000
214.611;   -5.950;  -61.000;  -10.000
214.756; -106.575; -948.000; -858.000
214.901;  -25.075; -388.000; -226.000
215.046; -112.075; -797.000; -825.000
215.191;   23.175;  128.000;   35.000
215.336;  -15.550; -157.000;  -19.000
215.480;  -61.275; -684.000; -505.000
215.625;  -14.200; -175.000;  -19.000
215.770;  -79.575; -757.000; -662.000
215.915;   -2.250;   -5.000;  -97.000
216.060;    1.750; -113.000;  -21.000
216.205; -100.625; -731.000; -779.000
216.349;  -60.475; -470.000; -533.000
216.494; -123.650; -939.000; -867.000
216.639; -102.775; -823.000; -888.000
216.784;  -89.775; -577.000; -525.000
216.929;   51.625;  392.000;  281.000
217.073;  -10.475; -244.000;  -31.000
217.218;   17.400;   78.000;  -47.000
217.363;  -85.000; -656.000; -618.000
217.507;  -70.075; -623.000; -588.000
217.652; -106.350; -845.000; -874.000
217.797;  -86.750; -708.000; -659.000
217.942; -101.675; -856.000; -720.000
218.086;   72.650;  608.000;  539.000
218.231;  -21.950; -174.000;  -26.000
218.376;  -26.025; -337.000; -229.000
218.520;    9.750;  -41.000;   96.000
218.665;  -24.175; -338.000; -204.000
218.810;  -42.500; -275.000; -233.000
218.954;   16.100;  201.000;   35.000
219.099;  -99.750; -713.000; -963.000
219.243;  -69.425; -589.000; -554.000
219.388;  -33.025; -264.000; -136.000
219.532;   -7.950; -116.000; -116.000
219.677;  -73.175; -564.000; -521.000
219.822;   -4.475;   33.000;   89.000
219.966;    7.975;   17.000;  -99.000
220.111;  -29.900; -328.000;  -40.000
220.255;  -76.325; -797.000; -750.000
220.400;  -11.100; -180.000; -146.000
220.544;  -68.600; -516.000; -450.000
220.689;  -49.825; -422.000; -451.000
220.833;  -13.125; -123.000;  -58.000
220.978;  -38.075; -393.000; -563.000
221.122;   19.775;  319.000;  307.000
221.267; -108.275; -906.000; -837.000
221.411;  -80.625; -478.000; -394.000
221.555;  -13.625; -104.000;  -23.000
221.700;  -42.275; -329.000; -222.000
221.844;   30.100;  255.000;  272.000
221.989;  -48.050; -328.000; -311.000
222.133;  -28.075; -289.000; -307.000
222.277;  -11.150;    5.000;   78.000
222.422;   15.050;  227.000;  113.000
222.566;  -30.000; -381.000; -214.000
222.711;  -44.525; -414.000; -479.000
222.855;  -59.875; -643.000; -586.000
222.999;  -82.275; -642.000; -717.000
223.144;  -37.250; -195.000; -194.000
223.288;   55.400;  423.000;  251.000
223.432;   29.675;  184.000;  230.000
223.576;   15.950;  152.000;  -21.000
223.721;   49.575;  364.000;  273.000
223.865;  -57.125; -472.000; -475.000
224.009;  197.050; 1673.000; 1631.000
224.153;  -71.050; -660.000; -671.000
224.298;  -57.875; -531.000; -489.000
224.442;  -18.925;  -74.000;  -33.000
224.586;   -6.025; -169.000; -106.000
224.730;  -90.525; -858.000; -670.000
224.875;  -96.825; -739.000; -688.000
225.019;   14.150;  102.000;  188.000
225.163;   55.000;  208.000;  341.000
225.307;   28.475;   97.000;  -91.000
225.451;   35.275;  360.000;  481.000
225.595;   16.575;  264.000;  176.000
225.739;  -11.850; -170.000;  -94.000
225.884;    9.550;   86.000;    5.000
226.028;  -90.050; -760.000; -626.000
226.172;  -21.050; -260.000; -273.000
226.316; -115.900; -941.000; -902.000
226.460;  -71.300; -645.000; -493.000
226.604;  -52.875; -406.000; -400.000
226.748;  -91.675; -836.000; -733.000
226.892;  -27.750; -227.000; -181.000
227.036;  -34.375; -537.000; -447.000
227.180;  -42.025; -551.000; -375.000
227.324;  -51.350; -561.000; -580.000
227.468; -117.725; -819.000; -717.000
227.612;    9.850;  242.000;  -28.000
227.756;  -91.000; -845.000; -698.000
227.900;   62.775;  342.000;  441.000
228.044;  -58.175; -509.000; -290.000
228.188;   64.050;  448.000;  568.000
228.332;  -59.000; -546.000; -472.000
228.476;  -14.675; -223.000; -149.000
228.620;  -35.500; -210.000; -150.000
228.764;   63.750;  431.000;  349.000
228.908;  -20.850; -155.000;   30.000
229.052;  -59.300; -615.000; -528.000
229.195;  -12.400; -172.000;   13.000
229.339;  -28.975; -235.000; -305.000
229.483;  -25.275;    5.000; -162.000
229.627;   -5.925; -156.000;  139.000
229.771;  -51.450; -218.000; -294.000
229.915;   21.650;  230.000;   79.000
230.059;  -83.025; -648.000; -663.000
230.202;  -33.275; -370.000; -317.000
230.346;  -19.775; -107.000;  107.000
230.490;  -64.775; -489.000; -521.000
230.634; -111.075; -736.000; -553.000
230.777;   56.750;  478.000;  509.000
230.921;  -64.975; -450.000; -359.000
231.065;  -42.775; -246.000; -286.000
231.209;   17.600;  261.000;  265.000
231.352;   17.275;   54.000;   40.000
231.496;   19.800;  568.000;  188.000
231.640;  -73.525; -693.000; -621.000
231.783;   54.975;  546.000;  525.000
231.927;  -33.125; -294.000; -365.000
232.071; -119.600; -962.000; -736.000
232.214;  -97.175; -980.000; -764.000
232.358;  -94.075; -683.000; -599.000
232.502;   15.850;  -19.000;    7.000
232.645; -125.050;-1090.000; -927.000
232.789;  -23.700; -257.000; -218.000
232.933;  -36.500; -407.000; -224.000
233.076; -118.700;-1038.000; -897.000
233.220;  -99.825; -752.000; -777.000
233.363;  -63.300; -669.000; -477.000
233.507;   59.800;  371.000;  129.000
233.650;  -95.975; -764.000; -834.000
233.794;   41.425;  438.000;  461.000
233.938;  -49.450; -530.000; -362.000
234.081;  -21.075;  -93.000;   31.000
234.225;  -68.225; -631.000; -539.000
234.368; -102.625; -773.000; -723.000
234.512;  -24.175; -385.000; -299.000
234.655;  -76.600; -582.000; -555.000
234.798;  -69.250; -493.000; -466.000
234.942; -127.725; -884.000;-1002.000
235.085;  -65.700; -651.000; -443.000
235.229;  -69.550; -405.000; -410.000
235.372;  -45.175; -247.000; -191.000
235.516;  -54.775; -397.000; -321.000
235.659;   37.025;   92.000;  121.000
235.802;    0.550;  -38.000;  -22.000
235.946;   41.050;  335.000;  215.000
236.089;   31.725;  126.000;  250.000
236.233;   48.675;  275.000;  298.000
236.376;  -47.650; -235.000; -378.000
236.519;  -36.975; -297.000; -319.000
236.663;  -13.575; -215.000; -117.000
236.806; -121.525;-1029.000; -999.000
236.949;   58.400;  543.000;  431.000
237.092;   57.625;  412.000;  391.000
237.236;  -84.675; -589.000; -502.000
237.379;   70.925;  352.000;  428.000
237.522; -117.700; -879.000; -768.000
237.666;   -7.275; -271.000;   18.000
237.809; -121.450; -851.000; -823.000
237.952;   41.300;  469.000;  271.000
238.095;  -59.975; -447.000; -442.000
238.238;   81.425;  688.000;  700.000
238.382;    6.225;  166.000;  103.000
238.525;  -73.825; -598.000; -511.000
238.668; -127.600;-1060.000; -985.000
238.811;  -74.550; -638.000; -643.000
238.954;  -65.900; -483.000; -334.000
239.097;   95.500;  617.000;  664.000
239.241;   22.325;  394.000;  326.000
239.384;  -42.450; -254.000; -214.000
239.527;  -51.025; -424.000; -224.000
239.670; -124.275; -994.000;-1091.000
239.813; -108.225; -696.000; -658.000
239.956;   59.750;  579.000;  473.000
240.099;  -92.550; -778.000; -725.000
240.242;   67.925;  428.000;  432.000
240.385;   48.375;  466.000;  450.000
240.528;  -61.550; -706.000; -473.000
240.671;   22.900;  189.000;  134.000
240.814;  -32.175; -441.000; -158.000
240.957;  -87.850; -767.000; -578.000
241.100;  -91.525; -779.000; -755.000
241.243; -141.575;-1234.000; -893.000
241.386;  -60.000; -508.000; -379.000
241.529;  -84.450; -735.000; -547.000
241.672;  -49.425; -566.000; -495.000
241.815; -116.900; -832.000; -808.000
241.958;  -10.500; -125.000; -182.000
242.101;  -84.650; -545.000; -390.000
242.244;  -30.525; -270.000; -325.000
242.387;  -49.600; -304.000; -246.000
242.530;   59.375;  470.000;  134.000
242.673;  -46.550; -381.000; -309.000
242.815; -115.025; -925.000; -899.000
242.958;  -52.900; -482.000; -381.000
243.101;   15.650;  132.000;  187.000
243.244;  -75.150; -564.000; -521.000
243.387;  -50.425; -313.000; -316.000
243.530;  -83.800; -657.000; -674.000
243.672;   16.375;   43.000;  -92.000
243.815;  -52.500; -355.000; -283.000
243.958;    1.225;   98.000;  -26.000
244.101;  -12.025;   59.000;  -16.000
244.243;  -20.500;  -47.000;  101.000
244.386; -111.175; -761.000; -630.000
244.529;  -14.475; -132.000; -139.000
244.672; -152.950;-1154.000; -951.000
244.814;  -78.175; -621.000; -794.000
244.957;  -36.975; -380.000; -304.000
245.100;  -71.775; -489.000; -489.000
245.242;  -51.000; -387.000; -374.000
245.385;   10.500;  -59.000;  -39.000
245.528; -119.825; -871.000; -705.000
245.670;   84.700;  612.000;  634.000
245.813;  -84.750; -599.000; -547.000
245.956;  -24.000; -324.000; -275.000
246.098;  -69.300; -508.000; -650.000
246.241;    5.225;  194.000;   48.000
246.383;  -15.750; -119.000;  -73.000
246.526;  -60.900; -454.000; -525.000
246.669; -114.075; -889.000; -780.000
246.811;    6.450;  172.000;   -1.000
246.954;  -61.900; -512.000; -426.000
247.096;  -26.450;  -84.000;   -6.000
247.239;  -68.575; -482.000; -445.000
247.381;  -68.875; -647.000; -488.000
247.524;   83.625;  645.000;  679.000
247.666;   -2.275;   58.000;   11.000
247.809;  -98.075; -887.000; -691.000
247.951;   -2.325;  -75.000;  138.000
248.094;   17.225;  432.000;  308.000
248.236; -145.850;-1262.000;-1238.000
248.378;  -17.900; -356.000;  -81.000
248.521;  -22.950; -334.000; -337.000
248.663;  -41.325; -236.000; -267.000
248.806;  -22.225; -300.000; -266.000
248.948; -111.875; -886.000; -763.000
249.090;  -64.200; -428.000; -398.000
249.233;  -61.375; -344.000; -381.000
249.375;  -61.700; -474.000; -451.000
249.518;  -28.725;  -83.000; -133.000
249.660;   -2.675; -103.000;    3.000
249.802; -155.775;-1303.000;-1189.000
249.945;  -68.975; -612.000; -540.000
250.087; -113.625; -834.000; -768.000
250.229;  -59.450; -362.000; -480.000
250.371;  -67.550; -494.000; -439.000
250.514;  -47.750; -310.000; -244.000
250.656;   -9.050;   69.000;  102.000
250.798; -108.875; -849.000; -800.000
250.940;  -60.275; -322.000; -322.000
251.083;  -25.875; -335.000; -111.000
251.225;   48.725;  338.000;  310.000
251.367;  -32.250; -274.000; -373.000
251.509;  -32.600; -265.000; -210.000
251.651;  -88.800; -731.000; -671.000
251.794;   50.050;  538.000;  632.000
251.936; -109.100; -821.000; -747.000
252.078;  -68.850; -540.000; -461.000
252.220;  -61.950; -645.000; -477.000
252.362;   48.725;  344.000;  462.000
252.504;  -64.100; -677.000; -584.000
252.646; -105.200; -875.000; -722.000
252.788;   -1.625;   14.000; -128.000
252.931;  -45.100; -257.000; -253.000
253.073;  -37.825; -376.000; -317.000
253.215;   -6.625;  141.000;  122.000
253.357;  -24.450;   82.000; -153.000
253.499;  -39.700; -374.000; -234.000
253.641;  -96.700; -749.000; -594.000
253.783; -103.475; -609.000; -527.000
253.925;  -82.500; -586.000; -591.000
254.067; -103.650; -744.000; -667.000
254.209;  -41.500; -391.000; -259.000
254.351; -121.325; -865.000; -883.000
254.493;  -46.000; -441.000; -417.000
254.635; -127.350; -936.000; -818.000
254.777;  -83.650; -752.000; -687.000
254.918;  -67.625; -512.000; -430.000
255.060;  -60.875; -551.000; -395.000
255.202;  -65.425; -473.000; -261.000
255.344;  -66.675; -658.000; -455.000
255.486;  -59.000; -471.000; -406.000
255.628; -116.075; -780.000; -781.000
255.770;  -83.475; -676.000; -536.000
255.912;  -54.875; -559.000; -468.000
256.053;  -85.175; -730.000; -508.000
256.195;  137.650; 1008.000;  903.000
256.337; -101.425; -861.000; -595.000
256.479;   61.825;  532.000;  416.000
256.621;  -46.900; -394.000; -212.000
256.762;  -88.250; -789.000; -742.000
256.904;   44.800;  485.000;  487.000
257.046;  -38.375; -381.000; -271.000
257.188;  -40.175; -351.000; -264.000
257.329;  -57.550; -525.000; -464.000
257.471; -104.600; -939.000; -807.000
257.613;  -61.075; -584.000; -498.000
257.755; -152.275;-1073.000; -982.000
257.896;   42.250;  286.000;  392.000
258.038;  -63.750; -403.000; -352.000
258.180;  -46.050; -354.000; -279.000
258.321;  -84.300; -581.000; -457.000
258.463;   -0.275;  -71.000;  133.000
258.605;  -78.550; -562.000; -570.000
258.746;  -99.875; -886.000; -772.000
258.888; -150.075;-1026.000;-1020.000
259.029;   11.200;  121.000;   -8.000
259.171;  -87.775; -614.000; -550.000
259.313;    6.300;  -49.000;  -47.000
259.454;  -71.075; -536.000; -414.000
259.596;  -48.975; -483.000; -390.000
259.737;  -75.175; -590.000; -474.000
259.879;   39.400;  217.000;  311.000
260.020;   66.100;  901.000;  636.000
260.162;  -30.500; -146.000; -253.000
260.303; -117.150; -768.000; -687.000
260.445;  -73.925; -609.000; -613.000
260.586;   24.400;  392.000;  157.000
260.728;  -45.625; -360.000; -248.000
260.869;  -57.100; -350.000; -343.000
261.011;   81.025;  706.000;  537.000
261.152;  -53.050; -479.000; -319.000
261.293;  -70.250; -576.000; -595.000
261.435;  -52.075; -219.000; -184.000
261.576;  -43.050; -455.000; -325.000
261.718;   55.825;  420.000;  470.000
261.859; -112.900; -940.000; -949.000
262.000; -120.575; -951.000;-1016.000
262.142;  -24.875;  -52.000;  -60.000
262.283; -117.775; -808.000; -691.000
262.424;  -91.700; -666.000; -625.000
262.566; -157.300;-1161.000; -983.000
262.707; -112.225; -840.000; -830.000
262.848; -114.550; -769.000; -726.000
262.990;  -36.050; -362.000; -345.000
263.131;   76.600;  650.000;  681.000
263.272;   -1.850;  -61.000;  -41.000
263.413;  -95.625; -589.000; -561.000
263.555;  -64.700; -669.000; -143.000
263.696;  -94.875; -550.000; -641.000
263.837;  -53.950; -449.000; -551.000
263.978;   -7.600;   -5.000;  -77.000
264.119;  -42.250; -283.000; -264.000
264.261; -117.100; -847.000; -630.000
264.402;    0.225;   33.000;   40.000
264.543;  -75.125; -509.000; -524.000
264.684;   -1.675;   61.000;  -50.000
264.825;  -80.750; -816.000; -538.000
264.966;  -10.200;  -84.000;  -67.000
265.107; -116.850; -646.000; -670.000
265.248; -101.025; -825.000; -812.000
265.390;  -22.400;  152.000;   -9.000
265.531;  -17.800; -238.000; -107.000
265.672;  -80.400; -557.000; -630.000
265.813;   67.075;  563.000;  439.000
265.954; -136.825; -959.000; -940.000
266.095;  -10.725; -372.000; -322.000
266.236;  -81.300; -686.000; -548.000
266.377;  -39.575; -243.000; -297.000
266.518;  -66.600; -619.000; -547.000
266.659;   26.175;  170.000;  268.000
266.800;    1.500;   83.000;   85.000
266.941;  -85.700; -487.000; -478.000
267.082;    4.225;  354.000;   99.000
267.223;  -37.300; -344.000; -273.000
267.364; -110.025; -892.000; -686.000
267.504;  -21.650;    3.000;  135.000
267.645;  -10.000;  160.000;   67.000
267.786;  -34.050; -147.000;  -86.000
267.927;  -70.500; -473.000; -379.000
268.068;  -27.450; -186.000;  -61.000
268.209;  -59.100; -175.000; -413.000
268.350;  -53.350; -388.000; -532.000
268.490;  -98.675; -648.000; -521.000
268.631;   24.875;  127.000;  225.000
268.772; -128.000; -874.000; -647.000
268.913;  -52.950; -328.000; -476.000
269.054;  -10.200; -117.000;   12.000
269.194;  -58.400; -418.000; -402.000
269.335; -142.700;-1137.000;-1074.000
269.476;   -9.475;   33.000;  -35.000
269.617;  -57.000; -347.000; -392.000
269.757;  -91.550; -713.000; -646.000
269.898; -104.950; -856.000; -613.000
270.039;  -60.375; -415.000; -405.000
270.180; -139.425; -952.000; -816.000
270.320;  -20.475; -190.000; -250.000
270.461;  -28.300; -277.000; -249.000
270.602;  -19.950; -186.000; -156.000
270.742; -117.325; -868.000; -943.000
270.883;  -59.750; -442.000; -390.000
271.023;  -53.975; -358.000; -357.000
271.164;  -64.325; -607.000; -528.000
271.305;  -92.025; -666.000; -654.000
271.445;  -86.075; -722.000; -683.000
271.586;  -75.550; -462.000; -283.000
271.726;  -48.900; -397.000; -322.000
271.867;  -64.475; -594.000; -534.000
272.008;   39.300; -473.000; -285.000
272.148;   77.000;  462.000;  468.000
272.289;    7.775; -113.000; -181.000
272.429;   -0.925;   19.000;  185.000
272.570;  -91.550; -633.000; -737.000
272.710; -103.775; -825.000; -775.000
272.851;  -26.625;  113.000; -130.000
272.991; -146.100;-1173.000;-1077.000
273.131;  -54.800; -419.000; -459.000
273.272;  -89.750; -683.000; -723.000
273.412;   -9.650; -143.000;  -31.000
273.553;  -59.550; -488.000; -507.000
273.693;  104.150;  913.000;  858.000
273.834; -113.775; -894.000; -692.000
273.974;  -83.425; -664.000; -615.000
274.114;  -99.700; -772.000; -560.000
274.255;   52.225;  414.000;  373.000
274.395;  -28.400; -180.000; -125.000
274.535;   30.025;  199.000;  350.000
274.676;   17.400;  225.000;   94.000
274.816;    0.400;  110.000;   34.000
274.956;  -88.475; -624.000; -690.000
275.097; -105.725;-1014.000; -922.000
275.237; -106.775; -913.000; -803.000
275.377; -102.775; -778.000; -689.000
275.517; -153.650; -878.000; -937.000
275.658;  -62.075; -590.000; -555.000
275.798;  -73.825; -606.000; -413.000
275.938;   19.375;  215.000;  323.000
276.078;  -81.275; -626.000; -395.000
276.218;   10.750;   99.000;  104.000
276.359; -116.600;-1026.000;-1024.000
276.499;  -75.825; -605.000; -446.000
276.639;  -37.925; -305.000; -151.000
276.779;  -36.275; -475.000; -357.000
276.919; -101.500; -783.000; -624.000
277.059;  -38.950; -261.000; -212.000
277.199;  -62.475; -357.000; -259.000
277.340;   36.225;  287.000;  175.000
277.480; -115.150; -840.000; -693.000
277.620;   18.900;  192.000;   16.000
277.760; -197.000;-1533.000;-1294.000
277.900;   -0.575;  113.000;   33.000
278.040;   -7.075;  137.000;  159.000
278.180;   30.450;  270.000;  170.000
278.320;   -4.400;   21.000;   56.000
278.460;  -61.925; -443.000; -469.000
278.600;  -87.550; -708.000; -598.000
278.740;   42.475;  448.000;  224.000
278.880; -117.725; -768.000; -791.000
279.020;  -23.150; -194.000; -144.000
279.160;  -84.875; -672.000; -595.000
279.300; -107.500; -926.000; -873.000
279.440;  -95.400; -709.000; -622.000
279.579;  -71.625;-1014.000; -929.000
279.719;  -56.650; -410.000; -394.000
279.859;   32.250;   -4.000;   41.000
279.999;  -13.700; -208.000;  101.000
280.139;  -37.950; -435.000; -387.000
280.279;  -96.025; -708.000; -745.000
280.419;  -18.000; -229.000; -147.000
280.559;  -44.375; -259.000; -180.000
280.698;  -85.500; -790.000; -639.000
280.838; -105.800; -778.000; -800.000
280.978;  -96.750; -846.000; -790.000
281.118; -101.750; -811.000; -704.000
281.257;    7.875;   24.000;    6.000
281.397; -141.450;-1094.000; -960.000
281.537;  -87.675; -599.000; -712.000
281.677;  -27.275; -150.000; -101.000
281.816;  -77.500; -700.000; -630.000
281.956;  -17.025; -193.000; -257.000
282.096;  -48.825; -539.000; -396.000
282.235;  -99.125; -672.000; -638.000
282.375;  -18.650; -243.000;  -98.000
282.515; -109.325; -715.000; -707.000
282.654;   10.325;   29.000;  106.000
282.794;   27.925;  388.000;  244.000
282.934;  -49.025; -530.000; -491.000
283.073; -117.950;-1030.000; -857.000
283.213;  -50.325; -460.000; -467.000
283.353;  -53.400; -408.000; -349.000
283.492;  -45.525; -264.000; -296.000
283.632;  -50.750; -254.000; -168.000
283.771;  -98.850; -859.000; -730.000
283.911;  -58.525; -369.000; -260.000
284.050;  -83.900; -794.000; -748.000
284.190; -142.875;-1229.000;-1096.000
284.329; -136.500;-1055.000; -964.000
284.469;  -80.975; -516.000; -591.000
284.608;  -55.750; -559.000; -598.000
284.748;  -86.225; -614.000; -570.000
284.887;  -13.275;  -87.000;  -20.000
285.027; -121.075; -844.000; -892.000
285.166;  -37.775; -192.000; -249.000
285.306;  -11.300; -116.000;  -33.000
285.445;  -36.850; -229.000; -343.000
285.584;  -79.425; -630.000; -494.000
285.724;  -45.725; -282.000; -322.000
285.863;  -93.350; -857.000; -507.000
286.002;  -51.025; -366.000; -276.000
286.142;  -90.250; -715.000; -622.000
286.281;  -62.575; -525.000; -493.000
286.420;  -74.000; -554.000; -417.000
286.560;   92.800;  653.000;  623.000
286.699; -125.900; -958.000; -912.000
286.838;  -83.675; -590.000; -591.000
286.978;  -84.175; -533.000; -537.000
287.117; -133.675;-1085.000; -950.000
287.256;  -33.550; -228.000; -211.000
287.395;  -51.200; -197.000; -378.000
287.535;  -64.950; -370.000; -298.000
287.674;  -75.450; -509.000; -484.000
287.813;   55.550;  661.000;  533.000
287.952; -122.775;-1010.000; -871.000
288.091; -134.300;-1049.000; -915.000
288.231;    6.725;   13.000;   15.000
288.370; -167.950;-1217.000;-1200.000
288.509;  -98.650; -728.000; -645.000
288.648;  -81.725; -770.000; -548.000
288.787;  -37.400; -243.000;  -87.000
288.926;  -61.325; -454.000; -475.000
289.065;   87.825;  859.000;  672.000
289.204;  -50.650; -377.000; -217.000
289.344;  -89.000; -791.000; -690.000
289.483;   13.700;  416.000;  304.000
289.622;  -26.475; -291.000; -149.000
289.761;   -9.200; -309.000; -166.000
289.900;  -85.750; -785.000; -626.000
290.039;  -16.000;  -12.000;  -95.000
290.178;  -44.300; -274.000; -180.000
290.317;  -76.850; -618.000; -479.000
290.456;  -53.050; -463.000; -451.000
290.595; -129.500; -961.000; -833.000
290.734; -124.325; -904.000; -891.000
290.873;  -65.275; -456.000; -420.000
291.011; -106.750; -833.000; -843.000
291.150; -107.475; -770.000; -682.000
291.289;  -34.100; -343.000; -110.000
291.428; -101.000; -599.000; -480.000
291.567;  -49.025; -370.000; -442.000
291.706;   -0.275;  109.000;  154.000
291.845;  -85.375; -597.000; -505.000
291.984; -162.300;-1234.000;-1061.000
292.122;   70.325;  602.000;  582.000
292.261;   43.175;  620.000;  463.000
292.400;   -8.000; -144.000;  211.000
292.539; -121.450; -959.000; -813.000
292.678;  -21.350; -325.000; -300.000
292.816; -156.725;-1136.000; -965.000
292.955; -100.625; -844.000; -684.000
293.094;  -35.900; -173.000; -337.000
293.233;  -54.025; -556.000; -400.000
293.371;  -35.625; -225.000;  -84.000
293.510; -100.875; -866.000; -780.000
293.649; -123.375; -959.000; -924.000
293.787; -118.350;-1083.000;-1012.000
293.926;  -29.000; -113.000;  -32.000
294.065;  -55.475; -379.000; -290.000
294.203;   34.625;  298.000;  406.000
294.342;   36.100;   74.000;  156.000
294.481; 4974.075;51180.000; -836.000
294.619;  -39.325; -425.000; -582.000
294.758; -149.400;-1230.000;-1137.000
294.896;    4.400; -125.000;    5.000
295.035; -129.750;-1040.000;-1006.000
295.174; -139.225;-1082.000; -954.000
295.312;  -41.325; -323.000; -203.000
295.451;  -47.625; -307.000; -428.000
295.589;  -66.700; -389.000; -518.000
295.728;   15.200; -292.000; -165.000
295.866;  -14.750;  -36.000;  -51.000
296.005;  -69.100; -584.000; -341.000
296.143;  -85.025; -558.000; -596.000
296.282; -101.275; -957.000; -881.000
296.420;  -79.675; -657.000; -557.000
296.559;  -81.850; -892.000; -633.000
296.697;  -58.575; -847.000; -665.000
296.835;  -74.250;-1141.000;-1002.000
296.974;   23.050;  -23.000;   39.000
297.112;  -31.275; -443.000; -504.000
297.251;  -88.650; -815.000; -755.000
297.389;  -15.425; -576.000; -438.000
297.527;   -0.975; -145.000;  -83.000
297.666;  -45.375; -486.000; -438.000
297.804;  -52.525; -404.000; -264.000
297.942;   -7.400; -136.000; -161.000
298.081;  -14.300; -183.000;   63.000
298.219;   -2.050;  -17.000;  -19.000
298.357;  -11.700; -144.000;  -71.000
298.495;  -52.700; -810.000; -812.000
298.634;   11.850;  245.000;  219.000
298.772;  -23.100; -220.000; -338.000
298.910;  -50.000; -309.000; -182.000
299.048;  -21.275; -130.000; -153.000
299.187;  -61.250; -350.000; -250.000
299.325;    0.300;   52.000;  122.000
299.463;  -31.300; -389.000; -299.000
299.601;    1.000; -327.000; -271.000
299.739; -119.925; -908.000; -883.000
299.877;  -87.300; -791.000; -703.000
300.016; -108.975;-1095.000; -935.000
300.154;   21.925;  -19.000; -161.000
300.292;  -23.925; -428.000; -348.000
300.430;  -26.750; -408.000; -291.000
300.568; -121.175; -940.000; -874.000
300.706;  -76.350; -366.000; -469.000
300.844; -120.225;-1108.000; -979.000
300.982;   64.350;  246.000;  282.000
301.120; -115.200; -965.000; -866.000
301.258;  -78.450; -812.000; -705.000
301.396;   -4.825;  104.000;  -41.000
301.534;  -13.075; -218.000; -293.000
301.672;  -71.075; -664.000; -521.000
301.810;  -63.775; -613.000; -545.000
301.948;   32.625;   53.000;  149.000
302.086;  189.850; -250.000;  -32.000
302.224;  236.475; -610.000; -585.000
302.362;  -65.525; -558.000; -622.000
302.500; -102.250; -923.000; -893.000
302.638;   24.775;  128.000;  245.000
302.776;  -43.550; -352.000; -408.000
302.913;   31.225;  447.000;  236.000
303.051;  -28.350;  -86.000;  -23.000
303.189;   19.475;   90.000;  118.000
303.327;  -56.350; -341.000; -256.000
303.465;  -82.150; -832.000; -588.000
303.603; -108.575; -805.000; -604.000
303.740;   59.750;  417.000;  241.000
303.878;  -66.500; -800.000; -759.000
304.016; -106.900; -915.000; -790.000
304.154; -141.525;-1123.000;-1152.000
304.291;  -66.950; -505.000; -554.000
304.429;   -0.150;  102.000;   74.000
304.567; -133.350; -908.000; -893.000
304.705;  -64.850; -408.000; -515.000
304.842;  -18.575; -616.000; -540.000
304.980;   12.325;  215.000;   35.000
305.118;  -16.950; -367.000; -365.000
305.255; -109.425; -945.000; -927.000
305.393;   30.275;  178.000;  239.000
305.531; -140.275;-1173.000; -956.000
305.668;  -81.375; -663.000; -582.000
305.806;   -7.250; -358.000; -439.000
305.943;  -15.800; -629.000; -637.000
306.081;  -19.200; -378.000; -267.000
306.219;  -95.050; -863.000; -748.000
306.356;   -4.850;  158.000;   27.000
306.494;  129.425;  981.000;  761.000
306.631;   -4.175;  -11.000;  -55.000
306.769;   27.125; -613.000; -485.000
306.906;  -18.875; -284.000; -258.000
307.044;  -41.900; -473.000; -488.000
307.181;  -46.550; -410.000; -332.000
307.319;   24.675;  112.000;   87.000
307.456; -168.825;-1191.000;-1153.000
307.594;  -96.100; -980.000; -727.000
307.731;  -23.625; -371.000; -164.000
307.868;    9.600;  -15.000;   20.000
308.006; -120.550; -961.000; -847.000
308.143;  -55.425; -618.000; -330.000
308.281;   42.425;  -37.000; -254.000
308.418;  -60.825; -748.000; -640.000
308.555;  -63.250; -400.000; -250.000
308.693;  -56.225; -577.000; -573.000
308.830;  -89.850; -712.000; -657.000
308.967;    0.700; -215.000;  -95.000
309.105;  -21.400; -507.000; -396.000
309.242;   -2.875; -468.000; -367.000
309.379;   36.525; -577.000; -655.000
309.517;  -83.900; -936.000; -948.000
309.654;  -94.300; -910.000; -734.000
309.791;  -52.000; -662.000; -580.000
309.928;  -97.775; -977.000; -914.000
310.065;  143.800;  819.000;  697.000
310.203;  -62.300; -825.000; -850.000
310.340;  -16.775; -465.000; -321.000
310.477;  -67.250; -412.000; -516.000
310.614;  -54.025; -383.000; -473.000
310.751;  -58.975; -427.000; -518.000
310.889;   -9.900;    1.000;   11.000
311.026; -130.275;-1161.000; -939.000
311.163;  -33.575; -386.000; -380.000
311.300;  -66.700; -512.000; -479.000
311.437;  -65.050; -658.000; -619.000
311.574; -147.400;-1226.000; -985.000
311.711;  -57.775; -595.000; -433.000
311.848;  -25.150; -380.000; -388.000
311.985;   27.875;  270.000;   93.000
312.122; -113.450; -932.000; -762.000
312.259; -100.350; -941.000; -994.000
312.396;  -44.650; -508.000; -551.000
312.533;  -55.325; -812.000; -790.000
312.670; -119.700;-1070.000; -898.000
312.807;    4.750; -352.000; -367.000
312.944;  -53.050; -513.000; -611.000
313.081;   -1.075; -150.000; -415.000
313.218;  -76.225;-1111.000; -867.000
313.355;   -9.575; -531.000; -449.000
313.492;   -1.975; -455.000; -292.000
313.629;  123.150;  815.000;  735.000
313.766; -130.725;-1176.000;-1008.000
313.902;   -5.325; -186.000;   21.000
314.039;  -34.125; -372.000; -289.000
314.176;   29.825;  286.000;  192.000
314.313;  -66.125; -569.000; -473.000
314.450;  -74.150; -788.000; -684.000
314.587;  -49.550; -468.000; -480.000
314.723;   15.750;  -78.000;  130.000
314.860;   46.125;  318.000;  332.000
314.997;   36.600;  223.000;  142.000
315.134;  -20.950; -385.000; -368.000
315.270;  -17.375; -480.000; -496.000
315.407; -104.050;-1094.000; -967.000
315.544;  -43.650; -657.000; -538.000
315.681;  -58.925; -681.000; -565.000
315.817;   50.325; -133.000; -176.000
315.954;   41.950; -613.000; -392.000
316.091; -109.350;-1045.000;-1023.000
316.227;  -27.000;  -71.000; -179.000
316.364;   -7.550;   23.000;    6.000
316.500;  -41.775; -113.000; -300.000
316.637;  -38.650; -181.000; -302.000
316.774;  -87.575; -625.000; -358.000
316.910;  -85.525; -598.000; -629.000
317.047;  -56.300; -487.000; -351.000
317.183;  -55.375; -435.000; -566.000
317.320;   32.975; -367.000; -321.000
317.456;  -27.800; -733.000; -805.000
317.593;  -84.000; -598.000; -641.000
317.729;    7.400;  168.000;  -67.000
317.866; -187.350;-1434.000;-1285.000
318.002;  -90.425; -708.000; -948.000
318.139; -115.425; -883.000; -867.000
318.275; -109.625;-1003.000; -738.000
318.412;  -62.425; -517.000; -336.000
318.548;  -74.275; -751.000; -720.000
318.685; -104.225; -985.000; -888.000
318.821;  -78.100; -762.000; -735.000
318.957;  -22.375;   34.000;  -23.000
319.094;   28.600;  297.000;  154.000
319.230;  -89.450; -756.000; -742.000
319.367;    2.175; -471.000; -520.000
319.503;  -20.000; -538.000; -436.000
319.639;  -93.375; -877.000; -793.000
319.775;  -93.800; -750.000; -685.000
319.912;  -53.625; -424.000; -519.000
320.048;  -99.325;-1184.000;-1184.000
320.184;   99.275;   59.000;   70.000
320.321;  -45.925; -497.000; -467.000
320.457;   70.525;  475.000;  662.000
320.593;  -67.300; -375.000; -382.000
320.729;  -90.250; -732.000; -734.000
320.866;  -68.175; -577.000; -635.000
321.002;  -92.600; -759.000; -809.000
321.138;  -49.350; -135.000; -211.000
321.274;    6.850; -148.000; -115.000
321.410;  -62.825; -585.000; -353.000
321.546;  -96.275;-1011.000; -911.000
321.683;   25.825;  400.000;  185.000
321.819;  -26.200;  -48.000; -117.000
321.955; -112.125; -743.000; -722.000
322.091;  -73.800; -585.000; -540.000
322.227;  -28.825; -382.000; -202.000
322.363;  -46.225; -320.000; -215.000
322.499;  -48.525; -343.000; -331.000
322.635;  103.400;  636.000;  443.000
322.771;  -14.000; -139.000;   12.000
322.907;   45.000;  129.000;  327.000
323.043;  -42.775; -115.000; -206.000
323.179;  -43.550; -394.000; -363.000
323.315;  -48.775; -401.000; -371.000
323.451;   30.575; -328.000; -236.000
323.587;   38.400;  -60.000;  -77.000
323.723;  -43.300; -682.000; -601.000
323.859;  -44.525; -258.000;  -76.000
323.995;  -59.025; -467.000; -409.000
324.131; -129.875; -967.000; -892.000
324.267;  -46.100; -254.000; -276.000
324.402; -142.350; -960.000; -983.000
324.538;  -35.650; -279.000; -104.000
324.674;   -2.100;  164.000;   77.000
324.810;   42.350;  226.000;  308.000
324.946;  -38.975; -810.000; -658.000
325.082;  -72.450; -568.000; -475.000
325.217;  -32.050;  -62.000;   16.000
325.353;  -99.375; -764.000; -659.000
325.489;  -85.650; -540.000; -506.000
325.625;  -83.200; -579.000; -525.000
325.760;   77.850;  517.000;  376.000
325.896;   21.500; -515.000; -702.000
326.032;  -47.000; -403.000; -352.000
326.168;  -59.175; -462.000; -369.000
326.303;  -48.150; -352.000; -461.000
326.439;   -9.925; -336.000; -276.000
326.575;   -9.875; -190.000;  -29.000
326.710;   -7.000; -156.000;  -30.000
326.846;  -23.425;  146.000;  103.000
326.982;  -93.700; -530.000; -548.000
327.117;  -63.650; -481.000; -442.000
327.253;  -80.500; -745.000; -742.000
327.388; -161.550;-1137.000;-1153.000
327.524;  -72.850; -811.000; -578.000
327.659;  -12.075;  -58.000;  -22.000
327.795;  -14.825;   69.000;   45.000
327.931;  -82.350; -723.000; -499.000
328.066;  -23.525; -417.000; -276.000
328.202;  -18.475;   12.000; -129.000
328.337;  102.525;  957.000;  713.000
328.473;   34.125;  -12.000;  -74.000
328.608;  -13.175; -256.000; -267.000
328.743;  -96.400; -799.000; -664.000
328.879;    2.375;  214.000;  114.000
329.014;  -35.025; -102.000; -122.000
329.150;  -74.650; -358.000; -483.000
329.285;  -67.525; -465.000; -466.000
329.421;  -44.800; -548.000; -246.000
329.556;  -14.725;  -36.000;   85.000
329.691;  -90.875; -633.000; -615.000
329.827;  -71.175; -626.000; -480.000
329.962;  -27.350;  131.000; -301.000
330.097;  -87.175; -673.000; -585.000
330.233;  -40.800; -410.000; -223.000
330.368; -125.975; -839.000; -628.000
330.503;  -12.875;    3.000;   98.000
330.638;  -22.700;  -93.000; -125.000
330.774;  -73.200; -609.000; -530.000
330.909;  -51.425; -434.000; -244.000
331.044;  -84.875; -714.000; -708.000
331.179; -164.525;-1217.000;-1109.000
331.315;    2.850;   77.000;   20.000
331.450;   14.175;  157.000;  285.000
331.585;  -86.375; -805.000; -706.000
331.720;  -82.150; -510.000; -460.000
331.855;    9.175;  -35.000; -102.000
331.990;  439.375;   62.000;  138.000
332.126;  224.625; -110.000;   71.000
332.261;   14.925; -379.000; -265.000
332.396;   30.050; -135.000; -242.000
332.531;  -61.700;-1074.000;-1031.000
332.666;   86.575; -519.000; -363.000
332.801; -103.750; -726.000; -807.000
332.936;  -32.000; -192.000; -122.000
333.071; -130.425; -870.000; -817.000
333.206;   15.750;  307.000;  379.000
333.341;   24.200;  344.000;  418.000
333.476;  -81.425; -627.000; -623.000
333.611;  -49.275; -251.000; -173.000
333.746;  -50.700; -381.000; -464.000
333.881; -109.625; -973.000; -935.000
334.016; -113.250; -936.000; -917.000
334.151; -124.750; -746.000; -702.000
334.286;    7.600;  152.000;  186.000
334.421;  -14.225; -125.000; -178.000
334.556;  -78.425; -611.000; -567.000
334.690;  -84.275; -631.000; -577.000
334.825;   51.525;  381.000;   83.000
334.960;  -58.525; -285.000; -413.000
335.095;    3.400;  135.000;  -91.000
335.230;  -98.325; -722.000; -738.000
335.365; -129.400;-1084.000; -990.000
335.499; -124.750;-1108.000;-1037.000
335.634;    3.175;    9.000;  534.000
335.769; -105.475; -755.000; -720.000
335.904;  -59.775; -603.000; -561.000
336.038;  -50.375; -735.000; -657.000
336.173; -104.575;-1206.000;-1194.000
336.308;   13.925; -116.000; -189.000
336.443;   74.275; -544.000; -634.000
336.577;  -50.900; -936.000; -787.000
336.712;   83.025;   -4.000;  -12.000
336.847;  -15.725; -724.000; -607.000
336.981;   61.500; -272.000; -208.000
337.116;  296.375;  615.000;  501.000
337.250;  116.600; -434.000; -421.000
337.385;  464.000; -297.000; -208.000
337.520;  235.350; -632.000; -603.000
337.654;  -32.600; -215.000; -126.000
337.789; -124.425; -989.000; -933.000
337.923;  -39.825; -104.000; -205.000
338.058; -101.550; -673.000; -738.000
338.192;  -62.225; -611.000; -488.000
338.327;   -3.250;  -18.000; -155.000
338.461;  -67.775; -299.000; -469.000
338.596;  -87.375; -780.000; -638.000
338.730;  -96.000; -767.000; -803.000
338.865;  155.200;  -46.000; -140.000
338.999;   23.325; -846.000; -702.000
339.134;    7.275; -634.000; -536.000
339.268;   37.725; -741.000; -603.000
339.403;  564.625; -740.000; -775.000
339.537;  278.850; -894.000; -820.000
339.671;  -79.875; -829.000; -813.000
339.806;  -30.025; -556.000; -512.000
339.940;   38.725; -261.000; -235.000
340.074;  -88.975; -685.000; -510.000
340.209;  -55.100; -351.000; -230.000
340.343;  -95.625; -517.000; -573.000
340.477;  120.650;  998.000; 1036.000
340.612;   10.975;-1033.000; -900.000
340.746;  257.200; -199.000; -243.000
340.880;  -93.150; -924.000; -785.000
341.014;  -23.225;  -45.000; -154.000
341.149; -117.275; -756.000; -718.000
341.283; -112.000; -839.000; -754.000
341.417; -132.600;-1124.000; -938.000
341.551;  -27.575; -768.000; -708.000
341.685;  -65.025; -633.000; -611.000
341.820;  -35.450; -562.000; -493.000
341.954;  -60.175; -218.000; -349.000
342.088; -151.100;-1102.000;-1019.000
342.222;   51.800;  565.000;  618.000
342.356;  -79.225; -395.000; -335.000
342.490; -117.000; -880.000; -841.000
342.624;  -53.125; -339.000; -242.000
342.758;  -64.575; -364.000; -312.000
342.892;  -90.450; -710.000; -585.000
343.026;  -39.775;  -58.000; -116.000
343.160;  -67.500; -426.000; -376.000
343.294;  -94.425; -474.000; -337.000
343.428;  -62.150; -488.000; -448.000
343.562;  -30.350; -172.000;  -23.000
343.696;  -39.550; -385.000; -314.000
343.830;  -56.475; -362.000; -356.000
343.964;  -21.975; -231.000; -168.000
344.098;  283.900;  199.000;   70.000
344.232;  249.375; -266.000; -127.000
344.366;   69.250; -567.000; -453.000
344.500;  -39.825; -665.000; -744.000
344.634;  -35.950; -324.000; -164.000
344.768;  -60.325; -531.000; -341.000
344.902;   -0.175;  278.000;  256.000
345.035;  -70.350; -556.000; -496.000
345.169; -131.725; -933.000; -656.000
345.303;  -44.625; -308.000; -482.000
345.437; -101.825; -826.000; -717.000
345.571;  -57.350; -675.000; -594.000
345.704;  -66.425; -309.000; -532.000
345.838;   -8.425; -331.000; -284.000
345.972;  -68.925; -543.000; -495.000
346.106;  278.850; -179.000; -190.000
346.239;  487.000; -312.000; -243.000
346.373;   -2.750; -343.000; -302.000
346.507; -135.925; -950.000; -962.000
346.640;   21.300;  -30.000;   13.000
346.774;  -92.450; -650.000; -797.000
346.908;  -22.800; -138.000;  -11.000
347.041;  -88.675; -646.000; -593.000
347.175;   -7.175;  259.000;   27.000
347.309; -113.800; -698.000; -628.000
347.442; -117.200; -883.000; -732.000
347.576;  118.650;  670.000;  668.000
347.709;   50.950; -123.000;  -52.000
347.843; -118.875; -933.000; -825.000
347.976;   36.025;  235.000;  294.000
348.110; -182.475;-1268.000;-1186.000
348.243; -101.225; -679.000; -772.000
348.377;   -4.450;  -26.000;   60.000
348.510;   53.950;  403.000;  540.000
348.644;  -43.875;  -37.000; -159.000
348.777;   -3.825;  180.000;  191.000
348.911;  -61.650; -142.000; -112.000
349.044;   86.850;  471.000;  448.000
349.178;  -33.750;-1069.000;-1006.000
349.311;  109.250;  141.000;  255.000
349.444;   35.000; -927.000; -813.000
349.578;  -24.975; -347.000; -200.000
349.711; -128.075; -959.000; -862.000
349.845;  -60.250; -661.000; -591.000
349.978; -147.700;-1224.000;-1137.000
350.111;  -79.800; -546.000; -612.000
350.244; -106.675; -596.000; -700.000
350.378;  -42.800; -392.000; -393.000
350.511;  -70.850; -393.000; -426.000
350.644;  -99.575; -808.000; -806.000
350.778;   -0.500;  168.000;  104.000
350.911;    6.850;  134.000;  140.000
351.044; -107.550; -685.000; -615.000
351.177;  -47.275; -321.000; -281.000
351.310;  -21.550;    3.000; -131.000
351.444; -102.450; -888.000; -788.000
351.577;   30.125;  140.000;   90.000
351.710;   76.150;  593.000;  417.000
351.843;  -45.025; -165.000;  -77.000
351.976;   -4.850;  149.000;  -79.000
352.109;  -80.800; -621.000; -612.000
352.242;  -54.525; -464.000; -419.000
352.376;  -92.825; -580.000; -636.000
352.509;   20.850; -437.000; -356.000
352.642;  -99.100; -654.000; -604.000
352.775;    3.475; -141.000;  -98.000
352.908; -108.700; -933.000; -904.000
353.041; -103.700; -814.000; -824.000
353.174;  -70.000; -551.000; -424.000
353.307;  -87.825; -753.000; -764.000
353.440;   54.925;  541.000;  453.000
353.573;  -90.725; -957.000;-1008.000
353.706;  -46.625; -384.000; -558.000
353.839;  -27.725; -264.000; -220.000
353.971;  -80.600; -657.000; -512.000
354.104; -101.850; -896.000; -835.000
354.237;  -84.925; -627.000; -662.000
354.370;  -98.025; -846.000; -879.000
354.503; -179.275;-1231.000;-1308.000
354.636;  -14.575; -529.000; -348.000
354.769; -100.950; -937.000; -860.000
354.902;  -19.550; -230.000; -139.000
355.034;  -17.925; -164.000; -220.000
355.167;  -11.725; -262.000; -162.000
355.300;  -65.650;-1061.000; -880.000
355.433; 1469.125;  -71.000;  -14.000
355.565; 2329.350; -402.000; -384.000
355.698;  610.575; -356.000; -296.000
355.831;  -16.475; -882.000; -801.000
355.964;   29.675; -285.000; -170.000
356.096;  -68.800; -856.000; -843.000
356.229;   -1.850; -523.000; -530.000
356.362;  525.500; -373.000; -266.000
356.494;  955.650; -229.000; -162.000
356.627;  332.625;  269.000;  377.000
356.760;  903.525;  120.000;   53.000
356.892; 1542.050; -286.000; -601.000
357.025;  344.800;  403.000;  389.000
357.157;  239.075; -167.000; -179.000
357.290; 1222.700; -856.000; -713.000
357.423;  369.650; -667.000; -556.000
357.555;   96.025; -217.000; -228.000
357.688;  119.650; -483.000; -364.000
357.820;  144.600; -870.000; -877.000
357.953; 1404.475; -563.000; -589.000
358.085;  219.300; -632.000; -612.000
358.218;  111.125;-1131.000; -932.000
358.350;   56.225;  -58.000;  312.000
358.483; -163.250;-1300.000;-1187.000
358.615; -123.500;-1182.000;-1078.000
358.747; -154.125;-1187.000;-1058.000
358.880;  -49.100; -810.000; -744.000
359.012;  -41.200; -376.000; -202.000
359.145;  -57.100; -480.000; -511.000
359.277;  -61.850; -962.000; -913.000
359.409; 1202.775;  536.000;  231.000
359.542;  251.150; -738.000; -688.000
359.674;   16.800;   46.000;   13.000
359.806;  -88.125; -565.000; -438.000
359.939;  -44.050; -617.000; -516.000
360.071;   29.425; -583.000; -579.000
360.203;  -11.275; -411.000; -364.000
360.335;   24.075;  164.000;  -16.000
360.468;   88.325; -249.000; -307.000
360.600; 1274.125; -547.000; -454.000
360.732; 4270.375; -546.000; -423.000
360.864;  671.175;-1216.000;-1044.000
360.996;   76.375; -516.000; -554.000
361.129;  -39.400; -389.000; -598.000
361.261;    5.475;  110.000; -113.000
361.393;  -50.575; -252.000; -214.000
361.525;   13.250;   94.000;  244.000
361.657;  -98.675; -821.000; -703.000
361.789;  -26.125; -139.000; -155.000
361.921;  -41.925; -642.000; -593.000
362.053;  103.000;  524.000;  541.000
362.185;   -2.625;  288.000;   72.000
362.318; -107.500; -709.000; -705.000
362.450;   33.075;  294.000;  444.000
362.582;  -81.475; -913.000; -870.000
362.714;  -61.175; -353.000; -332.000
362.846;  -84.925; -606.000; -490.000
362.978; -142.750; -941.000; -811.000
363.109;  -25.025; -161.000; -260.000
363.241;  151.300; -739.000; -749.000
363.373;  645.275; -649.000; -564.000
363.505; 1058.525; -186.000;  -91.000
363.637;  234.875; -787.000; -601.000
363.769; -129.375;-1067.000;-1080.000
363.901;  -86.125; -596.000; -654.000
364.033; -161.650;-1103.000;-1062.000
364.165;  -27.575; -283.000; -283.000
364.296;   98.875; -316.000; -177.000
364.428;  228.225;-1344.000;-1220.000
364.560;  -56.725; -679.000; -661.000
364.692;  -71.575; -738.000; -835.000
364.824;    2.350; -588.000; -456.000
364.955;  505.300; -402.000; -564.000
365.087; 1720.675;-1097.000; -852.000
365.219;  116.250; -686.000; -816.000
365.351;  -50.700; -526.000; -572.000
365.482;   21.475;  300.000;  240.000
365.614;  -60.800; -402.000; -314.000
365.746;  -97.825; -729.000; -752.000
365.877;  -87.100; -706.000; -672.000
366.009;  442.925;  -35.000;  -62.000
366.141;  -26.000;-1249.000;-1134.000
366.272;  -97.050; -803.000; -719.000
366.404; -118.625;-1005.000; -874.000
366.535;  -13.450; -139.000;  -12.000
366.667; -111.975; -644.000; -649.000
366.799;   31.775;  353.000;  203.000
366.930; -116.250; -862.000; -996.000
367.062;  199.925; -639.000; -613.000
367.193;  352.775; -872.000; -842.000
367.325;  -37.000; -580.000; -684.000
367.456;   -0.725; -246.000;   31.000
367.588;  272.225; -371.000; -318.000
367.719;   51.900;  -44.000;  -45.000
367.851;  -34.550; -222.000; -241.000
367.982; -117.275; -875.000; -732.000
368.113;    1.475; -475.000; -358.000
368.245; -124.875; -960.000; -841.000
368.376;  -41.925; -254.000; -302.000
368.508;  -52.975; -188.000; -263.000
368.639; -143.000;-1166.000;-1034.000
368.770;  -81.650; -670.000; -589.000
368.902; -107.350; -836.000; -926.000
369.033; -117.650; -906.000; -855.000
369.164;  -27.825; -720.000; -653.000
369.296; -103.125; -452.000; -601.000
369.427;  -26.775; -209.000; -144.000
369.558;  -66.600; -593.000; -377.000
369.689;  -80.625; -721.000; -569.000
369.821; -135.275; -951.000; -845.000
369.952;  -19.775;   42.000; -108.000
370.083;  -53.225; -229.000; -108.000
370.214;  -89.875; -735.000; -650.000
370.345;  -11.775;   65.000;   81.000
370.477; -117.875; -810.000; -790.000
370.608;   33.825; -328.000; -264.000
370.739; -131.400;-1233.000;-1292.000
370.870;  -96.975;-1102.000; -923.000
371.001;  -19.600; -378.000; -467.000
371.132; -103.800; -754.000; -735.000
371.263;  -26.075;  -42.000; -148.000
371.394; -123.675; -841.000; -748.000
371.525;   22.900;  345.000;  225.000
371.657; -114.800; -808.000; -670.000
371.788;   41.950;  103.000;  199.000
371.919;    3.725; -384.000; -304.000
372.050; 1230.500;  -91.000; -156.000
372.181;  390.950; -188.000; -294.000
372.311;  110.450;   42.000; -127.000
372.442;  -40.750; -457.000; -451.000
372.573;  -44.875; -444.000; -340.000
372.704; -148.725;-1008.000; -980.000
372.835;  -19.700; -228.000; -289.000
372.966;  -88.675; -646.000; -554.000
373.097;  -97.975; -575.000; -711.000
373.228;  -99.425; -717.000; -542.000
373.359;  -40.825; -824.000; -536.000
373.490;  154.975; -881.000; -727.000
373.620;  236.900;-1001.000; -803.000
373.751;  511.825; -332.000; -396.000
373.882;  205.800; -663.000; -733.000
374.013;  -22.475; -449.000; -262.000
374.143;  -76.825; -581.000; -659.000
374.274; -138.400; -987.000; -908.000
374.405;   72.325; -388.000; -276.000
374.536;  110.200; -526.000; -387.000
374.666;  267.400; -759.000; -807.000
374.797;   -8.050; -817.000; -868.000
374.928;  185.575; -710.000; -560.000
375.058;  183.075; -535.000; -500.000
375.189;   -8.750;  -59.000;  -93.000
375.320; -119.825; -928.000;-1034.000
375.450;  -50.200; -625.000; -616.000
375.581;  -57.450; -526.000; -436.000
375.712;  -50.325; -574.000; -250.000
375.842;   -3.725; -438.000; -415.000
375.973;   -4.625; -554.000; -513.000
376.103; -104.950; -665.000; -648.000
376.234;  -94.975; -531.000; -552.000
376.364; -122.375; -944.000; -867.000
376.495;  150.450;  925.000;  529.000
376.625;  -61.975; -472.000; -485.000
376.756;  -61.950; -709.000; -678.000
376.886; -135.800;-1178.000;-1026.000
377.017;  158.925;-1048.000;-1061.000
377.147;  678.175; -786.000; -782.000
377.278;   91.525;  174.000;  228.000
377.408; -115.050; -801.000; -815.000
377.538;  -88.175; -707.000; -693.000
377.669;  -81.000; -537.000; -613.000
377.799;  -95.400; -645.000; -635.000
377.929;  -87.150; -610.000; -428.000
378.060; -120.625; -781.000; -847.000
378.190;  -37.125; -726.000; -531.000
378.320;  -37.150; -401.000; -406.000
378.451;  -16.525; -131.000;  -22.000
378.581;  -21.025;  -67.000; -110.000
378.711;   92.200; 1035.000;  866.000
378.841;  -84.150; -533.000; -675.000
378.972; -113.100; -871.000; -751.000
379.102;  -62.425; -652.000; -579.000
379.232;  -42.625; -126.000;  -73.000
379.362; -123.775;-1001.000; -885.000
379.492;  -57.175; -373.000; -424.000
379.623;   25.750;    0.000;  111.000
379.753; -120.475;-1107.000; -974.000
379.883;   86.425;   59.000;  156.000
380.013;  -95.750;-1081.000;-1017.000
380.143; -117.350;-1097.000;-1056.000
380.273; -107.150; -985.000; -861.000
380.403;  -15.225; -344.000; -257.000
380.533;  -42.150; -651.000; -664.000
380.663;   24.575;  173.000;  128.000
380.793; -160.300;-1027.000;-1074.000
380.923;  -29.400; -103.000;  -34.000
381.053;  -93.100; -613.000; -623.000
381.183;  -46.025; -106.000; -248.000
381.313;  -66.525; -656.000; -470.000
381.443;  -58.175; -692.000; -473.000
381.573;  -27.625; -402.000; -409.000
381.703;  -74.250;-1249.000;-1095.000
381.833; -176.200;-1454.000;-1336.000
381.963;   25.050; -134.000;  -87.000
382.093;  383.250; -925.000; -909.000
382.223;   88.400; -713.000; -602.000
382.353;  -89.475; -801.000; -608.000
382.482;    0.950;-1091.000; -964.000
382.612;  174.325; -872.000; -644.000
382.742;   69.275; -695.000; -622.000
382.872;  -19.075; -565.000; -551.000
383.002;   20.050;  347.000; -132.000
383.131;  -23.900; -226.000; -160.000
383.261;  -44.850; -706.000; -768.000
383.391;  337.075; -552.000; -377.000
383.521; 5089.950;  451.000;  263.000
383.650; 1559.900; -947.000; -904.000
383.780;   55.775; -783.000; -656.000
383.910;   90.500;  880.000;  802.000
384.039;  -78.850; -794.000; -656.000
384.169;  -78.250;-1205.000;-1017.000
384.299;  -83.100; -650.000; -662.000
384.428; -124.125; -764.000; -680.000
384.558;  -58.550; -308.000; -275.000
384.687;  -66.800; -414.000; -334.000
384.817;  -12.950;   75.000;   -2.000
384.947;  -43.775; -234.000; -141.000
385.076;  155.925;  982.000;  912.000
385.206;   65.250;  369.000;  480.000
385.335;  -56.325; -549.000; -417.000
385.465; -109.800; -655.000; -663.000
385.594;   13.875;  -53.000;  -44.000
385.724;   33.400; -868.000; -838.000
385.853;   -3.600; -296.000; -270.000
385.982;  321.950; -743.000; -787.000
386.112;  647.950;-1052.000; -871.000
386.241;    1.500; -307.000; -312.000
386.371;  -15.425; -174.000;  -87.000
386.500;  -58.925; -825.000; -789.000
386.629;    0.825; -874.000; -817.000
386.759;   84.725;  -43.000;   68.000
386.888;  -20.725; -170.000; -250.000
387.017; -106.300; -648.000; -620.000
387.147; -105.025; -771.000; -798.000
387.276;  -63.150; -410.000; -397.000
387.405;  -51.725; -398.000; -342.000
387.535;  -77.375; -452.000; -361.000
387.664;  -62.100; -692.000; -620.000
387.793;  -15.200; -198.000; -113.000
387.922;  151.800;  255.000;  200.000
388.052;  -64.625; -576.000; -423.000
388.181;  -55.275; -342.000; -472.000
388.310;  -98.700; -889.000; -710.000
388.439;  -89.900; -749.000; -742.000
388.568;   50.300;  365.000;  244.000
388.697;  253.525; -756.000; -653.000
388.826;    5.900; -768.000; -666.000
388.956;  -39.675; -285.000; -307.000
389.085;  -65.825; -347.000; -287.000
389.214;  -99.700; -842.000; -872.000
389.343;  -70.800; -645.000; -413.000
389.472;  550.950;  126.000;  149.000
389.601;  661.025;   91.000;    0.000
389.730;  -13.175; -568.000; -687.000
389.859;   18.800;  226.000;   46.000
389.988;   46.775; -423.000; -408.000
390.117;   39.000; -168.000; -146.000
390.246;  -45.800; -331.000; -320.000
390.375;  -65.025; -673.000; -626.000
390.504;  -86.025; -703.000; -621.000
390.633; -119.950; -672.000; -726.000
390.761;  -86.000; -732.000; -645.000
390.890;  -29.900;   -4.000; -130.000
391.019;  -59.850; -421.000; -441.000
391.148; -127.475; -826.000; -855.000
391.277;  -81.000; -576.000; -493.000
391.406; -112.150; -821.000; -805.000
391.534;    2.450;  574.000; -301.000
391.663;  -82.875; -583.000; -645.000
391.792;  -91.450; -673.000; -701.000
391.921;  -25.475;   -3.000;   15.000
392.050;    0.625; -287.000; -228.000
392.178; -134.600;-1206.000;-1061.000
392.307;  -24.900; -758.000; -712.000
392.436;  -46.450; -427.000; -641.000
392.564;   -1.850;  166.000;   -6.000
392.693; -113.025; -860.000; -682.000
392.822;   -5.675; -529.000; -534.000
392.950;  -43.950; -880.000; -714.000
393.079;   51.625; -188.000; -328.000
393.208;  -59.325; -488.000; -511.000
393.336;  -22.400; -170.000; -145.000
393.465;  -61.575; -317.000; -199.000
393.593;   -3.800;   62.000;   79.000
393.722; -144.700;-1121.000; -916.000
393.850;  -29.725; -188.000;  -61.000
393.979; -148.350; -926.000; -805.000
394.107;  -62.875; -517.000; -537.000
394.236;  -42.775; -570.000; -507.000
394.364;  114.200;  383.000;  206.000
394.493;   53.450; -911.000; -767.000
394.621;   20.775; -955.000; -916.000
394.750; 1184.400; -873.000; -923.000
394.878; 4524.525; -247.000; -149.000
395.007; 6731.025; -721.000; -807.000
395.135;  626.400; -790.000; -721.000
395.263;  -57.150;-1038.000;-1040.000
395.392;   -0.725;  -25.000; -107.000
395.520; -115.500; -818.000; -679.000
395.648; -123.750; -865.000; -915.000
395.777;  -71.925; -366.000; -405.000
395.905;  -80.575; -449.000; -564.000
396.033;  -14.975;  217.000;  172.000
396.162;   88.625; -399.000; -453.000
396.290;   93.225;  -17.000;   -2.000
396.418;  -61.600; -555.000; -514.000
396.546;  -87.525; -571.000; -466.000
396.674; -122.825; -850.000; -878.000
396.803;  -32.975;  -72.000;  -23.000
396.931;  -32.650; -179.000; -199.000
397.059; -136.125;-1026.000; -989.000
397.187; -132.475;-1026.000; -975.000
397.315; -121.050; -884.000; -649.000
397.443;  -98.375; -592.000; -443.000
397.572; -108.275; -578.000; -424.000
397.700;  -96.450; -607.000; -614.000
397.828;  -36.575;  120.000;  -90.000
397.956;  -35.075; -508.000; -478.000
398.084;  -24.750; -767.000; -626.000
398.212;    6.225;  137.000;  124.000
398.340;  -27.975;  -56.000;  159.000
398.468;  -51.825; -390.000; -169.000
398.596; -150.875; -993.000; -953.000
398.724; -109.750; -762.000; -767.000
398.852; -157.500;-1024.000; -976.000
398.980;  -87.925; -560.000; -560.000
399.108; -116.325; -982.000; -735.000
399.236;  -17.600;   13.000;    8.000
399.363;   -4.475;  222.000;  196.000
399.491;  -64.225; -404.000; -398.000
399.619; -129.750; -829.000; -800.000
399.747; -107.600; -859.000; -771.000
399.875;   35.775;  220.000;  234.000
400.003;  -74.275; -359.000; -284.000
400.130;  -89.875; -421.000; -341.000
400.258;  -25.975;  -83.000;   38.000
400.386;  -57.125; -352.000; -168.000
400.514;  -87.675; -526.000; -587.000
400.641; -137.725; -928.000; -802.000
400.769; -147.125; -979.000; -888.000
400.897; -125.925; -838.000; -793.000
401.025;  -54.975; -166.000; -152.000
401.152;  -14.725;  220.000;   38.000
401.280;  -71.950; -430.000; -429.000
401.408; -125.375; -712.000; -576.000
401.535;  -99.700; -735.000; -758.000
401.663; -187.500;-1134.000;-1054.000
401.790;  -81.875; -514.000; -525.000
401.918;   17.450;  436.000;  405.000
402.046;  -31.075;  134.000;  122.000
402.173;  -36.025;  -18.000;    7.000
402.301;  -84.925; -519.000; -397.000
402.428;   28.375;  528.000;  383.000
402.556; -141.150;-1188.000; -913.000
402.683;  -36.875;  -20.000;   -1.000
402.811;  -15.600;  -37.000; -206.000
402.938;  -24.800;   20.000;   27.000
403.066;    2.475; -574.000; -558.000
403.193;  105.175;  299.000;  239.000
403.321;   55.625; -396.000; -574.000
403.448;  115.825;   83.000;   27.000
403.575;   51.675;  -90.000;  -46.000
403.703; -107.625; -732.000; -557.000
403.830;  -55.125; -531.000; -496.000
403.957; -134.625;-1117.000;-1023.000
404.085;   38.450;  -61.000; -172.000
404.212;  118.325;  -50.000;   63.000
404.339;  453.250; -566.000; -306.000
404.467; 9165.825; -612.000; -524.000
404.594; 5700.175; -287.000; -227.000
404.721;  990.125; -869.000; -764.000
404.848;  100.800; -113.000; -202.000
404.976; -102.125; -856.000; -783.000
405.103;   -6.850;  -14.000;  -82.000
405.230;   -4.425;  190.000;  226.000
405.357;   48.350;  117.000;   44.000
405.484;  424.175;  -49.000;    5.000
405.612;  124.650; -548.000; -563.000
405.739;  -62.725; -488.000; -243.000
405.866;   76.575;  669.000;  385.000
405.993;  -59.250; -398.000; -102.000
406.120; -135.350; -801.000; -887.000
406.247;  -75.125; -323.000; -342.000
406.374;  115.925;  540.000;  629.000
406.501;  -73.825; -632.000; -702.000
406.628;  -93.525; -621.000; -589.000
406.755; -108.925; -803.000; -620.000
406.882;  -62.350; -228.000; -277.000
407.009; -105.125; -719.000; -628.000
407.136;  -33.950; -480.000; -401.000
407.263;  -46.950; -939.000; -829.000
407.390;  -87.825; -692.000; -614.000
407.517; -173.900;-1139.000;-1187.000
407.644;  -51.800; -332.000; -256.000
407.771; -138.075; -249.000; -287.000
407.898;   -4.450;  168.000;  328.000
408.025;  -77.050; -421.000; -313.000
408.151;  -25.050;   82.000;  153.000
408.278;  -72.100; -267.000; -216.000
408.405; -126.500; -931.000; -899.000
408.532; -102.650; -549.000; -542.000
408.659; -114.775; -677.000; -648.000
408.785; -196.125;-1298.000;-1170.000
408.912;  -65.850; -412.000; -296.000
409.039; -109.575; -610.000; -686.000
409.166; -107.150; -591.000; -555.000
409.292; -111.850; -571.000; -534.000
409.419; -106.725; -665.000; -649.000
409.546;  -83.975; -431.000; -192.000
409.672; -107.850; -713.000; -545.000
409.799;  -41.375;  -36.000;   34.000
409.926;  -52.550; -180.000; -179.000
410.052; -190.575;-1127.000;-1091.000
410.179;  -64.425; -368.000; -392.000
410.305;  -80.475; -375.000; -493.000
410.432;  -34.475; -220.000; -333.000
410.558;  -81.025; -305.000; -380.000
410.685; -107.125; -688.000; -431.000
410.812; -103.875; -409.000; -588.000
410.938; -143.550; -964.000; -808.000
411.065; -112.275; -671.000; -645.000
411.191;  -38.175; -189.000; -174.000
411.317; -129.825; -823.000; -742.000
411.444;  -68.450; -317.000; -246.000
411.570;  -87.400; -339.000; -294.000
411.697; -120.175; -758.000; -752.000
411.823; -167.425; -989.000; -999.000
411.949;  -43.550;  -56.000;   17.000
412.076; -114.675; -539.000; -519.000
412.202; -126.375; -758.000; -757.000
412.329; -131.200; -798.000; -752.000
412.455; -116.225; -821.000; -657.000
412.581;  -32.225;  -15.000;  172.000
412.707;  -75.150; -540.000; -457.000
412.834;   -9.800;  156.000;  219.000
412.960;  -83.325; -785.000; -784.000
413.086; -109.200; -743.000; -701.000
413.212;   95.875;  604.000;  578.000
413.339; -101.625; -685.000; -701.000
413.465;  -60.575; -364.000; -310.000
413.591; -102.375; -757.000; -474.000
413.717;  -56.400; -358.000; -366.000
413.843; -139.875; -839.000; -861.000
413.969;  -38.125;  -47.000; -292.000
414.096;  -82.750; -679.000; -679.000
414.222;   -0.050;  -33.000;   85.000
414.348;  -89.400; -652.000; -385.000
414.474;    0.175;   38.000;  -52.000
414.600;  -26.500; -126.000; -144.000
414.726;    0.425;  -96.000;  -55.000
414.852;  -34.725; -365.000; -342.000
414.978;   50.525;  104.000;  -18.000
415.104;   60.325;   38.000;   80.000
415.230;   50.025; -329.000; -330.000
415.356;   80.025; -409.000; -514.000
415.482;  230.925;   13.000;  -35.000
415.608;  412.750; -247.000; -323.000
415.734; 1375.575;   67.000;   38.000
415.860;28042.525; -875.000; -767.000
415.986;23460.400; -685.000; -607.000
416.111; 2197.425; -798.000; -652.000
416.237;  487.000; -424.000; -571.000
416.363; 1720.125; -765.000; -733.000
416.489; 6907.650; -324.000; -251.000
416.615;  958.375; -707.000; -742.000
416.741;   60.925; -677.000; -784.000
416.866;  -45.825; -673.000; -736.000
416.992;  -98.500; -801.000; -818.000
417.118;  -24.450;  -41.000;  -80.000
417.244;  -74.050; -798.000; -531.000
417.369;  -72.775; -801.000; -612.000
417.495;   -1.950; -325.000; -254.000
417.621;  -84.975;-1015.000; -803.000
417.746;   26.750; -579.000; -572.000
417.872;   75.325; -254.000; -144.000
417.998;  122.675; -515.000; -530.000
418.123; 1548.275;-1073.000; -845.000
418.249; 8781.575; -512.000; -601.000
418.374; 1542.450; -916.000; -824.000
418.500;  236.425; -383.000; -482.000
418.626;  188.725;   70.000;  -59.000
418.751;  168.375; -549.000; -448.000
418.877;  324.425; -637.000; -643.000
419.002; 2653.800; -688.000; -560.000
419.128;19773.200; -930.000; -721.000
419.253; 5713.200; -967.000; -837.000
419.379;  786.700; -391.000; -338.000
419.504;  589.875;  325.000;  415.000
419.629;  836.400; -393.000; -212.000
419.755; 5378.650; -317.000; -254.000
419.880;35432.850;  -98.000;   67.000
420.006;17931.150; -280.000; -221.000
420.131;44392.450; -662.000; -775.000
420.256; 7329.175; -315.000; -316.000
420.382; 1000.200; -665.000; -687.000
420.507;  164.200; -649.000; -778.000
420.632;   55.800; -337.000; -339.000
420.758;   41.325; -251.000; -425.000
420.883; -108.350; -876.000; -672.000
421.008;  -93.975; -775.000; -619.000
421.133;  -81.550; -509.000; -467.000
421.259;  -46.725; -325.000; -259.000
421.384; -112.175; -834.000; -693.000
421.509; -113.400;-1052.000; -862.000
421.634;  166.175; -936.000; -820.000
421.759;   97.050; -359.000; -327.000
421.885; -104.600; -717.000; -656.000
422.010;  -80.850; -673.000; -542.000
422.135; -142.125; -695.000; -727.000
422.260;   22.050;  340.000;  280.000
422.385;  -39.525;   12.000;  -98.000
422.510;   -9.325;  151.000;  -26.000
422.635;  -15.950;  -87.000;  -43.000
422.760;  -12.175; -766.000; -791.000
422.885;    3.625;  -57.000;  -80.000
423.010;  -29.150; -112.000; -169.000
423.135;  -87.625; -481.000; -561.000
423.260;  -35.675; -150.000; -245.000
423.385;   14.300;  476.000;  222.000
423.510;   16.600;   71.000;  -22.000
423.635;    3.875;  133.000;   45.000
423.760;   43.250;  383.000;  328.000
423.885;   29.850;  336.000;  391.000
424.010;   -6.400;  -68.000;  -13.000
424.135;   -5.475;    5.000;  -33.000
424.259;  -70.575; -654.000; -457.000
424.384;  -52.675; -279.000; -272.000
424.509;  -15.700; -260.000; -186.000
424.634;  -92.575; -761.000; -623.000
424.759;  -21.200; -688.000; -544.000
424.883;   -0.050; -506.000; -527.000
425.008;  219.825; -502.000; -410.000
425.133; 2932.050; -679.000; -653.000
425.258; 1610.875; -517.000; -381.000
425.382;  483.425; -867.000; -774.000
425.507; 1116.875; -487.000; -543.000
425.632;  382.075; -802.000; -663.000
425.756;  696.525; -256.000; -146.000
425.881;10067.375; -831.000; -857.000
426.006;31532.675; -604.000; -355.000
426.130; 5294.625; -696.000; -508.000
426.255;  730.750; -611.000; -491.000
426.379;  294.375; -189.000; -577.000
426.504;  517.175;  660.000;  544.000
426.629; 5749.575; -519.000; -466.000
426.753; 4634.100;   64.000;  -46.000
426.878;  577.050; -252.000; -288.000
427.002;  320.300; -651.000; -668.000
427.127; 2120.600;  -35.000; -158.000
427.251;17582.800;  372.000;  401.000
427.375; 5807.675; -191.000; -173.000
427.500; 1284.200; -616.000; -610.000
427.624;  400.625; -234.000; -400.000
427.749;   93.925; -216.000; -225.000
427.873;  -10.825; -499.000; -412.000
427.997;  -37.750; -222.000; -230.000
428.122;   57.175;  795.000;  703.000
428.246;   52.100;  433.000;  434.000
428.371; -120.225; -869.000; -773.000
428.495; -118.075; -624.000; -646.000
428.619;  -48.725; -186.000; -117.000
428.743;   20.725;   65.000;  132.000
428.868;  -67.175; -732.000; -643.000
428.992;  443.650; -219.000; -326.000
429.116;  175.675; -329.000; -357.000
429.240;  107.625;  419.000;  426.000
429.365;  -38.100; -454.000; -574.000
429.489;  -50.800; -638.000; -647.000
429.613;   41.100; -236.000; -177.000
429.737;   98.050; -563.000; -432.000
429.861;  385.025; -247.000; -133.000
429.985; 8039.225; -425.000; -305.000
430.109;10366.900; -770.000; -908.000
430.234; 1313.275;   76.000;  -50.000
430.358;  164.100; -250.000; -160.000
430.482;  -38.625; -672.000; -564.000
430.606;  -65.750; -655.000; -375.000
430.730;  -48.400; -437.000; -388.000
430.854;  -83.625; -909.000; -835.000
430.978;  -69.650; -795.000; -764.000
431.102;  -69.250; -499.000; -422.000
431.226; -108.875; -874.000; -815.000
431.350;   23.100;  345.000;  422.000
431.474;  -76.675; -661.000; -373.000
431.597; -144.325;-1060.000; -848.000
431.721;  -78.450; -276.000; -267.000
431.845; -112.725; -704.000; -472.000
431.969;  -71.675; -304.000; -349.000
432.093;  -91.175; -395.000; -317.000
432.217;    4.850;   32.000;   82.000
432.341;  -80.350; -523.000; -518.000
432.464;   -4.425;   96.000;   40.000
432.588;  -37.600; -401.000; -329.000
432.712;   20.600;  -52.000;  -52.000
432.836;   59.525;  213.000;  263.000
432.959;   26.975; -372.000; -311.000
433.083;  146.500;   11.000;    2.000
433.207;  581.250;  285.000;  930.000
433.330; 7698.800; -391.000; -200.000
433.454;10899.175; -654.000; -638.000
433.578; 5998.225;  583.000;  278.000
433.701; 1322.525; -623.000; -675.000
433.825;  166.975; -292.000; -299.000
433.949;   60.375;   28.000;  -72.000
434.072;  -22.975; -410.000; -323.000
434.196;   -1.950; -309.000; -117.000
434.319; 3431.925;25482.000;25124.000
434.443;  894.475; -656.000; -603.000
434.566; 4142.325;  281.000;   62.000
434.690;  948.475; -637.000; -383.000
434.813;  148.150; -251.000; -173.000
434.937;  -39.800; -569.000; -696.000
435.060;  -82.650; -423.000; -332.000
435.184;  -25.875; -492.000; -217.000
435.307;   12.375;  159.000;  102.000
435.431;  -22.375;  -40.000;   24.000
435.554;  -71.875; -399.000; -240.000
435.677;  -89.300; -350.000; -258.000
435.801;  -40.375;  -25.000;   49.000
435.924;  -41.800;    1.000;  -67.000
436.048; -153.000;-1019.000; -732.000
436.171;  -61.300; -240.000;  -66.000
436.294;  -18.750; -248.000; -229.000
436.417;  222.850; -963.000; -849.000
436.541;  -16.125; -814.000; -840.000
436.664;  -46.825; -242.000; -316.000
436.787;  -36.625;   13.000;  113.000
436.910; -113.000; -792.000; -422.000
437.034;   -7.125;  142.000;  143.000
437.157;    9.725;  -11.000;    0.000
437.280;  -81.700; -392.000; -292.000
437.403; -131.375; -982.000; -869.000
437.526;   -7.000; -903.000; -865.000
437.649;  466.950; -505.000; -332.000
437.772;   -0.350; -692.000; -540.000
437.896;   52.650;  700.000;  544.000
438.019; -116.200; -758.000; -503.000
438.142; -103.700; -596.000; -506.000
438.265; -108.375; -639.000; -670.000
438.388;   23.400; -520.000; -410.000
438.511;  -66.875; -597.000; -394.000
438.634;  -75.450; -247.000; -125.000
438.757; -142.125; -693.000; -619.000
438.880;  -39.850;  -34.000;  -57.000
439.003; -101.875; -417.000; -437.000
439.126;  -65.525; -287.000; -167.000
439.248;  -61.600;  -98.000; -139.000
439.371;  -30.550;    9.000;  -53.000
439.494;    9.500;  510.000;  439.000
439.617;  -43.800;   65.000;  -88.000
439.740; -164.675; -968.000; -816.000
439.863; -127.225; -755.000; -595.000
439.986; -105.575; -476.000; -431.000
440.108;  -43.425; -161.000; -112.000
440.231; -166.900; -950.000; -836.000
440.354;  -39.675;  -64.000; -150.000
440.477; -118.050; -566.000; -542.000
440.599;  -79.625; -200.000; -225.000
440.722; -119.475; -709.000; -586.000
440.845;   65.725;  751.000;  928.000
440.968; -112.400; -415.000; -311.000
441.090;  -75.325; -199.000;  -33.000
441.213; -170.650;-1021.000; -825.000
441.336;  -48.950; -159.000;   -5.000
441.458; -107.750; -549.000; -396.000
441.581; -122.350; -628.000; -629.000
441.703;  -71.450; -152.000;   13.000
441.826; -110.575; -557.000; -400.000
441.948;  -59.575;   56.000;   51.000
442.071;   26.100;  555.000;  424.000
442.193; -115.400; -531.000; -485.000
442.316;    1.825;  152.000;   97.000
442.438;   65.400; -233.000;  -10.000
442.561;   63.900;  272.000;  262.000
442.683;   37.600; -809.000; -522.000
442.806;  244.075;   -8.000;   74.000
442.928;  -90.950; -859.000; -604.000
443.051;  -79.925; -577.000; -373.000
443.173;  -92.500; -341.000; -339.000
443.295;  -93.800; -263.000; -371.000
443.418;  -72.025; -321.000;  -29.000
443.540;  -42.850; -106.000;   -4.000
443.662; -130.400; -563.000; -465.000
443.785;  -16.075;  335.000;  199.000
443.907; -101.150; -362.000; -208.000
444.029; -120.825; -767.000; -494.000
444.152; -140.450; -644.000; -554.000
444.274;  -29.975;  -18.000;  -24.000
444.396; -124.725; -461.000; -221.000
444.518; -133.050; -691.000; -454.000
444.640; -100.500; -268.000; -111.000
444.763;  -23.125;  388.000;  249.000
444.885; -123.200; -432.000; -392.000
445.007;  -37.825;   35.000;   86.000
445.129; -143.975; -610.000; -515.000
445.251; -102.275; -372.000; -439.000
445.373; -149.300; -537.000; -386.000
445.495;  -19.950;  242.000;  350.000
445.617;   42.125;  853.000;  753.000
445.739;  -82.000; -215.000;  -97.000
445.861;  -59.600; -245.000; -112.000
445.984;  -67.025; -267.000; -101.000
446.105;  -35.825; -418.000; -251.000
446.227;  111.275; -176.000;  -19.000
446.349;  -79.275; -358.000; -249.000
446.471; -113.075; -615.000; -448.000
446.593;  -90.325; -316.000;   19.000
446.715;  -52.900;  -67.000;   41.000
446.837;   43.750;  697.000;  832.000
446.959; -101.650; -457.000; -478.000
447.081; -119.125; -628.000; -518.000
447.203;   42.475;  862.000;  834.000
447.325;  -87.700; -270.000;   42.000
447.446;  -14.225;  286.000;  530.000
447.568; -165.125; -921.000; -803.000
447.690;  -85.700; -236.000; -245.000
447.812; -136.775; -798.000; -519.000
447.933;  -23.550;  155.000;  127.000
448.055;  -73.250; -306.000; -261.000
448.177;   11.850;   31.000;   79.000
448.299; -109.075; -935.000; -727.000
448.420;  -23.225;  -25.000;  159.000
448.542;  -46.225;   -3.000;   33.000
448.664;  -15.375;  109.000;  322.000
448.785;  -49.250;  265.000;   83.000
448.907;  -89.600; -614.000; -353.000
449.028; -106.125; -771.000; -471.000
449.150;   43.975;  492.000;  589.000
449.272; -170.125;-1044.000; -913.000
449.393;   15.700;  612.000;  694.000
449.515; -145.900; -634.000; -581.000
449.636;  -68.700; -264.000; -155.000
449.758;   35.700;  763.000;  622.000
449.879; -100.200; -498.000; -396.000
450.001;  -72.975; -149.000;  -49.000
450.122;  -39.425;  -95.000;  162.000
450.244;   -9.825;   37.000;  364.000
450.365;  -61.425; -495.000; -301.000
450.486;   -2.675;   80.000;  268.000
450.608;   64.950;  393.000;  326.000
450.729;  117.125;  578.000;  645.000
450.850;   97.750; -574.000; -466.000
450.972; 1203.250; -552.000; -389.000
451.093; 8046.000;  190.000;  588.000
451.214; 4280.350; -516.000; -337.000
451.336;  698.875;  773.000;  579.000
451.457;  130.000;  264.000;  393.000
451.578;  -19.200; -118.000;  -74.000
451.699; -104.475; -546.000; -540.000
451.821;  -57.900; -284.000;  -50.000
451.942;    9.950;  278.000;  285.000
452.063;   51.100;  228.000;  419.000
452.184;  822.450;  -54.000;  -49.000
452.305; 1792.400;  103.000;  170.000
452.427;  351.225; -549.000; -301.000
452.548;   32.975;   23.000;   79.000
452.669;  -67.150; -257.000;  -89.000
452.790;  -64.500;    3.000;  -18.000
452.911;  -20.200;  195.000;  259.000
453.032;  -72.575; -289.000;  -60.000
453.153;  -59.075;  -29.000;   81.000
453.274;   49.800;  737.000;  868.000
453.395;  -58.875;  -51.000;  175.000
453.516;  109.600; 1317.000; 1388.000
453.637;  -93.725; -205.000; -150.000
453.758;  -68.800;   15.000;   69.000
453.879; -101.975; -462.000; -250.000
454.000;   61.350; 1086.000;  948.000
454.121; -124.075; -554.000; -326.000
454.242; -108.875; -599.000; -383.000
454.362;  -54.875;  -99.000;  114.000
454.483;   -8.275; -309.000; -229.000
454.604;   50.825;  512.000;  580.000
454.725; -121.800; -627.000; -555.000
454.846; -130.225; -474.000; -406.000
454.967;  -22.975;  230.000;  539.000
455.087;  -52.100;  179.000;  153.000
455.208;   12.100;  554.000;  856.000
455.329;  -60.775;  -22.000;   82.000
455.450;   63.100;  473.000;  633.000
455.570;  -55.650; -234.000; -211.000
455.691;  -29.700;  201.000;  407.000
455.812; -105.850; -270.000;  -92.000
455.932;  -54.175;  107.000;  -97.000
456.053;  -77.625;   36.000;   24.000
456.173; -110.400; -433.000; -355.000
456.294; -123.600; -476.000; -303.000
456.415;  -66.350;  -73.000;   70.000
456.535;  -36.500;  297.000;  273.000
456.656;  -33.850;  132.000;  240.000
456.776;  -67.900;    3.000;  298.000
456.897;   -0.175;  308.000;  513.000
457.017;  -65.100; -153.000;   -3.000
457.138; -112.275; -402.000; -249.000
457.258;  -48.825;  263.000;  224.000
457.379;   -8.450;  509.000;  521.000
457.499;  -18.125;  443.000;  432.000
457.620; -107.675; -407.000; -231.000
457.740; -102.775; -132.000;  -11.000
457.860;  -53.800;   87.000;   44.000
457.981;  -46.175;  132.000;  124.000
458.101;  -71.525;  -89.000;   40.000
458.221;  -23.725;  336.000;  402.000
458.342;  -53.000;   -4.000;  -37.000
458.462;   49.625;  617.000;  352.000
458.582;   26.550; -302.000; -294.000
458.703;   71.600;  303.000;  154.000
458.823;   17.075;   22.000;  163.000
458.943;   48.250;  341.000;  467.000
459.063;   18.950; 1124.000;  192.000
459.183;  -14.925;  328.000;  313.000
459.304;   11.675;  315.000;  517.000
459.424;  -45.775; -246.000;  -89.000
459.544;  477.700;  388.000;  764.000
459.664; 1325.425;  499.000;  506.000
459.784;  537.700; 1004.000; 1175.000
459.904;   89.025;  867.000;  744.000
460.024;   48.625;  867.000;  684.000
460.144;  -20.775;  449.000;  554.000
460.264;    7.375;  515.000;  327.000
460.385;  -94.550; -145.000; -119.000
460.505;   31.450;  905.000;  858.000
460.625;  -93.075;  -17.000;  -68.000
460.745;  -30.125;  396.000;  541.000
460.864;  -39.400;  153.000;  469.000
460.984;   46.050;  499.000;  573.000
461.104;  144.575; 1656.000; 1775.000
461.224;   20.550;  657.000;  650.000
461.344;  -32.175;  431.000;  360.000
461.464;  -40.725;  258.000;  513.000
461.584;  -35.975;  283.000;  466.000
461.704;  -60.775;   58.000;  108.000
461.824;  -71.425;  238.000;  259.000
461.943;  -52.000;  191.000;  130.000
462.063;  -55.000;    2.000;  324.000
462.183;   31.100;  639.000;  717.000
462.303;   79.425; 1678.000; 1230.000
462.422;   29.250;  781.000;  840.000
462.542;  -39.250;  271.000;  391.000
462.662;   36.825;  353.000;  380.000
462.782;  339.750;  833.000;  572.000
462.901;  777.975;  545.000;  717.000
463.021;  397.850; 1702.000; 1638.000
463.141;   23.100;  337.000;  770.000
463.260;   -9.675;  614.000;  474.000
463.380;   31.000;  902.000;  884.000
463.499;  -36.225;  342.000;  332.000
463.619;  -42.400;  581.000;  559.000
463.738;  114.725; 1644.000;  903.000
463.858;   12.325;  657.000;  811.000
463.978;  -26.050;  542.000;  396.000
464.097;   48.575;  921.000; 1114.000
464.217;  155.850; 1196.000; 1143.000
464.336;  150.775; 1068.000; 1130.000
464.455;  -13.375;  328.000;  659.000
464.575;   21.950;  597.000;  602.000
464.694;  127.000; 1204.000; 1179.000
464.814;  144.800; 1190.000; 1138.000
464.933;   83.500; 1095.000; 1027.000
465.052;  106.075; 1412.000; 1054.000
465.172;   71.625;  922.000;  799.000
465.291;  119.575; 1376.000; 1320.000
465.410;   11.225;  462.000;  735.000
465.530;   74.750; 1355.000; 1310.000
465.649;   46.700; 1209.000; 1273.000
465.768;  132.325; 1673.000; 1508.000
465.888;   59.625;  941.000; 1174.000
466.007;   98.275; 1335.000; 1440.000
466.126;  -15.700;  721.000;  641.000
466.245;   55.350; 1176.000; 1187.000
466.364;   33.400;  950.000; 1060.000
466.484;   49.425; 1024.000; 1213.000
466.603;   33.125; 1101.000; 1222.000
466.722;  104.225; 1490.000; 1769.000
466.841;   55.700; 1151.000; 1401.000
466.960;   37.050; 1069.000;  972.000
467.079;  128.125; 1971.000; 1786.000
467.198;   47.925; 1238.000; 1181.000
467.317;   85.800; 1768.000; 1162.000
467.436;   61.100; 1709.000; 1261.000
467.555;  121.025; 1796.000; 1746.000
467.674;   70.450; 1227.000; 1329.000
467.793;   43.900; 1376.000; 1374.000
467.912;   95.400; 1658.000; 1539.000
468.031;  133.025; 2038.000; 1930.000
468.150;  121.050; 1842.000; 1837.000
468.269;  188.500; 2313.000; 2090.000
468.388;  190.925; 2168.000; 2339.000
468.507;  245.100; 2884.000; 2903.000
468.626;  219.150; 2555.000; 2541.000
468.744;  140.750; 2018.000; 2174.000
468.863;  222.850; 2312.000; 2523.000
468.982;  106.650; 1503.000; 1555.000
469.101;  220.000; 2788.000; 2692.000
469.220;  165.300; 2333.000; 2176.000
469.338;  221.200; 2935.000; 3051.000
469.457;  202.400; 2719.000; 2545.000
469.576;  348.400; 3953.000; 3784.000
469.695;  236.175; 2877.000; 3066.000
469.813;  395.950; 4148.000; 4192.000
469.932;  390.125; 4255.000; 4485.000
470.051;  449.800; 4075.000; 4161.000
470.169; 1040.575; 4470.000; 4338.000
470.288; 2059.175; 4700.000; 4809.000
470.406; 1191.325; 5059.000; 5194.000
470.525;  683.300; 6101.000; 5787.000
470.644;  640.150; 6847.000; 6794.000
470.762;  824.925; 8397.000; 7873.000
470.881;  918.125; 8651.000; 8464.000
470.999; 1082.025; 9685.000; 9151.000
471.118; 1105.075;11174.000;10711.000

