
Integration time [ms]: 100.000
Averaging Nr. [scans]: 40
Smoothing Nr. [pixels]: 0
Data measured with spectrometer [name]: 2101012U2
Wave   ;Sample   ;Dark     ;Reference
[nm]   ;[counts] ;[counts] ;[counts] 

197.733;   67.450;  516.000;  404.000
197.879;  -68.275; -610.000; -634.000
198.025;  -52.400; -475.000; -420.000
198.171;  -60.075; -602.000; -612.000
198.317;  -22.200; -401.000; -316.000
198.463;  -47.850; -655.000; -404.000
198.609;   42.500;  181.000; -137.000
198.755;  -67.725; -644.000; -410.000
198.901;  -46.475; -505.000; -424.000
199.047;  -53.300; -615.000; -488.000
199.193;  -21.125; -230.000; -468.000
199.339;  -43.500; -222.000; -369.000
199.485;   39.825;  330.000;  271.000
199.631;   20.875;  227.000;  310.000
199.777;  -55.675; -466.000; -398.000
199.923;  -58.050; -610.000; -424.000
200.069;    0.925; -141.000;  -58.000
200.215;   58.300;  128.000;  453.000
200.361;   50.700;  243.000;  477.000
200.507;  -47.175; -600.000; -373.000
200.653;  -22.725; -371.000; -194.000
200.798;  -26.875; -215.000; -125.000
200.944;   -4.925; -146.000;  -41.000
201.090;   32.150;   61.000;  222.000
201.236;   11.625; -116.000; -158.000
201.382;  135.450;  874.000;  903.000
201.528;    6.750;  -58.000;  -48.000
201.674;  -57.525; -386.000; -293.000
201.819;  -54.650; -540.000; -439.000
201.965;  -77.800; -699.000; -447.000
202.111;  -19.200; -273.000; -226.000
202.257;  -35.475; -250.000; -238.000
202.402;    7.375;   13.000;  -36.000
202.548;  -22.550; -169.000; -116.000
202.694;   78.200;  410.000; -183.000
202.840;  -70.375; -603.000; -531.000
202.985;  -60.650; -681.000; -639.000
203.131; -103.600; -832.000; -666.000
203.277;  -27.475; -199.000; -262.000
203.423;  -53.150; -434.000; -520.000
203.568;  -27.575; -462.000; -237.000
203.714;  -62.325; -535.000; -542.000
203.860;  -84.950; -682.000; -641.000
204.005;   18.000;  112.000;  167.000
204.151;   74.675;  561.000;  556.000
204.296;  -33.900; -354.000; -221.000
204.442;  -63.575; -600.000; -547.000
204.588;  -71.750; -592.000; -579.000
204.733;   33.375;  178.000;  168.000
204.879; -114.025;-1018.000; -822.000
205.025;    9.225;  -99.000;  126.000
205.170;  -11.225;  -17.000;   94.000
205.316;   78.950;  438.000;  661.000
205.461;  -75.700; -698.000; -554.000
205.607;   88.450;  609.000;  665.000
205.752;  -74.925; -626.000; -551.000
205.898;  -47.450; -501.000; -391.000
206.043;  -65.975; -578.000; -506.000
206.189;  -37.425; -243.000; -285.000
206.334;   67.325;  554.000;  606.000
206.480;   68.325;  409.000;  239.000
206.625;  -68.975; -529.000; -552.000
206.771;  -42.350; -451.000; -373.000
206.916;  -27.425; -210.000; -537.000
207.062;  -66.125; -545.000; -591.000
207.207;  -60.100; -546.000; -443.000
207.353;   68.775;  185.000;  460.000
207.498;   21.125;  196.000;   85.000
207.643;  -39.300; -501.000; -370.000
207.789; -132.500;-1069.000; -910.000
207.934;  -75.400; -665.000; -713.000
208.080;  -22.875; -154.000;   66.000
208.225;    1.350;  -22.000;  -57.000
208.370;  -82.825; -727.000; -619.000
208.516;  -73.350; -741.000; -487.000
208.661;  -30.200; -127.000;  -69.000
208.806;  -19.450; -165.000; -171.000
208.952; -135.250;-1044.000; -731.000
209.097;   74.875;  378.000;  349.000
209.242;  -25.750; -307.000; -382.000
209.387;   58.325;  392.000;  350.000
209.533;  -38.450; -321.000; -350.000
209.678;   82.925;  472.000;  543.000
209.823;  -46.075; -408.000; -310.000
209.969;  -94.200; -860.000; -757.000
210.114; -100.975; -907.000; -719.000
210.259;  -99.375; -939.000; -889.000
210.404;    8.925; -171.000;  103.000
210.549;    6.125;  108.000;    3.000
210.695;  -11.775;   -3.000;  -95.000
210.840;   16.875;   94.000;   67.000
210.985;  -58.700; -484.000; -303.000
211.130;   70.150;  268.000;  406.000
211.275;    9.550;  207.000;  199.000
211.420;  -47.575; -300.000; -289.000
211.566;  -64.850; -536.000; -489.000
211.711;   34.200;  218.000;  157.000
211.856;  -52.475; -545.000; -519.000
212.001;   19.700;  151.000;   44.000
212.146;   33.875;  153.000;   49.000
212.291;  -20.150; -210.000; -186.000
212.436;   -7.125; -280.000;   -6.000
212.581;  -71.300; -685.000; -653.000
212.726;  -63.050; -487.000; -538.000
212.871;  -41.800; -552.000; -217.000
213.016; -138.975;-1172.000;-1029.000
213.161;   61.075;  406.000;  291.000
213.306;  -63.425; -435.000; -577.000
213.451; -103.475; -778.000; -689.000
213.596;  -47.250; -455.000; -347.000
213.741;  -60.425; -448.000; -538.000
213.886;  -74.225; -498.000; -517.000
214.031;  -23.025; -294.000; -124.000
214.176;  -46.550; -408.000; -341.000
214.321;  -27.450; -296.000; -157.000
214.466;  -30.450; -163.000;  -43.000
214.611;    3.100;  -61.000;  -10.000
214.756; -115.625; -948.000; -858.000
214.901;  -13.525; -388.000; -226.000
215.046; -108.375; -797.000; -825.000
215.191;   21.625;  128.000;   35.000
215.336;  -13.200; -157.000;  -19.000
215.480;  -60.750; -684.000; -505.000
215.625;  -18.200; -175.000;  -19.000
215.770;  -80.650; -757.000; -662.000
215.915;  -10.525;   -5.000;  -97.000
216.060;    3.900; -113.000;  -21.000
216.205; -102.000; -731.000; -779.000
216.349;  -70.600; -470.000; -533.000
216.494; -124.550; -939.000; -867.000
216.639; -103.575; -823.000; -888.000
216.784;  -84.000; -577.000; -525.000
216.929;   50.725;  392.000;  281.000
217.073;  -16.275; -244.000;  -31.000
217.218;    5.050;   78.000;  -47.000
217.363;  -74.050; -656.000; -618.000
217.507;  -77.200; -623.000; -588.000
217.652; -115.050; -845.000; -874.000
217.797;  -76.525; -708.000; -659.000
217.942; -100.800; -856.000; -720.000
218.086;   64.850;  608.000;  539.000
218.231;  -25.600; -174.000;  -26.000
218.376;  -24.775; -337.000; -229.000
218.520;    5.100;  -41.000;   96.000
218.665;  -33.100; -338.000; -204.000
218.810;  -37.700; -275.000; -233.000
218.954;   14.125;  201.000;   35.000
219.099; -112.450; -713.000; -963.000
219.243;  -55.175; -589.000; -554.000
219.388;  -37.325; -264.000; -136.000
219.532;   -5.100; -116.000; -116.000
219.677;  -77.525; -564.000; -521.000
219.822;    0.150;   33.000;   89.000
219.966;    6.575;   17.000;  -99.000
220.111;  -29.000; -328.000;  -40.000
220.255;  -89.675; -797.000; -750.000
220.400;  -20.825; -180.000; -146.000
220.544;  -66.300; -516.000; -450.000
220.689;  -54.050; -422.000; -451.000
220.833;  -18.625; -123.000;  -58.000
220.978;  -48.800; -393.000; -563.000
221.122;   24.525;  319.000;  307.000
221.267; -102.175; -906.000; -837.000
221.411;  -54.900; -478.000; -394.000
221.555;    8.800; -104.000;  -23.000
221.700;  -43.175; -329.000; -222.000
221.844;   35.825;  255.000;  272.000
221.989;  -37.000; -328.000; -311.000
222.133;  -21.300; -289.000; -307.000
222.277;   -4.425;    5.000;   78.000
222.422;   20.550;  227.000;  113.000
222.566;  -41.875; -381.000; -214.000
222.711;  -47.225; -414.000; -479.000
222.855;  -74.375; -643.000; -586.000
222.999;  -80.200; -642.000; -717.000
223.144;  -29.850; -195.000; -194.000
223.288;   58.900;  423.000;  251.000
223.432;   28.500;  184.000;  230.000
223.576;   16.575;  152.000;  -21.000
223.721;   47.025;  364.000;  273.000
223.865;  -50.100; -472.000; -475.000
224.009;  233.725; 1673.000; 1631.000
224.153;  -72.075; -660.000; -671.000
224.298;  -64.450; -531.000; -489.000
224.442;  -11.925;  -74.000;  -33.000
224.586;  -21.375; -169.000; -106.000
224.730;  -83.050; -858.000; -670.000
224.875; -100.225; -739.000; -688.000
225.019;   12.250;  102.000;  188.000
225.163;   46.775;  208.000;  341.000
225.307;   26.550;   97.000;  -91.000
225.451;   65.325;  360.000;  481.000
225.595;   33.575;  264.000;  176.000
225.739;   -7.550; -170.000;  -94.000
225.884;    2.325;   86.000;    5.000
226.028;  -84.800; -760.000; -626.000
226.172;  -40.300; -260.000; -273.000
226.316; -108.100; -941.000; -902.000
226.460;  -60.600; -645.000; -493.000
226.604;  -47.225; -406.000; -400.000
226.748;  -90.500; -836.000; -733.000
226.892;  -36.200; -227.000; -181.000
227.036;  -45.925; -537.000; -447.000
227.180;  -63.375; -551.000; -375.000
227.324;  -67.325; -561.000; -580.000
227.468; -104.525; -819.000; -717.000
227.612;   17.475;  242.000;  -28.000
227.756;  -95.725; -845.000; -698.000
227.900;   52.125;  342.000;  441.000
228.044;  -51.525; -509.000; -290.000
228.188;   58.100;  448.000;  568.000
228.332;  -83.700; -546.000; -472.000
228.476;  -18.200; -223.000; -149.000
228.620;  -19.550; -210.000; -150.000
228.764;   78.025;  431.000;  349.000
228.908;  -20.325; -155.000;   30.000
229.052;  -54.025; -615.000; -528.000
229.195;   -9.800; -172.000;   13.000
229.339;  -17.275; -235.000; -305.000
229.483;  -22.500;    5.000; -162.000
229.627;    7.425; -156.000;  139.000
229.771;  -51.750; -218.000; -294.000
229.915;    8.025;  230.000;   79.000
230.059;  -95.125; -648.000; -663.000
230.202;  -29.475; -370.000; -317.000
230.346;  -17.350; -107.000;  107.000
230.490;  -58.400; -489.000; -521.000
230.634; -109.975; -736.000; -553.000
230.777;   72.725;  478.000;  509.000
230.921;  -51.075; -450.000; -359.000
231.065;  -39.975; -246.000; -286.000
231.209;   33.225;  261.000;  265.000
231.352;   20.800;   54.000;   40.000
231.496;   10.650;  568.000;  188.000
231.640;  -77.750; -693.000; -621.000
231.783;   58.875;  546.000;  525.000
231.927;  -48.900; -294.000; -365.000
232.071; -119.150; -962.000; -736.000
232.214;  -90.250; -980.000; -764.000
232.358;  -98.850; -683.000; -599.000
232.502;    8.575;  -19.000;    7.000
232.645; -115.750;-1090.000; -927.000
232.789;  -33.700; -257.000; -218.000
232.933;  -47.450; -407.000; -224.000
233.076; -113.950;-1038.000; -897.000
233.220;  -94.075; -752.000; -777.000
233.363;  -69.000; -669.000; -477.000
233.507;   49.100;  371.000;  129.000
233.650;  -84.400; -764.000; -834.000
233.794;   36.925;  438.000;  461.000
233.938;  -49.000; -530.000; -362.000
234.081;  -19.350;  -93.000;   31.000
234.225;  -45.925; -631.000; -539.000
234.368;  -93.575; -773.000; -723.000
234.512;  -30.250; -385.000; -299.000
234.655;  -88.750; -582.000; -555.000
234.798;  -56.050; -493.000; -466.000
234.942; -116.950; -884.000;-1002.000
235.085;  -57.875; -651.000; -443.000
235.229;  -71.675; -405.000; -410.000
235.372;  -45.000; -247.000; -191.000
235.516;  -47.875; -397.000; -321.000
235.659;   17.100;   92.000;  121.000
235.802;  -21.175;  -38.000;  -22.000
235.946;   24.275;  335.000;  215.000
236.089;   22.450;  126.000;  250.000
236.233;   50.475;  275.000;  298.000
236.376;  -37.150; -235.000; -378.000
236.519;  -39.575; -297.000; -319.000
236.663;  -37.125; -215.000; -117.000
236.806; -142.250;-1029.000; -999.000
236.949;   39.300;  543.000;  431.000
237.092;   49.675;  412.000;  391.000
237.236;  -86.075; -589.000; -502.000
237.379;   61.775;  352.000;  428.000
237.522;  -99.600; -879.000; -768.000
237.666;   -9.075; -271.000;   18.000
237.809; -126.000; -851.000; -823.000
237.952;   37.450;  469.000;  271.000
238.095;  -56.675; -447.000; -442.000
238.238;   64.850;  688.000;  700.000
238.382;    7.950;  166.000;  103.000
238.525;  -66.625; -598.000; -511.000
238.668; -127.375;-1060.000; -985.000
238.811;  -88.050; -638.000; -643.000
238.954;  -49.050; -483.000; -334.000
239.097;   94.125;  617.000;  664.000
239.241;   12.625;  394.000;  326.000
239.384;  -36.975; -254.000; -214.000
239.527;  -49.100; -424.000; -224.000
239.670; -131.300; -994.000;-1091.000
239.813; -103.675; -696.000; -658.000
239.956;   75.525;  579.000;  473.000
240.099;  -92.550; -778.000; -725.000
240.242;   63.825;  428.000;  432.000
240.385;   43.300;  466.000;  450.000
240.528;  -62.050; -706.000; -473.000
240.671;   15.600;  189.000;  134.000
240.814;  -36.525; -441.000; -158.000
240.957;  -90.500; -767.000; -578.000
241.100;  -72.975; -779.000; -755.000
241.243; -132.825;-1234.000; -893.000
241.386;  -66.975; -508.000; -379.000
241.529;  -98.775; -735.000; -547.000
241.672;  -65.675; -566.000; -495.000
241.815; -109.200; -832.000; -808.000
241.958;  -30.975; -125.000; -182.000
242.101;  -78.550; -545.000; -390.000
242.244;  -35.225; -270.000; -325.000
242.387;  -42.050; -304.000; -246.000
242.530;   49.100;  470.000;  134.000
242.673;  -40.700; -381.000; -309.000
242.815; -116.150; -925.000; -899.000
242.958;  -74.825; -482.000; -381.000
243.101;    7.300;  132.000;  187.000
243.244;  -84.925; -564.000; -521.000
243.387;  -38.475; -313.000; -316.000
243.530;  -94.900; -657.000; -674.000
243.672;   -3.625;   43.000;  -92.000
243.815;  -47.900; -355.000; -283.000
243.958;    3.550;   98.000;  -26.000
244.101;    9.575;   59.000;  -16.000
244.243;   -9.600;  -47.000;  101.000
244.386; -104.225; -761.000; -630.000
244.529;  -21.500; -132.000; -139.000
244.672; -157.075;-1154.000; -951.000
244.814;  -92.625; -621.000; -794.000
244.957;  -61.100; -380.000; -304.000
245.100;  -72.275; -489.000; -489.000
245.242;  -56.650; -387.000; -374.000
245.385;  -14.300;  -59.000;  -39.000
245.528; -120.900; -871.000; -705.000
245.670;   86.375;  612.000;  634.000
245.813;  -83.750; -599.000; -547.000
245.956;  -37.625; -324.000; -275.000
246.098;  -65.750; -508.000; -650.000
246.241;    6.425;  194.000;   48.000
246.383;  -15.450; -119.000;  -73.000
246.526;  -73.225; -454.000; -525.000
246.669;  -98.575; -889.000; -780.000
246.811;   14.525;  172.000;   -1.000
246.954;  -65.650; -512.000; -426.000
247.096;   -9.525;  -84.000;   -6.000
247.239;  -69.875; -482.000; -445.000
247.381;  -64.225; -647.000; -488.000
247.524;   82.200;  645.000;  679.000
247.666;  -15.750;   58.000;   11.000
247.809; -100.050; -887.000; -691.000
247.951;  -13.975;  -75.000;  138.000
248.094;   29.475;  432.000;  308.000
248.236; -151.175;-1262.000;-1238.000
248.378;  -12.850; -356.000;  -81.000
248.521;  -35.675; -334.000; -337.000
248.663;  -44.450; -236.000; -267.000
248.806;  -18.900; -300.000; -266.000
248.948; -103.125; -886.000; -763.000
249.090;  -57.600; -428.000; -398.000
249.233;  -62.350; -344.000; -381.000
249.375;  -63.700; -474.000; -451.000
249.518;  -25.450;  -83.000; -133.000
249.660;  -13.400; -103.000;    3.000
249.802; -164.425;-1303.000;-1189.000
249.945;  -67.950; -612.000; -540.000
250.087; -112.750; -834.000; -768.000
250.229;  -59.725; -362.000; -480.000
250.371;  -76.925; -494.000; -439.000
250.514;  -35.650; -310.000; -244.000
250.656;  -61.050;   69.000;  102.000
250.798; -113.250; -849.000; -800.000
250.940;  -59.050; -322.000; -322.000
251.083;  -23.150; -335.000; -111.000
251.225;   62.250;  338.000;  310.000
251.367;  -49.300; -274.000; -373.000
251.509;  -30.450; -265.000; -210.000
251.651;  -92.975; -731.000; -671.000
251.794;   40.250;  538.000;  632.000
251.936;  -95.125; -821.000; -747.000
252.078;  -79.175; -540.000; -461.000
252.220;  -59.425; -645.000; -477.000
252.362;   44.275;  344.000;  462.000
252.504;  -74.500; -677.000; -584.000
252.646; -107.625; -875.000; -722.000
252.788;  -14.025;   14.000; -128.000
252.931;  -29.350; -257.000; -253.000
253.073;  -45.375; -376.000; -317.000
253.215;  -11.025;  141.000;  122.000
253.357;  -17.825;   82.000; -153.000
253.499;  -48.350; -374.000; -234.000
253.641;  -90.725; -749.000; -594.000
253.783;  -87.250; -609.000; -527.000
253.925;  -80.050; -586.000; -591.000
254.067; -101.225; -744.000; -667.000
254.209;  -34.975; -391.000; -259.000
254.351; -132.625; -865.000; -883.000
254.493;  -62.325; -441.000; -417.000
254.635; -128.825; -936.000; -818.000
254.777;  -96.700; -752.000; -687.000
254.918;  -71.125; -512.000; -430.000
255.060;  -57.300; -551.000; -395.000
255.202;  -61.375; -473.000; -261.000
255.344;  -77.450; -658.000; -455.000
255.486;  -67.675; -471.000; -406.000
255.628; -104.950; -780.000; -781.000
255.770;  -83.825; -676.000; -536.000
255.912;  -64.875; -559.000; -468.000
256.053;  -84.425; -730.000; -508.000
256.195;  145.625; 1008.000;  903.000
256.337; -102.975; -861.000; -595.000
256.479;   63.950;  532.000;  416.000
256.621;  -47.950; -394.000; -212.000
256.762;  -98.325; -789.000; -742.000
256.904;   42.850;  485.000;  487.000
257.046;  -31.825; -381.000; -271.000
257.188;  -50.625; -351.000; -264.000
257.329;  -73.000; -525.000; -464.000
257.471; -104.550; -939.000; -807.000
257.613;  -61.975; -584.000; -498.000
257.755; -151.725;-1073.000; -982.000
257.896;   40.600;  286.000;  392.000
258.038;  -65.325; -403.000; -352.000
258.180;  -50.050; -354.000; -279.000
258.321;  -98.800; -581.000; -457.000
258.463;    1.150;  -71.000;  133.000
258.605;  -89.550; -562.000; -570.000
258.746; -103.700; -886.000; -772.000
258.888; -140.950;-1026.000;-1020.000
259.029;   24.975;  121.000;   -8.000
259.171;  -85.950; -614.000; -550.000
259.313;   10.875;  -49.000;  -47.000
259.454;  -79.225; -536.000; -414.000
259.596;  -56.950; -483.000; -390.000
259.737;  -82.800; -590.000; -474.000
259.879;   28.175;  217.000;  311.000
260.020;   84.325;  901.000;  636.000
260.162;  -21.150; -146.000; -253.000
260.303; -114.475; -768.000; -687.000
260.445;  -91.375; -609.000; -613.000
260.586;   28.300;  392.000;  157.000
260.728;  -48.025; -360.000; -248.000
260.869;  -79.050; -350.000; -343.000
261.011;   79.275;  706.000;  537.000
261.152;  -67.825; -479.000; -319.000
261.293;  -87.650; -576.000; -595.000
261.435;  -36.425; -219.000; -184.000
261.576;  -48.600; -455.000; -325.000
261.718;   60.525;  420.000;  470.000
261.859; -125.975; -940.000; -949.000
262.000; -122.375; -951.000;-1016.000
262.142;  -21.500;  -52.000;  -60.000
262.283; -117.175; -808.000; -691.000
262.424;  -78.800; -666.000; -625.000
262.566; -151.925;-1161.000; -983.000
262.707;  -99.975; -840.000; -830.000
262.848; -121.700; -769.000; -726.000
262.990;  -36.375; -362.000; -345.000
263.131;   74.450;  650.000;  681.000
263.272;  -16.425;  -61.000;  -41.000
263.413;  -80.775; -589.000; -561.000
263.555;  -63.275; -669.000; -143.000
263.696;  -90.725; -550.000; -641.000
263.837;  -58.225; -449.000; -551.000
263.978;   -2.850;   -5.000;  -77.000
264.119;  -38.250; -283.000; -264.000
264.261; -109.325; -847.000; -630.000
264.402;  -13.875;   33.000;   40.000
264.543;  -61.925; -509.000; -524.000
264.684;  -14.900;   61.000;  -50.000
264.825;  -65.050; -816.000; -538.000
264.966;   -1.925;  -84.000;  -67.000
265.107; -105.150; -646.000; -670.000
265.248; -107.350; -825.000; -812.000
265.390;  -10.225;  152.000;   -9.000
265.531;  -21.650; -238.000; -107.000
265.672;  -83.750; -557.000; -630.000
265.813;   57.475;  563.000;  439.000
265.954; -135.075; -959.000; -940.000
266.095;  -22.775; -372.000; -322.000
266.236;  -88.100; -686.000; -548.000
266.377;  -40.300; -243.000; -297.000
266.518;  -79.625; -619.000; -547.000
266.659;   36.150;  170.000;  268.000
266.800;   -0.875;   83.000;   85.000
266.941;  -80.175; -487.000; -478.000
267.082;    6.000;  354.000;   99.000
267.223;  -51.300; -344.000; -273.000
267.364; -115.275; -892.000; -686.000
267.504;  -14.900;    3.000;  135.000
267.645;    2.500;  160.000;   67.000
267.786;  -31.350; -147.000;  -86.000
267.927;  -70.100; -473.000; -379.000
268.068;  -25.275; -186.000;  -61.000
268.209;  -46.375; -175.000; -413.000
268.350;  -55.375; -388.000; -532.000
268.490;  -94.725; -648.000; -521.000
268.631;   20.525;  127.000;  225.000
268.772; -106.575; -874.000; -647.000
268.913;  -62.425; -328.000; -476.000
269.054;  -19.100; -117.000;   12.000
269.194;  -47.450; -418.000; -402.000
269.335; -157.750;-1137.000;-1074.000
269.476;    3.500;   33.000;  -35.000
269.617;  -53.125; -347.000; -392.000
269.757;  -87.825; -713.000; -646.000
269.898; -101.900; -856.000; -613.000
270.039;  -54.975; -415.000; -405.000
270.180; -126.525; -952.000; -816.000
270.320;  -32.200; -190.000; -250.000
270.461;  -35.875; -277.000; -249.000
270.602;   -8.525; -186.000; -156.000
270.742; -113.125; -868.000; -943.000
270.883;  -49.300; -442.000; -390.000
271.023;  -73.775; -358.000; -357.000
271.164;  -77.500; -607.000; -528.000
271.305;  -95.100; -666.000; -654.000
271.445;  -97.800; -722.000; -683.000
271.586;  -61.925; -462.000; -283.000
271.726;  -50.925; -397.000; -322.000
271.867;  -76.925; -594.000; -534.000
272.008;   59.975; -473.000; -285.000
272.148;   83.300;  462.000;  468.000
272.289;   -2.250; -113.000; -181.000
272.429;   -0.900;   19.000;  185.000
272.570;  -98.875; -633.000; -737.000
272.710;  -95.150; -825.000; -775.000
272.851;  -30.350;  113.000; -130.000
272.991; -160.275;-1173.000;-1077.000
273.131;  -63.175; -419.000; -459.000
273.272; -103.475; -683.000; -723.000
273.412;    0.375; -143.000;  -31.000
273.553;  -62.825; -488.000; -507.000
273.693;  112.125;  913.000;  858.000
273.834; -119.650; -894.000; -692.000
273.974;  -76.050; -664.000; -615.000
274.114; -100.625; -772.000; -560.000
274.255;   40.600;  414.000;  373.000
274.395;  -28.075; -180.000; -125.000
274.535;   22.250;  199.000;  350.000
274.676;   20.650;  225.000;   94.000
274.816;   -1.000;  110.000;   34.000
274.956;  -97.600; -624.000; -690.000
275.097;  -87.025;-1014.000; -922.000
275.237; -119.300; -913.000; -803.000
275.377;  -96.900; -778.000; -689.000
275.517; -136.800; -878.000; -937.000
275.658;  -76.800; -590.000; -555.000
275.798;  -86.625; -606.000; -413.000
275.938;   18.225;  215.000;  323.000
276.078;  -79.425; -626.000; -395.000
276.218;   -8.550;   99.000;  104.000
276.359; -132.400;-1026.000;-1024.000
276.499;  -83.475; -605.000; -446.000
276.639;  -33.325; -305.000; -151.000
276.779;  -46.125; -475.000; -357.000
276.919; -107.700; -783.000; -624.000
277.059;  -20.600; -261.000; -212.000
277.199;  -51.975; -357.000; -259.000
277.340;   30.475;  287.000;  175.000
277.480; -100.100; -840.000; -693.000
277.620;   20.100;  192.000;   16.000
277.760; -196.275;-1533.000;-1294.000
277.900;   -0.250;  113.000;   33.000
278.040;   -1.225;  137.000;  159.000
278.180;   24.350;  270.000;  170.000
278.320;   -0.425;   21.000;   56.000
278.460;  -67.125; -443.000; -469.000
278.600;  -96.200; -708.000; -598.000
278.740;   48.325;  448.000;  224.000
278.880; -108.250; -768.000; -791.000
279.020;  -23.300; -194.000; -144.000
279.160;  -91.550; -672.000; -595.000
279.300; -115.300; -926.000; -873.000
279.440;  -76.450; -709.000; -622.000
279.579;  -78.125;-1014.000; -929.000
279.719;  -59.150; -410.000; -394.000
279.859;   33.800;   -4.000;   41.000
279.999;   -7.100; -208.000;  101.000
280.139;  -35.550; -435.000; -387.000
280.279;  -85.675; -708.000; -745.000
280.419;  -21.300; -229.000; -147.000
280.559;  -40.725; -259.000; -180.000
280.698;  -84.400; -790.000; -639.000
280.838; -101.625; -778.000; -800.000
280.978; -102.025; -846.000; -790.000
281.118;  -98.750; -811.000; -704.000
281.257;    1.450;   24.000;    6.000
281.397; -149.450;-1094.000; -960.000
281.537;  -99.675; -599.000; -712.000
281.677;  -20.125; -150.000; -101.000
281.816;  -94.025; -700.000; -630.000
281.956;  -47.250; -193.000; -257.000
282.096;  -58.525; -539.000; -396.000
282.235; -101.150; -672.000; -638.000
282.375;  -13.325; -243.000;  -98.000
282.515; -100.925; -715.000; -707.000
282.654;   12.350;   29.000;  106.000
282.794;   26.225;  388.000;  244.000
282.934;  -71.275; -530.000; -491.000
283.073; -131.850;-1030.000; -857.000
283.213;  -51.125; -460.000; -467.000
283.353;  -53.050; -408.000; -349.000
283.492;  -32.675; -264.000; -296.000
283.632;  -52.200; -254.000; -168.000
283.771;  -80.100; -859.000; -730.000
283.911;  -52.150; -369.000; -260.000
284.050; -112.125; -794.000; -748.000
284.190; -161.025;-1229.000;-1096.000
284.329; -130.950;-1055.000; -964.000
284.469;  -91.850; -516.000; -591.000
284.608;  -63.450; -559.000; -598.000
284.748;  -92.250; -614.000; -570.000
284.887;   -0.950;  -87.000;  -20.000
285.027; -127.950; -844.000; -892.000
285.166;  -35.275; -192.000; -249.000
285.306;   -4.500; -116.000;  -33.000
285.445;  -42.250; -229.000; -343.000
285.584;  -99.025; -630.000; -494.000
285.724;  -42.725; -282.000; -322.000
285.863; -109.625; -857.000; -507.000
286.002;  -45.425; -366.000; -276.000
286.142;  -93.025; -715.000; -622.000
286.281;  -77.925; -525.000; -493.000
286.420;  -77.150; -554.000; -417.000
286.560;   87.900;  653.000;  623.000
286.699; -142.400; -958.000; -912.000
286.838;  -79.725; -590.000; -591.000
286.978;  -88.400; -533.000; -537.000
287.117; -119.600;-1085.000; -950.000
287.256;  -42.950; -228.000; -211.000
287.395;  -50.375; -197.000; -378.000
287.535;  -54.500; -370.000; -298.000
287.674;  -89.950; -509.000; -484.000
287.813;   48.775;  661.000;  533.000
287.952; -125.675;-1010.000; -871.000
288.091; -145.975;-1049.000; -915.000
288.231;   -6.300;   13.000;   15.000
288.370; -174.775;-1217.000;-1200.000
288.509;  -80.525; -728.000; -645.000
288.648;  -81.775; -770.000; -548.000
288.787;  -35.300; -243.000;  -87.000
288.926;  -63.300; -454.000; -475.000
289.065;   86.275;  859.000;  672.000
289.204;  -44.175; -377.000; -217.000
289.344;  -91.875; -791.000; -690.000
289.483;    1.300;  416.000;  304.000
289.622;  -24.900; -291.000; -149.000
289.761;   -7.550; -309.000; -166.000
289.900; -105.800; -785.000; -626.000
290.039;  -36.875;  -12.000;  -95.000
290.178;  -47.225; -274.000; -180.000
290.317;  -87.200; -618.000; -479.000
290.456;  -57.250; -463.000; -451.000
290.595; -119.375; -961.000; -833.000
290.734; -134.275; -904.000; -891.000
290.873;  -68.275; -456.000; -420.000
291.011; -119.500; -833.000; -843.000
291.150; -112.250; -770.000; -682.000
291.289;  -36.950; -343.000; -110.000
291.428; -101.075; -599.000; -480.000
291.567;  -54.875; -370.000; -442.000
291.706;   -6.150;  109.000;  154.000
291.845;  -87.950; -597.000; -505.000
291.984; -163.850;-1234.000;-1061.000
292.122;   63.525;  602.000;  582.000
292.261;   38.450;  620.000;  463.000
292.400;   -5.650; -144.000;  211.000
292.539; -125.100; -959.000; -813.000
292.678;  -38.450; -325.000; -300.000
292.816; -160.500;-1136.000; -965.000
292.955;  -94.125; -844.000; -684.000
293.094;  -32.950; -173.000; -337.000
293.233;  -57.300; -556.000; -400.000
293.371;  -43.025; -225.000;  -84.000
293.510; -106.900; -866.000; -780.000
293.649; -129.675; -959.000; -924.000
293.787; -122.600;-1083.000;-1012.000
293.926;  -17.650; -113.000;  -32.000
294.065;  -61.100; -379.000; -290.000
294.203;   40.700;  298.000;  406.000
294.342;   24.750;   74.000;  156.000
294.481; 6579.100;51180.000; -836.000
294.619;  -31.550; -425.000; -582.000
294.758; -146.175;-1230.000;-1137.000
294.896;   16.200; -125.000;    5.000
295.035; -140.900;-1040.000;-1006.000
295.174; -131.650;-1082.000; -954.000
295.312;  -42.175; -323.000; -203.000
295.451;  -48.925; -307.000; -428.000
295.589;  -61.400; -389.000; -518.000
295.728;   -0.875; -292.000; -165.000
295.866;  -16.925;  -36.000;  -51.000
296.005;  -68.000; -584.000; -341.000
296.143;  -82.075; -558.000; -596.000
296.282;  -94.825; -957.000; -881.000
296.420;  -76.625; -657.000; -557.000
296.559;  -88.525; -892.000; -633.000
296.697;  -57.000; -847.000; -665.000
296.835;  -84.350;-1141.000;-1002.000
296.974;   21.175;  -23.000;   39.000
297.112;  -47.750; -443.000; -504.000
297.251;  -82.525; -815.000; -755.000
297.389;  -20.825; -576.000; -438.000
297.527;   -3.875; -145.000;  -83.000
297.666;  -58.075; -486.000; -438.000
297.804;  -42.400; -404.000; -264.000
297.942;   -1.975; -136.000; -161.000
298.081;  -21.175; -183.000;   63.000
298.219;   14.000;  -17.000;  -19.000
298.357;   -8.550; -144.000;  -71.000
298.495;  -71.100; -810.000; -812.000
298.634;   -0.525;  245.000;  219.000
298.772;  -22.125; -220.000; -338.000
298.910;  -53.375; -309.000; -182.000
299.048;  -17.625; -130.000; -153.000
299.187;  -51.275; -350.000; -250.000
299.325;  -10.775;   52.000;  122.000
299.463;  -23.750; -389.000; -299.000
299.601;    6.025; -327.000; -271.000
299.739; -126.300; -908.000; -883.000
299.877;  -91.150; -791.000; -703.000
300.016;  -99.725;-1095.000; -935.000
300.154;   49.325;  -19.000; -161.000
300.292;  -28.050; -428.000; -348.000
300.430;  -26.175; -408.000; -291.000
300.568; -127.950; -940.000; -874.000
300.706;  -63.675; -366.000; -469.000
300.844; -119.900;-1108.000; -979.000
300.982;   71.325;  246.000;  282.000
301.120; -116.975; -965.000; -866.000
301.258;  -83.175; -812.000; -705.000
301.396;    1.500;  104.000;  -41.000
301.534;  -16.600; -218.000; -293.000
301.672;  -66.900; -664.000; -521.000
301.810;  -62.000; -613.000; -545.000
301.948;   31.900;   53.000;  149.000
302.086;  221.275; -250.000;  -32.000
302.224;  262.525; -610.000; -585.000
302.362;  -64.525; -558.000; -622.000
302.500;  -99.550; -923.000; -893.000
302.638;   31.575;  128.000;  245.000
302.776;  -21.950; -352.000; -408.000
302.913;   48.775;  447.000;  236.000
303.051;  -22.525;  -86.000;  -23.000
303.189;   25.350;   90.000;  118.000
303.327;  -43.475; -341.000; -256.000
303.465;  -79.275; -832.000; -588.000
303.603;  -97.250; -805.000; -604.000
303.740;   57.600;  417.000;  241.000
303.878;  -52.350; -800.000; -759.000
304.016;  -94.950; -915.000; -790.000
304.154; -156.675;-1123.000;-1152.000
304.291;  -45.100; -505.000; -554.000
304.429;    6.850;  102.000;   74.000
304.567; -135.400; -908.000; -893.000
304.705;  -78.250; -408.000; -515.000
304.842;   -7.325; -616.000; -540.000
304.980;   23.125;  215.000;   35.000
305.118;  -28.700; -367.000; -365.000
305.255; -111.500; -945.000; -927.000
305.393;   44.500;  178.000;  239.000
305.531; -131.450;-1173.000; -956.000
305.668;  -81.775; -663.000; -582.000
305.806;   23.600; -358.000; -439.000
305.943;    4.750; -629.000; -637.000
306.081;   -5.275; -378.000; -267.000
306.219;  -99.725; -863.000; -748.000
306.356;    3.575;  158.000;   27.000
306.494;  122.375;  981.000;  761.000
306.631;   -0.375;  -11.000;  -55.000
306.769;  -33.800; -613.000; -485.000
306.906;  -36.350; -284.000; -258.000
307.044;  -43.525; -473.000; -488.000
307.181;  -66.200; -410.000; -332.000
307.319;   20.975;  112.000;   87.000
307.456; -168.625;-1191.000;-1153.000
307.594; -110.000; -980.000; -727.000
307.731;  -32.425; -371.000; -164.000
307.868;    1.300;  -15.000;   20.000
308.006; -122.750; -961.000; -847.000
308.143;  -80.975; -618.000; -330.000
308.281;   54.800;  -37.000; -254.000
308.418;  -62.500; -748.000; -640.000
308.555;  -65.475; -400.000; -250.000
308.693;  -59.850; -577.000; -573.000
308.830; -103.325; -712.000; -657.000
308.967;   -2.625; -215.000;  -95.000
309.105;  -36.525; -507.000; -396.000
309.242;  -25.500; -468.000; -367.000
309.379;   71.700; -577.000; -655.000
309.517;  -93.975; -936.000; -948.000
309.654; -106.925; -910.000; -734.000
309.791;  -68.750; -662.000; -580.000
309.928; -114.300; -977.000; -914.000
310.065;  140.425;  819.000;  697.000
310.203;  -57.225; -825.000; -850.000
310.340;  -45.800; -465.000; -321.000
310.477;  -69.225; -412.000; -516.000
310.614;  -59.125; -383.000; -473.000
310.751;  -67.825; -427.000; -518.000
310.889;  -17.900;    1.000;   11.000
311.026; -142.875;-1161.000; -939.000
311.163;  -42.275; -386.000; -380.000
311.300;  -64.375; -512.000; -479.000
311.437;  -50.425; -658.000; -619.000
311.574; -143.325;-1226.000; -985.000
311.711;  -53.925; -595.000; -433.000
311.848;  -33.400; -380.000; -388.000
311.985;    6.875;  270.000;   93.000
312.122; -124.950; -932.000; -762.000
312.259; -118.800; -941.000; -994.000
312.396;  -73.250; -508.000; -551.000
312.533;  -84.525; -812.000; -790.000
312.670; -118.750;-1070.000; -898.000
312.807;  -34.825; -352.000; -367.000
312.944;  -64.150; -513.000; -611.000
313.081;  -33.975; -150.000; -415.000
313.218;  -82.250;-1111.000; -867.000
313.355;    0.125; -531.000; -449.000
313.492;   -5.075; -455.000; -292.000
313.629;  139.775;  815.000;  735.000
313.766; -135.300;-1176.000;-1008.000
313.902;  -19.100; -186.000;   21.000
314.039;  -41.375; -372.000; -289.000
314.176;   19.425;  286.000;  192.000
314.313;  -68.850; -569.000; -473.000
314.450;  -77.225; -788.000; -684.000
314.587;  -53.825; -468.000; -480.000
314.723;    5.075;  -78.000;  130.000
314.860;   40.700;  318.000;  332.000
314.997;   32.975;  223.000;  142.000
315.134;  -18.400; -385.000; -368.000
315.270;  -12.025; -480.000; -496.000
315.407; -104.250;-1094.000; -967.000
315.544;  -33.000; -657.000; -538.000
315.681;  -57.625; -681.000; -565.000
315.817;   42.100; -133.000; -176.000
315.954;   56.900; -613.000; -392.000
316.091; -123.550;-1045.000;-1023.000
316.227;  -24.350;  -71.000; -179.000
316.364;    6.200;   23.000;    6.000
316.500;  -51.725; -113.000; -300.000
316.637;  -37.150; -181.000; -302.000
316.774;  -85.950; -625.000; -358.000
316.910;  -82.700; -598.000; -629.000
317.047;  -68.525; -487.000; -351.000
317.183;  -62.300; -435.000; -566.000
317.320;   31.525; -367.000; -321.000
317.456;  -38.675; -733.000; -805.000
317.593; -100.475; -598.000; -641.000
317.729;   -5.550;  168.000;  -67.000
317.866; -186.500;-1434.000;-1285.000
318.002;  -95.675; -708.000; -948.000
318.139; -122.700; -883.000; -867.000
318.275; -101.750;-1003.000; -738.000
318.412;  -75.100; -517.000; -336.000
318.548;  -76.775; -751.000; -720.000
318.685;  -99.175; -985.000; -888.000
318.821;  -87.025; -762.000; -735.000
318.957;  -18.575;   34.000;  -23.000
319.094;   30.150;  297.000;  154.000
319.230;  -95.075; -756.000; -742.000
319.367;   -3.575; -471.000; -520.000
319.503;  -16.850; -538.000; -436.000
319.639;  -95.825; -877.000; -793.000
319.775;  -87.175; -750.000; -685.000
319.912;  -47.850; -424.000; -519.000
320.048;  -88.350;-1184.000;-1184.000
320.184;   82.375;   59.000;   70.000
320.321;  -50.950; -497.000; -467.000
320.457;   81.975;  475.000;  662.000
320.593;  -68.750; -375.000; -382.000
320.729; -101.150; -732.000; -734.000
320.866;  -71.850; -577.000; -635.000
321.002; -102.675; -759.000; -809.000
321.138;  -44.575; -135.000; -211.000
321.274;   15.875; -148.000; -115.000
321.410;  -50.650; -585.000; -353.000
321.546; -105.750;-1011.000; -911.000
321.683;   21.750;  400.000;  185.000
321.819;  -33.150;  -48.000; -117.000
321.955; -125.425; -743.000; -722.000
322.091;  -70.600; -585.000; -540.000
322.227;  -45.775; -382.000; -202.000
322.363;  -37.575; -320.000; -215.000
322.499;  -62.025; -343.000; -331.000
322.635;  101.775;  636.000;  443.000
322.771;   -9.075; -139.000;   12.000
322.907;   48.625;  129.000;  327.000
323.043;  -29.350; -115.000; -206.000
323.179;  -52.925; -394.000; -363.000
323.315;  -59.075; -401.000; -371.000
323.451;   17.300; -328.000; -236.000
323.587;   52.500;  -60.000;  -77.000
323.723;  -44.625; -682.000; -601.000
323.859;  -28.900; -258.000;  -76.000
323.995;  -31.300; -467.000; -409.000
324.131; -136.300; -967.000; -892.000
324.267;  -55.750; -254.000; -276.000
324.402; -142.600; -960.000; -983.000
324.538;  -33.150; -279.000; -104.000
324.674;   -0.700;  164.000;   77.000
324.810;   64.925;  226.000;  308.000
324.946;  -41.800; -810.000; -658.000
325.082;  -71.525; -568.000; -475.000
325.217;  -36.950;  -62.000;   16.000
325.353;  -98.275; -764.000; -659.000
325.489;  -93.350; -540.000; -506.000
325.625;  -68.775; -579.000; -525.000
325.760;   76.725;  517.000;  376.000
325.896;   16.475; -515.000; -702.000
326.032;  -55.050; -403.000; -352.000
326.168;  -55.975; -462.000; -369.000
326.303;  -70.125; -352.000; -461.000
326.439;   -3.125; -336.000; -276.000
326.575;    1.300; -190.000;  -29.000
326.710;  -11.375; -156.000;  -30.000
326.846;  -31.725;  146.000;  103.000
326.982;  -99.475; -530.000; -548.000
327.117;  -60.800; -481.000; -442.000
327.253;  -70.875; -745.000; -742.000
327.388; -167.625;-1137.000;-1153.000
327.524;  -69.475; -811.000; -578.000
327.659;  -22.525;  -58.000;  -22.000
327.795;  -21.600;   69.000;   45.000
327.931;  -73.025; -723.000; -499.000
328.066;  -34.800; -417.000; -276.000
328.202;  -15.750;   12.000; -129.000
328.337;   73.800;  957.000;  713.000
328.473;   19.750;  -12.000;  -74.000
328.608;  -33.100; -256.000; -267.000
328.743;  -89.875; -799.000; -664.000
328.879;    6.750;  214.000;  114.000
329.014;  -34.300; -102.000; -122.000
329.150;  -90.475; -358.000; -483.000
329.285;  -89.275; -465.000; -466.000
329.421;  -53.050; -548.000; -246.000
329.556;  -24.200;  -36.000;   85.000
329.691;  -84.275; -633.000; -615.000
329.827;  -96.675; -626.000; -480.000
329.962;  -41.400;  131.000; -301.000
330.097;  -72.150; -673.000; -585.000
330.233;  -43.475; -410.000; -223.000
330.368; -121.325; -839.000; -628.000
330.503;  -15.200;    3.000;   98.000
330.638;  -18.025;  -93.000; -125.000
330.774;  -82.050; -609.000; -530.000
330.909;  -43.975; -434.000; -244.000
331.044;  -96.600; -714.000; -708.000
331.179; -168.125;-1217.000;-1109.000
331.315;   -5.950;   77.000;   20.000
331.450;   21.675;  157.000;  285.000
331.585;  -98.325; -805.000; -706.000
331.720;  -86.950; -510.000; -460.000
331.855;    0.725;  -35.000; -102.000
331.990;  420.325;   62.000;  138.000
332.126;  221.475; -110.000;   71.000
332.261;    2.500; -379.000; -265.000
332.396;   35.675; -135.000; -242.000
332.531;  -52.450;-1074.000;-1031.000
332.666;  100.125; -519.000; -363.000
332.801; -107.650; -726.000; -807.000
332.936;  -18.075; -192.000; -122.000
333.071; -125.200; -870.000; -817.000
333.206;   11.725;  307.000;  379.000
333.341;   24.650;  344.000;  418.000
333.476;  -73.325; -627.000; -623.000
333.611;  -37.075; -251.000; -173.000
333.746;  -48.900; -381.000; -464.000
333.881; -105.700; -973.000; -935.000
334.016; -126.000; -936.000; -917.000
334.151; -113.800; -746.000; -702.000
334.286;    9.500;  152.000;  186.000
334.421;  -15.450; -125.000; -178.000
334.556;  -70.625; -611.000; -567.000
334.690;  -71.025; -631.000; -577.000
334.825;   65.075;  381.000;   83.000
334.960;  -48.675; -285.000; -413.000
335.095;   16.950;  135.000;  -91.000
335.230;  -94.150; -722.000; -738.000
335.365; -118.425;-1084.000; -990.000
335.499; -123.300;-1108.000;-1037.000
335.634;   28.800;    9.000;  534.000
335.769;  -85.200; -755.000; -720.000
335.904;  -36.200; -603.000; -561.000
336.038;  -29.450; -735.000; -657.000
336.173;  -95.700;-1206.000;-1194.000
336.308;   33.750; -116.000; -189.000
336.443;   80.950; -544.000; -634.000
336.577;  -33.425; -936.000; -787.000
336.712;   92.975;   -4.000;  -12.000
336.847;   -8.550; -724.000; -607.000
336.981;   80.500; -272.000; -208.000
337.116;  346.125;  615.000;  501.000
337.250;  158.325; -434.000; -421.000
337.385;  457.025; -297.000; -208.000
337.520;  225.800; -632.000; -603.000
337.654;  -34.600; -215.000; -126.000
337.789; -125.000; -989.000; -933.000
337.923;  -47.225; -104.000; -205.000
338.058; -104.600; -673.000; -738.000
338.192;  -61.200; -611.000; -488.000
338.327;   -2.525;  -18.000; -155.000
338.461;  -69.275; -299.000; -469.000
338.596; -104.875; -780.000; -638.000
338.730; -102.300; -767.000; -803.000
338.865;  160.175;  -46.000; -140.000
338.999;    9.225; -846.000; -702.000
339.134;   -3.475; -634.000; -536.000
339.268;   33.975; -741.000; -603.000
339.403;  563.475; -740.000; -775.000
339.537;  264.100; -894.000; -820.000
339.671;  -82.100; -829.000; -813.000
339.806;  -37.625; -556.000; -512.000
339.940;   31.250; -261.000; -235.000
340.074;  -97.975; -685.000; -510.000
340.209;  -60.800; -351.000; -230.000
340.343;  -87.000; -517.000; -573.000
340.477;  141.450;  998.000; 1036.000
340.612;    7.200;-1033.000; -900.000
340.746;  230.400; -199.000; -243.000
340.880;  -91.450; -924.000; -785.000
341.014;  -23.075;  -45.000; -154.000
341.149; -121.875; -756.000; -718.000
341.283; -123.225; -839.000; -754.000
341.417; -128.950;-1124.000; -938.000
341.551;  -32.950; -768.000; -708.000
341.685;  -70.000; -633.000; -611.000
341.820;  -62.975; -562.000; -493.000
341.954;  -57.225; -218.000; -349.000
342.088; -143.950;-1102.000;-1019.000
342.222;   43.425;  565.000;  618.000
342.356;  -80.075; -395.000; -335.000
342.490; -120.850; -880.000; -841.000
342.624;  -42.800; -339.000; -242.000
342.758;  -43.075; -364.000; -312.000
342.892;  -82.325; -710.000; -585.000
343.026;  -42.800;  -58.000; -116.000
343.160;  -69.850; -426.000; -376.000
343.294;  -83.375; -474.000; -337.000
343.428;  -61.750; -488.000; -448.000
343.562;  -35.125; -172.000;  -23.000
343.696;  -47.675; -385.000; -314.000
343.830;  -56.575; -362.000; -356.000
343.964;  -19.350; -231.000; -168.000
344.098;  332.000;  199.000;   70.000
344.232;  282.550; -266.000; -127.000
344.366;   83.000; -567.000; -453.000
344.500;  -46.700; -665.000; -744.000
344.634;  -42.550; -324.000; -164.000
344.768;  -52.750; -531.000; -341.000
344.902;    0.900;  278.000;  256.000
345.035;  -76.475; -556.000; -496.000
345.169; -130.725; -933.000; -656.000
345.303;  -47.775; -308.000; -482.000
345.437; -118.675; -826.000; -717.000
345.571;  -51.700; -675.000; -594.000
345.704;  -73.875; -309.000; -532.000
345.838;  -15.750; -331.000; -284.000
345.972;  -55.325; -543.000; -495.000
346.106;  243.900; -179.000; -190.000
346.239;  474.775; -312.000; -243.000
346.373;    3.225; -343.000; -302.000
346.507; -140.100; -950.000; -962.000
346.640;   34.475;  -30.000;   13.000
346.774;  -88.800; -650.000; -797.000
346.908;  -18.350; -138.000;  -11.000
347.041;  -92.000; -646.000; -593.000
347.175;   -2.600;  259.000;   27.000
347.309; -107.975; -698.000; -628.000
347.442; -139.125; -883.000; -732.000
347.576;  116.375;  670.000;  668.000
347.709;   57.675; -123.000;  -52.000
347.843; -111.175; -933.000; -825.000
347.976;   23.600;  235.000;  294.000
348.110; -183.600;-1268.000;-1186.000
348.243; -100.750; -679.000; -772.000
348.377;   -2.225;  -26.000;   60.000
348.510;   50.000;  403.000;  540.000
348.644;  -48.275;  -37.000; -159.000
348.777;   -9.350;  180.000;  191.000
348.911;  -54.700; -142.000; -112.000
349.044;   92.250;  471.000;  448.000
349.178;  -35.350;-1069.000;-1006.000
349.311;  111.425;  141.000;  255.000
349.444;   45.475; -927.000; -813.000
349.578;  -28.575; -347.000; -200.000
349.711; -137.100; -959.000; -862.000
349.845;  -66.675; -661.000; -591.000
349.978; -167.500;-1224.000;-1137.000
350.111;  -84.775; -546.000; -612.000
350.244; -109.700; -596.000; -700.000
350.378;  -54.750; -392.000; -393.000
350.511;  -78.150; -393.000; -426.000
350.644; -102.925; -808.000; -806.000
350.778;   20.575;  168.000;  104.000
350.911;    3.650;  134.000;  140.000
351.044;  -98.550; -685.000; -615.000
351.177;  -36.650; -321.000; -281.000
351.310;  -20.950;    3.000; -131.000
351.444; -104.125; -888.000; -788.000
351.577;   47.500;  140.000;   90.000
351.710;   87.500;  593.000;  417.000
351.843;  -41.575; -165.000;  -77.000
351.976;  -10.550;  149.000;  -79.000
352.109; -104.275; -621.000; -612.000
352.242;  -46.900; -464.000; -419.000
352.376;  -81.850; -580.000; -636.000
352.509;    6.450; -437.000; -356.000
352.642;  -80.950; -654.000; -604.000
352.775;    1.025; -141.000;  -98.000
352.908; -125.700; -933.000; -904.000
353.041;  -94.700; -814.000; -824.000
353.174;  -61.250; -551.000; -424.000
353.307;  -99.675; -753.000; -764.000
353.440;   59.450;  541.000;  453.000
353.573;  -79.550; -957.000;-1008.000
353.706;  -28.650; -384.000; -558.000
353.839;  -38.175; -264.000; -220.000
353.971; -100.200; -657.000; -512.000
354.104;  -93.200; -896.000; -835.000
354.237;  -66.825; -627.000; -662.000
354.370;  -94.100; -846.000; -879.000
354.503; -166.825;-1231.000;-1308.000
354.636;  -25.775; -529.000; -348.000
354.769; -128.975; -937.000; -860.000
354.902;  -25.775; -230.000; -139.000
355.034;  -17.000; -164.000; -220.000
355.167;  -11.550; -262.000; -162.000
355.300;  -61.625;-1061.000; -880.000
355.433; 1452.700;  -71.000;  -14.000
355.565; 2254.025; -402.000; -384.000
355.698;  584.250; -356.000; -296.000
355.831;   -2.275; -882.000; -801.000
355.964;   33.975; -285.000; -170.000
356.096;  -70.550; -856.000; -843.000
356.229;    8.300; -523.000; -530.000
356.362;  505.925; -373.000; -266.000
356.494;  932.225; -229.000; -162.000
356.627;  344.250;  269.000;  377.000
356.760;  890.550;  120.000;   53.000
356.892; 1492.025; -286.000; -601.000
357.025;  361.075;  403.000;  389.000
357.157;  239.125; -167.000; -179.000
357.290; 1189.525; -856.000; -713.000
357.423;  383.850; -667.000; -556.000
357.555;  128.925; -217.000; -228.000
357.688;  158.900; -483.000; -364.000
357.820;  189.175; -870.000; -877.000
357.953; 1647.550; -563.000; -589.000
358.085;  260.750; -632.000; -612.000
358.218;  159.475;-1131.000; -932.000
358.350;   40.825;  -58.000;  312.000
358.483; -169.550;-1300.000;-1187.000
358.615; -113.050;-1182.000;-1078.000
358.747; -143.800;-1187.000;-1058.000
358.880;  -47.475; -810.000; -744.000
359.012;  -26.175; -376.000; -202.000
359.145;  -45.200; -480.000; -511.000
359.277;  -39.525; -962.000; -913.000
359.409; 1382.100;  536.000;  231.000
359.542;  294.525; -738.000; -688.000
359.674;   10.100;   46.000;   13.000
359.806;  -79.275; -565.000; -438.000
359.939;  -40.500; -617.000; -516.000
360.071;   28.700; -583.000; -579.000
360.203;  -45.875; -411.000; -364.000
360.335;   33.500;  164.000;  -16.000
360.468;  102.775; -249.000; -307.000
360.600; 1388.750; -547.000; -454.000
360.732; 4184.500; -546.000; -423.000
360.864;  622.650;-1216.000;-1044.000
360.996;   81.425; -516.000; -554.000
361.129;  -38.525; -389.000; -598.000
361.261;   -3.350;  110.000; -113.000
361.393;  -62.625; -252.000; -214.000
361.525;   -3.750;   94.000;  244.000
361.657; -111.100; -821.000; -703.000
361.789;  -18.250; -139.000; -155.000
361.921;  -42.650; -642.000; -593.000
362.053;   98.025;  524.000;  541.000
362.185;    0.625;  288.000;   72.000
362.318; -103.650; -709.000; -705.000
362.450;   33.300;  294.000;  444.000
362.582;  -80.550; -913.000; -870.000
362.714;  -60.900; -353.000; -332.000
362.846;  -87.250; -606.000; -490.000
362.978; -141.875; -941.000; -811.000
363.109;  -31.625; -161.000; -260.000
363.241;  164.075; -739.000; -749.000
363.373;  631.100; -649.000; -564.000
363.505; 1013.050; -186.000;  -91.000
363.637;  249.925; -787.000; -601.000
363.769; -131.300;-1067.000;-1080.000
363.901;  -74.600; -596.000; -654.000
364.033; -149.950;-1103.000;-1062.000
364.165;  -37.725; -283.000; -283.000
364.296;   97.975; -316.000; -177.000
364.428;  194.050;-1344.000;-1220.000
364.560;  -66.325; -679.000; -661.000
364.692;  -75.050; -738.000; -835.000
364.824;   -0.625; -588.000; -456.000
364.955;  478.850; -402.000; -564.000
365.087; 1642.850;-1097.000; -852.000
365.219;  109.225; -686.000; -816.000
365.351;  -84.600; -526.000; -572.000
365.482;   21.300;  300.000;  240.000
365.614;  -59.875; -402.000; -314.000
365.746; -105.475; -729.000; -752.000
365.877;  -93.850; -706.000; -672.000
366.009;  418.900;  -35.000;  -62.000
366.141;  -47.950;-1249.000;-1134.000
366.272; -118.750; -803.000; -719.000
366.404; -124.100;-1005.000; -874.000
366.535;   -8.925; -139.000;  -12.000
366.667; -108.975; -644.000; -649.000
366.799;   34.575;  353.000;  203.000
366.930; -139.750; -862.000; -996.000
367.062;  201.300; -639.000; -613.000
367.193;  358.600; -872.000; -842.000
367.325;  -47.125; -580.000; -684.000
367.456;    5.725; -246.000;   31.000
367.588;  247.600; -371.000; -318.000
367.719;   38.050;  -44.000;  -45.000
367.851;  -46.250; -222.000; -241.000
367.982; -113.475; -875.000; -732.000
368.113;  -13.025; -475.000; -358.000
368.245; -142.175; -960.000; -841.000
368.376;  -48.125; -254.000; -302.000
368.508;  -47.225; -188.000; -263.000
368.639; -159.150;-1166.000;-1034.000
368.770;  -75.075; -670.000; -589.000
368.902; -124.050; -836.000; -926.000
369.033; -123.750; -906.000; -855.000
369.164;  -34.025; -720.000; -653.000
369.296; -101.975; -452.000; -601.000
369.427;  -34.200; -209.000; -144.000
369.558;  -73.650; -593.000; -377.000
369.689;  -97.300; -721.000; -569.000
369.821; -132.500; -951.000; -845.000
369.952;  -35.150;   42.000; -108.000
370.083;  -57.050; -229.000; -108.000
370.214;  -98.200; -735.000; -650.000
370.345;  -29.350;   65.000;   81.000
370.477; -112.625; -810.000; -790.000
370.608;   43.050; -328.000; -264.000
370.739; -128.050;-1233.000;-1292.000
370.870; -113.700;-1102.000; -923.000
371.001;  -23.350; -378.000; -467.000
371.132;  -89.950; -754.000; -735.000
371.263;  -27.775;  -42.000; -148.000
371.394; -141.825; -841.000; -748.000
371.525;   13.550;  345.000;  225.000
371.657; -112.675; -808.000; -670.000
371.788;   26.400;  103.000;  199.000
371.919;   22.475; -384.000; -304.000
372.050; 1387.675;  -91.000; -156.000
372.181;  427.650; -188.000; -294.000
372.311;  122.325;   42.000; -127.000
372.442;  -44.150; -457.000; -451.000
372.573;  -48.200; -444.000; -340.000
372.704; -144.825;-1008.000; -980.000
372.835;   -9.675; -228.000; -289.000
372.966;  -94.625; -646.000; -554.000
373.097;  -98.575; -575.000; -711.000
373.228;  -92.975; -717.000; -542.000
373.359;  -39.250; -824.000; -536.000
373.490;  192.025; -881.000; -727.000
373.620;  286.525;-1001.000; -803.000
373.751;  596.000; -332.000; -396.000
373.882;  246.875; -663.000; -733.000
374.013;  -13.225; -449.000; -262.000
374.143;  -76.700; -581.000; -659.000
374.274; -134.500; -987.000; -908.000
374.405;   58.725; -388.000; -276.000
374.536;  135.725; -526.000; -387.000
374.666;  328.150; -759.000; -807.000
374.797;   13.000; -817.000; -868.000
374.928;  232.025; -710.000; -560.000
375.058;  238.675; -535.000; -500.000
375.189;    6.725;  -59.000;  -93.000
375.320; -128.050; -928.000;-1034.000
375.450;  -55.925; -625.000; -616.000
375.581;  -37.625; -526.000; -436.000
375.712;  -48.950; -574.000; -250.000
375.842;   25.250; -438.000; -415.000
375.973;    9.775; -554.000; -513.000
376.103;  -91.875; -665.000; -648.000
376.234;  -94.750; -531.000; -552.000
376.364; -101.675; -944.000; -867.000
376.495;  157.125;  925.000;  529.000
376.625;  -63.825; -472.000; -485.000
376.756;  -51.325; -709.000; -678.000
376.886; -132.275;-1178.000;-1026.000
377.017;  128.075;-1048.000;-1061.000
377.147;  654.200; -786.000; -782.000
377.278;   81.325;  174.000;  228.000
377.408; -127.700; -801.000; -815.000
377.538;  -99.175; -707.000; -693.000
377.669;  -93.650; -537.000; -613.000
377.799; -116.675; -645.000; -635.000
377.929;  -82.350; -610.000; -428.000
378.060; -129.600; -781.000; -847.000
378.190;  -45.200; -726.000; -531.000
378.320;  -51.475; -401.000; -406.000
378.451;  -20.725; -131.000;  -22.000
378.581;  -19.375;  -67.000; -110.000
378.711;   98.000; 1035.000;  866.000
378.841;  -63.625; -533.000; -675.000
378.972; -113.550; -871.000; -751.000
379.102;  -67.375; -652.000; -579.000
379.232;  -42.575; -126.000;  -73.000
379.362; -128.875;-1001.000; -885.000
379.492;  -63.500; -373.000; -424.000
379.623;   41.675;    0.000;  111.000
379.753; -123.425;-1107.000; -974.000
379.883;   86.825;   59.000;  156.000
380.013;  -68.350;-1081.000;-1017.000
380.143; -120.125;-1097.000;-1056.000
380.273; -102.300; -985.000; -861.000
380.403;   19.550; -344.000; -257.000
380.533;  -36.750; -651.000; -664.000
380.663;   12.200;  173.000;  128.000
380.793; -145.450;-1027.000;-1074.000
380.923;  -43.025; -103.000;  -34.000
381.053; -102.050; -613.000; -623.000
381.183;  -56.000; -106.000; -248.000
381.313;  -75.000; -656.000; -470.000
381.443;  -42.850; -692.000; -473.000
381.573;  -29.600; -402.000; -409.000
381.703;  -70.625;-1249.000;-1095.000
381.833; -183.200;-1454.000;-1336.000
381.963;   26.850; -134.000;  -87.000
382.093;  423.475; -925.000; -909.000
382.223;  105.850; -713.000; -602.000
382.353;  -90.450; -801.000; -608.000
382.482;   23.075;-1091.000; -964.000
382.612;  214.375; -872.000; -644.000
382.742;   99.150; -695.000; -622.000
382.872;   -7.900; -565.000; -551.000
383.002;   16.675;  347.000; -132.000
383.131;  -38.400; -226.000; -160.000
383.261;  -44.025; -706.000; -768.000
383.391;  312.450; -552.000; -377.000
383.521; 4966.425;  451.000;  263.000
383.650; 1487.725; -947.000; -904.000
383.780;   37.100; -783.000; -656.000
383.910;   89.675;  880.000;  802.000
384.039;  -75.875; -794.000; -656.000
384.169;  -86.650;-1205.000;-1017.000
384.299;  -83.075; -650.000; -662.000
384.428; -126.275; -764.000; -680.000
384.558;  -70.100; -308.000; -275.000
384.687;  -64.725; -414.000; -334.000
384.817;  -13.075;   75.000;   -2.000
384.947;  -35.025; -234.000; -141.000
385.076;  160.125;  982.000;  912.000
385.206;   48.125;  369.000;  480.000
385.335;  -63.225; -549.000; -417.000
385.465; -103.000; -655.000; -663.000
385.594;    7.475;  -53.000;  -44.000
385.724;   53.350; -868.000; -838.000
385.853;    0.175; -296.000; -270.000
385.982;  391.625; -743.000; -787.000
386.112;  736.350;-1052.000; -871.000
386.241;   -0.550; -307.000; -312.000
386.371;   -9.950; -174.000;  -87.000
386.500;  -64.525; -825.000; -789.000
386.629;  -11.575; -874.000; -817.000
386.759;   87.375;  -43.000;   68.000
386.888;  -20.725; -170.000; -250.000
387.017; -101.425; -648.000; -620.000
387.147; -113.875; -771.000; -798.000
387.276;  -59.425; -410.000; -397.000
387.405;  -36.125; -398.000; -342.000
387.535;  -60.375; -452.000; -361.000
387.664;  -66.975; -692.000; -620.000
387.793;   -7.900; -198.000; -113.000
387.922;  154.325;  255.000;  200.000
388.052;  -60.575; -576.000; -423.000
388.181;  -48.275; -342.000; -472.000
388.310;  -88.550; -889.000; -710.000
388.439; -101.325; -749.000; -742.000
388.568;   55.250;  365.000;  244.000
388.697;  312.250; -756.000; -653.000
388.826;   11.175; -768.000; -666.000
388.956;  -45.325; -285.000; -307.000
389.085;  -59.200; -347.000; -287.000
389.214; -121.500; -842.000; -872.000
389.343;  -78.100; -645.000; -413.000
389.472;  564.100;  126.000;  149.000
389.601;  627.950;   91.000;    0.000
389.730;  -31.025; -568.000; -687.000
389.859;   14.725;  226.000;   46.000
389.988;   36.975; -423.000; -408.000
390.117;   51.725; -168.000; -146.000
390.246;  -52.675; -331.000; -320.000
390.375;  -48.975; -673.000; -626.000
390.504;  -80.225; -703.000; -621.000
390.633; -121.900; -672.000; -726.000
390.761; -100.225; -732.000; -645.000
390.890;  -34.975;   -4.000; -130.000
391.019;  -94.000; -421.000; -441.000
391.148; -122.900; -826.000; -855.000
391.277;  -91.525; -576.000; -493.000
391.406; -119.250; -821.000; -805.000
391.534;    6.625;  574.000; -301.000
391.663;  -99.025; -583.000; -645.000
391.792; -105.850; -673.000; -701.000
391.921;   -9.625;   -3.000;   15.000
392.050;   -6.200; -287.000; -228.000
392.178; -137.050;-1206.000;-1061.000
392.307;  -19.425; -758.000; -712.000
392.436;  -47.175; -427.000; -641.000
392.564;  -10.500;  166.000;   -6.000
392.693; -107.800; -860.000; -682.000
392.822;   17.950; -529.000; -534.000
392.950;  -44.375; -880.000; -714.000
393.079;   68.875; -188.000; -328.000
393.208;  -60.625; -488.000; -511.000
393.336;  -21.225; -170.000; -145.000
393.465;  -67.900; -317.000; -199.000
393.593;   -3.675;   62.000;   79.000
393.722; -154.525;-1121.000; -916.000
393.850;  -34.925; -188.000;  -61.000
393.979; -143.600; -926.000; -805.000
394.107;  -63.225; -517.000; -537.000
394.236;  -57.925; -570.000; -507.000
394.364;  113.200;  383.000;  206.000
394.493;   81.925; -911.000; -767.000
394.621;  -12.675; -955.000; -916.000
394.750; 1159.525; -873.000; -923.000
394.878; 4492.600; -247.000; -149.000
395.007; 6441.525; -721.000; -807.000
395.135;  559.325; -790.000; -721.000
395.263;  -65.100;-1038.000;-1040.000
395.392;   -5.025;  -25.000; -107.000
395.520; -128.400; -818.000; -679.000
395.648; -128.950; -865.000; -915.000
395.777;  -63.250; -366.000; -405.000
395.905;  -85.800; -449.000; -564.000
396.033;  -19.750;  217.000;  172.000
396.162;  118.925; -399.000; -453.000
396.290;  141.350;  -17.000;   -2.000
396.418;  -54.125; -555.000; -514.000
396.546; -112.125; -571.000; -466.000
396.674; -130.950; -850.000; -878.000
396.803;  -36.150;  -72.000;  -23.000
396.931;  -17.025; -179.000; -199.000
397.059; -129.775;-1026.000; -989.000
397.187; -150.625;-1026.000; -975.000
397.315; -146.025; -884.000; -649.000
397.443; -104.025; -592.000; -443.000
397.572; -102.600; -578.000; -424.000
397.700;  -98.650; -607.000; -614.000
397.828;  -38.575;  120.000;  -90.000
397.956;  -37.775; -508.000; -478.000
398.084;  -27.725; -767.000; -626.000
398.212;   -0.675;  137.000;  124.000
398.340;  -17.950;  -56.000;  159.000
398.468;  -49.675; -390.000; -169.000
398.596; -147.250; -993.000; -953.000
398.724; -122.225; -762.000; -767.000
398.852; -166.325;-1024.000; -976.000
398.980;  -90.850; -560.000; -560.000
399.108;  -93.725; -982.000; -735.000
399.236;  -21.100;   13.000;    8.000
399.363;   -6.075;  222.000;  196.000
399.491;  -73.675; -404.000; -398.000
399.619; -127.550; -829.000; -800.000
399.747; -108.175; -859.000; -771.000
399.875;   37.900;  220.000;  234.000
400.003;  -59.000; -359.000; -284.000
400.130;  -90.825; -421.000; -341.000
400.258;  -38.975;  -83.000;   38.000
400.386;  -73.650; -352.000; -168.000
400.514;  -92.850; -526.000; -587.000
400.641; -141.475; -928.000; -802.000
400.769; -152.100; -979.000; -888.000
400.897; -131.550; -838.000; -793.000
401.025;  -43.475; -166.000; -152.000
401.152;  -15.300;  220.000;   38.000
401.280;  -73.075; -430.000; -429.000
401.408; -116.700; -712.000; -576.000
401.535; -116.600; -735.000; -758.000
401.663; -183.725;-1134.000;-1054.000
401.790;  -92.925; -514.000; -525.000
401.918;   26.625;  436.000;  405.000
402.046;  -17.900;  134.000;  122.000
402.173;  -43.300;  -18.000;    7.000
402.301;  -78.675; -519.000; -397.000
402.428;   23.825;  528.000;  383.000
402.556; -159.625;-1188.000; -913.000
402.683;  -36.750;  -20.000;   -1.000
402.811;  -24.025;  -37.000; -206.000
402.938;  -15.325;   20.000;   27.000
403.066;   -2.750; -574.000; -558.000
403.193;  113.275;  299.000;  239.000
403.321;   62.100; -396.000; -574.000
403.448;  128.325;   83.000;   27.000
403.575;   41.825;  -90.000;  -46.000
403.703; -119.375; -732.000; -557.000
403.830;  -53.475; -531.000; -496.000
403.957; -124.475;-1117.000;-1023.000
404.085;   16.700;  -61.000; -172.000
404.212;   96.700;  -50.000;   63.000
404.339;  439.375; -566.000; -306.000
404.467; 8948.625; -612.000; -524.000
404.594; 5416.700; -287.000; -227.000
404.721;  915.850; -869.000; -764.000
404.848;   91.700; -113.000; -202.000
404.976;  -94.700; -856.000; -783.000
405.103;  -12.975;  -14.000;  -82.000
405.230;   -9.150;  190.000;  226.000
405.357;   36.300;  117.000;   44.000
405.484;  404.450;  -49.000;    5.000
405.612;  107.625; -548.000; -563.000
405.739;  -50.775; -488.000; -243.000
405.866;   69.275;  669.000;  385.000
405.993;  -53.625; -398.000; -102.000
406.120; -141.100; -801.000; -887.000
406.247;  -83.400; -323.000; -342.000
406.374;  102.625;  540.000;  629.000
406.501;  -76.600; -632.000; -702.000
406.628; -100.375; -621.000; -589.000
406.755; -127.025; -803.000; -620.000
406.882;  -58.600; -228.000; -277.000
407.009; -120.700; -719.000; -628.000
407.136;  -52.375; -480.000; -401.000
407.263;  -57.150; -939.000; -829.000
407.390;  -98.025; -692.000; -614.000
407.517; -181.050;-1139.000;-1187.000
407.644;  -69.100; -332.000; -256.000
407.771;  -72.375; -249.000; -287.000
407.898;  -15.700;  168.000;  328.000
408.025;  -85.625; -421.000; -313.000
408.151;   -4.875;   82.000;  153.000
408.278;  -74.950; -267.000; -216.000
408.405; -137.850; -931.000; -899.000
408.532; -106.200; -549.000; -542.000
408.659; -114.650; -677.000; -648.000
408.785; -194.575;-1298.000;-1170.000
408.912;  -67.300; -412.000; -296.000
409.039; -115.750; -610.000; -686.000
409.166;  -96.625; -591.000; -555.000
409.292; -116.925; -571.000; -534.000
409.419; -114.400; -665.000; -649.000
409.546;  -97.525; -431.000; -192.000
409.672;  -97.875; -713.000; -545.000
409.799;  -34.850;  -36.000;   34.000
409.926;  -52.775; -180.000; -179.000
410.052; -169.775;-1127.000;-1091.000
410.179;  -81.400; -368.000; -392.000
410.305; -100.900; -375.000; -493.000
410.432;  -42.275; -220.000; -333.000
410.558;  -93.675; -305.000; -380.000
410.685; -109.225; -688.000; -431.000
410.812; -117.000; -409.000; -588.000
410.938; -139.825; -964.000; -808.000
411.065; -118.075; -671.000; -645.000
411.191;  -41.050; -189.000; -174.000
411.317; -145.400; -823.000; -742.000
411.444;  -61.825; -317.000; -246.000
411.570;  -76.500; -339.000; -294.000
411.697; -138.675; -758.000; -752.000
411.823; -172.625; -989.000; -999.000
411.949;  -45.075;  -56.000;   17.000
412.076; -124.500; -539.000; -519.000
412.202; -129.225; -758.000; -757.000
412.329; -134.475; -798.000; -752.000
412.455; -119.625; -821.000; -657.000
412.581;  -32.175;  -15.000;  172.000
412.707;  -99.675; -540.000; -457.000
412.834;   -6.175;  156.000;  219.000
412.960; -103.725; -785.000; -784.000
413.086; -106.200; -743.000; -701.000
413.212;  112.725;  604.000;  578.000
413.339; -112.750; -685.000; -701.000
413.465;  -48.600; -364.000; -310.000
413.591; -113.300; -757.000; -474.000
413.717;  -58.525; -358.000; -366.000
413.843; -138.875; -839.000; -861.000
413.969;  -49.525;  -47.000; -292.000
414.096;  -97.200; -679.000; -679.000
414.222;    0.075;  -33.000;   85.000
414.348;  -86.675; -652.000; -385.000
414.474;   13.450;   38.000;  -52.000
414.600;  -29.175; -126.000; -144.000
414.726;  -15.450;  -96.000;  -55.000
414.852;  -43.150; -365.000; -342.000
414.978;   46.325;  104.000;  -18.000
415.104;   50.625;   38.000;   80.000
415.230;   25.800; -329.000; -330.000
415.356;   59.125; -409.000; -514.000
415.482;  231.125;   13.000;  -35.000
415.608;  398.625; -247.000; -323.000
415.734; 1341.925;   67.000;   38.000
415.860;27770.650; -875.000; -767.000
415.986;22494.875; -685.000; -607.000
416.111; 2088.450; -798.000; -652.000
416.237;  464.825; -424.000; -571.000
416.363; 1648.100; -765.000; -733.000
416.489; 6720.400; -324.000; -251.000
416.615;  897.300; -707.000; -742.000
416.741;   51.500; -677.000; -784.000
416.866;  -78.200; -673.000; -736.000
416.992; -103.225; -801.000; -818.000
417.118;  -22.775;  -41.000;  -80.000
417.244;  -76.825; -798.000; -531.000
417.369;  -74.925; -801.000; -612.000
417.495;  -20.300; -325.000; -254.000
417.621;  -99.925;-1015.000; -803.000
417.746;    3.425; -579.000; -572.000
417.872;   80.500; -254.000; -144.000
417.998;  119.475; -515.000; -530.000
418.123; 1563.125;-1073.000; -845.000
418.249; 8548.125; -512.000; -601.000
418.374; 1420.150; -916.000; -824.000
418.500;  218.525; -383.000; -482.000
418.626;  171.650;   70.000;  -59.000
418.751;  155.125; -549.000; -448.000
418.877;  286.300; -637.000; -643.000
419.002; 2583.700; -688.000; -560.000
419.128;19411.800; -930.000; -721.000
419.253; 5397.425; -967.000; -837.000
419.379;  728.400; -391.000; -338.000
419.504;  598.375;  325.000;  415.000
419.629;  832.725; -393.000; -212.000
419.755; 5368.950; -317.000; -254.000
419.880;34443.250;  -98.000;   67.000
420.006;17357.200; -280.000; -221.000
420.131;43174.625; -662.000; -775.000
420.256; 6877.950; -315.000; -316.000
420.382;  927.275; -665.000; -687.000
420.507;  142.475; -649.000; -778.000
420.632;   47.125; -337.000; -339.000
420.758;   50.275; -251.000; -425.000
420.883;  -90.875; -876.000; -672.000
421.008; -105.500; -775.000; -619.000
421.133;  -89.350; -509.000; -467.000
421.259;  -69.025; -325.000; -259.000
421.384; -119.400; -834.000; -693.000
421.509; -105.800;-1052.000; -862.000
421.634;  206.850; -936.000; -820.000
421.759;   92.875; -359.000; -327.000
421.885; -102.350; -717.000; -656.000
422.010;  -92.100; -673.000; -542.000
422.135; -150.375; -695.000; -727.000
422.260;   12.750;  340.000;  280.000
422.385;  -51.025;   12.000;  -98.000
422.510;   -6.025;  151.000;  -26.000
422.635;   -4.050;  -87.000;  -43.000
422.760;   -3.700; -766.000; -791.000
422.885;   19.800;  -57.000;  -80.000
423.010;  -44.875; -112.000; -169.000
423.135;  -90.800; -481.000; -561.000
423.260;  -48.325; -150.000; -245.000
423.385;   29.800;  476.000;  222.000
423.510;    1.275;   71.000;  -22.000
423.635;   21.875;  133.000;   45.000
423.760;   46.750;  383.000;  328.000
423.885;   33.850;  336.000;  391.000
424.010;  -16.175;  -68.000;  -13.000
424.135;  -17.625;    5.000;  -33.000
424.259;  -93.225; -654.000; -457.000
424.384;  -58.600; -279.000; -272.000
424.509;  -20.750; -260.000; -186.000
424.634;  -95.975; -761.000; -623.000
424.759;  -44.775; -688.000; -544.000
424.883;   -0.325; -506.000; -527.000
425.008;  197.975; -502.000; -410.000
425.133; 2854.750; -679.000; -653.000
425.258; 1539.275; -517.000; -381.000
425.382;  538.225; -867.000; -774.000
425.507; 1257.700; -487.000; -543.000
425.632;  381.450; -802.000; -663.000
425.756;  674.550; -256.000; -146.000
425.881;10052.575; -831.000; -857.000
426.006;30525.100; -604.000; -355.000
426.130; 4979.050; -696.000; -508.000
426.255;  685.000; -611.000; -491.000
426.379;  274.525; -189.000; -577.000
426.504;  508.175;  660.000;  544.000
426.629; 5705.900; -519.000; -466.000
426.753; 4431.125;   64.000;  -46.000
426.878;  543.650; -252.000; -288.000
427.002;  322.050; -651.000; -668.000
427.127; 2105.550;  -35.000; -158.000
427.251;17274.200;  372.000;  401.000
427.375; 5543.825; -191.000; -173.000
427.500; 1376.350; -616.000; -610.000
427.624;  426.600; -234.000; -400.000
427.749;   86.725; -216.000; -225.000
427.873;  -29.000; -499.000; -412.000
427.997;  -58.225; -222.000; -230.000
428.122;   49.525;  795.000;  703.000
428.246;   29.775;  433.000;  434.000
428.371; -143.100; -869.000; -773.000
428.495; -119.150; -624.000; -646.000
428.619;  -53.500; -186.000; -117.000
428.743;    0.825;   65.000;  132.000
428.868;  -76.025; -732.000; -643.000
428.992;  545.400; -219.000; -326.000
429.116;  210.100; -329.000; -357.000
429.240;  130.000;  419.000;  426.000
429.365;  -45.925; -454.000; -574.000
429.489;  -57.025; -638.000; -647.000
429.613;   32.800; -236.000; -177.000
429.737;   77.275; -563.000; -432.000
429.861;  370.450; -247.000; -133.000
429.985; 8018.075; -425.000; -305.000
430.109; 9957.150; -770.000; -908.000
430.234; 1213.775;   76.000;  -50.000
430.358;  133.975; -250.000; -160.000
430.482;  -53.275; -672.000; -564.000
430.606;  -71.425; -655.000; -375.000
430.730;  -54.800; -437.000; -388.000
430.854;  -71.625; -909.000; -835.000
430.978; -102.550; -795.000; -764.000
431.102;  -85.500; -499.000; -422.000
431.226; -113.050; -874.000; -815.000
431.350;   16.750;  345.000;  422.000
431.474;  -80.550; -661.000; -373.000
431.597; -166.600;-1060.000; -848.000
431.721;  -88.575; -276.000; -267.000
431.845; -131.500; -704.000; -472.000
431.969;  -79.150; -304.000; -349.000
432.093;  -92.650; -395.000; -317.000
432.217;  -24.750;   32.000;   82.000
432.341;  -89.025; -523.000; -518.000
432.464;   -4.375;   96.000;   40.000
432.588;  -15.350; -401.000; -329.000
432.712;    9.050;  -52.000;  -52.000
432.836;   54.400;  213.000;  263.000
432.959;   14.800; -372.000; -311.000
433.083;  167.475;   11.000;    2.000
433.207;  553.300;  285.000;  930.000
433.330; 7670.075; -391.000; -200.000
433.454;10460.700; -654.000; -638.000
433.578; 5776.075;  583.000;  278.000
433.701; 1218.450; -623.000; -675.000
433.825;  161.125; -292.000; -299.000
433.949;   45.750;   28.000;  -72.000
434.072;  -22.275; -410.000; -323.000
434.196;    2.175; -309.000; -117.000
434.319; 3537.325;25482.000;25124.000
434.443;  886.900; -656.000; -603.000
434.566; 4075.425;  281.000;   62.000
434.690;  867.975; -637.000; -383.000
434.813;  121.350; -251.000; -173.000
434.937;  -65.125; -569.000; -696.000
435.060;  -75.150; -423.000; -332.000
435.184;   -4.300; -492.000; -217.000
435.307;    8.725;  159.000;  102.000
435.431;  -21.250;  -40.000;   24.000
435.554;  -67.400; -399.000; -240.000
435.677;  -85.575; -350.000; -258.000
435.801;  -46.350;  -25.000;   49.000
435.924;  -62.075;    1.000;  -67.000
436.048; -158.750;-1019.000; -732.000
436.171;  -84.700; -240.000;  -66.000
436.294;   -9.550; -248.000; -229.000
436.417;  219.200; -963.000; -849.000
436.541;  -38.500; -814.000; -840.000
436.664;  -53.450; -242.000; -316.000
436.787;  -29.750;   13.000;  113.000
436.910; -129.875; -792.000; -422.000
437.034;  -25.500;  142.000;  143.000
437.157;   -1.950;  -11.000;    0.000
437.280;  -82.825; -392.000; -292.000
437.403; -135.925; -982.000; -869.000
437.526;   14.375; -903.000; -865.000
437.649;  528.375; -505.000; -332.000
437.772;   11.750; -692.000; -540.000
437.896;   79.525;  700.000;  544.000
438.019; -114.375; -758.000; -503.000
438.142; -100.875; -596.000; -506.000
438.265; -122.975; -639.000; -670.000
438.388;   41.975; -520.000; -410.000
438.511;  -56.325; -597.000; -394.000
438.634;  -80.350; -247.000; -125.000
438.757; -146.300; -693.000; -619.000
438.880;  -66.325;  -34.000;  -57.000
439.003; -101.350; -417.000; -437.000
439.126;  -74.875; -287.000; -167.000
439.248;  -80.675;  -98.000; -139.000
439.371;  -47.425;    9.000;  -53.000
439.494;   21.425;  510.000;  439.000
439.617;  -56.950;   65.000;  -88.000
439.740; -165.625; -968.000; -816.000
439.863; -132.575; -755.000; -595.000
439.986; -131.775; -476.000; -431.000
440.108;  -55.800; -161.000; -112.000
440.231; -169.400; -950.000; -836.000
440.354;  -44.025;  -64.000; -150.000
440.477; -111.450; -566.000; -542.000
440.599;  -90.775; -200.000; -225.000
440.722; -130.125; -709.000; -586.000
440.845;   57.800;  751.000;  928.000
440.968; -117.425; -415.000; -311.000
441.090;  -70.475; -199.000;  -33.000
441.213; -176.425;-1021.000; -825.000
441.336;  -54.750; -159.000;   -5.000
441.458; -112.600; -549.000; -396.000
441.581; -118.975; -628.000; -629.000
441.703;  -96.125; -152.000;   13.000
441.826; -113.500; -557.000; -400.000
441.948;  -50.675;   56.000;   51.000
442.071;   12.400;  555.000;  424.000
442.193; -118.925; -531.000; -485.000
442.316;    2.250;  152.000;   97.000
442.438;   62.275; -233.000;  -10.000
442.561;   55.625;  272.000;  262.000
442.683;   70.350; -809.000; -522.000
442.806;  301.500;   -8.000;   74.000
442.928;  -96.550; -859.000; -604.000
443.051;  -87.425; -577.000; -373.000
443.173;  -84.825; -341.000; -339.000
443.295;  -95.850; -263.000; -371.000
443.418;  -88.125; -321.000;  -29.000
443.540;  -39.275; -106.000;   -4.000
443.662; -140.975; -563.000; -465.000
443.785;  -18.025;  335.000;  199.000
443.907;  -86.800; -362.000; -208.000
444.029; -119.850; -767.000; -494.000
444.152; -154.500; -644.000; -554.000
444.274;  -54.725;  -18.000;  -24.000
444.396; -115.150; -461.000; -221.000
444.518; -132.325; -691.000; -454.000
444.640; -118.925; -268.000; -111.000
444.763;  -30.550;  388.000;  249.000
444.885; -117.450; -432.000; -392.000
445.007;  -38.600;   35.000;   86.000
445.129; -135.250; -610.000; -515.000
445.251; -112.175; -372.000; -439.000
445.373; -146.425; -537.000; -386.000
445.495;  -18.100;  242.000;  350.000
445.617;   51.450;  853.000;  753.000
445.739;  -77.600; -215.000;  -97.000
445.861;  -65.750; -245.000; -112.000
445.984;  -71.825; -267.000; -101.000
446.105;  -28.425; -418.000; -251.000
446.227;  131.725; -176.000;  -19.000
446.349;  -74.350; -358.000; -249.000
446.471; -130.425; -615.000; -448.000
446.593;  -95.200; -316.000;   19.000
446.715;  -42.450;  -67.000;   41.000
446.837;   56.350;  697.000;  832.000
446.959; -100.450; -457.000; -478.000
447.081; -146.775; -628.000; -518.000
447.203;   50.100;  862.000;  834.000
447.325;  -92.575; -270.000;   42.000
447.446;   -7.925;  286.000;  530.000
447.568; -163.350; -921.000; -803.000
447.690;  -89.300; -236.000; -245.000
447.812; -152.775; -798.000; -519.000
447.933;  -29.450;  155.000;  127.000
448.055;  -69.850; -306.000; -261.000
448.177;   30.275;   31.000;   79.000
448.299;  -91.750; -935.000; -727.000
448.420;  -15.100;  -25.000;  159.000
448.542;  -61.825;   -3.000;   33.000
448.664;   -8.550;  109.000;  322.000
448.785;  -48.100;  265.000;   83.000
448.907; -103.700; -614.000; -353.000
449.028; -108.900; -771.000; -471.000
449.150;   27.675;  492.000;  589.000
449.272; -178.550;-1044.000; -913.000
449.393;   33.075;  612.000;  694.000
449.515; -147.950; -634.000; -581.000
449.636;  -69.225; -264.000; -155.000
449.758;   30.800;  763.000;  622.000
449.879;  -89.725; -498.000; -396.000
450.001;  -84.150; -149.000;  -49.000
450.122;  -22.925;  -95.000;  162.000
450.244;  -19.075;   37.000;  364.000
450.365;  -68.600; -495.000; -301.000
450.486;   -7.225;   80.000;  268.000
450.608;   44.725;  393.000;  326.000
450.729;   94.575;  578.000;  645.000
450.850;   94.875; -574.000; -466.000
450.972; 1217.275; -552.000; -389.000
451.093; 7892.275;  190.000;  588.000
451.214; 4020.375; -516.000; -337.000
451.336;  683.675;  773.000;  579.000
451.457;  117.975;  264.000;  393.000
451.578;  -16.450; -118.000;  -74.000
451.699; -104.225; -546.000; -540.000
451.821;  -52.250; -284.000;  -50.000
451.942;   -0.275;  278.000;  285.000
452.063;   45.000;  228.000;  419.000
452.184;  815.950;  -54.000;  -49.000
452.305; 1728.650;  103.000;  170.000
452.427;  327.200; -549.000; -301.000
452.548;   11.650;   23.000;   79.000
452.669;  -79.750; -257.000;  -89.000
452.790;  -59.900;    3.000;  -18.000
452.911;  -22.325;  195.000;  259.000
453.032;  -67.525; -289.000;  -60.000
453.153;  -55.325;  -29.000;   81.000
453.274;   44.125;  737.000;  868.000
453.395;  -69.300;  -51.000;  175.000
453.516;   99.175; 1317.000; 1388.000
453.637;  -96.775; -205.000; -150.000
453.758;  -55.025;   15.000;   69.000
453.879; -127.425; -462.000; -250.000
454.000;   54.425; 1086.000;  948.000
454.121; -123.075; -554.000; -326.000
454.242; -110.950; -599.000; -383.000
454.362;  -56.675;  -99.000;  114.000
454.483;  -16.750; -309.000; -229.000
454.604;   68.250;  512.000;  580.000
454.725; -131.200; -627.000; -555.000
454.846; -134.875; -474.000; -406.000
454.967;  -30.000;  230.000;  539.000
455.087;  -33.825;  179.000;  153.000
455.208;   11.775;  554.000;  856.000
455.329;  -62.975;  -22.000;   82.000
455.450;   62.275;  473.000;  633.000
455.570;  -71.700; -234.000; -211.000
455.691;  -39.700;  201.000;  407.000
455.812;  -96.150; -270.000;  -92.000
455.932;  -56.225;  107.000;  -97.000
456.053;  -72.200;   36.000;   24.000
456.173; -108.575; -433.000; -355.000
456.294; -142.975; -476.000; -303.000
456.415;  -63.850;  -73.000;   70.000
456.535;  -54.525;  297.000;  273.000
456.656;  -40.875;  132.000;  240.000
456.776;  -77.375;    3.000;  298.000
456.897;  -12.200;  308.000;  513.000
457.017;  -76.175; -153.000;   -3.000
457.138;  -98.500; -402.000; -249.000
457.258;  -46.375;  263.000;  224.000
457.379;  -16.900;  509.000;  521.000
457.499;  -26.750;  443.000;  432.000
457.620; -123.025; -407.000; -231.000
457.740;  -99.350; -132.000;  -11.000
457.860;  -54.675;   87.000;   44.000
457.981;  -48.350;  132.000;  124.000
458.101;  -66.175;  -89.000;   40.000
458.221;  -21.700;  336.000;  402.000
458.342;  -58.350;   -4.000;  -37.000
458.462;   44.450;  617.000;  352.000
458.582;   21.900; -302.000; -294.000
458.703;   69.525;  303.000;  154.000
458.823;   17.050;   22.000;  163.000
458.943;   52.425;  341.000;  467.000
459.063;    7.175; 1124.000;  192.000
459.183;  -24.275;  328.000;  313.000
459.304;   -5.725;  315.000;  517.000
459.424;  -45.250; -246.000;  -89.000
459.544;  467.600;  388.000;  764.000
459.664; 1306.925;  499.000;  506.000
459.784;  506.900; 1004.000; 1175.000
459.904;   91.000;  867.000;  744.000
460.024;   45.050;  867.000;  684.000
460.144;  -20.925;  449.000;  554.000
460.264;  -15.575;  515.000;  327.000
460.385;  -88.875; -145.000; -119.000
460.505;   17.350;  905.000;  858.000
460.625; -105.150;  -17.000;  -68.000
460.745;  -17.850;  396.000;  541.000
460.864;  -48.500;  153.000;  469.000
460.984;   36.575;  499.000;  573.000
461.104;  132.850; 1656.000; 1775.000
461.224;   22.425;  657.000;  650.000
461.344;  -44.200;  431.000;  360.000
461.464;  -39.625;  258.000;  513.000
461.584;  -37.600;  283.000;  466.000
461.704;  -61.075;   58.000;  108.000
461.824;  -50.400;  238.000;  259.000
461.943;  -58.725;  191.000;  130.000
462.063;  -83.400;    2.000;  324.000
462.183;   27.900;  639.000;  717.000
462.303;   69.425; 1678.000; 1230.000
462.422;   38.925;  781.000;  840.000
462.542;  -33.075;  271.000;  391.000
462.662;   45.500;  353.000;  380.000
462.782;  342.700;  833.000;  572.000
462.901;  736.500;  545.000;  717.000
463.021;  386.500; 1702.000; 1638.000
463.141;    8.000;  337.000;  770.000
463.260;  -17.950;  614.000;  474.000
463.380;    4.900;  902.000;  884.000
463.499;  -27.075;  342.000;  332.000
463.619;  -44.200;  581.000;  559.000
463.738;   87.675; 1644.000;  903.000
463.858;    9.800;  657.000;  811.000
463.978;  -36.350;  542.000;  396.000
464.097;   52.400;  921.000; 1114.000
464.217;  145.450; 1196.000; 1143.000
464.336;  147.450; 1068.000; 1130.000
464.455;  -35.600;  328.000;  659.000
464.575;   13.700;  597.000;  602.000
464.694;  128.750; 1204.000; 1179.000
464.814;  164.425; 1190.000; 1138.000
464.933;   95.475; 1095.000; 1027.000
465.052;   77.650; 1412.000; 1054.000
465.172;   76.550;  922.000;  799.000
465.291;  124.600; 1376.000; 1320.000
465.410;   16.400;  462.000;  735.000
465.530;   69.700; 1355.000; 1310.000
465.649;   57.425; 1209.000; 1273.000
465.768;  145.275; 1673.000; 1508.000
465.888;   56.675;  941.000; 1174.000
466.007;   98.375; 1335.000; 1440.000
466.126;    9.150;  721.000;  641.000
466.245;   41.125; 1176.000; 1187.000
466.364;   25.050;  950.000; 1060.000
466.484;   38.400; 1024.000; 1213.000
466.603;   22.125; 1101.000; 1222.000
466.722;  105.500; 1490.000; 1769.000
466.841;   69.775; 1151.000; 1401.000
466.960;   49.525; 1069.000;  972.000
467.079;  118.425; 1971.000; 1786.000
467.198;   43.725; 1238.000; 1181.000
467.317;   90.175; 1768.000; 1162.000
467.436;   59.650; 1709.000; 1261.000
467.555;  118.150; 1796.000; 1746.000
467.674;   43.475; 1227.000; 1329.000
467.793;   42.850; 1376.000; 1374.000
467.912;   86.500; 1658.000; 1539.000
468.031;  128.275; 2038.000; 1930.000
468.150;  142.625; 1842.000; 1837.000
468.269;  184.600; 2313.000; 2090.000
468.388;  176.800; 2168.000; 2339.000
468.507;  244.300; 2884.000; 2903.000
468.626;  261.425; 2555.000; 2541.000
468.744;  131.950; 2018.000; 2174.000
468.863;  196.775; 2312.000; 2523.000
468.982;   80.850; 1503.000; 1555.000
469.101;  223.775; 2788.000; 2692.000
469.220;  146.325; 2333.000; 2176.000
469.338;  255.975; 2935.000; 3051.000
469.457;  201.200; 2719.000; 2545.000
469.576;  348.425; 3953.000; 3784.000
469.695;  250.450; 2877.000; 3066.000
469.813;  410.125; 4148.000; 4192.000
469.932;  396.375; 4255.000; 4485.000
470.051;  424.800; 4075.000; 4161.000
470.169; 1033.450; 4470.000; 4338.000
470.288; 2044.775; 4700.000; 4809.000
470.406; 1159.325; 5059.000; 5194.000
470.525;  660.275; 6101.000; 5787.000
470.644;  649.275; 6847.000; 6794.000
470.762;  794.250; 8397.000; 7873.000
470.881;  915.725; 8651.000; 8464.000
470.999; 1077.400; 9685.000; 9151.000
471.118; 1125.150;11174.000;10711.000

