
Integration time [ms]: 200.000
Averaging Nr. [scans]: 10
Smoothing Nr. [pixels]: 0
Data measured with spectrometer [name]: 2101012U2
Wave   ;Sample   ;Dark     ;Reference
[nm]   ;[counts] ;[counts] ;[counts] 

197.733;   88.000;  516.000;  404.000
197.879; -168.900; -610.000; -634.000
198.025; -129.400; -475.000; -420.000
198.171; -170.400; -602.000; -612.000
198.317;  -58.600; -401.000; -316.000
198.463; -138.100; -655.000; -404.000
198.609;   78.100;  181.000; -137.000
198.755; -183.300; -644.000; -410.000
198.901; -129.400; -505.000; -424.000
199.047; -119.400; -615.000; -488.000
199.193;  -84.200; -230.000; -468.000
199.339;  -82.000; -222.000; -369.000
199.485;  131.800;  330.000;  271.000
199.631;   37.800;  227.000;  310.000
199.777; -119.200; -466.000; -398.000
199.923; -123.700; -610.000; -424.000
200.069;   13.900; -141.000;  -58.000
200.215;  120.400;  128.000;  453.000
200.361;  104.700;  243.000;  477.000
200.507; -134.300; -600.000; -373.000
200.653;  -47.500; -371.000; -194.000
200.798;  -83.400; -215.000; -125.000
200.944;  -17.100; -146.000;  -41.000
201.090;   82.600;   61.000;  222.000
201.236;  -25.400; -116.000; -158.000
201.382;  270.300;  874.000;  903.000
201.528;   -2.900;  -58.000;  -48.000
201.674; -113.000; -386.000; -293.000
201.819; -145.100; -540.000; -439.000
201.965; -139.000; -699.000; -447.000
202.111;  -56.900; -273.000; -226.000
202.257;  -66.000; -250.000; -238.000
202.402;    8.500;   13.000;  -36.000
202.548;  -68.900; -169.000; -116.000
202.694;  182.600;  410.000; -183.000
202.840; -165.900; -603.000; -531.000
202.985; -145.000; -681.000; -639.000
203.131; -182.200; -832.000; -666.000
203.277;  -61.500; -199.000; -262.000
203.423; -129.700; -434.000; -520.000
203.568;  -93.800; -462.000; -237.000
203.714; -159.700; -535.000; -542.000
203.860; -154.900; -682.000; -641.000
204.005;   28.000;  112.000;  167.000
204.151;  165.200;  561.000;  556.000
204.296;  -90.600; -354.000; -221.000
204.442; -126.200; -600.000; -547.000
204.588; -174.500; -592.000; -579.000
204.733;   52.900;  178.000;  168.000
204.879; -266.500;-1018.000; -822.000
205.025;   32.400;  -99.000;  126.000
205.170;   30.600;  -17.000;   94.000
205.316;  158.300;  438.000;  661.000
205.461; -171.600; -698.000; -554.000
205.607;  173.900;  609.000;  665.000
205.752; -169.100; -626.000; -551.000
205.898; -122.000; -501.000; -391.000
206.043; -121.500; -578.000; -506.000
206.189;  -64.500; -243.000; -285.000
206.334;  173.100;  554.000;  606.000
206.480;  203.600;  409.000;  239.000
206.625; -156.800; -529.000; -552.000
206.771; -111.800; -451.000; -373.000
206.916;  -85.300; -210.000; -537.000
207.062; -132.000; -545.000; -591.000
207.207; -123.900; -546.000; -443.000
207.353;  101.900;  185.000;  460.000
207.498;   51.800;  196.000;   85.000
207.643; -120.000; -501.000; -370.000
207.789; -256.800;-1069.000; -910.000
207.934; -177.500; -665.000; -713.000
208.080;  -15.200; -154.000;   66.000
208.225;   -0.500;  -22.000;  -57.000
208.370; -155.800; -727.000; -619.000
208.516; -142.000; -741.000; -487.000
208.661;  -43.900; -127.000;  -69.000
208.806;  -27.300; -165.000; -171.000
208.952; -266.900;-1044.000; -731.000
209.097;  169.800;  378.000;  349.000
209.242;  -92.900; -307.000; -382.000
209.387;  126.000;  392.000;  350.000
209.533; -107.400; -321.000; -350.000
209.678;  160.300;  472.000;  543.000
209.823;  -83.200; -408.000; -310.000
209.969; -221.300; -860.000; -757.000
210.114; -226.400; -907.000; -719.000
210.259; -215.800; -939.000; -889.000
210.404;   -8.800; -171.000;  103.000
210.549;   39.200;  108.000;    3.000
210.695;  -38.700;   -3.000;  -95.000
210.840;   63.300;   94.000;   67.000
210.985; -137.400; -484.000; -303.000
211.130;  174.100;  268.000;  406.000
211.275;   47.700;  207.000;  199.000
211.420; -110.100; -300.000; -289.000
211.566; -144.000; -536.000; -489.000
211.711;   81.600;  218.000;  157.000
211.856; -108.700; -545.000; -519.000
212.001;    5.900;  151.000;   44.000
212.146;    1.200;  153.000;   49.000
212.291;  -36.100; -210.000; -186.000
212.436;  -72.500; -280.000;   -6.000
212.581; -193.300; -685.000; -653.000
212.726; -140.900; -487.000; -538.000
212.871;  -90.600; -552.000; -217.000
213.016; -306.900;-1172.000;-1029.000
213.161;  118.500;  406.000;  291.000
213.306; -162.200; -435.000; -577.000
213.451; -217.000; -778.000; -689.000
213.596;  -99.800; -455.000; -347.000
213.741; -107.800; -448.000; -538.000
213.886; -147.400; -498.000; -517.000
214.031;  -60.300; -294.000; -124.000
214.176; -101.500; -408.000; -341.000
214.321;  -30.400; -296.000; -157.000
214.466;  -35.700; -163.000;  -43.000
214.611;   11.300;  -61.000;  -10.000
214.756; -223.800; -948.000; -858.000
214.901;  -44.300; -388.000; -226.000
215.046; -245.100; -797.000; -825.000
215.191;   34.100;  128.000;   35.000
215.336;   -6.500; -157.000;  -19.000
215.480; -137.800; -684.000; -505.000
215.625;  -40.300; -175.000;  -19.000
215.770; -167.700; -757.000; -662.000
215.915;  -11.500;   -5.000;  -97.000
216.060;    9.900; -113.000;  -21.000
216.205; -236.300; -731.000; -779.000
216.349; -147.600; -470.000; -533.000
216.494; -261.700; -939.000; -867.000
216.639; -241.700; -823.000; -888.000
216.784; -153.200; -577.000; -525.000
216.929;  141.000;  392.000;  281.000
217.073;   -1.100; -244.000;  -31.000
217.218;   20.700;   78.000;  -47.000
217.363; -190.000; -656.000; -618.000
217.507; -155.200; -623.000; -588.000
217.652; -251.100; -845.000; -874.000
217.797; -202.000; -708.000; -659.000
217.942; -248.500; -856.000; -720.000
218.086;  128.200;  608.000;  539.000
218.231;    5.900; -174.000;  -26.000
218.376;  -71.900; -337.000; -229.000
218.520;   19.500;  -41.000;   96.000
218.665;  -35.500; -338.000; -204.000
218.810;  -63.100; -275.000; -233.000
218.954;   82.000;  201.000;   35.000
219.099; -217.000; -713.000; -963.000
219.243; -124.400; -589.000; -554.000
219.388;  -55.900; -264.000; -136.000
219.532;  -15.500; -116.000; -116.000
219.677; -147.700; -564.000; -521.000
219.822;   32.000;   33.000;   89.000
219.966;    5.500;   17.000;  -99.000
220.111;  -58.300; -328.000;  -40.000
220.255; -178.300; -797.000; -750.000
220.400;  -58.100; -180.000; -146.000
220.544; -109.700; -516.000; -450.000
220.689; -103.300; -422.000; -451.000
220.833;  -18.100; -123.000;  -58.000
220.978;  -83.400; -393.000; -563.000
221.122;   44.400;  319.000;  307.000
221.267; -233.300; -906.000; -837.000
221.411; -146.400; -478.000; -394.000
221.555;  -14.000; -104.000;  -23.000
221.700; -106.000; -329.000; -222.000
221.844;   94.200;  255.000;  272.000
221.989;  -79.500; -328.000; -311.000
222.133;  -84.500; -289.000; -307.000
222.277;  -14.200;    5.000;   78.000
222.422;   42.300;  227.000;  113.000
222.566;  -28.400; -381.000; -214.000
222.711;  -98.300; -414.000; -479.000
222.855; -169.400; -643.000; -586.000
222.999; -189.100; -642.000; -717.000
223.144;  -34.500; -195.000; -194.000
223.288;  158.600;  423.000;  251.000
223.432;   42.000;  184.000;  230.000
223.576;   47.800;  152.000;  -21.000
223.721;   89.900;  364.000;  273.000
223.865; -100.600; -472.000; -475.000
224.009;  562.700; 1673.000; 1631.000
224.153; -147.300; -660.000; -671.000
224.298; -142.000; -531.000; -489.000
224.442;  -29.400;  -74.000;  -33.000
224.586;   -7.100; -169.000; -106.000
224.730; -174.400; -858.000; -670.000
224.875; -233.400; -739.000; -688.000
225.019;    6.600;  102.000;  188.000
225.163;  116.000;  208.000;  341.000
225.307;   61.300;   97.000;  -91.000
225.451;   67.700;  360.000;  481.000
225.595;   69.600;  264.000;  176.000
225.739;  -29.600; -170.000;  -94.000
225.884;   20.100;   86.000;    5.000
226.028; -207.200; -760.000; -626.000
226.172;  -62.100; -260.000; -273.000
226.316; -264.500; -941.000; -902.000
226.460; -165.400; -645.000; -493.000
226.604; -100.200; -406.000; -400.000
226.748; -189.700; -836.000; -733.000
226.892;  -63.400; -227.000; -181.000
227.036;  -96.600; -537.000; -447.000
227.180; -127.000; -551.000; -375.000
227.324; -126.000; -561.000; -580.000
227.468; -229.900; -819.000; -717.000
227.612;   37.500;  242.000;  -28.000
227.756; -191.700; -845.000; -698.000
227.900;  146.800;  342.000;  441.000
228.044;  -84.700; -509.000; -290.000
228.188;  119.500;  448.000;  568.000
228.332; -158.700; -546.000; -472.000
228.476;  -68.300; -223.000; -149.000
228.620;  -37.200; -210.000; -150.000
228.764;  167.400;  431.000;  349.000
228.908;   -9.600; -155.000;   30.000
229.052; -120.800; -615.000; -528.000
229.195;  -15.500; -172.000;   13.000
229.339;  -35.300; -235.000; -305.000
229.483;  -56.900;    5.000; -162.000
229.627;   39.000; -156.000;  139.000
229.771;  -76.600; -218.000; -294.000
229.915;   32.000;  230.000;   79.000
230.059; -154.300; -648.000; -663.000
230.202;  -76.200; -370.000; -317.000
230.346;   12.600; -107.000;  107.000
230.490; -124.200; -489.000; -521.000
230.634; -221.000; -736.000; -553.000
230.777;  170.900;  478.000;  509.000
230.921;  -80.600; -450.000; -359.000
231.065;  -75.500; -246.000; -286.000
231.209;   73.900;  261.000;  265.000
231.352;   45.800;   54.000;   40.000
231.496;   31.200;  568.000;  188.000
231.640; -174.200; -693.000; -621.000
231.783;  148.200;  546.000;  525.000
231.927;  -82.100; -294.000; -365.000
232.071; -257.400; -962.000; -736.000
232.214; -245.600; -980.000; -764.000
232.358; -172.800; -683.000; -599.000
232.502;   35.100;  -19.000;    7.000
232.645; -281.800;-1090.000; -927.000
232.789;  -55.700; -257.000; -218.000
232.933;  -62.600; -407.000; -224.000
233.076; -272.300;-1038.000; -897.000
233.220; -199.600; -752.000; -777.000
233.363; -146.400; -669.000; -477.000
233.507;  151.900;  371.000;  129.000
233.650; -189.100; -764.000; -834.000
233.794;   97.900;  438.000;  461.000
233.938;  -92.900; -530.000; -362.000
234.081;    2.100;  -93.000;   31.000
234.225; -112.700; -631.000; -539.000
234.368; -220.500; -773.000; -723.000
234.512;  -39.400; -385.000; -299.000
234.655; -169.600; -582.000; -555.000
234.798; -126.300; -493.000; -466.000
234.942; -238.100; -884.000;-1002.000
235.085; -147.300; -651.000; -443.000
235.229; -140.300; -405.000; -410.000
235.372;  -79.600; -247.000; -191.000
235.516; -111.800; -397.000; -321.000
235.659;   51.900;   92.000;  121.000
235.802;  -18.900;  -38.000;  -22.000
235.946;   93.900;  335.000;  215.000
236.089;   76.600;  126.000;  250.000
236.233;  120.100;  275.000;  298.000
236.376;  -48.400; -235.000; -378.000
236.519;  -84.000; -297.000; -319.000
236.663;  -44.700; -215.000; -117.000
236.806; -255.300;-1029.000; -999.000
236.949;  138.400;  543.000;  431.000
237.092;  147.800;  412.000;  391.000
237.236; -174.300; -589.000; -502.000
237.379;  175.200;  352.000;  428.000
237.522; -212.300; -879.000; -768.000
237.666;  -24.100; -271.000;   18.000
237.809; -251.400; -851.000; -823.000
237.952;   88.600;  469.000;  271.000
238.095; -112.800; -447.000; -442.000
238.238;  192.900;  688.000;  700.000
238.382;   21.100;  166.000;  103.000
238.525; -134.300; -598.000; -511.000
238.668; -264.000;-1060.000; -985.000
238.811; -144.200; -638.000; -643.000
238.954; -145.000; -483.000; -334.000
239.097;  179.100;  617.000;  664.000
239.241;   99.400;  394.000;  326.000
239.384;  -56.000; -254.000; -214.000
239.527; -114.600; -424.000; -224.000
239.670; -271.400; -994.000;-1091.000
239.813; -203.300; -696.000; -658.000
239.956;  177.300;  579.000;  473.000
240.099; -220.900; -778.000; -725.000
240.242;  147.700;  428.000;  432.000
240.385;  116.700;  466.000;  450.000
240.528; -135.800; -706.000; -473.000
240.671;   50.600;  189.000;  134.000
240.814;  -83.800; -441.000; -158.000
240.957; -178.500; -767.000; -578.000
241.100; -193.900; -779.000; -755.000
241.243; -272.400;-1234.000; -893.000
241.386; -139.900; -508.000; -379.000
241.529; -196.000; -735.000; -547.000
241.672; -114.500; -566.000; -495.000
241.815; -212.400; -832.000; -808.000
241.958;  -13.300; -125.000; -182.000
242.101; -180.000; -545.000; -390.000
242.244;  -67.500; -270.000; -325.000
242.387;  -61.500; -304.000; -246.000
242.530;  155.600;  470.000;  134.000
242.673;  -74.000; -381.000; -309.000
242.815; -238.400; -925.000; -899.000
242.958; -114.000; -482.000; -381.000
243.101;   -5.100;  132.000;  187.000
243.244; -149.600; -564.000; -521.000
243.387; -104.600; -313.000; -316.000
243.530; -188.700; -657.000; -674.000
243.672;   25.100;   43.000;  -92.000
243.815; -105.600; -355.000; -283.000
243.958;   23.900;   98.000;  -26.000
244.101;   19.200;   59.000;  -16.000
244.243;    5.500;  -47.000;  101.000
244.386; -222.900; -761.000; -630.000
244.529;  -30.400; -132.000; -139.000
244.672; -303.800;-1154.000; -951.000
244.814; -201.100; -621.000; -794.000
244.957; -122.200; -380.000; -304.000
245.100; -147.100; -489.000; -489.000
245.242; -101.200; -387.000; -374.000
245.385;   34.900;  -59.000;  -39.000
245.528; -237.700; -871.000; -705.000
245.670;  223.800;  612.000;  634.000
245.813; -160.000; -599.000; -547.000
245.956;  -75.300; -324.000; -275.000
246.098; -123.100; -508.000; -650.000
246.241;   62.500;  194.000;   48.000
246.383;  -15.100; -119.000;  -73.000
246.526; -153.600; -454.000; -525.000
246.669; -238.100; -889.000; -780.000
246.811;   65.100;  172.000;   -1.000
246.954; -139.300; -512.000; -426.000
247.096;  -15.400;  -84.000;   -6.000
247.239; -131.000; -482.000; -445.000
247.381; -128.300; -647.000; -488.000
247.524;  176.300;  645.000;  679.000
247.666;   -0.400;   58.000;   11.000
247.809; -233.000; -887.000; -691.000
247.951;   22.800;  -75.000;  138.000
248.094;   72.100;  432.000;  308.000
248.236; -312.900;-1262.000;-1238.000
248.378;  -16.200; -356.000;  -81.000
248.521;  -29.500; -334.000; -337.000
248.663;  -51.500; -236.000; -267.000
248.806;  -45.600; -300.000; -266.000
248.948; -176.600; -886.000; -763.000
249.090;  -84.800; -428.000; -398.000
249.233;  -74.000; -344.000; -381.000
249.375; -120.900; -474.000; -451.000
249.518;  -31.500;  -83.000; -133.000
249.660;   -1.100; -103.000;    3.000
249.802; -317.100;-1303.000;-1189.000
249.945; -134.600; -612.000; -540.000
250.087; -198.400; -834.000; -768.000
250.229; -107.900; -362.000; -480.000
250.371; -112.000; -494.000; -439.000
250.514;  -95.400; -310.000; -244.000
250.656;  -33.400;   69.000;  102.000
250.798; -206.200; -849.000; -800.000
250.940; -123.600; -322.000; -322.000
251.083;  -52.700; -335.000; -111.000
251.225;  149.200;  338.000;  310.000
251.367;  -77.300; -274.000; -373.000
251.509;  -52.300; -265.000; -210.000
251.651; -174.200; -731.000; -671.000
251.794;  129.500;  538.000;  632.000
251.936; -207.000; -821.000; -747.000
252.078; -147.200; -540.000; -461.000
252.220; -124.100; -645.000; -477.000
252.362;  165.500;  344.000;  462.000
252.504; -131.500; -677.000; -584.000
252.646; -209.600; -875.000; -722.000
252.788;    2.900;   14.000; -128.000
252.931;  -60.100; -257.000; -253.000
253.073;  -52.300; -376.000; -317.000
253.215;   -3.200;  141.000;  122.000
253.357;  -20.600;   82.000; -153.000
253.499;  -77.100; -374.000; -234.000
253.641; -166.600; -749.000; -594.000
253.783; -188.400; -609.000; -527.000
253.925; -184.000; -586.000; -591.000
254.067; -207.700; -744.000; -667.000
254.209;  -57.300; -391.000; -259.000
254.351; -279.900; -865.000; -883.000
254.493;  -93.500; -441.000; -417.000
254.635; -194.100; -936.000; -818.000
254.777; -178.400; -752.000; -687.000
254.918; -173.900; -512.000; -430.000
255.060; -112.300; -551.000; -395.000
255.202;  -99.700; -473.000; -261.000
255.344; -141.200; -658.000; -455.000
255.486; -145.400; -471.000; -406.000
255.628; -243.700; -780.000; -781.000
255.770; -167.600; -676.000; -536.000
255.912;  -99.600; -559.000; -468.000
256.053; -167.300; -730.000; -508.000
256.195;  346.300; 1008.000;  903.000
256.337; -189.200; -861.000; -595.000
256.479;  165.100;  532.000;  416.000
256.621; -113.300; -394.000; -212.000
256.762; -204.800; -789.000; -742.000
256.904;  135.300;  485.000;  487.000
257.046;  -56.900; -381.000; -271.000
257.188;  -72.200; -351.000; -264.000
257.329; -146.700; -525.000; -464.000
257.471; -227.200; -939.000; -807.000
257.613; -106.400; -584.000; -498.000
257.755; -308.900;-1073.000; -982.000
257.896;  107.300;  286.000;  392.000
258.038; -149.100; -403.000; -352.000
258.180;  -73.600; -354.000; -279.000
258.321; -162.600; -581.000; -457.000
258.463;   17.300;  -71.000;  133.000
258.605; -187.600; -562.000; -570.000
258.746; -200.200; -886.000; -772.000
258.888; -286.900;-1026.000;-1020.000
259.029;   74.400;  121.000;   -8.000
259.171; -142.100; -614.000; -550.000
259.313;    4.300;  -49.000;  -47.000
259.454; -154.100; -536.000; -414.000
259.596;  -86.200; -483.000; -390.000
259.737; -122.100; -590.000; -474.000
259.879;  140.000;  217.000;  311.000
260.020;  229.700;  901.000;  636.000
260.162;  -72.000; -146.000; -253.000
260.303; -208.900; -768.000; -687.000
260.445; -140.600; -609.000; -613.000
260.586;   82.200;  392.000;  157.000
260.728;  -71.400; -360.000; -248.000
260.869; -138.300; -350.000; -343.000
261.011;  215.500;  706.000;  537.000
261.152; -106.000; -479.000; -319.000
261.293; -140.900; -576.000; -595.000
261.435;  -43.200; -219.000; -184.000
261.576;  -81.400; -455.000; -325.000
261.718;  153.500;  420.000;  470.000
261.859; -215.000; -940.000; -949.000
262.000; -262.100; -951.000;-1016.000
262.142;   -3.400;  -52.000;  -60.000
262.283; -189.600; -808.000; -691.000
262.424; -185.400; -666.000; -625.000
262.566; -270.800;-1161.000; -983.000
262.707; -220.900; -840.000; -830.000
262.848; -239.700; -769.000; -726.000
262.990;  -82.700; -362.000; -345.000
263.131;  176.400;  650.000;  681.000
263.272;  -15.300;  -61.000;  -41.000
263.413; -169.800; -589.000; -561.000
263.555; -130.300; -669.000; -143.000
263.696; -166.300; -550.000; -641.000
263.837; -106.700; -449.000; -551.000
263.978;   -5.600;   -5.000;  -77.000
264.119;  -76.100; -283.000; -264.000
264.261; -202.500; -847.000; -630.000
264.402;   31.400;   33.000;   40.000
264.543; -134.600; -509.000; -524.000
264.684;   28.200;   61.000;  -50.000
264.825; -138.900; -816.000; -538.000
264.966;   -5.600;  -84.000;  -67.000
265.107; -210.600; -646.000; -670.000
265.248; -222.700; -825.000; -812.000
265.390;    9.900;  152.000;   -9.000
265.531;  -17.300; -238.000; -107.000
265.672; -165.900; -557.000; -630.000
265.813;  158.700;  563.000;  439.000
265.954; -283.600; -959.000; -940.000
266.095;    1.900; -372.000; -322.000
266.236; -172.000; -686.000; -548.000
266.377;  -41.800; -243.000; -297.000
266.518; -123.400; -619.000; -547.000
266.659;  104.900;  170.000;  268.000
266.800;   26.900;   83.000;   85.000
266.941; -138.500; -487.000; -478.000
267.082;   43.000;  354.000;   99.000
267.223;  -88.800; -344.000; -273.000
267.364; -220.700; -892.000; -686.000
267.504;  -15.800;    3.000;  135.000
267.645;   -9.200;  160.000;   67.000
267.786;  -45.100; -147.000;  -86.000
267.927; -170.600; -473.000; -379.000
268.068;   -4.400; -186.000;  -61.000
268.209;  -83.700; -175.000; -413.000
268.350;  -88.400; -388.000; -532.000
268.490; -146.200; -648.000; -521.000
268.631;   79.100;  127.000;  225.000
268.772; -196.900; -874.000; -647.000
268.913;  -81.000; -328.000; -476.000
269.054;   -9.000; -117.000;   12.000
269.194;  -74.800; -418.000; -402.000
269.335; -284.000;-1137.000;-1074.000
269.476;  -10.000;   33.000;  -35.000
269.617;  -68.000; -347.000; -392.000
269.757; -164.700; -713.000; -646.000
269.898; -200.800; -856.000; -613.000
270.039; -110.700; -415.000; -405.000
270.180; -257.400; -952.000; -816.000
270.320;  -30.900; -190.000; -250.000
270.461;  -53.500; -277.000; -249.000
270.602;  -31.200; -186.000; -156.000
270.742; -230.100; -868.000; -943.000
270.883;  -97.200; -442.000; -390.000
271.023; -112.300; -358.000; -357.000
271.164; -145.000; -607.000; -528.000
271.305; -187.300; -666.000; -654.000
271.445; -183.200; -722.000; -683.000
271.586; -158.700; -462.000; -283.000
271.726;  -62.000; -397.000; -322.000
271.867; -126.400; -594.000; -534.000
272.008;  324.800; -473.000; -285.000
272.148;  275.400;  462.000;  468.000
272.289;   49.300; -113.000; -181.000
272.429;   41.700;   19.000;  185.000
272.570; -127.800; -633.000; -737.000
272.710; -193.500; -825.000; -775.000
272.851;  -50.500;  113.000; -130.000
272.991; -316.900;-1173.000;-1077.000
273.131; -151.700; -419.000; -459.000
273.272; -190.400; -683.000; -723.000
273.412;   -9.300; -143.000;  -31.000
273.553;  -94.500; -488.000; -507.000
273.693;  311.000;  913.000;  858.000
273.834; -204.700; -894.000; -692.000
273.974; -147.700; -664.000; -615.000
274.114; -174.000; -772.000; -560.000
274.255;  184.300;  414.000;  373.000
274.395;   19.400; -180.000; -125.000
274.535;  113.900;  199.000;  350.000
274.676;   51.400;  225.000;   94.000
274.816;    5.300;  110.000;   34.000
274.956; -172.300; -624.000; -690.000
275.097; -168.500;-1014.000; -922.000
275.237; -204.500; -913.000; -803.000
275.377; -175.300; -778.000; -689.000
275.517; -290.000; -878.000; -937.000
275.658; -116.600; -590.000; -555.000
275.798; -119.100; -606.000; -413.000
275.938;   54.400;  215.000;  323.000
276.078; -128.800; -626.000; -395.000
276.218;   27.000;   99.000;  104.000
276.359; -253.600;-1026.000;-1024.000
276.499; -109.200; -605.000; -446.000
276.639;  -39.700; -305.000; -151.000
276.779;  -77.400; -475.000; -357.000
276.919; -178.100; -783.000; -624.000
277.059;  -21.800; -261.000; -212.000
277.199;  -56.300; -357.000; -259.000
277.340;  141.600;  287.000;  175.000
277.480; -212.600; -840.000; -693.000
277.620;   88.500;  192.000;   16.000
277.760; -391.800;-1533.000;-1294.000
277.900;   17.300;  113.000;   33.000
278.040;   37.500;  137.000;  159.000
278.180;   78.900;  270.000;  170.000
278.320;   -0.300;   21.000;   56.000
278.460;  -99.000; -443.000; -469.000
278.600; -158.800; -708.000; -598.000
278.740;  142.500;  448.000;  224.000
278.880; -161.900; -768.000; -791.000
279.020;    0.600; -194.000; -144.000
279.160; -160.900; -672.000; -595.000
279.300; -214.700; -926.000; -873.000
279.440; -153.900; -709.000; -622.000
279.579;  -57.800;-1014.000; -929.000
279.719;  -59.000; -410.000; -394.000
279.859;  141.600;   -4.000;   41.000
279.999;   89.800; -208.000;  101.000
280.139;  -35.500; -435.000; -387.000
280.279; -168.000; -708.000; -745.000
280.419;   -8.900; -229.000; -147.000
280.559;  -53.900; -259.000; -180.000
280.698; -178.800; -790.000; -639.000
280.838; -187.300; -778.000; -800.000
280.978; -204.300; -846.000; -790.000
281.118; -173.700; -811.000; -704.000
281.257;   43.100;   24.000;    6.000
281.397; -262.100;-1094.000; -960.000
281.537; -155.700; -599.000; -712.000
281.677;    3.000; -150.000; -101.000
281.816; -170.600; -700.000; -630.000
281.956;  -47.800; -193.000; -257.000
282.096;  -96.200; -539.000; -396.000
282.235; -162.700; -672.000; -638.000
282.375;  -22.200; -243.000;  -98.000
282.515; -205.600; -715.000; -707.000
282.654;   60.900;   29.000;  106.000
282.794;   91.600;  388.000;  244.000
282.934; -115.300; -530.000; -491.000
283.073; -255.100;-1030.000; -857.000
283.213;  -90.700; -460.000; -467.000
283.353;  -51.100; -408.000; -349.000
283.492;  -37.500; -264.000; -296.000
283.632;  -55.300; -254.000; -168.000
283.771; -192.000; -859.000; -730.000
283.911;  -90.500; -369.000; -260.000
284.050; -192.600; -794.000; -748.000
284.190; -293.200;-1229.000;-1096.000
284.329; -270.000;-1055.000; -964.000
284.469; -135.700; -516.000; -591.000
284.608;  -91.800; -559.000; -598.000
284.748; -150.800; -614.000; -570.000
284.887;   12.900;  -87.000;  -20.000
285.027; -243.800; -844.000; -892.000
285.166;  -56.400; -192.000; -249.000
285.306;   44.200; -116.000;  -33.000
285.445;  -63.200; -229.000; -343.000
285.584; -197.700; -630.000; -494.000
285.724;  -65.800; -282.000; -322.000
285.863; -217.700; -857.000; -507.000
286.002;  -76.900; -366.000; -276.000
286.142; -215.900; -715.000; -622.000
286.281; -144.900; -525.000; -493.000
286.420; -133.100; -554.000; -417.000
286.560;  204.400;  653.000;  623.000
286.699; -266.100; -958.000; -912.000
286.838; -161.700; -590.000; -591.000
286.978; -153.100; -533.000; -537.000
287.117; -258.100;-1085.000; -950.000
287.256;  -31.900; -228.000; -211.000
287.395;  -94.900; -197.000; -378.000
287.535;  -65.800; -370.000; -298.000
287.674; -133.000; -509.000; -484.000
287.813;  137.900;  661.000;  533.000
287.952; -237.800;-1010.000; -871.000
288.091; -302.300;-1049.000; -915.000
288.231;   46.400;   13.000;   15.000
288.370; -334.000;-1217.000;-1200.000
288.509; -151.200; -728.000; -645.000
288.648; -162.600; -770.000; -548.000
288.787;  -19.000; -243.000;  -87.000
288.926;  -98.000; -454.000; -475.000
289.065;  255.800;  859.000;  672.000
289.204;  -84.400; -377.000; -217.000
289.344; -181.800; -791.000; -690.000
289.483;   75.500;  416.000;  304.000
289.622;  -28.300; -291.000; -149.000
289.761;   -1.500; -309.000; -166.000
289.900; -180.400; -785.000; -626.000
290.039;   18.000;  -12.000;  -95.000
290.178;  -65.600; -274.000; -180.000
290.317; -167.500; -618.000; -479.000
290.456; -123.000; -463.000; -451.000
290.595; -237.200; -961.000; -833.000
290.734; -291.100; -904.000; -891.000
290.873; -115.900; -456.000; -420.000
291.011; -224.600; -833.000; -843.000
291.150; -163.800; -770.000; -682.000
291.289;  -33.900; -343.000; -110.000
291.428; -156.500; -599.000; -480.000
291.567;  -90.500; -370.000; -442.000
291.706;    8.500;  109.000;  154.000
291.845; -148.600; -597.000; -505.000
291.984; -327.700;-1234.000;-1061.000
292.122;  176.000;  602.000;  582.000
292.261;  139.100;  620.000;  463.000
292.400;   43.200; -144.000;  211.000
292.539; -249.800; -959.000; -813.000
292.678;  -48.100; -325.000; -300.000
292.816; -274.000;-1136.000; -965.000
292.955; -180.500; -844.000; -684.000
293.094;  -13.000; -173.000; -337.000
293.233;  -95.300; -556.000; -400.000
293.371;  -42.000; -225.000;  -84.000
293.510; -198.600; -866.000; -780.000
293.649; -247.900; -959.000; -924.000
293.787; -163.800;-1083.000;-1012.000
293.926;   -6.200; -113.000;  -32.000
294.065;  -40.600; -379.000; -290.000
294.203;  138.400;  298.000;  406.000
294.342;   87.000;   74.000;  156.000
294.481;13897.200;51180.000; -836.000
294.619;  -26.900; -425.000; -582.000
294.758; -311.500;-1230.000;-1137.000
294.896;  137.500; -125.000;    5.000
295.035; -264.900;-1040.000;-1006.000
295.174; -218.900;-1082.000; -954.000
295.312;  -54.400; -323.000; -203.000
295.451;  -21.100; -307.000; -428.000
295.589; -101.300; -389.000; -518.000
295.728;   42.200; -292.000; -165.000
295.866;   63.500;  -36.000;  -51.000
296.005; -137.300; -584.000; -341.000
296.143; -112.200; -558.000; -596.000
296.282; -201.900; -957.000; -881.000
296.420; -143.800; -657.000; -557.000
296.559; -174.600; -892.000; -633.000
296.697;  -10.300; -847.000; -665.000
296.835;   43.000;-1141.000;-1002.000
296.974;   95.500;  -23.000;   39.000
297.112;   33.100; -443.000; -504.000
297.251; -140.100; -815.000; -755.000
297.389;  136.600; -576.000; -438.000
297.527;   80.900; -145.000;  -83.000
297.666;  -94.300; -486.000; -438.000
297.804;  -54.800; -404.000; -264.000
297.942;   18.700; -136.000; -161.000
298.081;   44.100; -183.000;   63.000
298.219;  141.000;  -17.000;  -19.000
298.357;   84.000; -144.000;  -71.000
298.495;    9.600; -810.000; -812.000
298.634;  172.900;  245.000;  219.000
298.772;   73.000; -220.000; -338.000
298.910;  -77.700; -309.000; -182.000
299.048;   18.800; -130.000; -153.000
299.187;  -25.100; -350.000; -250.000
299.325;   52.400;   52.000;  122.000
299.463;   88.400; -389.000; -299.000
299.601;  169.400; -327.000; -271.000
299.739; -198.900; -908.000; -883.000
299.877; -174.800; -791.000; -703.000
300.016; -152.800;-1095.000; -935.000
300.154;  277.400;  -19.000; -161.000
300.292;   95.000; -428.000; -348.000
300.430;   71.700; -408.000; -291.000
300.568; -225.700; -940.000; -874.000
300.706;  -70.400; -366.000; -469.000
300.844; -159.300;-1108.000; -979.000
300.982;  218.000;  246.000;  282.000
301.120; -202.500; -965.000; -866.000
301.258; -130.400; -812.000; -705.000
301.396;  113.400;  104.000;  -41.000
301.534;  121.500; -218.000; -293.000
301.672;  -48.800; -664.000; -521.000
301.810;   14.400; -613.000; -545.000
301.948;  244.000;   53.000;  149.000
302.086;  964.700; -250.000;  -32.000
302.224; 1499.600; -610.000; -585.000
302.362;   53.300; -558.000; -622.000
302.500;  -62.700; -923.000; -893.000
302.638;  171.300;  128.000;  245.000
302.776;    4.800; -352.000; -408.000
302.913;  121.400;  447.000;  236.000
303.051;   27.900;  -86.000;  -23.000
303.189;  145.900;   90.000;  118.000
303.327;  -56.700; -341.000; -256.000
303.465; -158.700; -832.000; -588.000
303.603; -144.000; -805.000; -604.000
303.740;  180.600;  417.000;  241.000
303.878;   -5.700; -800.000; -759.000
304.016; -154.900; -915.000; -790.000
304.154; -222.000;-1123.000;-1152.000
304.291;  -65.100; -505.000; -554.000
304.429;   52.100;  102.000;   74.000
304.567; -241.200; -908.000; -893.000
304.705;  -76.300; -408.000; -515.000
304.842;  100.800; -616.000; -540.000
304.980;  145.200;  215.000;   35.000
305.118;   78.500; -367.000; -365.000
305.255; -132.700; -945.000; -927.000
305.393;  139.500;  178.000;  239.000
305.531; -206.300;-1173.000; -956.000
305.668; -139.900; -663.000; -582.000
305.806;  161.800; -358.000; -439.000
305.943;  156.100; -629.000; -637.000
306.081;  126.100; -378.000; -267.000
306.219; -198.900; -863.000; -748.000
306.356;   69.000;  158.000;   27.000
306.494;  299.200;  981.000;  761.000
306.631;   24.200;  -11.000;  -55.000
306.769;  -14.100; -613.000; -485.000
306.906;    5.300; -284.000; -258.000
307.044; -111.100; -473.000; -488.000
307.181; -113.100; -410.000; -332.000
307.319;  138.400;  112.000;   87.000
307.456; -331.300;-1191.000;-1153.000
307.594; -184.000; -980.000; -727.000
307.731;  -12.500; -371.000; -164.000
307.868;   24.900;  -15.000;   20.000
308.006; -223.700; -961.000; -847.000
308.143; -131.200; -618.000; -330.000
308.281;  379.600;  -37.000; -254.000
308.418;    9.900; -748.000; -640.000
308.555; -104.100; -400.000; -250.000
308.693; -142.600; -577.000; -573.000
308.830; -165.400; -712.000; -657.000
308.967;   42.800; -215.000;  -95.000
309.105;  -62.700; -507.000; -396.000
309.242;  117.700; -468.000; -367.000
309.379;  730.600; -577.000; -655.000
309.517; -106.300; -936.000; -948.000
309.654; -178.000; -910.000; -734.000
309.791; -142.100; -662.000; -580.000
309.928; -204.200; -977.000; -914.000
310.065;  384.900;  819.000;  697.000
310.203;  -30.700; -825.000; -850.000
310.340;  -26.500; -465.000; -321.000
310.477; -129.900; -412.000; -516.000
310.614; -125.900; -383.000; -473.000
310.751; -122.800; -427.000; -518.000
310.889;  -35.200;    1.000;   11.000
311.026; -305.000;-1161.000; -939.000
311.163;  -66.100; -386.000; -380.000
311.300; -132.400; -512.000; -479.000
311.437; -121.600; -658.000; -619.000
311.574; -294.600;-1226.000; -985.000
311.711; -103.400; -595.000; -433.000
311.848;  -44.400; -380.000; -388.000
311.985;   65.900;  270.000;   93.000
312.122; -198.000; -932.000; -762.000
312.259; -223.300; -941.000; -994.000
312.396; -121.500; -508.000; -551.000
312.533; -149.800; -812.000; -790.000
312.670; -247.200;-1070.000; -898.000
312.807;  -55.700; -352.000; -367.000
312.944; -107.600; -513.000; -611.000
313.081;  -29.500; -150.000; -415.000
313.218; -182.500;-1111.000; -867.000
313.355;    8.100; -531.000; -449.000
313.492;   42.900; -455.000; -292.000
313.629;  334.800;  815.000;  735.000
313.766; -280.800;-1176.000;-1008.000
313.902;    6.900; -186.000;   21.000
314.039;  -57.800; -372.000; -289.000
314.176;  122.500;  286.000;  192.000
314.313; -115.100; -569.000; -473.000
314.450; -137.200; -788.000; -684.000
314.587;  -62.200; -468.000; -480.000
314.723;   35.800;  -78.000;  130.000
314.860;  110.300;  318.000;  332.000
314.997;   82.300;  223.000;  142.000
315.134;  -63.700; -385.000; -368.000
315.270;  -36.500; -480.000; -496.000
315.407; -236.700;-1094.000; -967.000
315.544;  -81.400; -657.000; -538.000
315.681; -101.400; -681.000; -565.000
315.817;   62.800; -133.000; -176.000
315.954;    8.100; -613.000; -392.000
316.091; -234.100;-1045.000;-1023.000
316.227;   11.300;  -71.000; -179.000
316.364;   26.700;   23.000;    6.000
316.500;  -61.500; -113.000; -300.000
316.637;  -48.100; -181.000; -302.000
316.774; -121.600; -625.000; -358.000
316.910; -154.800; -598.000; -629.000
317.047; -103.500; -487.000; -351.000
317.183;  -69.300; -435.000; -566.000
317.320;    9.300; -367.000; -321.000
317.456; -102.600; -733.000; -805.000
317.593; -177.800; -598.000; -641.000
317.729;    9.100;  168.000;  -67.000
317.866; -379.400;-1434.000;-1285.000
318.002; -172.300; -708.000; -948.000
318.139; -187.000; -883.000; -867.000
318.275; -191.600;-1003.000; -738.000
318.412;  -90.300; -517.000; -336.000
318.548;  -75.700; -751.000; -720.000
318.685; -185.400; -985.000; -888.000
318.821; -185.700; -762.000; -735.000
318.957;    5.200;   34.000;  -23.000
319.094;  122.700;  297.000;  154.000
319.230; -113.000; -756.000; -742.000
319.367;  185.000; -471.000; -520.000
319.503;   86.500; -538.000; -436.000
319.639; -167.200; -877.000; -793.000
319.775; -124.600; -750.000; -685.000
319.912;  -86.700; -424.000; -519.000
320.048; -160.100;-1184.000;-1184.000
320.184;  170.700;   59.000;   70.000
320.321; -113.200; -497.000; -467.000
320.457;  190.500;  475.000;  662.000
320.593; -111.400; -375.000; -382.000
320.729; -198.400; -732.000; -734.000
320.866;  -93.700; -577.000; -635.000
321.002; -148.700; -759.000; -809.000
321.138;   26.000; -135.000; -211.000
321.274;  156.600; -148.000; -115.000
321.410;  -27.300; -585.000; -353.000
321.546;  -92.900;-1011.000; -911.000
321.683;  143.100;  400.000;  185.000
321.819;   34.600;  -48.000; -117.000
321.955; -214.000; -743.000; -722.000
322.091;  -63.500; -585.000; -540.000
322.227;   -6.000; -382.000; -202.000
322.363;  -11.400; -320.000; -215.000
322.499;  -58.700; -343.000; -331.000
322.635;  353.200;  636.000;  443.000
322.771;   54.700; -139.000;   12.000
322.907;  212.800;  129.000;  327.000
323.043;  -32.800; -115.000; -206.000
323.179;  -46.900; -394.000; -363.000
323.315;   39.600; -401.000; -371.000
323.451;  149.200; -328.000; -236.000
323.587;  152.000;  -60.000;  -77.000
323.723;   17.400; -682.000; -601.000
323.859;  -19.900; -258.000;  -76.000
323.995;  -51.300; -467.000; -409.000
324.131; -210.300; -967.000; -892.000
324.267;  -51.700; -254.000; -276.000
324.402; -247.500; -960.000; -983.000
324.538;  -30.100; -279.000; -104.000
324.674;   40.400;  164.000;   77.000
324.810;  233.700;  226.000;  308.000
324.946;   -6.800; -810.000; -658.000
325.082; -106.000; -568.000; -475.000
325.217;   10.900;  -62.000;   16.000
325.353; -181.000; -764.000; -659.000
325.489; -168.100; -540.000; -506.000
325.625; -132.000; -579.000; -525.000
325.760;  184.400;  517.000;  376.000
325.896;  -19.300; -515.000; -702.000
326.032;  -58.900; -403.000; -352.000
326.168; -107.800; -462.000; -369.000
326.303;  -94.500; -352.000; -461.000
326.439;  -36.800; -336.000; -276.000
326.575;   12.000; -190.000;  -29.000
326.710;   28.000; -156.000;  -30.000
326.846;   29.600;  146.000;  103.000
326.982; -158.700; -530.000; -548.000
327.117; -108.800; -481.000; -442.000
327.253; -146.000; -745.000; -742.000
327.388; -277.900;-1137.000;-1153.000
327.524;  -78.600; -811.000; -578.000
327.659;  -15.600;  -58.000;  -22.000
327.795;    4.800;   69.000;   45.000
327.931; -153.400; -723.000; -499.000
328.066;  -36.000; -417.000; -276.000
328.202;  -36.100;   12.000; -129.000
328.337;  283.800;  957.000;  713.000
328.473;   36.400;  -12.000;  -74.000
328.608;   -2.300; -256.000; -267.000
328.743; -159.100; -799.000; -664.000
328.879;   89.600;  214.000;  114.000
329.014;  -80.600; -102.000; -122.000
329.150; -136.600; -358.000; -483.000
329.285; -105.500; -465.000; -466.000
329.421;  -81.100; -548.000; -246.000
329.556;  -18.700;  -36.000;   85.000
329.691; -149.900; -633.000; -615.000
329.827; -147.700; -626.000; -480.000
329.962;  -53.500;  131.000; -301.000
330.097; -150.900; -673.000; -585.000
330.233;  -95.600; -410.000; -223.000
330.368; -219.700; -839.000; -628.000
330.503;  -12.400;    3.000;   98.000
330.638;   -1.900;  -93.000; -125.000
330.774; -106.700; -609.000; -530.000
330.909;  -54.500; -434.000; -244.000
331.044; -167.400; -714.000; -708.000
331.179; -336.800;-1217.000;-1109.000
331.315;   56.200;   77.000;   20.000
331.450;  114.300;  157.000;  285.000
331.585; -160.800; -805.000; -706.000
331.720; -146.600; -510.000; -460.000
331.855;   15.600;  -35.000; -102.000
331.990;  596.600;   62.000;  138.000
332.126;  327.500; -110.000;   71.000
332.261;   11.400; -379.000; -265.000
332.396;   35.500; -135.000; -242.000
332.531; -157.000;-1074.000;-1031.000
332.666;  109.000; -519.000; -363.000
332.801; -179.100; -726.000; -807.000
332.936;   19.200; -192.000; -122.000
333.071; -242.100; -870.000; -817.000
333.206;   57.300;  307.000;  379.000
333.341;  125.300;  344.000;  418.000
333.476; -123.500; -627.000; -623.000
333.611;  -74.800; -251.000; -173.000
333.746;  -66.000; -381.000; -464.000
333.881; -246.000; -973.000; -935.000
334.016; -247.100; -936.000; -917.000
334.151; -226.400; -746.000; -702.000
334.286;  104.100;  152.000;  186.000
334.421;   -5.800; -125.000; -178.000
334.556; -153.800; -611.000; -567.000
334.690; -136.700; -631.000; -577.000
334.825;  171.100;  381.000;   83.000
334.960;  -86.300; -285.000; -413.000
335.095;   49.300;  135.000;  -91.000
335.230; -177.700; -722.000; -738.000
335.365; -278.900;-1084.000; -990.000
335.499; -216.800;-1108.000;-1037.000
335.634;   61.000;    9.000;  534.000
335.769; -229.100; -755.000; -720.000
335.904; -101.800; -603.000; -561.000
336.038;  -54.200; -735.000; -657.000
336.173; -220.800;-1206.000;-1194.000
336.308;   63.600; -116.000; -189.000
336.443;   57.400; -544.000; -634.000
336.577; -160.000; -936.000; -787.000
336.712;  121.500;   -4.000;  -12.000
336.847; -107.600; -724.000; -607.000
336.981;  122.700; -272.000; -208.000
337.116;  521.100;  615.000;  501.000
337.250;  237.700; -434.000; -421.000
337.385;  557.600; -297.000; -208.000
337.520;  252.000; -632.000; -603.000
337.654;  -53.100; -215.000; -126.000
337.789; -228.100; -989.000; -933.000
337.923;  -23.000; -104.000; -205.000
338.058; -141.400; -673.000; -738.000
338.192;  -67.100; -611.000; -488.000
338.327;   17.400;  -18.000; -155.000
338.461;  -98.600; -299.000; -469.000
338.596; -135.100; -780.000; -638.000
338.730; -189.500; -767.000; -803.000
338.865;  223.400;  -46.000; -140.000
338.999;  -62.300; -846.000; -702.000
339.134;   -4.100; -634.000; -536.000
339.268;   50.300; -741.000; -603.000
339.403;  769.600; -740.000; -775.000
339.537;  305.900; -894.000; -820.000
339.671; -228.500; -829.000; -813.000
339.806;  -70.900; -556.000; -512.000
339.940;   85.300; -261.000; -235.000
340.074; -167.500; -685.000; -510.000
340.209;  -92.700; -351.000; -230.000
340.343; -121.400; -517.000; -573.000
340.477;  350.500;  998.000; 1036.000
340.612;  -59.700;-1033.000; -900.000
340.746;  330.700; -199.000; -243.000
340.880; -118.300; -924.000; -785.000
341.014;   29.900;  -45.000; -154.000
341.149; -190.700; -756.000; -718.000
341.283; -187.600; -839.000; -754.000
341.417; -193.500;-1124.000; -938.000
341.551;  186.600; -768.000; -708.000
341.685;  -57.000; -633.000; -611.000
341.820;  -70.600; -562.000; -493.000
341.954;  -52.100; -218.000; -349.000
342.088; -296.000;-1102.000;-1019.000
342.222;  125.800;  565.000;  618.000
342.356; -121.300; -395.000; -335.000
342.490; -194.500; -880.000; -841.000
342.624;  -54.800; -339.000; -242.000
342.758;    7.400; -364.000; -312.000
342.892; -128.200; -710.000; -585.000
343.026;  -28.500;  -58.000; -116.000
343.160; -105.400; -426.000; -376.000
343.294; -151.800; -474.000; -337.000
343.428;  -32.800; -488.000; -448.000
343.562;   -9.300; -172.000;  -23.000
343.696;  -37.700; -385.000; -314.000
343.830;  -33.100; -362.000; -356.000
343.964;   41.200; -231.000; -168.000
344.098; 1445.100;  199.000;   70.000
344.232; 1233.500; -266.000; -127.000
344.366;  180.300; -567.000; -453.000
344.500;   60.100; -665.000; -744.000
344.634;   39.300; -324.000; -164.000
344.768;  -48.900; -531.000; -341.000
344.902;   67.200;  278.000;  256.000
345.035; -107.200; -556.000; -496.000
345.169; -263.300; -933.000; -656.000
345.303;  -27.200; -308.000; -482.000
345.437; -141.600; -826.000; -717.000
345.571;  -89.000; -675.000; -594.000
345.704;  -86.600; -309.000; -532.000
345.838;  -18.300; -331.000; -284.000
345.972;  -72.000; -543.000; -495.000
346.106;  368.200; -179.000; -190.000
346.239;  820.100; -312.000; -243.000
346.373;   25.500; -343.000; -302.000
346.507; -255.400; -950.000; -962.000
346.640;  210.100;  -30.000;   13.000
346.774;  -95.200; -650.000; -797.000
346.908;   29.700; -138.000;  -11.000
347.041; -159.700; -646.000; -593.000
347.175;   28.800;  259.000;   27.000
347.309; -142.800; -698.000; -628.000
347.442; -184.800; -883.000; -732.000
347.576;  503.300;  670.000;  668.000
347.709;  345.800; -123.000;  -52.000
347.843; -197.000; -933.000; -825.000
347.976;   92.300;  235.000;  294.000
348.110; -325.300;-1268.000;-1186.000
348.243; -152.200; -679.000; -772.000
348.377;   73.900;  -26.000;   60.000
348.510;  143.500;  403.000;  540.000
348.644;  -42.100;  -37.000; -159.000
348.777;   43.900;  180.000;  191.000
348.911;  -35.100; -142.000; -112.000
349.044;  351.400;  471.000;  448.000
349.178;  197.700;-1069.000;-1006.000
349.311;  246.500;  141.000;  255.000
349.444;   37.100; -927.000; -813.000
349.578;   12.000; -347.000; -200.000
349.711; -208.400; -959.000; -862.000
349.845;  -12.300; -661.000; -591.000
349.978; -299.100;-1224.000;-1137.000
350.111; -153.400; -546.000; -612.000
350.244; -118.400; -596.000; -700.000
350.378;   43.900; -392.000; -393.000
350.511; -103.800; -393.000; -426.000
350.644; -178.200; -808.000; -806.000
350.778;   66.100;  168.000;  104.000
350.911;   72.200;  134.000;  140.000
351.044; -138.600; -685.000; -615.000
351.177;  -40.800; -321.000; -281.000
351.310;   -2.100;    3.000; -131.000
351.444; -154.800; -888.000; -788.000
351.577;  222.200;  140.000;   90.000
351.710;  233.000;  593.000;  417.000
351.843;  -43.300; -165.000;  -77.000
351.976;   55.500;  149.000;  -79.000
352.109; -153.700; -621.000; -612.000
352.242;  -52.400; -464.000; -419.000
352.376; -121.600; -580.000; -636.000
352.509;  246.300; -437.000; -356.000
352.642;  -66.200; -654.000; -604.000
352.775;  108.000; -141.000;  -98.000
352.908; -235.600; -933.000; -904.000
353.041; -188.400; -814.000; -824.000
353.174;  -88.000; -551.000; -424.000
353.307; -150.200; -753.000; -764.000
353.440;  182.100;  541.000;  453.000
353.573; -207.600; -957.000;-1008.000
353.706;  -86.300; -384.000; -558.000
353.839;   -1.800; -264.000; -220.000
353.971; -157.500; -657.000; -512.000
354.104; -168.700; -896.000; -835.000
354.237;  -48.400; -627.000; -662.000
354.370; -159.000; -846.000; -879.000
354.503; -325.900;-1231.000;-1308.000
354.636;  -32.900; -529.000; -348.000
354.769; -253.000; -937.000; -860.000
354.902;   25.300; -230.000; -139.000
355.034;   16.000; -164.000; -220.000
355.167;    0.700; -262.000; -162.000
355.300; -156.200;-1061.000; -880.000
355.433; 2108.400;  -71.000;  -14.000
355.565; 3128.300; -402.000; -384.000
355.698;  845.200; -356.000; -296.000
355.831;   -8.000; -882.000; -801.000
355.964;  146.400; -285.000; -170.000
356.096; -163.300; -856.000; -843.000
356.229;   16.000; -523.000; -530.000
356.362;  679.800; -373.000; -266.000
356.494; 1254.600; -229.000; -162.000
356.627;  839.600;  269.000;  377.000
356.760; 1384.700;  120.000;   53.000
356.892; 2050.800; -286.000; -601.000
357.025; 1096.600;  403.000;  389.000
357.157;  981.900; -167.000; -179.000
357.290; 1469.900; -856.000; -713.000
357.423;  423.700; -667.000; -556.000
357.555;  219.500; -217.000; -228.000
357.688;  243.500; -483.000; -364.000
357.820;  680.600; -870.000; -877.000
357.953; 5782.800; -563.000; -589.000
358.085; 1195.300; -632.000; -612.000
358.218; 1586.200;-1131.000; -932.000
358.350;  324.400;  -58.000;  312.000
358.483; -241.100;-1300.000;-1187.000
358.615;  -88.400;-1182.000;-1078.000
358.747; -143.500;-1187.000;-1058.000
358.880;   19.500; -810.000; -744.000
359.012;   16.600; -376.000; -202.000
359.145;  -28.000; -480.000; -511.000
359.277;   31.900; -962.000; -913.000
359.409; 4896.500;  536.000;  231.000
359.542; 1171.100; -738.000; -688.000
359.674;  145.100;   46.000;   13.000
359.806; -116.700; -565.000; -438.000
359.939;  -28.600; -617.000; -516.000
360.071;   19.500; -583.000; -579.000
360.203;   -7.700; -411.000; -364.000
360.335;  125.000;  164.000;  -16.000
360.468;  338.200; -249.000; -307.000
360.600; 3981.700; -547.000; -454.000
360.732; 6084.100; -546.000; -423.000
360.864;  806.400;-1216.000;-1044.000
360.996;  411.800; -516.000; -554.000
361.129;   57.500; -389.000; -598.000
361.261;   45.600;  110.000; -113.000
361.393;  -16.100; -252.000; -214.000
361.525;  104.200;   94.000;  244.000
361.657;  -77.400; -821.000; -703.000
361.789;   44.000; -139.000; -155.000
361.921;  328.700; -642.000; -593.000
362.053;  447.100;  524.000;  541.000
362.185;  136.500;  288.000;   72.000
362.318; -133.900; -709.000; -705.000
362.450;  244.200;  294.000;  444.000
362.582;   78.600; -913.000; -870.000
362.714;  -48.700; -353.000; -332.000
362.846; -136.500; -606.000; -490.000
362.978; -272.500; -941.000; -811.000
363.109;   83.000; -161.000; -260.000
363.241;  692.500; -739.000; -749.000
363.373;  858.500; -649.000; -564.000
363.505; 1497.100; -186.000;  -91.000
363.637;  333.500; -787.000; -601.000
363.769; -221.700;-1067.000;-1080.000
363.901; -108.700; -596.000; -654.000
364.033; -238.900;-1103.000;-1062.000
364.165;   23.200; -283.000; -283.000
364.296;  214.000; -316.000; -177.000
364.428;  165.700;-1344.000;-1220.000
364.560; -113.500; -679.000; -661.000
364.692; -108.300; -738.000; -835.000
364.824;  366.400; -588.000; -456.000
364.955;  901.500; -402.000; -564.000
365.087; 2154.000;-1097.000; -852.000
365.219;   87.200; -686.000; -816.000
365.351; -108.800; -526.000; -572.000
365.482;  117.700;  300.000;  240.000
365.614;  -35.100; -402.000; -314.000
365.746; -163.100; -729.000; -752.000
365.877; -159.800; -706.000; -672.000
366.009;  589.900;  -35.000;  -62.000
366.141; -134.500;-1249.000;-1134.000
366.272; -166.400; -803.000; -719.000
366.404; -181.000;-1005.000; -874.000
366.535;   20.800; -139.000;  -12.000
366.667; -166.100; -644.000; -649.000
366.799;  119.200;  353.000;  203.000
366.930; -216.700; -862.000; -996.000
367.062;  297.300; -639.000; -613.000
367.193;  385.800; -872.000; -842.000
367.325; -106.000; -580.000; -684.000
367.456;   42.600; -246.000;   31.000
367.588;  380.100; -371.000; -318.000
367.719;   97.400;  -44.000;  -45.000
367.851;   -8.600; -222.000; -241.000
367.982; -142.200; -875.000; -732.000
368.113;  132.000; -475.000; -358.000
368.245; -217.400; -960.000; -841.000
368.376;  -17.500; -254.000; -302.000
368.508;  -17.600; -188.000; -263.000
368.639; -242.300;-1166.000;-1034.000
368.770;  -57.400; -670.000; -589.000
368.902; -116.400; -836.000; -926.000
369.033; -186.100; -906.000; -855.000
369.164;  -74.400; -720.000; -653.000
369.296; -154.600; -452.000; -601.000
369.427;   29.300; -209.000; -144.000
369.558;  -66.400; -593.000; -377.000
369.689; -118.400; -721.000; -569.000
369.821; -235.200; -951.000; -845.000
369.952;   24.600;   42.000; -108.000
370.083;  -41.900; -229.000; -108.000
370.214; -144.500; -735.000; -650.000
370.345;   55.600;   65.000;   81.000
370.477; -141.700; -810.000; -790.000
370.608;  333.700; -328.000; -264.000
370.739; -155.000;-1233.000;-1292.000
370.870;  -83.600;-1102.000; -923.000
371.001;  164.200; -378.000; -467.000
371.132; -145.900; -754.000; -735.000
371.263;  -12.900;  -42.000; -148.000
371.394; -198.500; -841.000; -748.000
371.525;   86.500;  345.000;  225.000
371.657; -186.400; -808.000; -670.000
371.788;  180.200;  103.000;  199.000
371.919;  245.900; -384.000; -304.000
372.050; 5671.600;  -91.000; -156.000
372.181; 1623.100; -188.000; -294.000
372.311;  587.400;   42.000; -127.000
372.442;   43.900; -457.000; -451.000
372.573;  -25.400; -444.000; -340.000
372.704; -217.200;-1008.000; -980.000
372.835;  164.600; -228.000; -289.000
372.966; -108.400; -646.000; -554.000
373.097; -128.900; -575.000; -711.000
373.228;  -59.300; -717.000; -542.000
373.359;  172.800; -824.000; -536.000
373.490; 1437.900; -881.000; -727.000
373.620; 1709.600;-1001.000; -803.000
373.751; 2690.800; -332.000; -396.000
373.882; 1178.100; -663.000; -733.000
374.013;  110.800; -449.000; -262.000
374.143;  -43.700; -581.000; -659.000
374.274; -179.000; -987.000; -908.000
374.405;  327.200; -388.000; -276.000
374.536;  683.600; -526.000; -387.000
374.666; 1643.900; -759.000; -807.000
374.797;  296.500; -817.000; -868.000
374.928; 1285.800; -710.000; -560.000
375.058; 1302.200; -535.000; -500.000
375.189;  173.900;  -59.000;  -93.000
375.320; -176.600; -928.000;-1034.000
375.450;  -62.900; -625.000; -616.000
375.581;  -80.300; -526.000; -436.000
375.712;  -23.700; -574.000; -250.000
375.842;  457.900; -438.000; -415.000
375.973;  318.500; -554.000; -513.000
376.103; -127.000; -665.000; -648.000
376.234; -157.800; -531.000; -552.000
376.364;  -85.100; -944.000; -867.000
376.495;  604.500;  925.000;  529.000
376.625;  -14.900; -472.000; -485.000
376.756;   81.000; -709.000; -678.000
376.886; -156.500;-1178.000;-1026.000
377.017;  175.700;-1048.000;-1061.000
377.147;  816.000; -786.000; -782.000
377.278;  168.000;  174.000;  228.000
377.408; -216.200; -801.000; -815.000
377.538; -179.100; -707.000; -693.000
377.669; -112.000; -537.000; -613.000
377.799; -170.200; -645.000; -635.000
377.929;  -80.400; -610.000; -428.000
378.060; -214.000; -781.000; -847.000
378.190;  -80.100; -726.000; -531.000
378.320;  -42.900; -401.000; -406.000
378.451;   17.900; -131.000;  -22.000
378.581;   18.300;  -67.000; -110.000
378.711;  348.300; 1035.000;  866.000
378.841;  -19.600; -533.000; -675.000
378.972; -149.400; -871.000; -751.000
379.102;  -16.700; -652.000; -579.000
379.232;   -4.100; -126.000;  -73.000
379.362; -174.300;-1001.000; -885.000
379.492;   -5.600; -373.000; -424.000
379.623;  220.500;    0.000;  111.000
379.753; -157.700;-1107.000; -974.000
379.883;  367.200;   59.000;  156.000
380.013;  -53.300;-1081.000;-1017.000
380.143; -223.900;-1097.000;-1056.000
380.273; -221.400; -985.000; -861.000
380.403;   39.500; -344.000; -257.000
380.533;  -42.700; -651.000; -664.000
380.663;  163.000;  173.000;  128.000
380.793; -188.000;-1027.000;-1074.000
380.923;  -27.800; -103.000;  -34.000
381.053; -132.800; -613.000; -623.000
381.183;   -8.700; -106.000; -248.000
381.313;   57.000; -656.000; -470.000
381.443;   38.200; -692.000; -473.000
381.573;  285.300; -402.000; -409.000
381.703;  324.900;-1249.000;-1095.000
381.833; -248.600;-1454.000;-1336.000
381.963;  182.200; -134.000;  -87.000
382.093; 2267.200; -925.000; -909.000
382.223;  646.100; -713.000; -602.000
382.353;  -41.000; -801.000; -608.000
382.482;  482.600;-1091.000; -964.000
382.612; 1222.900; -872.000; -644.000
382.742;  657.000; -695.000; -622.000
382.872;  384.300; -565.000; -551.000
383.002;  128.400;  347.000; -132.000
383.131;   23.700; -226.000; -160.000
383.261;  -54.000; -706.000; -768.000
383.391;  641.100; -552.000; -377.000
383.521; 7213.000;  451.000;  263.000
383.650; 1641.000; -947.000; -904.000
383.780;   26.900; -783.000; -656.000
383.910;  277.700;  880.000;  802.000
384.039;    1.500; -794.000; -656.000
384.169;  280.100;-1205.000;-1017.000
384.299;  -50.200; -650.000; -662.000
384.428; -162.500; -764.000; -680.000
384.558;  -39.900; -308.000; -275.000
384.687;  -80.300; -414.000; -334.000
384.817;   53.500;   75.000;   -2.000
384.947;   79.000; -234.000; -141.000
385.076;  589.500;  982.000;  912.000
385.206;  210.700;  369.000;  480.000
385.335;  -50.800; -549.000; -417.000
385.465; -137.100; -655.000; -663.000
385.594;  257.400;  -53.000;  -44.000
385.724;  589.000; -868.000; -838.000
385.853;  191.500; -296.000; -270.000
385.982; 2132.200; -743.000; -787.000
386.112; 3088.500;-1052.000; -871.000
386.241;  240.000; -307.000; -312.000
386.371;   77.700; -174.000;  -87.000
386.500;    7.900; -825.000; -789.000
386.629;   63.200; -874.000; -817.000
386.759;  182.800;  -43.000;   68.000
386.888;   40.500; -170.000; -250.000
387.017; -140.700; -648.000; -620.000
387.147; -164.100; -771.000; -798.000
387.276;  -20.900; -410.000; -397.000
387.405;   36.200; -398.000; -342.000
387.535;  -46.400; -452.000; -361.000
387.664;  -66.800; -692.000; -620.000
387.793;  130.000; -198.000; -113.000
387.922;  831.400;  255.000;  200.000
388.052;    2.900; -576.000; -423.000
388.181;   45.800; -342.000; -472.000
388.310;  -42.300; -889.000; -710.000
388.439; -118.900; -749.000; -742.000
388.568;  324.100;  365.000;  244.000
388.697; 1534.200; -756.000; -653.000
388.826;  270.300; -768.000; -666.000
388.956;  130.500; -285.000; -307.000
389.085;  -39.200; -347.000; -287.000
389.214; -182.100; -842.000; -872.000
389.343; -104.700; -645.000; -413.000
389.472;  929.400;  126.000;  149.000
389.601; 1043.200;   91.000;    0.000
389.730;  -11.400; -568.000; -687.000
389.859;  147.400;  226.000;   46.000
389.988;  339.700; -423.000; -408.000
390.117;  184.700; -168.000; -146.000
390.246;   14.900; -331.000; -320.000
390.375;  119.200; -673.000; -626.000
390.504;  -63.900; -703.000; -621.000
390.633; -134.500; -672.000; -726.000
390.761; -123.400; -732.000; -645.000
390.890;   32.200;   -4.000; -130.000
391.019;  -48.000; -421.000; -441.000
391.148; -169.200; -826.000; -855.000
391.277;  -89.400; -576.000; -493.000
391.406; -143.600; -821.000; -805.000
391.534;  102.900;  574.000; -301.000
391.663; -101.300; -583.000; -645.000
391.792; -158.200; -673.000; -701.000
391.921;  182.300;   -3.000;   15.000
392.050;  269.400; -287.000; -228.000
392.178; -146.300;-1206.000;-1061.000
392.307;  204.400; -758.000; -712.000
392.436;  122.200; -427.000; -641.000
392.564;   55.500;  166.000;   -6.000
392.693; -191.300; -860.000; -682.000
392.822;  327.100; -529.000; -534.000
392.950;  130.800; -880.000; -714.000
393.079;  486.500; -188.000; -328.000
393.208;   21.800; -488.000; -511.000
393.336;   30.000; -170.000; -145.000
393.465;  -43.500; -317.000; -199.000
393.593;   85.400;   62.000;   79.000
393.722; -275.800;-1121.000; -916.000
393.850;  -16.500; -188.000;  -61.000
393.979; -277.300; -926.000; -805.000
394.107;  -80.200; -517.000; -537.000
394.236;  -36.300; -570.000; -507.000
394.364;  516.300;  383.000;  206.000
394.493;  797.600; -911.000; -767.000
394.621;   35.800; -955.000; -916.000
394.750; 1690.300; -873.000; -923.000
394.878; 6619.100; -247.000; -149.000
395.007; 8434.800; -721.000; -807.000
395.135;  643.700; -790.000; -721.000
395.263; -158.900;-1038.000;-1040.000
395.392;   83.400;  -25.000; -107.000
395.520; -230.600; -818.000; -679.000
395.648; -189.300; -865.000; -915.000
395.777;  -10.400; -366.000; -405.000
395.905;  -60.600; -449.000; -564.000
396.033;  111.200;  217.000;  172.000
396.162; 1335.000; -399.000; -453.000
396.290; 1110.100;  -17.000;   -2.000
396.418;  183.800; -555.000; -514.000
396.546; -112.700; -571.000; -466.000
396.674; -183.600; -850.000; -878.000
396.803;   68.400;  -72.000;  -23.000
396.931;  167.200; -179.000; -199.000
397.059;   17.700;-1026.000; -989.000
397.187; -191.000;-1026.000; -975.000
397.315; -229.300; -884.000; -649.000
397.443; -145.900; -592.000; -443.000
397.572; -173.100; -578.000; -424.000
397.700;  -44.100; -607.000; -614.000
397.828;   30.700;  120.000;  -90.000
397.956;  -45.600; -508.000; -478.000
398.084;  -67.700; -767.000; -626.000
398.212;   97.400;  137.000;  124.000
398.340;   76.400;  -56.000;  159.000
398.468;   52.600; -390.000; -169.000
398.596; -237.500; -993.000; -953.000
398.724; -211.600; -762.000; -767.000
398.852; -300.400;-1024.000; -976.000
398.980;  -64.400; -560.000; -560.000
399.108;  -82.400; -982.000; -735.000
399.236;   80.400;   13.000;    8.000
399.363;   93.600;  222.000;  196.000
399.491;  -80.300; -404.000; -398.000
399.619; -218.900; -829.000; -800.000
399.747; -184.100; -859.000; -771.000
399.875;  234.200;  220.000;  234.000
400.003;  -50.400; -359.000; -284.000
400.130; -122.200; -421.000; -341.000
400.258;   -9.400;  -83.000;   38.000
400.386;  -36.800; -352.000; -168.000
400.514;  -59.000; -526.000; -587.000
400.641; -210.500; -928.000; -802.000
400.769; -242.300; -979.000; -888.000
400.897; -166.900; -838.000; -793.000
401.025;   25.500; -166.000; -152.000
401.152;   68.900;  220.000;   38.000
401.280; -103.300; -430.000; -429.000
401.408; -183.000; -712.000; -576.000
401.535; -197.000; -735.000; -758.000
401.663; -318.100;-1134.000;-1054.000
401.790; -141.500; -514.000; -525.000
401.918;  118.900;  436.000;  405.000
402.046;   22.000;  134.000;  122.000
402.173;    2.300;  -18.000;    7.000
402.301;  -81.500; -519.000; -397.000
402.428;  162.400;  528.000;  383.000
402.556; -251.900;-1188.000; -913.000
402.683;  -28.200;  -20.000;   -1.000
402.811;   -1.500;  -37.000; -206.000
402.938;   21.200;   20.000;   27.000
403.066;  268.400; -574.000; -558.000
403.193;  538.700;  299.000;  239.000
403.321;  386.800; -396.000; -574.000
403.448;  511.800;   83.000;   27.000
403.575;  261.300;  -90.000;  -46.000
403.703; -117.000; -732.000; -557.000
403.830;  -82.200; -531.000; -496.000
403.957; -260.300;-1117.000;-1023.000
404.085;   91.000;  -61.000; -172.000
404.212;  226.400;  -50.000;   63.000
404.339;  672.100; -566.000; -306.000
404.467;13102.900; -612.000; -524.000
404.594; 7647.700; -287.000; -227.000
404.721; 1613.800; -869.000; -764.000
404.848;  181.700; -113.000; -202.000
404.976; -205.100; -856.000; -783.000
405.103;   23.000;  -14.000;  -82.000
405.230;   82.700;  190.000;  226.000
405.357;  112.600;  117.000;   44.000
405.484;  653.800;  -49.000;    5.000
405.612;  153.500; -548.000; -563.000
405.739;  -96.200; -488.000; -243.000
405.866;  248.000;  669.000;  385.000
405.993;  -38.100; -398.000; -102.000
406.120; -204.200; -801.000; -887.000
406.247;  -55.900; -323.000; -342.000
406.374;  788.000;  540.000;  629.000
406.501;   84.300; -632.000; -702.000
406.628; -113.600; -621.000; -589.000
406.755; -163.100; -803.000; -620.000
406.882;  -33.800; -228.000; -277.000
407.009; -167.700; -719.000; -628.000
407.136;  116.800; -480.000; -401.000
407.263;  158.000; -939.000; -829.000
407.390;  -98.700; -692.000; -614.000
407.517; -312.400;-1139.000;-1187.000
407.644;  -43.200; -332.000; -256.000
407.771;  -77.500; -249.000; -287.000
407.898;   96.600;  168.000;  328.000
408.025; -102.100; -421.000; -313.000
408.151;   14.900;   82.000;  153.000
408.278;  -77.500; -267.000; -216.000
408.405; -180.200; -931.000; -899.000
408.532;  -79.500; -549.000; -542.000
408.659; -180.400; -677.000; -648.000
408.785; -368.700;-1298.000;-1170.000
408.912;  -62.400; -412.000; -296.000
409.039; -182.000; -610.000; -686.000
409.166; -161.500; -591.000; -555.000
409.292; -164.400; -571.000; -534.000
409.419; -176.300; -665.000; -649.000
409.546; -129.200; -431.000; -192.000
409.672; -181.700; -713.000; -545.000
409.799;   15.600;  -36.000;   34.000
409.926;  -21.500; -180.000; -179.000
410.052; -339.100;-1127.000;-1091.000
410.179;  -94.200; -368.000; -392.000
410.305; -139.700; -375.000; -493.000
410.432;  -26.400; -220.000; -333.000
410.558; -114.100; -305.000; -380.000
410.685; -112.600; -688.000; -431.000
410.812; -157.400; -409.000; -588.000
410.938; -235.000; -964.000; -808.000
411.065; -152.200; -671.000; -645.000
411.191;   35.700; -189.000; -174.000
411.317; -168.100; -823.000; -742.000
411.444;  -86.900; -317.000; -246.000
411.570;  -76.200; -339.000; -294.000
411.697; -176.300; -758.000; -752.000
411.823; -286.100; -989.000; -999.000
411.949;  -19.000;  -56.000;   17.000
412.076; -167.300; -539.000; -519.000
412.202; -221.700; -758.000; -757.000
412.329; -191.000; -798.000; -752.000
412.455; -165.100; -821.000; -657.000
412.581;    7.000;  -15.000;  172.000
412.707; -127.100; -540.000; -457.000
412.834;   80.100;  156.000;  219.000
412.960; -104.800; -785.000; -784.000
413.086; -171.700; -743.000; -701.000
413.212;  343.500;  604.000;  578.000
413.339;  -99.800; -685.000; -701.000
413.465;   -4.900; -364.000; -310.000
413.591; -141.500; -757.000; -474.000
413.717;  -46.700; -358.000; -366.000
413.843; -222.300; -839.000; -861.000
413.969;  -40.300;  -47.000; -292.000
414.096; -157.200; -679.000; -679.000
414.222;   45.500;  -33.000;   85.000
414.348;   -0.800; -652.000; -385.000
414.474;  177.600;   38.000;  -52.000
414.600;   41.100; -126.000; -144.000
414.726;   56.400;  -96.000;  -55.000
414.852;  -36.500; -365.000; -342.000
414.978;  101.200;  104.000;  -18.000
415.104;  161.100;   38.000;   80.000
415.230;   89.600; -329.000; -330.000
415.356;  144.800; -409.000; -514.000
415.482;  461.700;   13.000;  -35.000
415.608;  649.100; -247.000; -323.000
415.734; 2203.600;   67.000;   38.000
415.860;44268.100; -875.000; -767.000
415.986;28707.200; -685.000; -607.000
416.111; 2455.300; -798.000; -652.000
416.237;  558.400; -424.000; -571.000
416.363; 2826.900; -765.000; -733.000
416.489; 9060.700; -324.000; -251.000
416.615;  935.700; -707.000; -742.000
416.741;    0.600; -677.000; -784.000
416.866; -144.800; -673.000; -736.000
416.992; -183.000; -801.000; -818.000
417.118;   18.600;  -41.000;  -80.000
417.244; -107.400; -798.000; -531.000
417.369; -122.300; -801.000; -612.000
417.495;   49.000; -325.000; -254.000
417.621; -124.800;-1015.000; -803.000
417.746;   28.700; -579.000; -572.000
417.872;  153.800; -254.000; -144.000
417.998;  178.900; -515.000; -530.000
418.123; 2672.100;-1073.000; -845.000
418.249;11752.200; -512.000; -601.000
418.374; 1494.000; -916.000; -824.000
418.500;  338.200; -383.000; -482.000
418.626;  304.300;   70.000;  -59.000
418.751;  290.500; -549.000; -448.000
418.877;  490.400; -637.000; -643.000
419.002; 4515.500; -688.000; -560.000
419.128;27862.200; -930.000; -721.000
419.253; 6118.200; -967.000; -837.000
419.379;  913.600; -391.000; -338.000
419.504;  917.500;  325.000;  415.000
419.629; 1141.600; -393.000; -212.000
419.755; 8915.900; -317.000; -254.000
419.880;46452.100;  -98.000;   67.000
420.006;25740.600; -280.000; -221.000
420.131;60233.200; -662.000; -775.000
420.256; 7730.000; -315.000; -316.000
420.382; 1100.100; -665.000; -687.000
420.507;  164.400; -649.000; -778.000
420.632;  238.500; -337.000; -339.000
420.758;  361.900; -251.000; -425.000
420.883; -127.300; -876.000; -672.000
421.008; -137.200; -775.000; -619.000
421.133; -117.600; -509.000; -467.000
421.259;  -46.100; -325.000; -259.000
421.384; -192.600; -834.000; -693.000
421.509; -121.500;-1052.000; -862.000
421.634; 1590.300; -936.000; -820.000
421.759;  600.400; -359.000; -327.000
421.885;  -97.200; -717.000; -656.000
422.010; -112.800; -673.000; -542.000
422.135; -227.600; -695.000; -727.000
422.260;  130.100;  340.000;  280.000
422.385;  -21.500;   12.000;  -98.000
422.510;   97.100;  151.000;  -26.000
422.635;   91.500;  -87.000;  -43.000
422.760;  173.600; -766.000; -791.000
422.885;  171.400;  -57.000;  -80.000
423.010;   10.100; -112.000; -169.000
423.135; -158.800; -481.000; -561.000
423.260;   24.400; -150.000; -245.000
423.385;  169.000;  476.000;  222.000
423.510;  101.600;   71.000;  -22.000
423.635;  176.600;  133.000;   45.000
423.760;  190.900;  383.000;  328.000
423.885;  206.000;  336.000;  391.000
424.010;   68.000;  -68.000;  -13.000
424.135;   48.300;    5.000;  -33.000
424.259; -120.300; -654.000; -457.000
424.384;  -66.700; -279.000; -272.000
424.509;   35.200; -260.000; -186.000
424.634; -113.400; -761.000; -623.000
424.759;   14.500; -688.000; -544.000
424.883;   32.900; -506.000; -527.000
425.008;  454.700; -502.000; -410.000
425.133; 4528.400; -679.000; -653.000
425.258; 1883.300; -517.000; -381.000
425.382; 1735.300; -867.000; -774.000
425.507; 3986.500; -487.000; -543.000
425.632;  759.000; -802.000; -663.000
425.756; 1048.600; -256.000; -146.000
425.881;16516.500; -831.000; -857.000
426.006;39265.000; -604.000; -355.000
426.130; 5418.000; -696.000; -508.000
426.255;  808.000; -611.000; -491.000
426.379;  388.700; -189.000; -577.000
426.504;  895.100;  660.000;  544.000
426.629; 9229.300; -519.000; -466.000
426.753; 5575.200;   64.000;  -46.000
426.878;  682.500; -252.000; -288.000
427.002;  447.500; -651.000; -668.000
427.127; 3743.800;  -35.000; -158.000
427.251;25173.300;  372.000;  401.000
427.375; 6244.400; -191.000; -173.000
427.500; 3719.600; -616.000; -610.000
427.624; 1097.800; -234.000; -400.000
427.749;  172.700; -216.000; -225.000
427.873;    9.600; -499.000; -412.000
427.997;   -3.800; -222.000; -230.000
428.122;  221.300;  795.000;  703.000
428.246;  216.700;  433.000;  434.000
428.371; -207.400; -869.000; -773.000
428.495; -171.700; -624.000; -646.000
428.619;  -31.300; -186.000; -117.000
428.743;  111.200;   65.000;  132.000
428.868;   76.100; -732.000; -643.000
428.992; 2224.900; -219.000; -326.000
429.116;  802.200; -329.000; -357.000
429.240;  450.300;  419.000;  426.000
429.365;   29.000; -454.000; -574.000
429.489;  -23.500; -638.000; -647.000
429.613;  114.900; -236.000; -177.000
429.737;  167.400; -563.000; -432.000
429.861;  677.500; -247.000; -133.000
429.985;12984.000; -425.000; -305.000
430.109;12629.600; -770.000; -908.000
430.234; 1382.000;   76.000;  -50.000
430.358;  200.000; -250.000; -160.000
430.482;  -89.500; -672.000; -564.000
430.606;  -81.900; -655.000; -375.000
430.730;   52.600; -437.000; -388.000
430.854;  161.700; -909.000; -835.000
430.978; -104.100; -795.000; -764.000
431.102; -118.100; -499.000; -422.000
431.226; -217.800; -874.000; -815.000
431.350;  159.300;  345.000;  422.000
431.474;  -88.200; -661.000; -373.000
431.597; -274.100;-1060.000; -848.000
431.721;  -94.000; -276.000; -267.000
431.845; -194.700; -704.000; -472.000
431.969;  -80.600; -304.000; -349.000
432.093; -104.400; -395.000; -317.000
432.217;   40.300;   32.000;   82.000
432.341; -101.300; -523.000; -518.000
432.464;   32.400;   96.000;   40.000
432.588;  342.100; -401.000; -329.000
432.712;  190.900;  -52.000;  -52.000
432.836;  166.700;  213.000;  263.000
432.959;   50.500; -372.000; -311.000
433.083;  278.100;   11.000;    2.000
433.207;  924.100;  285.000;  930.000
433.330;11941.400; -391.000; -200.000
433.454;13301.800; -654.000; -638.000
433.578; 7804.300;  583.000;  278.000
433.701; 1303.800; -623.000; -675.000
433.825;  256.200; -292.000; -299.000
433.949;  304.500;   28.000;  -72.000
434.072;   84.300; -410.000; -323.000
434.196;   40.500; -309.000; -117.000
434.319; 7989.000;25482.000;25124.000
434.443; 1704.100; -656.000; -603.000
434.566; 5903.800;  281.000;   62.000
434.690;  886.900; -637.000; -383.000
434.813;  157.700; -251.000; -173.000
434.937; -121.200; -569.000; -696.000
435.060;  -54.800; -423.000; -332.000
435.184;  418.400; -492.000; -217.000
435.307;  217.500;  159.000;  102.000
435.431;   13.800;  -40.000;   24.000
435.554;  -75.400; -399.000; -240.000
435.677; -102.800; -350.000; -258.000
435.801;  -26.500;  -25.000;   49.000
435.924;   12.600;    1.000;  -67.000
436.048; -220.000;-1019.000; -732.000
436.171;  -91.500; -240.000;  -66.000
436.294;   16.300; -248.000; -229.000
436.417;  292.800; -963.000; -849.000
436.541; -104.100; -814.000; -840.000
436.664;  -16.200; -242.000; -316.000
436.787;   55.400;   13.000;  113.000
436.910; -211.500; -792.000; -422.000
437.034;  103.400;  142.000;  143.000
437.157;  148.600;  -11.000;    0.000
437.280;  -61.000; -392.000; -292.000
437.403; -169.300; -982.000; -869.000
437.526;  863.300; -903.000; -865.000
437.649; 2911.600; -505.000; -332.000
437.772;  284.200; -692.000; -540.000
437.896;  238.500;  700.000;  544.000
438.019; -170.400; -758.000; -503.000
438.142; -118.600; -596.000; -506.000
438.265;  -23.700; -639.000; -670.000
438.388;  815.700; -520.000; -410.000
438.511;   89.800; -597.000; -394.000
438.634;  -69.000; -247.000; -125.000
438.757; -222.300; -693.000; -619.000
438.880;    0.800;  -34.000;  -57.000
439.003; -103.600; -417.000; -437.000
439.126;  -54.400; -287.000; -167.000
439.248;  -44.900;  -98.000; -139.000
439.371;  -30.900;    9.000;  -53.000
439.494;  152.700;  510.000;  439.000
439.617;  -22.800;   65.000;  -88.000
439.740; -308.300; -968.000; -816.000
439.863; -230.800; -755.000; -595.000
439.986; -208.600; -476.000; -431.000
440.108;   -6.100; -161.000; -112.000
440.231; -307.400; -950.000; -836.000
440.354;  -32.600;  -64.000; -150.000
440.477;   27.600; -566.000; -542.000
440.599;    9.600; -200.000; -225.000
440.722; -206.300; -709.000; -586.000
440.845;  218.200;  751.000;  928.000
440.968; -158.100; -415.000; -311.000
441.090;  -43.700; -199.000;  -33.000
441.213; -273.100;-1021.000; -825.000
441.336;  -50.700; -159.000;   -5.000
441.458; -121.900; -549.000; -396.000
441.581; -143.800; -628.000; -629.000
441.703;  -74.500; -152.000;   13.000
441.826; -178.300; -557.000; -400.000
441.948;  -41.000;   56.000;   51.000
442.071;  113.700;  555.000;  424.000
442.193; -183.800; -531.000; -485.000
442.316;   88.700;  152.000;   97.000
442.438;  178.100; -233.000;  -10.000
442.561;  188.500;  272.000;  262.000
442.683;  741.900; -809.000; -522.000
442.806; 1486.200;   -8.000;   74.000
442.928;  -57.900; -859.000; -604.000
443.051; -106.600; -577.000; -373.000
443.173; -111.000; -341.000; -339.000
443.295; -100.800; -263.000; -371.000
443.418;  -94.800; -321.000;  -29.000
443.540;   17.000; -106.000;   -4.000
443.662; -185.200; -563.000; -465.000
443.785;   49.600;  335.000;  199.000
443.907; -199.000; -362.000; -208.000
444.029; -197.800; -767.000; -494.000
444.152; -206.700; -644.000; -554.000
444.274;  -10.500;  -18.000;  -24.000
444.396; -170.700; -461.000; -221.000
444.518; -200.200; -691.000; -454.000
444.640; -146.700; -268.000; -111.000
444.763;   10.000;  388.000;  249.000
444.885; -166.800; -432.000; -392.000
445.007;   12.300;   35.000;   86.000
445.129; -185.700; -610.000; -515.000
445.251; -184.500; -372.000; -439.000
445.373; -203.700; -537.000; -386.000
445.495;   35.900;  242.000;  350.000
445.617;  181.300;  853.000;  753.000
445.739;  -88.500; -215.000;  -97.000
445.861;  -19.700; -245.000; -112.000
445.984;   -9.700; -267.000; -101.000
446.105;  325.900; -418.000; -251.000
446.227;  866.400; -176.000;  -19.000
446.349;   -6.100; -358.000; -249.000
446.471; -168.800; -615.000; -448.000
446.593;  -81.700; -316.000;   19.000
446.715;   31.600;  -67.000;   41.000
446.837;  205.400;  697.000;  832.000
446.959; -144.500; -457.000; -478.000
447.081; -193.000; -628.000; -518.000
447.203;  212.300;  862.000;  834.000
447.325; -131.100; -270.000;   42.000
447.446;   65.100;  286.000;  530.000
447.568; -254.300; -921.000; -803.000
447.690;  -94.400; -236.000; -245.000
447.812; -212.800; -798.000; -519.000
447.933;   -3.100;  155.000;  127.000
448.055;  -74.500; -306.000; -261.000
448.177;  301.800;   31.000;   79.000
448.299;   51.900; -935.000; -727.000
448.420;   75.800;  -25.000;  159.000
448.542;  -33.500;   -3.000;   33.000
448.664;   14.800;  109.000;  322.000
448.785;    4.500;  265.000;   83.000
448.907; -104.700; -614.000; -353.000
449.028;  -52.700; -771.000; -471.000
449.150;  189.100;  492.000;  589.000
449.272; -301.600;-1044.000; -913.000
449.393;  149.500;  612.000;  694.000
449.515; -213.500; -634.000; -581.000
449.636;  -62.000; -264.000; -155.000
449.758;  204.500;  763.000;  622.000
449.879; -149.300; -498.000; -396.000
450.001; -100.100; -149.000;  -49.000
450.122;   17.700;  -95.000;  162.000
450.244;   62.100;   37.000;  364.000
450.365; -115.700; -495.000; -301.000
450.486;   -8.600;   80.000;  268.000
450.608;  128.600;  393.000;  326.000
450.729;  250.600;  578.000;  645.000
450.850;  123.200; -574.000; -466.000
450.972; 1965.700; -552.000; -389.000
451.093;11509.700;  190.000;  588.000
451.214; 4370.000; -516.000; -337.000
451.336;  843.300;  773.000;  579.000
451.457;  241.000;  264.000;  393.000
451.578;   13.400; -118.000;  -74.000
451.699; -188.800; -546.000; -540.000
451.821;  -57.600; -284.000;  -50.000
451.942;   56.800;  278.000;  285.000
452.063;  145.000;  228.000;  419.000
452.184; 1423.300;  -54.000;  -49.000
452.305; 2382.200;  103.000;  170.000
452.427;  282.900; -549.000; -301.000
452.548;   35.800;   23.000;   79.000
452.669;  -57.000; -257.000;  -89.000
452.790;  -28.200;    3.000;  -18.000
452.911;   83.900;  195.000;  259.000
453.032;  -82.800; -289.000;  -60.000
453.153;  -42.800;  -29.000;   81.000
453.274;  235.900;  737.000;  868.000
453.395;   -8.800;  -51.000;  175.000
453.516;  353.000; 1317.000; 1388.000
453.637;  -94.200; -205.000; -150.000
453.758;  -35.300;   15.000;   69.000
453.879; -176.100; -462.000; -250.000
454.000;  228.000; 1086.000;  948.000
454.121; -161.200; -554.000; -326.000
454.242; -162.800; -599.000; -383.000
454.362;  -58.400;  -99.000;  114.000
454.483;   25.400; -309.000; -229.000
454.604;  160.500;  512.000;  580.000
454.725; -204.400; -627.000; -555.000
454.846; -213.800; -474.000; -406.000
454.967;   30.600;  230.000;  539.000
455.087;  -34.600;  179.000;  153.000
455.208;   99.100;  554.000;  856.000
455.329;  -60.700;  -22.000;   82.000
455.450;  169.300;  473.000;  633.000
455.570;  -76.000; -234.000; -211.000
455.691;    6.000;  201.000;  407.000
455.812; -151.100; -270.000;  -92.000
455.932;  -64.200;  107.000;  -97.000
456.053;  -56.300;   36.000;   24.000
456.173; -154.800; -433.000; -355.000
456.294; -214.400; -476.000; -303.000
456.415;  -80.300;  -73.000;   70.000
456.535;    6.000;  297.000;  273.000
456.656;  -36.200;  132.000;  240.000
456.776;  -61.000;    3.000;  298.000
456.897;   69.900;  308.000;  513.000
457.017;  -59.100; -153.000;   -3.000
457.138; -182.000; -402.000; -249.000
457.258;   36.200;  263.000;  224.000
457.379;   40.200;  509.000;  521.000
457.499;   19.300;  443.000;  432.000
457.620; -190.700; -407.000; -231.000
457.740; -126.300; -132.000;  -11.000
457.860;  -34.900;   87.000;   44.000
457.981;  -57.600;  132.000;  124.000
458.101;  -74.700;  -89.000;   40.000
458.221;   23.400;  336.000;  402.000
458.342;  -56.300;   -4.000;  -37.000
458.462;  134.700;  617.000;  352.000
458.582;   31.000; -302.000; -294.000
458.703;  127.800;  303.000;  154.000
458.823;   56.500;   22.000;  163.000
458.943;  137.300;  341.000;  467.000
459.063;   45.600; 1124.000;  192.000
459.183;   28.900;  328.000;  313.000
459.304;  101.400;  315.000;  517.000
459.424;  -58.600; -246.000;  -89.000
459.544;  845.700;  388.000;  764.000
459.664; 1963.000;  499.000;  506.000
459.784;  686.800; 1004.000; 1175.000
459.904;  201.600;  867.000;  744.000
460.024;  234.100;  867.000;  684.000
460.144;   34.600;  449.000;  554.000
460.264;   67.700;  515.000;  327.000
460.385; -119.400; -145.000; -119.000
460.505;  168.600;  905.000;  858.000
460.625; -149.200;  -17.000;  -68.000
460.745;   38.800;  396.000;  541.000
460.864;  -23.800;  153.000;  469.000
460.984;  142.700;  499.000;  573.000
461.104;  391.100; 1656.000; 1775.000
461.224;  117.400;  657.000;  650.000
461.344;   28.400;  431.000;  360.000
461.464;  -10.400;  258.000;  513.000
461.584;   23.200;  283.000;  466.000
461.704;  -37.600;   58.000;  108.000
461.824;  -71.100;  238.000;  259.000
461.943;  -59.900;  191.000;  130.000
462.063;  -79.300;    2.000;  324.000
462.183;  114.400;  639.000;  717.000
462.303;  290.100; 1678.000; 1230.000
462.422;  133.400;  781.000;  840.000
462.542;   15.000;  271.000;  391.000
462.662;  160.300;  353.000;  380.000
462.782;  653.900;  833.000;  572.000
462.901; 1171.900;  545.000;  717.000
463.021;  643.000; 1702.000; 1638.000
463.141;   37.200;  337.000;  770.000
463.260;   18.000;  614.000;  474.000
463.380;   97.000;  902.000;  884.000
463.499;   23.300;  342.000;  332.000
463.619;   22.300;  581.000;  559.000
463.738;  311.400; 1644.000;  903.000
463.858;  108.600;  657.000;  811.000
463.978;   43.800;  542.000;  396.000
464.097;  170.100;  921.000; 1114.000
464.217;  346.900; 1196.000; 1143.000
464.336;  293.600; 1068.000; 1130.000
464.455;   15.600;  328.000;  659.000
464.575;  147.500;  597.000;  602.000
464.694;  375.200; 1204.000; 1179.000
464.814;  340.900; 1190.000; 1138.000
464.933;  235.100; 1095.000; 1027.000
465.052;  295.500; 1412.000; 1054.000
465.172;  208.700;  922.000;  799.000
465.291;  322.800; 1376.000; 1320.000
465.410;  115.400;  462.000;  735.000
465.530;  269.100; 1355.000; 1310.000
465.649;  196.600; 1209.000; 1273.000
465.768;  368.100; 1673.000; 1508.000
465.888;  167.200;  941.000; 1174.000
466.007;  236.000; 1335.000; 1440.000
466.126;   99.000;  721.000;  641.000
466.245;  168.500; 1176.000; 1187.000
466.364;  149.500;  950.000; 1060.000
466.484;  180.700; 1024.000; 1213.000
466.603;  137.000; 1101.000; 1222.000
466.722;  310.500; 1490.000; 1769.000
466.841;  217.400; 1151.000; 1401.000
466.960;  143.800; 1069.000;  972.000
467.079;  348.600; 1971.000; 1786.000
467.198;  216.600; 1238.000; 1181.000
467.317;  237.300; 1768.000; 1162.000
467.436;  200.500; 1709.000; 1261.000
467.555;  321.300; 1796.000; 1746.000
467.674;  188.700; 1227.000; 1329.000
467.793;  145.300; 1376.000; 1374.000
467.912;  256.900; 1658.000; 1539.000
468.031;  370.600; 2038.000; 1930.000
468.150;  356.600; 1842.000; 1837.000
468.269;  455.100; 2313.000; 2090.000
468.388;  454.100; 2168.000; 2339.000
468.507;  587.200; 2884.000; 2903.000
468.626;  633.400; 2555.000; 2541.000
468.744;  361.200; 2018.000; 2174.000
468.863;  506.300; 2312.000; 2523.000
468.982;  255.200; 1503.000; 1555.000
469.101;  551.700; 2788.000; 2692.000
469.220;  380.200; 2333.000; 2176.000
469.338;  574.600; 2935.000; 3051.000
469.457;  466.000; 2719.000; 2545.000
469.576;  783.000; 3953.000; 3784.000
469.695;  532.000; 2877.000; 3066.000
469.813;  929.400; 4148.000; 4192.000
469.932;  897.200; 4255.000; 4485.000
470.051;  970.500; 4075.000; 4161.000
470.169; 1956.000; 4470.000; 4338.000
470.288; 3229.200; 4700.000; 4809.000
470.406; 1751.700; 5059.000; 5194.000
470.525; 1366.600; 6101.000; 5787.000
470.644; 1370.000; 6847.000; 6794.000
470.762; 1772.500; 8397.000; 7873.000
470.881; 1969.300; 8651.000; 8464.000
470.999; 2251.100; 9685.000; 9151.000
471.118; 2318.500;11174.000;10711.000

