
Integration time [ms]: 200.000
Averaging Nr. [scans]: 10
Smoothing Nr. [pixels]: 0
Data measured with spectrometer [name]: 2101012U2
Wave   ;Sample   ;Dark     ;Reference
[nm]   ;[counts] ;[counts] ;[counts] 

197.733;  135.900;  516.000;  404.000
197.879; -186.800; -610.000; -634.000
198.025; -119.700; -475.000; -420.000
198.171; -166.600; -602.000; -612.000
198.317;  -94.900; -401.000; -316.000
198.463; -117.000; -655.000; -404.000
198.609;   59.400;  181.000; -137.000
198.755; -165.800; -644.000; -410.000
198.901; -144.500; -505.000; -424.000
199.047; -139.400; -615.000; -488.000
199.193;  -75.300; -230.000; -468.000
199.339; -105.400; -222.000; -369.000
199.485;   70.200;  330.000;  271.000
199.631;    3.000;  227.000;  310.000
199.777; -100.800; -466.000; -398.000
199.923; -145.400; -610.000; -424.000
200.069;  -26.400; -141.000;  -58.000
200.215;  123.200;  128.000;  453.000
200.361;   98.300;  243.000;  477.000
200.507; -156.800; -600.000; -373.000
200.653;  -71.400; -371.000; -194.000
200.798; -101.200; -215.000; -125.000
200.944;  -10.200; -146.000;  -41.000
201.090;   89.600;   61.000;  222.000
201.236;    9.000; -116.000; -158.000
201.382;  298.400;  874.000;  903.000
201.528;    2.000;  -58.000;  -48.000
201.674; -116.000; -386.000; -293.000
201.819; -116.300; -540.000; -439.000
201.965; -160.200; -699.000; -447.000
202.111;  -43.400; -273.000; -226.000
202.257;  -68.300; -250.000; -238.000
202.402;   36.600;   13.000;  -36.000
202.548;  -63.200; -169.000; -116.000
202.694;  201.900;  410.000; -183.000
202.840; -155.800; -603.000; -531.000
202.985; -142.700; -681.000; -639.000
203.131; -226.300; -832.000; -666.000
203.277;  -69.100; -199.000; -262.000
203.423; -115.300; -434.000; -520.000
203.568;  -70.000; -462.000; -237.000
203.714; -124.900; -535.000; -542.000
203.860; -178.300; -682.000; -641.000
204.005;   39.800;  112.000;  167.000
204.151;  154.900;  561.000;  556.000
204.296;  -80.900; -354.000; -221.000
204.442; -153.900; -600.000; -547.000
204.588; -164.100; -592.000; -579.000
204.733;   47.100;  178.000;  168.000
204.879; -272.300;-1018.000; -822.000
205.025;   22.600;  -99.000;  126.000
205.170;    4.700;  -17.000;   94.000
205.316;  181.700;  438.000;  661.000
205.461; -162.500; -698.000; -554.000
205.607;  197.500;  609.000;  665.000
205.752; -173.100; -626.000; -551.000
205.898;  -96.500; -501.000; -391.000
206.043; -137.300; -578.000; -506.000
206.189;  -98.000; -243.000; -285.000
206.334;  153.900;  554.000;  606.000
206.480;  168.800;  409.000;  239.000
206.625; -174.100; -529.000; -552.000
206.771; -115.400; -451.000; -373.000
206.916;  -62.500; -210.000; -537.000
207.062; -132.500; -545.000; -591.000
207.207; -148.900; -546.000; -443.000
207.353;  106.700;  185.000;  460.000
207.498;   39.100;  196.000;   85.000
207.643;  -93.400; -501.000; -370.000
207.789; -251.700;-1069.000; -910.000
207.934; -213.900; -665.000; -713.000
208.080;  -61.500; -154.000;   66.000
208.225;  -18.600;  -22.000;  -57.000
208.370; -157.900; -727.000; -619.000
208.516; -147.100; -741.000; -487.000
208.661;  -62.000; -127.000;  -69.000
208.806;  -50.700; -165.000; -171.000
208.952; -241.900;-1044.000; -731.000
209.097;  134.300;  378.000;  349.000
209.242;  -91.300; -307.000; -382.000
209.387;   70.600;  392.000;  350.000
209.533; -119.700; -321.000; -350.000
209.678;  177.600;  472.000;  543.000
209.823; -114.000; -408.000; -310.000
209.969; -204.400; -860.000; -757.000
210.114; -220.200; -907.000; -719.000
210.259; -249.500; -939.000; -889.000
210.404;  -50.400; -171.000;  103.000
210.549;   35.100;  108.000;    3.000
210.695;  -15.900;   -3.000;  -95.000
210.840;   95.800;   94.000;   67.000
210.985; -151.900; -484.000; -303.000
211.130;  131.900;  268.000;  406.000
211.275;   28.600;  207.000;  199.000
211.420;  -91.000; -300.000; -289.000
211.566; -146.500; -536.000; -489.000
211.711;   64.900;  218.000;  157.000
211.856; -135.100; -545.000; -519.000
212.001;   16.300;  151.000;   44.000
212.146;   22.500;  153.000;   49.000
212.291;  -58.600; -210.000; -186.000
212.436;  -67.700; -280.000;   -6.000
212.581; -167.000; -685.000; -653.000
212.726; -185.300; -487.000; -538.000
212.871; -106.400; -552.000; -217.000
213.016; -324.100;-1172.000;-1029.000
213.161;  160.800;  406.000;  291.000
213.306; -175.100; -435.000; -577.000
213.451; -216.000; -778.000; -689.000
213.596; -109.700; -455.000; -347.000
213.741; -115.400; -448.000; -538.000
213.886; -144.900; -498.000; -517.000
214.031;  -39.700; -294.000; -124.000
214.176; -113.900; -408.000; -341.000
214.321;  -19.900; -296.000; -157.000
214.466;  -36.900; -163.000;  -43.000
214.611;  -31.400;  -61.000;  -10.000
214.756; -262.900; -948.000; -858.000
214.901;  -58.800; -388.000; -226.000
215.046; -257.600; -797.000; -825.000
215.191;   45.700;  128.000;   35.000
215.336;  -45.300; -157.000;  -19.000
215.480; -127.200; -684.000; -505.000
215.625;  -39.900; -175.000;  -19.000
215.770; -172.200; -757.000; -662.000
215.915;   11.600;   -5.000;  -97.000
216.060;   15.200; -113.000;  -21.000
216.205; -248.600; -731.000; -779.000
216.349; -137.000; -470.000; -533.000
216.494; -274.200; -939.000; -867.000
216.639; -232.400; -823.000; -888.000
216.784; -160.800; -577.000; -525.000
216.929;   78.000;  392.000;  281.000
217.073;  -30.400; -244.000;  -31.000
217.218;   12.500;   78.000;  -47.000
217.363; -204.200; -656.000; -618.000
217.507; -156.500; -623.000; -588.000
217.652; -247.300; -845.000; -874.000
217.797; -160.400; -708.000; -659.000
217.942; -211.700; -856.000; -720.000
218.086;  154.400;  608.000;  539.000
218.231;  -35.900; -174.000;  -26.000
218.376;  -74.100; -337.000; -229.000
218.520;   17.200;  -41.000;   96.000
218.665;  -68.300; -338.000; -204.000
218.810;  -78.100; -275.000; -233.000
218.954;   32.000;  201.000;   35.000
219.099; -257.500; -713.000; -963.000
219.243; -135.800; -589.000; -554.000
219.388;  -57.300; -264.000; -136.000
219.532;  -32.900; -116.000; -116.000
219.677; -159.100; -564.000; -521.000
219.822;   20.100;   33.000;   89.000
219.966;   12.700;   17.000;  -99.000
220.111;  -60.100; -328.000;  -40.000
220.255; -179.900; -797.000; -750.000
220.400;  -27.800; -180.000; -146.000
220.544; -137.900; -516.000; -450.000
220.689; -110.800; -422.000; -451.000
220.833;  -45.900; -123.000;  -58.000
220.978;  -86.700; -393.000; -563.000
221.122;   59.700;  319.000;  307.000
221.267; -242.000; -906.000; -837.000
221.411; -136.400; -478.000; -394.000
221.555;    0.300; -104.000;  -23.000
221.700;  -82.300; -329.000; -222.000
221.844;  109.100;  255.000;  272.000
221.989;  -94.100; -328.000; -311.000
222.133;  -68.500; -289.000; -307.000
222.277;  -23.500;    5.000;   78.000
222.422;   20.400;  227.000;  113.000
222.566;  -98.400; -381.000; -214.000
222.711; -125.900; -414.000; -479.000
222.855; -177.800; -643.000; -586.000
222.999; -202.500; -642.000; -717.000
223.144;  -47.900; -195.000; -194.000
223.288;   74.700;  423.000;  251.000
223.432;   24.700;  184.000;  230.000
223.576;   56.200;  152.000;  -21.000
223.721;   77.500;  364.000;  273.000
223.865; -115.400; -472.000; -475.000
224.009;  410.000; 1673.000; 1631.000
224.153; -158.300; -660.000; -671.000
224.298; -145.000; -531.000; -489.000
224.442;  -18.400;  -74.000;  -33.000
224.586;   -0.400; -169.000; -106.000
224.730; -170.100; -858.000; -670.000
224.875; -218.600; -739.000; -688.000
225.019;   48.400;  102.000;  188.000
225.163;  128.300;  208.000;  341.000
225.307;    8.500;   97.000;  -91.000
225.451;  119.100;  360.000;  481.000
225.595;   72.800;  264.000;  176.000
225.739;  -29.600; -170.000;  -94.000
225.884;   29.100;   86.000;    5.000
226.028; -180.500; -760.000; -626.000
226.172;  -61.600; -260.000; -273.000
226.316; -226.700; -941.000; -902.000
226.460; -118.600; -645.000; -493.000
226.604; -124.100; -406.000; -400.000
226.748; -199.000; -836.000; -733.000
226.892;  -62.500; -227.000; -181.000
227.036;  -76.200; -537.000; -447.000
227.180; -103.100; -551.000; -375.000
227.324; -124.500; -561.000; -580.000
227.468; -219.700; -819.000; -717.000
227.612;   38.100;  242.000;  -28.000
227.756; -228.400; -845.000; -698.000
227.900;  105.400;  342.000;  441.000
228.044;  -96.900; -509.000; -290.000
228.188;  123.300;  448.000;  568.000
228.332; -184.900; -546.000; -472.000
228.476;  -32.800; -223.000; -149.000
228.620;  -82.200; -210.000; -150.000
228.764;  162.000;  431.000;  349.000
228.908;  -66.400; -155.000;   30.000
229.052; -131.100; -615.000; -528.000
229.195;  -16.800; -172.000;   13.000
229.339;   -4.100; -235.000; -305.000
229.483;  -56.700;    5.000; -162.000
229.627;  -24.600; -156.000;  139.000
229.771;  -96.800; -218.000; -294.000
229.915;   62.600;  230.000;   79.000
230.059; -166.600; -648.000; -663.000
230.202;  -68.400; -370.000; -317.000
230.346;  -22.200; -107.000;  107.000
230.490; -117.900; -489.000; -521.000
230.634; -215.800; -736.000; -553.000
230.777;  128.700;  478.000;  509.000
230.921; -106.600; -450.000; -359.000
231.065;  -88.800; -246.000; -286.000
231.209;   92.300;  261.000;  265.000
231.352;   48.000;   54.000;   40.000
231.496;   42.600;  568.000;  188.000
231.640; -163.000; -693.000; -621.000
231.783;  150.400;  546.000;  525.000
231.927; -102.800; -294.000; -365.000
232.071; -251.100; -962.000; -736.000
232.214; -220.200; -980.000; -764.000
232.358; -202.100; -683.000; -599.000
232.502;   37.000;  -19.000;    7.000
232.645; -265.100;-1090.000; -927.000
232.789;  -73.700; -257.000; -218.000
232.933; -119.000; -407.000; -224.000
233.076; -279.000;-1038.000; -897.000
233.220; -221.100; -752.000; -777.000
233.363; -156.300; -669.000; -477.000
233.507;  134.100;  371.000;  129.000
233.650; -186.400; -764.000; -834.000
233.794;  110.100;  438.000;  461.000
233.938; -132.200; -530.000; -362.000
234.081;  -40.000;  -93.000;   31.000
234.225; -144.900; -631.000; -539.000
234.368; -245.300; -773.000; -723.000
234.512;  -78.300; -385.000; -299.000
234.655; -170.300; -582.000; -555.000
234.798; -136.600; -493.000; -466.000
234.942; -263.100; -884.000;-1002.000
235.085; -156.100; -651.000; -443.000
235.229; -145.600; -405.000; -410.000
235.372; -110.900; -247.000; -191.000
235.516; -145.600; -397.000; -321.000
235.659;   37.800;   92.000;  121.000
235.802;    1.600;  -38.000;  -22.000
235.946;   59.300;  335.000;  215.000
236.089;   80.700;  126.000;  250.000
236.233;  132.000;  275.000;  298.000
236.376;  -84.700; -235.000; -378.000
236.519;  -94.400; -297.000; -319.000
236.663;  -51.400; -215.000; -117.000
236.806; -269.000;-1029.000; -999.000
236.949;  120.500;  543.000;  431.000
237.092;  152.800;  412.000;  391.000
237.236; -188.500; -589.000; -502.000
237.379;  148.700;  352.000;  428.000
237.522; -221.600; -879.000; -768.000
237.666;  -28.200; -271.000;   18.000
237.809; -253.100; -851.000; -823.000
237.952;   74.200;  469.000;  271.000
238.095; -126.300; -447.000; -442.000
238.238;  136.900;  688.000;  700.000
238.382;    2.500;  166.000;  103.000
238.525; -117.100; -598.000; -511.000
238.668; -291.200;-1060.000; -985.000
238.811; -178.900; -638.000; -643.000
238.954; -116.600; -483.000; -334.000
239.097;  205.800;  617.000;  664.000
239.241;   77.000;  394.000;  326.000
239.384;  -52.100; -254.000; -214.000
239.527; -118.900; -424.000; -224.000
239.670; -304.600; -994.000;-1091.000
239.813; -240.900; -696.000; -658.000
239.956;  183.000;  579.000;  473.000
240.099; -222.000; -778.000; -725.000
240.242;  140.100;  428.000;  432.000
240.385;  131.400;  466.000;  450.000
240.528; -158.700; -706.000; -473.000
240.671;   27.700;  189.000;  134.000
240.814;  -64.000; -441.000; -158.000
240.957; -173.100; -767.000; -578.000
241.100; -178.900; -779.000; -755.000
241.243; -307.200;-1234.000; -893.000
241.386; -135.700; -508.000; -379.000
241.529; -209.000; -735.000; -547.000
241.672; -144.100; -566.000; -495.000
241.815; -238.600; -832.000; -808.000
241.958;  -41.100; -125.000; -182.000
242.101; -162.200; -545.000; -390.000
242.244; -115.100; -270.000; -325.000
242.387;  -71.000; -304.000; -246.000
242.530;  151.800;  470.000;  134.000
242.673;  -94.800; -381.000; -309.000
242.815; -232.100; -925.000; -899.000
242.958; -110.900; -482.000; -381.000
243.101;   29.000;  132.000;  187.000
243.244; -180.900; -564.000; -521.000
243.387; -117.900; -313.000; -316.000
243.530; -193.100; -657.000; -674.000
243.672;  -11.000;   43.000;  -92.000
243.815; -112.300; -355.000; -283.000
243.958;  -11.300;   98.000;  -26.000
244.101;    0.100;   59.000;  -16.000
244.243;    0.500;  -47.000;  101.000
244.386; -235.700; -761.000; -630.000
244.529;  -17.900; -132.000; -139.000
244.672; -297.400;-1154.000; -951.000
244.814; -229.000; -621.000; -794.000
244.957; -117.000; -380.000; -304.000
245.100; -154.200; -489.000; -489.000
245.242; -113.600; -387.000; -374.000
245.385;  -15.200;  -59.000;  -39.000
245.528; -261.600; -871.000; -705.000
245.670;  188.500;  612.000;  634.000
245.813; -181.200; -599.000; -547.000
245.956;  -69.600; -324.000; -275.000
246.098; -163.200; -508.000; -650.000
246.241;   28.100;  194.000;   48.000
246.383;  -21.100; -119.000;  -73.000
246.526; -138.300; -454.000; -525.000
246.669; -263.800; -889.000; -780.000
246.811;   47.400;  172.000;   -1.000
246.954; -132.100; -512.000; -426.000
247.096;  -37.100;  -84.000;   -6.000
247.239; -112.000; -482.000; -445.000
247.381; -134.900; -647.000; -488.000
247.524;  178.900;  645.000;  679.000
247.666;   -9.100;   58.000;   11.000
247.809; -225.800; -887.000; -691.000
247.951;   -0.800;  -75.000;  138.000
248.094;   87.400;  432.000;  308.000
248.236; -313.900;-1262.000;-1238.000
248.378;    0.900; -356.000;  -81.000
248.521;  -12.300; -334.000; -337.000
248.663;  -65.500; -236.000; -267.000
248.806;  -45.000; -300.000; -266.000
248.948; -198.700; -886.000; -763.000
249.090;  -96.300; -428.000; -398.000
249.233; -121.600; -344.000; -381.000
249.375; -109.400; -474.000; -451.000
249.518;  -42.200;  -83.000; -133.000
249.660;    1.200; -103.000;    3.000
249.802; -373.600;-1303.000;-1189.000
249.945; -145.400; -612.000; -540.000
250.087; -239.300; -834.000; -768.000
250.229;  -75.200; -362.000; -480.000
250.371; -129.500; -494.000; -439.000
250.514;  -72.100; -310.000; -244.000
250.656;  -27.700;   69.000;  102.000
250.798; -245.600; -849.000; -800.000
250.940; -145.800; -322.000; -322.000
251.083;  -34.000; -335.000; -111.000
251.225;  113.400;  338.000;  310.000
251.367;  -65.800; -274.000; -373.000
251.509;  -79.600; -265.000; -210.000
251.651; -186.200; -731.000; -671.000
251.794;  129.700;  538.000;  632.000
251.936; -214.600; -821.000; -747.000
252.078; -154.300; -540.000; -461.000
252.220; -141.700; -645.000; -477.000
252.362;  175.900;  344.000;  462.000
252.504; -158.400; -677.000; -584.000
252.646; -213.400; -875.000; -722.000
252.788;    4.700;   14.000; -128.000
252.931;  -82.900; -257.000; -253.000
253.073;  -53.500; -376.000; -317.000
253.215;  -14.000;  141.000;  122.000
253.357;  -15.100;   82.000; -153.000
253.499;  -89.800; -374.000; -234.000
253.641; -195.500; -749.000; -594.000
253.783; -173.400; -609.000; -527.000
253.925; -172.600; -586.000; -591.000
254.067; -244.000; -744.000; -667.000
254.209;  -71.400; -391.000; -259.000
254.351; -292.300; -865.000; -883.000
254.493; -132.100; -441.000; -417.000
254.635; -221.300; -936.000; -818.000
254.777; -182.500; -752.000; -687.000
254.918; -154.400; -512.000; -430.000
255.060;  -85.700; -551.000; -395.000
255.202;  -91.800; -473.000; -261.000
255.344; -146.100; -658.000; -455.000
255.486; -150.600; -471.000; -406.000
255.628; -223.600; -780.000; -781.000
255.770; -178.000; -676.000; -536.000
255.912; -131.900; -559.000; -468.000
256.053; -166.200; -730.000; -508.000
256.195;  359.600; 1008.000;  903.000
256.337; -220.200; -861.000; -595.000
256.479;  158.700;  532.000;  416.000
256.621;  -95.600; -394.000; -212.000
256.762; -187.000; -789.000; -742.000
256.904;  135.000;  485.000;  487.000
257.046;  -59.700; -381.000; -271.000
257.188;  -96.400; -351.000; -264.000
257.329; -138.900; -525.000; -464.000
257.471; -224.800; -939.000; -807.000
257.613; -112.600; -584.000; -498.000
257.755; -319.200;-1073.000; -982.000
257.896;   83.700;  286.000;  392.000
258.038; -100.800; -403.000; -352.000
258.180;  -75.500; -354.000; -279.000
258.321; -166.000; -581.000; -457.000
258.463;   16.600;  -71.000;  133.000
258.605; -153.000; -562.000; -570.000
258.746; -217.700; -886.000; -772.000
258.888; -302.600;-1026.000;-1020.000
259.029;   52.600;  121.000;   -8.000
259.171; -190.300; -614.000; -550.000
259.313;    0.500;  -49.000;  -47.000
259.454; -144.000; -536.000; -414.000
259.596;  -90.400; -483.000; -390.000
259.737; -132.300; -590.000; -474.000
259.879;  113.700;  217.000;  311.000
260.020;  191.200;  901.000;  636.000
260.162;  -25.600; -146.000; -253.000
260.303; -231.500; -768.000; -687.000
260.445; -159.400; -609.000; -613.000
260.586;   33.600;  392.000;  157.000
260.728;  -79.900; -360.000; -248.000
260.869; -115.800; -350.000; -343.000
261.011;  200.400;  706.000;  537.000
261.152; -109.700; -479.000; -319.000
261.293; -155.400; -576.000; -595.000
261.435;  -73.800; -219.000; -184.000
261.576;  -99.100; -455.000; -325.000
261.718;   98.800;  420.000;  470.000
261.859; -258.600; -940.000; -949.000
262.000; -246.500; -951.000;-1016.000
262.142;  -19.700;  -52.000;  -60.000
262.283; -254.500; -808.000; -691.000
262.424; -162.000; -666.000; -625.000
262.566; -313.700;-1161.000; -983.000
262.707; -235.000; -840.000; -830.000
262.848; -222.700; -769.000; -726.000
262.990;  -94.800; -362.000; -345.000
263.131;  194.100;  650.000;  681.000
263.272;   10.000;  -61.000;  -41.000
263.413; -169.500; -589.000; -561.000
263.555; -123.500; -669.000; -143.000
263.696; -172.500; -550.000; -641.000
263.837;  -96.500; -449.000; -551.000
263.978;   -5.300;   -5.000;  -77.000
264.119;  -55.100; -283.000; -264.000
264.261; -236.100; -847.000; -630.000
264.402;   30.500;   33.000;   40.000
264.543; -152.500; -509.000; -524.000
264.684;   14.900;   61.000;  -50.000
264.825; -125.300; -816.000; -538.000
264.966;  -10.500;  -84.000;  -67.000
265.107; -222.300; -646.000; -670.000
265.248; -240.000; -825.000; -812.000
265.390;    6.200;  152.000;   -9.000
265.531;  -24.200; -238.000; -107.000
265.672; -164.700; -557.000; -630.000
265.813;  162.000;  563.000;  439.000
265.954; -290.600; -959.000; -940.000
266.095;  -26.400; -372.000; -322.000
266.236; -202.000; -686.000; -548.000
266.377;  -48.600; -243.000; -297.000
266.518; -142.600; -619.000; -547.000
266.659;   81.900;  170.000;  268.000
266.800;   12.200;   83.000;   85.000
266.941; -126.900; -487.000; -478.000
267.082;   36.100;  354.000;   99.000
267.223;  -85.900; -344.000; -273.000
267.364; -234.100; -892.000; -686.000
267.504;   -4.100;    3.000;  135.000
267.645;   23.900;  160.000;   67.000
267.786;  -45.500; -147.000;  -86.000
267.927; -134.500; -473.000; -379.000
268.068;  -21.900; -186.000;  -61.000
268.209;  -85.100; -175.000; -413.000
268.350; -115.000; -388.000; -532.000
268.490; -190.800; -648.000; -521.000
268.631;   72.800;  127.000;  225.000
268.772; -218.600; -874.000; -647.000
268.913; -105.700; -328.000; -476.000
269.054;  -24.300; -117.000;   12.000
269.194;  -82.000; -418.000; -402.000
269.335; -327.500;-1137.000;-1074.000
269.476;  -12.900;   33.000;  -35.000
269.617; -115.500; -347.000; -392.000
269.757; -180.800; -713.000; -646.000
269.898; -195.900; -856.000; -613.000
270.039; -123.400; -415.000; -405.000
270.180; -276.700; -952.000; -816.000
270.320;  -43.000; -190.000; -250.000
270.461;  -63.100; -277.000; -249.000
270.602;  -36.300; -186.000; -156.000
270.742; -238.500; -868.000; -943.000
270.883; -108.700; -442.000; -390.000
271.023; -122.900; -358.000; -357.000
271.164; -111.500; -607.000; -528.000
271.305; -216.300; -666.000; -654.000
271.445; -189.600; -722.000; -683.000
271.586; -126.200; -462.000; -283.000
271.726; -108.400; -397.000; -322.000
271.867; -111.900; -594.000; -534.000
272.008;  315.200; -473.000; -285.000
272.148;  233.800;  462.000;  468.000
272.289;   45.700; -113.000; -181.000
272.429;   71.300;   19.000;  185.000
272.570; -182.300; -633.000; -737.000
272.710; -179.800; -825.000; -775.000
272.851;  -16.800;  113.000; -130.000
272.991; -354.700;-1173.000;-1077.000
273.131;  -98.000; -419.000; -459.000
273.272; -176.600; -683.000; -723.000
273.412;   -8.000; -143.000;  -31.000
273.553;  -83.400; -488.000; -507.000
273.693;  267.900;  913.000;  858.000
273.834; -212.200; -894.000; -692.000
273.974; -123.900; -664.000; -615.000
274.114; -209.700; -772.000; -560.000
274.255;  176.900;  414.000;  373.000
274.395;   -3.300; -180.000; -125.000
274.535;   78.600;  199.000;  350.000
274.676;   65.600;  225.000;   94.000
274.816;   12.800;  110.000;   34.000
274.956; -172.200; -624.000; -690.000
275.097; -161.300;-1014.000; -922.000
275.237; -225.100; -913.000; -803.000
275.377; -194.500; -778.000; -689.000
275.517; -315.800; -878.000; -937.000
275.658; -105.200; -590.000; -555.000
275.798; -128.200; -606.000; -413.000
275.938;   63.400;  215.000;  323.000
276.078; -169.500; -626.000; -395.000
276.218;   19.300;   99.000;  104.000
276.359; -287.100;-1026.000;-1024.000
276.499; -139.400; -605.000; -446.000
276.639;  -35.300; -305.000; -151.000
276.779; -110.000; -475.000; -357.000
276.919; -188.300; -783.000; -624.000
277.059;  -37.200; -261.000; -212.000
277.199;  -55.300; -357.000; -259.000
277.340;  106.000;  287.000;  175.000
277.480; -213.100; -840.000; -693.000
277.620;   87.400;  192.000;   16.000
277.760; -421.400;-1533.000;-1294.000
277.900;   21.000;  113.000;   33.000
278.040;   49.900;  137.000;  159.000
278.180;   76.000;  270.000;  170.000
278.320;   19.400;   21.000;   56.000
278.460; -129.200; -443.000; -469.000
278.600; -176.200; -708.000; -598.000
278.740;  111.200;  448.000;  224.000
278.880; -161.000; -768.000; -791.000
279.020;   42.500; -194.000; -144.000
279.160; -187.600; -672.000; -595.000
279.300; -241.000; -926.000; -873.000
279.440; -171.000; -709.000; -622.000
279.579;  -61.000;-1014.000; -929.000
279.719;  -64.900; -410.000; -394.000
279.859;  146.400;   -4.000;   41.000
279.999;   34.800; -208.000;  101.000
280.139;  -81.400; -435.000; -387.000
280.279; -140.200; -708.000; -745.000
280.419;  -17.800; -229.000; -147.000
280.559;  -65.200; -259.000; -180.000
280.698; -173.000; -790.000; -639.000
280.838; -204.900; -778.000; -800.000
280.978; -190.200; -846.000; -790.000
281.118; -194.000; -811.000; -704.000
281.257;   39.700;   24.000;    6.000
281.397; -219.300;-1094.000; -960.000
281.537; -187.600; -599.000; -712.000
281.677;  -36.300; -150.000; -101.000
281.816; -165.700; -700.000; -630.000
281.956;  -51.300; -193.000; -257.000
282.096; -121.600; -539.000; -396.000
282.235; -216.700; -672.000; -638.000
282.375;  -40.300; -243.000;  -98.000
282.515; -203.000; -715.000; -707.000
282.654;   75.700;   29.000;  106.000
282.794;   63.000;  388.000;  244.000
282.934;  -81.100; -530.000; -491.000
283.073; -241.100;-1030.000; -857.000
283.213; -115.200; -460.000; -467.000
283.353;  -36.700; -408.000; -349.000
283.492;  -60.700; -264.000; -296.000
283.632;  -84.300; -254.000; -168.000
283.771; -158.500; -859.000; -730.000
283.911; -100.600; -369.000; -260.000
284.050; -204.900; -794.000; -748.000
284.190; -319.100;-1229.000;-1096.000
284.329; -271.300;-1055.000; -964.000
284.469; -125.400; -516.000; -591.000
284.608; -100.100; -559.000; -598.000
284.748; -191.500; -614.000; -570.000
284.887;   -6.500;  -87.000;  -20.000
285.027; -239.600; -844.000; -892.000
285.166;  -63.200; -192.000; -249.000
285.306;   37.900; -116.000;  -33.000
285.445;  -55.300; -229.000; -343.000
285.584; -168.500; -630.000; -494.000
285.724;  -76.500; -282.000; -322.000
285.863; -232.200; -857.000; -507.000
286.002; -103.200; -366.000; -276.000
286.142; -206.500; -715.000; -622.000
286.281; -108.300; -525.000; -493.000
286.420; -140.900; -554.000; -417.000
286.560;  254.300;  653.000;  623.000
286.699; -282.400; -958.000; -912.000
286.838; -178.500; -590.000; -591.000
286.978; -147.800; -533.000; -537.000
287.117; -245.500;-1085.000; -950.000
287.256;  -49.100; -228.000; -211.000
287.395;  -94.200; -197.000; -378.000
287.535;  -50.800; -370.000; -298.000
287.674; -148.900; -509.000; -484.000
287.813;  138.900;  661.000;  533.000
287.952; -289.400;-1010.000; -871.000
288.091; -305.200;-1049.000; -915.000
288.231;   72.000;   13.000;   15.000
288.370; -335.700;-1217.000;-1200.000
288.509; -169.600; -728.000; -645.000
288.648; -181.800; -770.000; -548.000
288.787;  -21.100; -243.000;  -87.000
288.926;  -90.800; -454.000; -475.000
289.065;  251.000;  859.000;  672.000
289.204;  -78.500; -377.000; -217.000
289.344; -151.400; -791.000; -690.000
289.483;   72.800;  416.000;  304.000
289.622;  -52.700; -291.000; -149.000
289.761;   -6.800; -309.000; -166.000
289.900; -193.900; -785.000; -626.000
290.039;  -14.600;  -12.000;  -95.000
290.178;  -73.600; -274.000; -180.000
290.317; -137.700; -618.000; -479.000
290.456; -104.900; -463.000; -451.000
290.595; -291.600; -961.000; -833.000
290.734; -263.900; -904.000; -891.000
290.873; -115.200; -456.000; -420.000
291.011; -214.700; -833.000; -843.000
291.150; -188.000; -770.000; -682.000
291.289;  -38.200; -343.000; -110.000
291.428; -184.000; -599.000; -480.000
291.567;  -67.300; -370.000; -442.000
291.706;   36.300;  109.000;  154.000
291.845; -127.100; -597.000; -505.000
291.984; -336.100;-1234.000;-1061.000
292.122;  131.700;  602.000;  582.000
292.261;   96.100;  620.000;  463.000
292.400;   25.500; -144.000;  211.000
292.539; -255.100; -959.000; -813.000
292.678;  -35.300; -325.000; -300.000
292.816; -303.300;-1136.000; -965.000
292.955; -210.800; -844.000; -684.000
293.094;  -40.800; -173.000; -337.000
293.233;  -84.700; -556.000; -400.000
293.371;  -37.500; -225.000;  -84.000
293.510; -190.000; -866.000; -780.000
293.649; -244.500; -959.000; -924.000
293.787; -146.900;-1083.000;-1012.000
293.926;   12.800; -113.000;  -32.000
294.065;  -69.400; -379.000; -290.000
294.203;  119.400;  298.000;  406.000
294.342;   69.100;   74.000;  156.000
294.481;11701.600;51180.000; -836.000
294.619;  -58.400; -425.000; -582.000
294.758; -286.200;-1230.000;-1137.000
294.896;  138.800; -125.000;    5.000
295.035; -262.100;-1040.000;-1006.000
295.174; -214.100;-1082.000; -954.000
295.312;  -63.700; -323.000; -203.000
295.451;  -13.100; -307.000; -428.000
295.589; -138.700; -389.000; -518.000
295.728;   72.700; -292.000; -165.000
295.866;   45.500;  -36.000;  -51.000
296.005; -130.200; -584.000; -341.000
296.143; -134.200; -558.000; -596.000
296.282; -213.500; -957.000; -881.000
296.420; -149.400; -657.000; -557.000
296.559; -164.700; -892.000; -633.000
296.697;    2.700; -847.000; -665.000
296.835;   41.500;-1141.000;-1002.000
296.974;   93.100;  -23.000;   39.000
297.112;   19.000; -443.000; -504.000
297.251; -163.600; -815.000; -755.000
297.389;  131.200; -576.000; -438.000
297.527;  122.900; -145.000;  -83.000
297.666;  -61.500; -486.000; -438.000
297.804;  -95.000; -404.000; -264.000
297.942;   10.500; -136.000; -161.000
298.081;   30.000; -183.000;   63.000
298.219;  132.200;  -17.000;  -19.000
298.357;   75.400; -144.000;  -71.000
298.495;   14.300; -810.000; -812.000
298.634;  120.700;  245.000;  219.000
298.772;  111.700; -220.000; -338.000
298.910;  -57.100; -309.000; -182.000
299.048;   -9.400; -130.000; -153.000
299.187;  -48.400; -350.000; -250.000
299.325;   47.300;   52.000;  122.000
299.463;   85.500; -389.000; -299.000
299.601;  172.600; -327.000; -271.000
299.739; -212.900; -908.000; -883.000
299.877; -162.200; -791.000; -703.000
300.016; -114.900;-1095.000; -935.000
300.154;  304.600;  -19.000; -161.000
300.292;   54.400; -428.000; -348.000
300.430;   81.000; -408.000; -291.000
300.568; -191.000; -940.000; -874.000
300.706; -112.600; -366.000; -469.000
300.844; -168.700;-1108.000; -979.000
300.982;  247.900;  246.000;  282.000
301.120; -219.800; -965.000; -866.000
301.258; -108.700; -812.000; -705.000
301.396;   89.000;  104.000;  -41.000
301.534;  135.400; -218.000; -293.000
301.672;  -21.800; -664.000; -521.000
301.810;   63.200; -613.000; -545.000
301.948;  255.300;   53.000;  149.000
302.086;  962.200; -250.000;  -32.000
302.224; 1530.800; -610.000; -585.000
302.362;   49.700; -558.000; -622.000
302.500;  -88.600; -923.000; -893.000
302.638;  185.300;  128.000;  245.000
302.776;    0.700; -352.000; -408.000
302.913;  149.400;  447.000;  236.000
303.051;    2.000;  -86.000;  -23.000
303.189;  134.000;   90.000;  118.000
303.327;  -68.900; -341.000; -256.000
303.465; -159.400; -832.000; -588.000
303.603; -179.100; -805.000; -604.000
303.740;  196.900;  417.000;  241.000
303.878;  -20.000; -800.000; -759.000
304.016; -147.600; -915.000; -790.000
304.154; -261.500;-1123.000;-1152.000
304.291;  -84.900; -505.000; -554.000
304.429;    9.200;  102.000;   74.000
304.567; -246.900; -908.000; -893.000
304.705; -103.200; -408.000; -515.000
304.842;  135.700; -616.000; -540.000
304.980;  162.000;  215.000;   35.000
305.118;   89.700; -367.000; -365.000
305.255; -140.300; -945.000; -927.000
305.393;  147.300;  178.000;  239.000
305.531; -235.300;-1173.000; -956.000
305.668; -121.800; -663.000; -582.000
305.806;  143.700; -358.000; -439.000
305.943;  134.700; -629.000; -637.000
306.081;   98.400; -378.000; -267.000
306.219; -209.000; -863.000; -748.000
306.356;   58.600;  158.000;   27.000
306.494;  272.700;  981.000;  761.000
306.631;   10.000;  -11.000;  -55.000
306.769;   28.300; -613.000; -485.000
306.906;   -9.700; -284.000; -258.000
307.044; -107.600; -473.000; -488.000
307.181;  -83.900; -410.000; -332.000
307.319;  126.600;  112.000;   87.000
307.456; -324.300;-1191.000;-1153.000
307.594; -189.900; -980.000; -727.000
307.731;   30.200; -371.000; -164.000
307.868;   64.400;  -15.000;   20.000
308.006; -266.600; -961.000; -847.000
308.143;  -85.000; -618.000; -330.000
308.281;  370.100;  -37.000; -254.000
308.418;    2.400; -748.000; -640.000
308.555; -150.500; -400.000; -250.000
308.693; -118.200; -577.000; -573.000
308.830; -203.700; -712.000; -657.000
308.967;    2.100; -215.000;  -95.000
309.105;  -42.700; -507.000; -396.000
309.242;   86.600; -468.000; -367.000
309.379;  695.000; -577.000; -655.000
309.517; -121.200; -936.000; -948.000
309.654; -200.900; -910.000; -734.000
309.791;  -86.000; -662.000; -580.000
309.928; -216.700; -977.000; -914.000
310.065;  376.700;  819.000;  697.000
310.203;  -30.900; -825.000; -850.000
310.340;   15.800; -465.000; -321.000
310.477; -147.000; -412.000; -516.000
310.614;  -96.300; -383.000; -473.000
310.751; -166.100; -427.000; -518.000
310.889;  -16.000;    1.000;   11.000
311.026; -281.800;-1161.000; -939.000
311.163;  -34.100; -386.000; -380.000
311.300; -130.000; -512.000; -479.000
311.437; -121.100; -658.000; -619.000
311.574; -293.400;-1226.000; -985.000
311.711; -121.600; -595.000; -433.000
311.848;  -36.200; -380.000; -388.000
311.985;   63.900;  270.000;   93.000
312.122; -229.000; -932.000; -762.000
312.259; -224.600; -941.000; -994.000
312.396; -110.400; -508.000; -551.000
312.533; -152.400; -812.000; -790.000
312.670; -251.400;-1070.000; -898.000
312.807;  -46.700; -352.000; -367.000
312.944; -126.200; -513.000; -611.000
313.081;  -57.900; -150.000; -415.000
313.218; -206.600;-1111.000; -867.000
313.355;   27.400; -531.000; -449.000
313.492;   17.800; -455.000; -292.000
313.629;  278.300;  815.000;  735.000
313.766; -288.800;-1176.000;-1008.000
313.902;   25.900; -186.000;   21.000
314.039;  -66.400; -372.000; -289.000
314.176;   90.500;  286.000;  192.000
314.313; -132.700; -569.000; -473.000
314.450; -121.200; -788.000; -684.000
314.587;  -87.600; -468.000; -480.000
314.723;   37.100;  -78.000;  130.000
314.860;  133.200;  318.000;  332.000
314.997;   79.000;  223.000;  142.000
315.134;  -77.100; -385.000; -368.000
315.270;  -51.100; -480.000; -496.000
315.407; -254.400;-1094.000; -967.000
315.544;  -85.900; -657.000; -538.000
315.681; -161.100; -681.000; -565.000
315.817;   80.000; -133.000; -176.000
315.954;    7.100; -613.000; -392.000
316.091; -233.400;-1045.000;-1023.000
316.227;  -24.800;  -71.000; -179.000
316.364;   21.900;   23.000;    6.000
316.500;  -63.000; -113.000; -300.000
316.637;  -66.600; -181.000; -302.000
316.774; -122.700; -625.000; -358.000
316.910; -136.000; -598.000; -629.000
317.047; -110.800; -487.000; -351.000
317.183;  -93.600; -435.000; -566.000
317.320;  -27.300; -367.000; -321.000
317.456; -134.700; -733.000; -805.000
317.593; -137.200; -598.000; -641.000
317.729;   41.300;  168.000;  -67.000
317.866; -398.100;-1434.000;-1285.000
318.002; -167.300; -708.000; -948.000
318.139; -180.100; -883.000; -867.000
318.275; -190.000;-1003.000; -738.000
318.412; -107.500; -517.000; -336.000
318.548;  -58.300; -751.000; -720.000
318.685; -183.300; -985.000; -888.000
318.821; -142.500; -762.000; -735.000
318.957;   -2.700;   34.000;  -23.000
319.094;  118.600;  297.000;  154.000
319.230; -162.300; -756.000; -742.000
319.367;  193.700; -471.000; -520.000
319.503;  121.500; -538.000; -436.000
319.639; -191.700; -877.000; -793.000
319.775; -139.100; -750.000; -685.000
319.912;  -82.700; -424.000; -519.000
320.048; -182.900;-1184.000;-1184.000
320.184;  186.600;   59.000;   70.000
320.321;  -83.800; -497.000; -467.000
320.457;  151.400;  475.000;  662.000
320.593; -120.900; -375.000; -382.000
320.729; -178.100; -732.000; -734.000
320.866; -130.100; -577.000; -635.000
321.002; -159.200; -759.000; -809.000
321.138;  -19.100; -135.000; -211.000
321.274;  132.800; -148.000; -115.000
321.410;  -27.100; -585.000; -353.000
321.546;  -82.700;-1011.000; -911.000
321.683;  125.800;  400.000;  185.000
321.819;   20.100;  -48.000; -117.000
321.955; -223.100; -743.000; -722.000
322.091;  -77.000; -585.000; -540.000
322.227;  -11.700; -382.000; -202.000
322.363;  -30.100; -320.000; -215.000
322.499;  -89.200; -343.000; -331.000
322.635;  337.500;  636.000;  443.000
322.771;   51.100; -139.000;   12.000
322.907;  226.100;  129.000;  327.000
323.043;  -26.700; -115.000; -206.000
323.179;  -36.600; -394.000; -363.000
323.315;   11.800; -401.000; -371.000
323.451;  155.200; -328.000; -236.000
323.587;  121.600;  -60.000;  -77.000
323.723;   22.000; -682.000; -601.000
323.859;  -45.000; -258.000;  -76.000
323.995;  -11.200; -467.000; -409.000
324.131; -229.900; -967.000; -892.000
324.267;  -23.000; -254.000; -276.000
324.402; -239.600; -960.000; -983.000
324.538;   -3.700; -279.000; -104.000
324.674;   52.100;  164.000;   77.000
324.810;  276.700;  226.000;  308.000
324.946;  -12.300; -810.000; -658.000
325.082; -115.700; -568.000; -475.000
325.217;   -2.700;  -62.000;   16.000
325.353; -179.900; -764.000; -659.000
325.489; -147.900; -540.000; -506.000
325.625; -117.300; -579.000; -525.000
325.760;  119.300;  517.000;  376.000
325.896;  -20.400; -515.000; -702.000
326.032;  -89.300; -403.000; -352.000
326.168; -109.800; -462.000; -369.000
326.303;  -93.400; -352.000; -461.000
326.439;   -7.000; -336.000; -276.000
326.575;   43.700; -190.000;  -29.000
326.710;    2.500; -156.000;  -30.000
326.846;  -48.500;  146.000;  103.000
326.982; -137.500; -530.000; -548.000
327.117; -118.800; -481.000; -442.000
327.253; -169.700; -745.000; -742.000
327.388; -328.900;-1137.000;-1153.000
327.524; -102.500; -811.000; -578.000
327.659;  -42.800;  -58.000;  -22.000
327.795;   18.200;   69.000;   45.000
327.931; -171.900; -723.000; -499.000
328.066;  -36.300; -417.000; -276.000
328.202;   -0.500;   12.000; -129.000
328.337;  283.300;  957.000;  713.000
328.473;  -10.500;  -12.000;  -74.000
328.608;  -13.700; -256.000; -267.000
328.743; -167.300; -799.000; -664.000
328.879;   80.800;  214.000;  114.000
329.014;  -87.700; -102.000; -122.000
329.150; -148.200; -358.000; -483.000
329.285; -121.900; -465.000; -466.000
329.421;  -66.200; -548.000; -246.000
329.556;   20.600;  -36.000;   85.000
329.691; -147.200; -633.000; -615.000
329.827; -129.400; -626.000; -480.000
329.962;  -54.500;  131.000; -301.000
330.097; -165.400; -673.000; -585.000
330.233;  -65.300; -410.000; -223.000
330.368; -215.300; -839.000; -628.000
330.503;  -29.200;    3.000;   98.000
330.638;   37.400;  -93.000; -125.000
330.774; -102.800; -609.000; -530.000
330.909;  -58.500; -434.000; -244.000
331.044; -182.600; -714.000; -708.000
331.179; -333.800;-1217.000;-1109.000
331.315;   41.300;   77.000;   20.000
331.450;   56.100;  157.000;  285.000
331.585; -195.100; -805.000; -706.000
331.720; -143.500; -510.000; -460.000
331.855;   -1.600;  -35.000; -102.000
331.990;  504.300;   62.000;  138.000
332.126;  280.000; -110.000;   71.000
332.261;  -13.600; -379.000; -265.000
332.396;   34.800; -135.000; -242.000
332.531; -176.500;-1074.000;-1031.000
332.666;   94.000; -519.000; -363.000
332.801; -187.500; -726.000; -807.000
332.936;  -20.600; -192.000; -122.000
333.071; -291.500; -870.000; -817.000
333.206;   68.000;  307.000;  379.000
333.341;   80.900;  344.000;  418.000
333.476; -148.700; -627.000; -623.000
333.611;  -65.000; -251.000; -173.000
333.746;  -84.000; -381.000; -464.000
333.881; -233.400; -973.000; -935.000
334.016; -243.100; -936.000; -917.000
334.151; -252.700; -746.000; -702.000
334.286;   81.900;  152.000;  186.000
334.421;  -24.600; -125.000; -178.000
334.556; -156.000; -611.000; -567.000
334.690; -165.100; -631.000; -577.000
334.825;  140.000;  381.000;   83.000
334.960;  -77.500; -285.000; -413.000
335.095;   38.600;  135.000;  -91.000
335.230; -196.900; -722.000; -738.000
335.365; -264.600;-1084.000; -990.000
335.499; -289.600;-1108.000;-1037.000
335.634;  105.300;    9.000;  534.000
335.769; -179.400; -755.000; -720.000
335.904; -115.400; -603.000; -561.000
336.038;  -82.400; -735.000; -657.000
336.173; -233.600;-1206.000;-1194.000
336.308;   10.400; -116.000; -189.000
336.443;   34.900; -544.000; -634.000
336.577; -143.900; -936.000; -787.000
336.712;   95.600;   -4.000;  -12.000
336.847; -109.000; -724.000; -607.000
336.981;  127.200; -272.000; -208.000
337.116;  472.000;  615.000;  501.000
337.250;  274.200; -434.000; -421.000
337.385;  478.000; -297.000; -208.000
337.520;  178.200; -632.000; -603.000
337.654;  -60.900; -215.000; -126.000
337.789; -218.700; -989.000; -933.000
337.923;  -30.400; -104.000; -205.000
338.058; -161.400; -673.000; -738.000
338.192;  -33.000; -611.000; -488.000
338.327;   59.800;  -18.000; -155.000
338.461; -132.900; -299.000; -469.000
338.596; -123.900; -780.000; -638.000
338.730; -182.500; -767.000; -803.000
338.865;  201.900;  -46.000; -140.000
338.999;  -56.200; -846.000; -702.000
339.134;  -60.500; -634.000; -536.000
339.268;   24.500; -741.000; -603.000
339.403;  678.000; -740.000; -775.000
339.537;  212.600; -894.000; -820.000
339.671; -195.100; -829.000; -813.000
339.806; -102.400; -556.000; -512.000
339.940;   61.000; -261.000; -235.000
340.074; -157.900; -685.000; -510.000
340.209;  -49.500; -351.000; -230.000
340.343; -146.300; -517.000; -573.000
340.477;  332.700;  998.000; 1036.000
340.612;  -96.600;-1033.000; -900.000
340.746;  279.200; -199.000; -243.000
340.880; -155.100; -924.000; -785.000
341.014;   -5.400;  -45.000; -154.000
341.149; -199.600; -756.000; -718.000
341.283; -189.500; -839.000; -754.000
341.417; -197.600;-1124.000; -938.000
341.551;  205.600; -768.000; -708.000
341.685;  -92.600; -633.000; -611.000
341.820;  -64.500; -562.000; -493.000
341.954;  -95.600; -218.000; -349.000
342.088; -293.900;-1102.000;-1019.000
342.222;   92.900;  565.000;  618.000
342.356;  -92.500; -395.000; -335.000
342.490; -172.800; -880.000; -841.000
342.624;  -71.700; -339.000; -242.000
342.758;   -4.900; -364.000; -312.000
342.892;  -87.900; -710.000; -585.000
343.026;  -44.500;  -58.000; -116.000
343.160;  -88.000; -426.000; -376.000
343.294; -130.400; -474.000; -337.000
343.428;   -8.100; -488.000; -448.000
343.562;    4.000; -172.000;  -23.000
343.696;  -37.800; -385.000; -314.000
343.830;  -19.700; -362.000; -356.000
343.964;   40.900; -231.000; -168.000
344.098; 1534.900;  199.000;   70.000
344.232; 1247.900; -266.000; -127.000
344.366;  150.900; -567.000; -453.000
344.500;  111.500; -665.000; -744.000
344.634;   74.200; -324.000; -164.000
344.768;  -16.000; -531.000; -341.000
344.902;   74.700;  278.000;  256.000
345.035; -126.800; -556.000; -496.000
345.169; -257.300; -933.000; -656.000
345.303;  -11.200; -308.000; -482.000
345.437; -130.600; -826.000; -717.000
345.571; -101.300; -675.000; -594.000
345.704; -115.500; -309.000; -532.000
345.838;   24.200; -331.000; -284.000
345.972;  -58.500; -543.000; -495.000
346.106;  313.800; -179.000; -190.000
346.239;  749.000; -312.000; -243.000
346.373;  -12.300; -343.000; -302.000
346.507; -282.100; -950.000; -962.000
346.640;  264.700;  -30.000;   13.000
346.774;  -69.300; -650.000; -797.000
346.908;    2.200; -138.000;  -11.000
347.041; -187.800; -646.000; -593.000
347.175;   64.700;  259.000;   27.000
347.309; -133.700; -698.000; -628.000
347.442; -186.900; -883.000; -732.000
347.576;  520.200;  670.000;  668.000
347.709;  312.000; -123.000;  -52.000
347.843; -147.500; -933.000; -825.000
347.976;   89.900;  235.000;  294.000
348.110; -334.400;-1268.000;-1186.000
348.243; -217.600; -679.000; -772.000
348.377;   37.100;  -26.000;   60.000
348.510;  137.500;  403.000;  540.000
348.644;  -55.600;  -37.000; -159.000
348.777;   47.900;  180.000;  191.000
348.911;  -60.500; -142.000; -112.000
349.044;  350.200;  471.000;  448.000
349.178;  207.900;-1069.000;-1006.000
349.311;  250.700;  141.000;  255.000
349.444;   -7.600; -927.000; -813.000
349.578;    2.600; -347.000; -200.000
349.711; -203.900; -959.000; -862.000
349.845;  -15.000; -661.000; -591.000
349.978; -283.000;-1224.000;-1137.000
350.111; -142.700; -546.000; -612.000
350.244; -134.600; -596.000; -700.000
350.378;   -0.200; -392.000; -393.000
350.511; -114.200; -393.000; -426.000
350.644; -150.600; -808.000; -806.000
350.778;   56.300;  168.000;  104.000
350.911;   63.200;  134.000;  140.000
351.044; -126.900; -685.000; -615.000
351.177;  -21.600; -321.000; -281.000
351.310;  -10.900;    3.000; -131.000
351.444; -136.800; -888.000; -788.000
351.577;  238.300;  140.000;   90.000
351.710;  229.500;  593.000;  417.000
351.843;  -32.900; -165.000;  -77.000
351.976;   67.700;  149.000;  -79.000
352.109; -160.700; -621.000; -612.000
352.242;  -39.500; -464.000; -419.000
352.376; -138.900; -580.000; -636.000
352.509;  282.400; -437.000; -356.000
352.642;  -34.500; -654.000; -604.000
352.775;  125.500; -141.000;  -98.000
352.908; -199.300; -933.000; -904.000
353.041; -191.100; -814.000; -824.000
353.174;  -71.100; -551.000; -424.000
353.307; -165.300; -753.000; -764.000
353.440;  181.600;  541.000;  453.000
353.573; -203.300; -957.000;-1008.000
353.706; -104.000; -384.000; -558.000
353.839;  -46.300; -264.000; -220.000
353.971; -172.400; -657.000; -512.000
354.104; -151.200; -896.000; -835.000
354.237;  -82.800; -627.000; -662.000
354.370; -165.600; -846.000; -879.000
354.503; -352.600;-1231.000;-1308.000
354.636;  -54.500; -529.000; -348.000
354.769; -242.400; -937.000; -860.000
354.902;   10.300; -230.000; -139.000
355.034;    6.300; -164.000; -220.000
355.167;  -17.900; -262.000; -162.000
355.300; -167.500;-1061.000; -880.000
355.433; 1803.000;  -71.000;  -14.000
355.565; 2792.500; -402.000; -384.000
355.698;  694.900; -356.000; -296.000
355.831;  -33.600; -882.000; -801.000
355.964;  127.100; -285.000; -170.000
356.096; -164.500; -856.000; -843.000
356.229;   -2.100; -523.000; -530.000
356.362;  591.200; -373.000; -266.000
356.494; 1122.100; -229.000; -162.000
356.627;  873.400;  269.000;  377.000
356.760; 1245.200;  120.000;   53.000
356.892; 1727.600; -286.000; -601.000
357.025; 1179.700;  403.000;  389.000
357.157;  956.400; -167.000; -179.000
357.290; 1281.500; -856.000; -713.000
357.423;  360.900; -667.000; -556.000
357.555;  210.600; -217.000; -228.000
357.688;  206.700; -483.000; -364.000
357.820;  680.200; -870.000; -877.000
357.953; 5907.700; -563.000; -589.000
358.085; 1199.400; -632.000; -612.000
358.218; 1721.900;-1131.000; -932.000
358.350;  354.600;  -58.000;  312.000
358.483; -244.300;-1300.000;-1187.000
358.615;  -48.300;-1182.000;-1078.000
358.747; -155.100;-1187.000;-1058.000
358.880;   42.500; -810.000; -744.000
359.012;    9.900; -376.000; -202.000
359.145;  -79.000; -480.000; -511.000
359.277;   48.400; -962.000; -913.000
359.409; 4884.900;  536.000;  231.000
359.542; 1227.800; -738.000; -688.000
359.674;  156.500;   46.000;   13.000
359.806; -113.600; -565.000; -438.000
359.939;  -52.000; -617.000; -516.000
360.071;   -2.500; -583.000; -579.000
360.203;  -28.000; -411.000; -364.000
360.335;  122.100;  164.000;  -16.000
360.468;  325.900; -249.000; -307.000
360.600; 3994.100; -547.000; -454.000
360.732; 5216.400; -546.000; -423.000
360.864;  608.800;-1216.000;-1044.000
360.996;  466.200; -516.000; -554.000
361.129;   48.400; -389.000; -598.000
361.261;   74.400;  110.000; -113.000
361.393;    9.200; -252.000; -214.000
361.525;   96.700;   94.000;  244.000
361.657; -106.800; -821.000; -703.000
361.789;   71.500; -139.000; -155.000
361.921;  332.900; -642.000; -593.000
362.053;  530.200;  524.000;  541.000
362.185;  129.600;  288.000;   72.000
362.318; -162.500; -709.000; -705.000
362.450;  195.100;  294.000;  444.000
362.582;   83.400; -913.000; -870.000
362.714;  -32.200; -353.000; -332.000
362.846; -103.900; -606.000; -490.000
362.978; -215.900; -941.000; -811.000
363.109;  108.100; -161.000; -260.000
363.241;  722.800; -739.000; -749.000
363.373;  810.300; -649.000; -564.000
363.505; 1263.600; -186.000;  -91.000
363.637;  298.400; -787.000; -601.000
363.769; -233.200;-1067.000;-1080.000
363.901; -114.200; -596.000; -654.000
364.033; -224.300;-1103.000;-1062.000
364.165;   26.100; -283.000; -283.000
364.296;  157.700; -316.000; -177.000
364.428;  142.200;-1344.000;-1220.000
364.560;  -77.100; -679.000; -661.000
364.692; -111.800; -738.000; -835.000
364.824;  413.700; -588.000; -456.000
364.955;  804.700; -402.000; -564.000
365.087; 1665.200;-1097.000; -852.000
365.219;   46.500; -686.000; -816.000
365.351; -100.800; -526.000; -572.000
365.482;  111.500;  300.000;  240.000
365.614;  -65.600; -402.000; -314.000
365.746; -164.900; -729.000; -752.000
365.877; -154.400; -706.000; -672.000
366.009;  518.800;  -35.000;  -62.000
366.141; -168.400;-1249.000;-1134.000
366.272; -153.500; -803.000; -719.000
366.404; -206.000;-1005.000; -874.000
366.535;   46.700; -139.000;  -12.000
366.667; -186.600; -644.000; -649.000
366.799;  112.700;  353.000;  203.000
366.930; -207.800; -862.000; -996.000
367.062;  246.400; -639.000; -613.000
367.193;  295.600; -872.000; -842.000
367.325;  -96.600; -580.000; -684.000
367.456;   94.900; -246.000;   31.000
367.588;  306.000; -371.000; -318.000
367.719;   72.400;  -44.000;  -45.000
367.851;   -3.900; -222.000; -241.000
367.982; -111.500; -875.000; -732.000
368.113;  181.100; -475.000; -358.000
368.245; -236.000; -960.000; -841.000
368.376;    5.200; -254.000; -302.000
368.508;  -38.000; -188.000; -263.000
368.639; -258.400;-1166.000;-1034.000
368.770;  -29.200; -670.000; -589.000
368.902; -103.500; -836.000; -926.000
369.033; -190.400; -906.000; -855.000
369.164;  -66.600; -720.000; -653.000
369.296; -206.300; -452.000; -601.000
369.427;   35.000; -209.000; -144.000
369.558;  -54.600; -593.000; -377.000
369.689; -123.600; -721.000; -569.000
369.821; -246.400; -951.000; -845.000
369.952;    9.100;   42.000; -108.000
370.083;  -46.000; -229.000; -108.000
370.214; -144.500; -735.000; -650.000
370.345;   40.200;   65.000;   81.000
370.477; -140.700; -810.000; -790.000
370.608;  404.500; -328.000; -264.000
370.739; -121.500;-1233.000;-1292.000
370.870;  -96.400;-1102.000; -923.000
371.001;  201.400; -378.000; -467.000
371.132; -113.000; -754.000; -735.000
371.263;   21.000;  -42.000; -148.000
371.394; -254.600; -841.000; -748.000
371.525;   99.900;  345.000;  225.000
371.657; -161.100; -808.000; -670.000
371.788;  152.200;  103.000;  199.000
371.919;  317.900; -384.000; -304.000
372.050; 5850.700;  -91.000; -156.000
372.181; 1688.900; -188.000; -294.000
372.311;  641.700;   42.000; -127.000
372.442;   46.300; -457.000; -451.000
372.573;  -28.000; -444.000; -340.000
372.704; -267.100;-1008.000; -980.000
372.835;  174.000; -228.000; -289.000
372.966; -101.500; -646.000; -554.000
373.097;  -88.400; -575.000; -711.000
373.228;  -41.200; -717.000; -542.000
373.359;  214.400; -824.000; -536.000
373.490; 1470.700; -881.000; -727.000
373.620; 1844.800;-1001.000; -803.000
373.751; 2836.600; -332.000; -396.000
373.882; 1267.200; -663.000; -733.000
374.013;  126.200; -449.000; -262.000
374.143;  -39.300; -581.000; -659.000
374.274; -206.300; -987.000; -908.000
374.405;  300.200; -388.000; -276.000
374.536;  670.600; -526.000; -387.000
374.666; 1783.900; -759.000; -807.000
374.797;  350.300; -817.000; -868.000
374.928; 1377.300; -710.000; -560.000
375.058; 1402.800; -535.000; -500.000
375.189;  167.300;  -59.000;  -93.000
375.320; -205.300; -928.000;-1034.000
375.450;  -60.200; -625.000; -616.000
375.581;  -83.700; -526.000; -436.000
375.712;  -45.200; -574.000; -250.000
375.842;  499.600; -438.000; -415.000
375.973;  326.200; -554.000; -513.000
376.103;  -91.900; -665.000; -648.000
376.234; -118.800; -531.000; -552.000
376.364;  -91.600; -944.000; -867.000
376.495;  668.500;  925.000;  529.000
376.625;   -4.900; -472.000; -485.000
376.756;  116.600; -709.000; -678.000
376.886; -169.100;-1178.000;-1026.000
377.017;  107.400;-1048.000;-1061.000
377.147;  645.000; -786.000; -782.000
377.278;  170.700;  174.000;  228.000
377.408; -197.200; -801.000; -815.000
377.538; -180.900; -707.000; -693.000
377.669; -109.400; -537.000; -613.000
377.799; -152.600; -645.000; -635.000
377.929;  -74.000; -610.000; -428.000
378.060; -224.100; -781.000; -847.000
378.190;  -99.300; -726.000; -531.000
378.320;  -57.300; -401.000; -406.000
378.451;   -8.300; -131.000;  -22.000
378.581;    2.600;  -67.000; -110.000
378.711;  345.900; 1035.000;  866.000
378.841;  -22.400; -533.000; -675.000
378.972; -149.000; -871.000; -751.000
379.102;    2.500; -652.000; -579.000
379.232;  -18.500; -126.000;  -73.000
379.362; -184.900;-1001.000; -885.000
379.492;   21.000; -373.000; -424.000
379.623;  210.300;    0.000;  111.000
379.753; -213.500;-1107.000; -974.000
379.883;  358.200;   59.000;  156.000
380.013;  -31.100;-1081.000;-1017.000
380.143; -214.700;-1097.000;-1056.000
380.273; -171.500; -985.000; -861.000
380.403;   71.400; -344.000; -257.000
380.533;  -69.400; -651.000; -664.000
380.663;  178.900;  173.000;  128.000
380.793; -182.800;-1027.000;-1074.000
380.923;  -17.000; -103.000;  -34.000
381.053; -144.800; -613.000; -623.000
381.183;   -6.000; -106.000; -248.000
381.313;   66.500; -656.000; -470.000
381.443;   58.600; -692.000; -473.000
381.573;  337.700; -402.000; -409.000
381.703;  399.200;-1249.000;-1095.000
381.833; -253.900;-1454.000;-1336.000
381.963;  222.700; -134.000;  -87.000
382.093; 2280.800; -925.000; -909.000
382.223;  615.400; -713.000; -602.000
382.353;  -23.000; -801.000; -608.000
382.482;  559.300;-1091.000; -964.000
382.612; 1259.700; -872.000; -644.000
382.742;  677.300; -695.000; -622.000
382.872;  460.900; -565.000; -551.000
383.002;  176.300;  347.000; -132.000
383.131;  -29.800; -226.000; -160.000
383.261;  -79.800; -706.000; -768.000
383.391;  523.200; -552.000; -377.000
383.521; 6071.100;  451.000;  263.000
383.650; 1301.100; -947.000; -904.000
383.780;   -0.500; -783.000; -656.000
383.910;  270.400;  880.000;  802.000
384.039;   19.100; -794.000; -656.000
384.169;  270.000;-1205.000;-1017.000
384.299;  -46.700; -650.000; -662.000
384.428; -159.800; -764.000; -680.000
384.558;  -31.600; -308.000; -275.000
384.687;  -44.200; -414.000; -334.000
384.817;   81.700;   75.000;   -2.000
384.947;   78.100; -234.000; -141.000
385.076;  564.800;  982.000;  912.000
385.206;  186.600;  369.000;  480.000
385.335;  -39.000; -549.000; -417.000
385.465; -140.200; -655.000; -663.000
385.594;  228.000;  -53.000;  -44.000
385.724;  605.900; -868.000; -838.000
385.853;  197.500; -296.000; -270.000
385.982; 2255.800; -743.000; -787.000
386.112; 3286.000;-1052.000; -871.000
386.241;  220.400; -307.000; -312.000
386.371;   52.600; -174.000;  -87.000
386.500;  -36.000; -825.000; -789.000
386.629;   74.600; -874.000; -817.000
386.759;  172.000;  -43.000;   68.000
386.888;   35.500; -170.000; -250.000
387.017; -135.400; -648.000; -620.000
387.147; -122.000; -771.000; -798.000
387.276;   16.200; -410.000; -397.000
387.405;   67.500; -398.000; -342.000
387.535;  -56.800; -452.000; -361.000
387.664; -105.000; -692.000; -620.000
387.793;  129.600; -198.000; -113.000
387.922;  871.700;  255.000;  200.000
388.052;   66.400; -576.000; -423.000
388.181;    7.400; -342.000; -472.000
388.310;   -7.300; -889.000; -710.000
388.439;  -88.100; -749.000; -742.000
388.568;  375.000;  365.000;  244.000
388.697; 1623.200; -756.000; -653.000
388.826;  300.500; -768.000; -666.000
388.956;   89.000; -285.000; -307.000
389.085;  -25.800; -347.000; -287.000
389.214; -198.500; -842.000; -872.000
389.343; -123.500; -645.000; -413.000
389.472;  824.100;  126.000;  149.000
389.601;  924.900;   91.000;    0.000
389.730;   29.000; -568.000; -687.000
389.859;  129.900;  226.000;   46.000
389.988;  308.300; -423.000; -408.000
390.117;  236.400; -168.000; -146.000
390.246;    7.200; -331.000; -320.000
390.375;  164.900; -673.000; -626.000
390.504; -121.700; -703.000; -621.000
390.633; -183.600; -672.000; -726.000
390.761; -121.200; -732.000; -645.000
390.890;   80.300;   -4.000; -130.000
391.019;  -32.500; -421.000; -441.000
391.148; -232.700; -826.000; -855.000
391.277; -101.600; -576.000; -493.000
391.406; -149.700; -821.000; -805.000
391.534;   78.000;  574.000; -301.000
391.663;  -92.300; -583.000; -645.000
391.792; -144.900; -673.000; -701.000
391.921;  209.900;   -3.000;   15.000
392.050;  336.700; -287.000; -228.000
392.178; -114.400;-1206.000;-1061.000
392.307;  248.200; -758.000; -712.000
392.436;   89.100; -427.000; -641.000
392.564;   86.400;  166.000;   -6.000
392.693; -157.100; -860.000; -682.000
392.822;  343.900; -529.000; -534.000
392.950;  126.700; -880.000; -714.000
393.079;  524.400; -188.000; -328.000
393.208;   -3.900; -488.000; -511.000
393.336;   31.400; -170.000; -145.000
393.465;  -56.100; -317.000; -199.000
393.593;   74.600;   62.000;   79.000
393.722; -260.300;-1121.000; -916.000
393.850;   14.200; -188.000;  -61.000
393.979; -271.400; -926.000; -805.000
394.107;  -65.400; -517.000; -537.000
394.236;  -32.500; -570.000; -507.000
394.364;  531.600;  383.000;  206.000
394.493;  748.000; -911.000; -767.000
394.621;   18.100; -955.000; -916.000
394.750; 1416.200; -873.000; -923.000
394.878; 5705.300; -247.000; -149.000
395.007; 7257.200; -721.000; -807.000
395.135;  508.600; -790.000; -721.000
395.263; -170.700;-1038.000;-1040.000
395.392;   77.100;  -25.000; -107.000
395.520; -205.800; -818.000; -679.000
395.648; -135.500; -865.000; -915.000
395.777;  -23.200; -366.000; -405.000
395.905;  -57.800; -449.000; -564.000
396.033;   97.900;  217.000;  172.000
396.162; 1340.000; -399.000; -453.000
396.290; 1068.200;  -17.000;   -2.000
396.418;  172.200; -555.000; -514.000
396.546; -149.000; -571.000; -466.000
396.674; -177.600; -850.000; -878.000
396.803;   38.500;  -72.000;  -23.000
396.931;  180.400; -179.000; -199.000
397.059;   50.000;-1026.000; -989.000
397.187; -167.500;-1026.000; -975.000
397.315; -255.500; -884.000; -649.000
397.443; -143.300; -592.000; -443.000
397.572; -135.900; -578.000; -424.000
397.700;  -45.600; -607.000; -614.000
397.828;   89.600;  120.000;  -90.000
397.956;  -61.100; -508.000; -478.000
398.084; -120.100; -767.000; -626.000
398.212;   96.600;  137.000;  124.000
398.340;   80.300;  -56.000;  159.000
398.468;   42.700; -390.000; -169.000
398.596; -256.200; -993.000; -953.000
398.724; -205.500; -762.000; -767.000
398.852; -284.100;-1024.000; -976.000
398.980; -120.500; -560.000; -560.000
399.108;  -74.100; -982.000; -735.000
399.236;  124.800;   13.000;    8.000
399.363;   65.100;  222.000;  196.000
399.491;  -79.300; -404.000; -398.000
399.619; -243.200; -829.000; -800.000
399.747; -178.700; -859.000; -771.000
399.875;  177.500;  220.000;  234.000
400.003;  -71.100; -359.000; -284.000
400.130; -154.800; -421.000; -341.000
400.258;   13.800;  -83.000;   38.000
400.386;  -66.500; -352.000; -168.000
400.514;  -38.400; -526.000; -587.000
400.641; -170.200; -928.000; -802.000
400.769; -233.900; -979.000; -888.000
400.897; -183.600; -838.000; -793.000
401.025;   34.500; -166.000; -152.000
401.152;   65.500;  220.000;   38.000
401.280; -101.100; -430.000; -429.000
401.408; -198.300; -712.000; -576.000
401.535; -177.500; -735.000; -758.000
401.663; -348.700;-1134.000;-1054.000
401.790; -130.800; -514.000; -525.000
401.918;  135.700;  436.000;  405.000
402.046;    9.800;  134.000;  122.000
402.173;  -36.100;  -18.000;    7.000
402.301;  -74.700; -519.000; -397.000
402.428;  141.900;  528.000;  383.000
402.556; -266.100;-1188.000; -913.000
402.683;  -24.500;  -20.000;   -1.000
402.811;   27.200;  -37.000; -206.000
402.938;   20.600;   20.000;   27.000
403.066;  312.600; -574.000; -558.000
403.193;  534.500;  299.000;  239.000
403.321;  400.900; -396.000; -574.000
403.448;  513.700;   83.000;   27.000
403.575;  244.100;  -90.000;  -46.000
403.703; -168.700; -732.000; -557.000
403.830;  -97.800; -531.000; -496.000
403.957; -255.700;-1117.000;-1023.000
404.085;   84.000;  -61.000; -172.000
404.212;  233.700;  -50.000;   63.000
404.339;  536.300; -566.000; -306.000
404.467;11192.900; -612.000; -524.000
404.594; 6676.400; -287.000; -227.000
404.721; 1512.300; -869.000; -764.000
404.848;  180.200; -113.000; -202.000
404.976; -144.000; -856.000; -783.000
405.103;   -3.100;  -14.000;  -82.000
405.230;   36.000;  190.000;  226.000
405.357;   95.500;  117.000;   44.000
405.484;  575.900;  -49.000;    5.000
405.612;   89.600; -548.000; -563.000
405.739;  -97.000; -488.000; -243.000
405.866;  217.000;  669.000;  385.000
405.993;  -40.000; -398.000; -102.000
406.120; -249.400; -801.000; -887.000
406.247;  -87.800; -323.000; -342.000
406.374;  833.100;  540.000;  629.000
406.501;  125.500; -632.000; -702.000
406.628; -102.000; -621.000; -589.000
406.755; -153.100; -803.000; -620.000
406.882;  -32.800; -228.000; -277.000
407.009; -173.400; -719.000; -628.000
407.136;  106.300; -480.000; -401.000
407.263;  158.200; -939.000; -829.000
407.390; -138.400; -692.000; -614.000
407.517; -310.500;-1139.000;-1187.000
407.644;  -84.200; -332.000; -256.000
407.771;  -94.300; -249.000; -287.000
407.898;   75.900;  168.000;  328.000
408.025; -105.100; -421.000; -313.000
408.151;   21.200;   82.000;  153.000
408.278; -111.100; -267.000; -216.000
408.405; -219.100; -931.000; -899.000
408.532; -109.600; -549.000; -542.000
408.659; -191.600; -677.000; -648.000
408.785; -337.900;-1298.000;-1170.000
408.912;  -72.300; -412.000; -296.000
409.039; -175.500; -610.000; -686.000
409.166; -158.400; -591.000; -555.000
409.292; -199.200; -571.000; -534.000
409.419; -195.500; -665.000; -649.000
409.546; -111.900; -431.000; -192.000
409.672; -171.800; -713.000; -545.000
409.799;   -2.300;  -36.000;   34.000
409.926;   -8.500; -180.000; -179.000
410.052; -306.900;-1127.000;-1091.000
410.179;  -90.100; -368.000; -392.000
410.305;  -95.900; -375.000; -493.000
410.432;  -54.500; -220.000; -333.000
410.558; -156.600; -305.000; -380.000
410.685; -158.100; -688.000; -431.000
410.812; -143.000; -409.000; -588.000
410.938; -223.400; -964.000; -808.000
411.065; -164.100; -671.000; -645.000
411.191;  -24.500; -189.000; -174.000
411.317; -183.100; -823.000; -742.000
411.444;  -90.200; -317.000; -246.000
411.570; -106.700; -339.000; -294.000
411.697; -197.400; -758.000; -752.000
411.823; -277.800; -989.000; -999.000
411.949;   -1.600;  -56.000;   17.000
412.076; -177.200; -539.000; -519.000
412.202; -188.700; -758.000; -757.000
412.329; -227.600; -798.000; -752.000
412.455; -180.700; -821.000; -657.000
412.581;   20.300;  -15.000;  172.000
412.707;  -70.900; -540.000; -457.000
412.834;   68.800;  156.000;  219.000
412.960; -140.300; -785.000; -784.000
413.086; -187.500; -743.000; -701.000
413.212;  320.700;  604.000;  578.000
413.339; -120.800; -685.000; -701.000
413.465;   31.300; -364.000; -310.000
413.591; -150.400; -757.000; -474.000
413.717;  -74.500; -358.000; -366.000
413.843; -236.500; -839.000; -861.000
413.969;  -65.600;  -47.000; -292.000
414.096; -151.200; -679.000; -679.000
414.222;   50.800;  -33.000;   85.000
414.348;  -17.700; -652.000; -385.000
414.474;  226.600;   38.000;  -52.000
414.600;   24.500; -126.000; -144.000
414.726;   30.400;  -96.000;  -55.000
414.852;  -88.500; -365.000; -342.000
414.978;   91.200;  104.000;  -18.000
415.104;  121.700;   38.000;   80.000
415.230;   89.400; -329.000; -330.000
415.356;   92.700; -409.000; -514.000
415.482;  419.600;   13.000;  -35.000
415.608;  543.000; -247.000; -323.000
415.734; 1961.300;   67.000;   38.000
415.860;39405.500; -875.000; -767.000
415.986;25712.000; -685.000; -607.000
416.111; 2176.200; -798.000; -652.000
416.237;  495.100; -424.000; -571.000
416.363; 2366.600; -765.000; -733.000
416.489; 7727.400; -324.000; -251.000
416.615;  758.100; -707.000; -742.000
416.741;   -4.500; -677.000; -784.000
416.866; -137.400; -673.000; -736.000
416.992; -208.400; -801.000; -818.000
417.118;   -0.200;  -41.000;  -80.000
417.244; -107.100; -798.000; -531.000
417.369; -117.400; -801.000; -612.000
417.495;   32.800; -325.000; -254.000
417.621; -148.200;-1015.000; -803.000
417.746;   49.800; -579.000; -572.000
417.872;  132.400; -254.000; -144.000
417.998;  140.000; -515.000; -530.000
418.123; 2234.600;-1073.000; -845.000
418.249;10184.800; -512.000; -601.000
418.374; 1298.300; -916.000; -824.000
418.500;  238.100; -383.000; -482.000
418.626;  246.000;   70.000;  -59.000
418.751;  264.100; -549.000; -448.000
418.877;  407.000; -637.000; -643.000
419.002; 3771.700; -688.000; -560.000
419.128;24150.700; -930.000; -721.000
419.253; 5269.100; -967.000; -837.000
419.379;  765.900; -391.000; -338.000
419.504;  789.000;  325.000;  415.000
419.629; 1021.300; -393.000; -212.000
419.755; 7564.800; -317.000; -254.000
419.880;39570.200;  -98.000;   67.000
420.006;22251.400; -280.000; -221.000
420.131;53866.300; -662.000; -775.000
420.256; 6966.300; -315.000; -316.000
420.382;  937.000; -665.000; -687.000
420.507;  137.100; -649.000; -778.000
420.632;  201.300; -337.000; -339.000
420.758;  391.500; -251.000; -425.000
420.883; -135.100; -876.000; -672.000
421.008; -154.700; -775.000; -619.000
421.133; -131.200; -509.000; -467.000
421.259;  -57.000; -325.000; -259.000
421.384; -187.700; -834.000; -693.000
421.509; -108.700;-1052.000; -862.000
421.634; 1791.800; -936.000; -820.000
421.759;  675.400; -359.000; -327.000
421.885;  -89.900; -717.000; -656.000
422.010; -125.800; -673.000; -542.000
422.135; -214.300; -695.000; -727.000
422.260;  132.600;  340.000;  280.000
422.385;  -45.500;   12.000;  -98.000
422.510;   96.400;  151.000;  -26.000
422.635;   42.300;  -87.000;  -43.000
422.760;  202.200; -766.000; -791.000
422.885;  101.600;  -57.000;  -80.000
423.010;  -33.000; -112.000; -169.000
423.135; -137.300; -481.000; -561.000
423.260;   -7.500; -150.000; -245.000
423.385;  189.100;  476.000;  222.000
423.510;  100.200;   71.000;  -22.000
423.635;  213.500;  133.000;   45.000
423.760;  160.700;  383.000;  328.000
423.885;  148.400;  336.000;  391.000
424.010;   68.800;  -68.000;  -13.000
424.135;   18.700;    5.000;  -33.000
424.259; -131.200; -654.000; -457.000
424.384;  -55.700; -279.000; -272.000
424.509;   11.600; -260.000; -186.000
424.634; -161.700; -761.000; -623.000
424.759;  -11.900; -688.000; -544.000
424.883;    6.200; -506.000; -527.000
425.008;  390.400; -502.000; -410.000
425.133; 3976.800; -679.000; -653.000
425.258; 1619.800; -517.000; -381.000
425.382; 1757.600; -867.000; -774.000
425.507; 4015.000; -487.000; -543.000
425.632;  721.100; -802.000; -663.000
425.756;  886.200; -256.000; -146.000
425.881;13455.600; -831.000; -857.000
426.006;32725.200; -604.000; -355.000
426.130; 4617.400; -696.000; -508.000
426.255;  666.000; -611.000; -491.000
426.379;  346.300; -189.000; -577.000
426.504;  879.500;  660.000;  544.000
426.629; 8039.100; -519.000; -466.000
426.753; 4908.800;   64.000;  -46.000
426.878;  605.500; -252.000; -288.000
427.002;  339.100; -651.000; -668.000
427.127; 3310.200;  -35.000; -158.000
427.251;21967.800;  372.000;  401.000
427.375; 5508.600; -191.000; -173.000
427.500; 3754.700; -616.000; -610.000
427.624; 1123.500; -234.000; -400.000
427.749;  226.200; -216.000; -225.000
427.873;  -48.600; -499.000; -412.000
427.997;  -19.300; -222.000; -230.000
428.122;  227.700;  795.000;  703.000
428.246;  226.900;  433.000;  434.000
428.371; -208.400; -869.000; -773.000
428.495; -155.300; -624.000; -646.000
428.619;  -40.300; -186.000; -117.000
428.743;  136.600;   65.000;  132.000
428.868;   42.100; -732.000; -643.000
428.992; 2308.500; -219.000; -326.000
429.116;  855.400; -329.000; -357.000
429.240;  482.000;  419.000;  426.000
429.365;  -36.000; -454.000; -574.000
429.489;  -34.600; -638.000; -647.000
429.613;   88.900; -236.000; -177.000
429.737;  132.300; -563.000; -432.000
429.861;  580.500; -247.000; -133.000
429.985;11382.400; -425.000; -305.000
430.109;10978.600; -770.000; -908.000
430.234; 1265.200;   76.000;  -50.000
430.358;  172.000; -250.000; -160.000
430.482;  -85.100; -672.000; -564.000
430.606;  -51.000; -655.000; -375.000
430.730;   65.300; -437.000; -388.000
430.854;  173.400; -909.000; -835.000
430.978; -100.400; -795.000; -764.000
431.102;  -93.200; -499.000; -422.000
431.226; -201.500; -874.000; -815.000
431.350;   90.500;  345.000;  422.000
431.474; -103.700; -661.000; -373.000
431.597; -285.100;-1060.000; -848.000
431.721; -101.900; -276.000; -267.000
431.845; -214.100; -704.000; -472.000
431.969;  -89.800; -304.000; -349.000
432.093; -128.400; -395.000; -317.000
432.217;   52.100;   32.000;   82.000
432.341; -149.800; -523.000; -518.000
432.464;   86.400;   96.000;   40.000
432.588;  371.400; -401.000; -329.000
432.712;  206.600;  -52.000;  -52.000
432.836;  124.400;  213.000;  263.000
432.959;   21.000; -372.000; -311.000
433.083;  258.500;   11.000;    2.000
433.207;  819.400;  285.000;  930.000
433.330;10197.300; -391.000; -200.000
433.454;11448.600; -654.000; -638.000
433.578; 6759.200;  583.000;  278.000
433.701; 1084.500; -623.000; -675.000
433.825;  225.600; -292.000; -299.000
433.949;  305.000;   28.000;  -72.000
434.072;   98.800; -410.000; -323.000
434.196;   34.200; -309.000; -117.000
434.319; 8061.900;25482.000;25124.000
434.443; 1494.300; -656.000; -603.000
434.566; 4984.300;  281.000;   62.000
434.690;  742.800; -637.000; -383.000
434.813;  154.200; -251.000; -173.000
434.937; -111.100; -569.000; -696.000
435.060;  -66.500; -423.000; -332.000
435.184;  472.300; -492.000; -217.000
435.307;  274.800;  159.000;  102.000
435.431;   35.300;  -40.000;   24.000
435.554;  -86.900; -399.000; -240.000
435.677; -124.500; -350.000; -258.000
435.801;  -36.800;  -25.000;   49.000
435.924;   18.300;    1.000;  -67.000
436.048; -195.400;-1019.000; -732.000
436.171;  -61.800; -240.000;  -66.000
436.294;  -20.500; -248.000; -229.000
436.417;  200.300; -963.000; -849.000
436.541; -110.900; -814.000; -840.000
436.664;  -21.500; -242.000; -316.000
436.787;    5.400;   13.000;  113.000
436.910; -181.700; -792.000; -422.000
437.034;   72.200;  142.000;  143.000
437.157;  134.600;  -11.000;    0.000
437.280; -115.400; -392.000; -292.000
437.403; -131.800; -982.000; -869.000
437.526;  970.600; -903.000; -865.000
437.649; 3256.100; -505.000; -332.000
437.772;  389.400; -692.000; -540.000
437.896;  256.800;  700.000;  544.000
438.019; -176.800; -758.000; -503.000
438.142; -144.700; -596.000; -506.000
438.265;   -8.500; -639.000; -670.000
438.388;  948.000; -520.000; -410.000
438.511;  140.200; -597.000; -394.000
438.634;  -49.100; -247.000; -125.000
438.757; -223.000; -693.000; -619.000
438.880;    6.700;  -34.000;  -57.000
439.003; -136.300; -417.000; -437.000
439.126;  -88.600; -287.000; -167.000
439.248;  -65.600;  -98.000; -139.000
439.371;  -47.300;    9.000;  -53.000
439.494;  102.000;  510.000;  439.000
439.617;  -11.500;   65.000;  -88.000
439.740; -294.000; -968.000; -816.000
439.863; -233.100; -755.000; -595.000
439.986; -177.400; -476.000; -431.000
440.108;  -53.100; -161.000; -112.000
440.231; -251.900; -950.000; -836.000
440.354;  -34.600;  -64.000; -150.000
440.477;   89.700; -566.000; -542.000
440.599;   33.100; -200.000; -225.000
440.722; -197.400; -709.000; -586.000
440.845;  238.800;  751.000;  928.000
440.968; -169.400; -415.000; -311.000
441.090;  -99.500; -199.000;  -33.000
441.213; -304.600;-1021.000; -825.000
441.336;  -39.700; -159.000;   -5.000
441.458; -131.500; -549.000; -396.000
441.581; -123.800; -628.000; -629.000
441.703;  -77.300; -152.000;   13.000
441.826; -203.900; -557.000; -400.000
441.948;  -23.800;   56.000;   51.000
442.071;  151.900;  555.000;  424.000
442.193; -198.100; -531.000; -485.000
442.316;   83.600;  152.000;   97.000
442.438;   86.200; -233.000;  -10.000
442.561;  164.800;  272.000;  262.000
442.683;  846.000; -809.000; -522.000
442.806; 1714.800;   -8.000;   74.000
442.928;  -35.900; -859.000; -604.000
443.051;  -93.500; -577.000; -373.000
443.173; -156.500; -341.000; -339.000
443.295; -121.300; -263.000; -371.000
443.418;  -98.700; -321.000;  -29.000
443.540;   36.000; -106.000;   -4.000
443.662; -190.600; -563.000; -465.000
443.785;   40.000;  335.000;  199.000
443.907; -187.100; -362.000; -208.000
444.029; -197.200; -767.000; -494.000
444.152; -239.900; -644.000; -554.000
444.274;   16.300;  -18.000;  -24.000
444.396; -154.500; -461.000; -221.000
444.518; -187.300; -691.000; -454.000
444.640; -132.900; -268.000; -111.000
444.763;   24.500;  388.000;  249.000
444.885; -192.300; -432.000; -392.000
445.007;  -18.300;   35.000;   86.000
445.129; -179.800; -610.000; -515.000
445.251; -173.400; -372.000; -439.000
445.373; -245.700; -537.000; -386.000
445.495;   94.500;  242.000;  350.000
445.617;  145.000;  853.000;  753.000
445.739;  -60.800; -215.000;  -97.000
445.861;  -23.400; -245.000; -112.000
445.984;  -40.100; -267.000; -101.000
446.105;  361.900; -418.000; -251.000
446.227;  960.800; -176.000;  -19.000
446.349;  -13.400; -358.000; -249.000
446.471; -177.600; -615.000; -448.000
446.593; -102.800; -316.000;   19.000
446.715;   47.700;  -67.000;   41.000
446.837;  161.800;  697.000;  832.000
446.959; -157.300; -457.000; -478.000
447.081; -226.000; -628.000; -518.000
447.203;  218.900;  862.000;  834.000
447.325; -111.500; -270.000;   42.000
447.446;   44.300;  286.000;  530.000
447.568; -260.700; -921.000; -803.000
447.690;  -74.900; -236.000; -245.000
447.812; -229.800; -798.000; -519.000
447.933;   16.800;  155.000;  127.000
448.055;  -86.500; -306.000; -261.000
448.177;  256.800;   31.000;   79.000
448.299;   85.700; -935.000; -727.000
448.420;   75.600;  -25.000;  159.000
448.542;  -47.000;   -3.000;   33.000
448.664;   17.400;  109.000;  322.000
448.785;    7.600;  265.000;   83.000
448.907; -118.300; -614.000; -353.000
449.028;  -30.600; -771.000; -471.000
449.150;  160.800;  492.000;  589.000
449.272; -321.500;-1044.000; -913.000
449.393;  101.600;  612.000;  694.000
449.515; -245.300; -634.000; -581.000
449.636;  -66.400; -264.000; -155.000
449.758;  211.200;  763.000;  622.000
449.879; -136.200; -498.000; -396.000
450.001; -101.700; -149.000;  -49.000
450.122;  -16.800;  -95.000;  162.000
450.244;   -3.500;   37.000;  364.000
450.365; -120.100; -495.000; -301.000
450.486;   -1.800;   80.000;  268.000
450.608;  114.000;  393.000;  326.000
450.729;  212.100;  578.000;  645.000
450.850;   43.100; -574.000; -466.000
450.972; 1659.200; -552.000; -389.000
451.093; 9766.400;  190.000;  588.000
451.214; 3663.500; -516.000; -337.000
451.336;  677.600;  773.000;  579.000
451.457;  164.700;  264.000;  393.000
451.578;   -6.600; -118.000;  -74.000
451.699; -198.500; -546.000; -540.000
451.821;  -66.900; -284.000;  -50.000
451.942;   18.900;  278.000;  285.000
452.063;  158.100;  228.000;  419.000
452.184; 1231.800;  -54.000;  -49.000
452.305; 2117.200;  103.000;  170.000
452.427;  204.500; -549.000; -301.000
452.548;   21.000;   23.000;   79.000
452.669;  -39.400; -257.000;  -89.000
452.790;   -3.300;    3.000;  -18.000
452.911;   27.200;  195.000;  259.000
453.032;  -61.500; -289.000;  -60.000
453.153;  -51.900;  -29.000;   81.000
453.274;  188.000;  737.000;  868.000
453.395;  -51.500;  -51.000;  175.000
453.516;  324.000; 1317.000; 1388.000
453.637;  -92.500; -205.000; -150.000
453.758;  -22.000;   15.000;   69.000
453.879; -153.100; -462.000; -250.000
454.000;  221.900; 1086.000;  948.000
454.121; -159.000; -554.000; -326.000
454.242; -200.800; -599.000; -383.000
454.362;  -50.600;  -99.000;  114.000
454.483;  -14.700; -309.000; -229.000
454.604;  156.600;  512.000;  580.000
454.725; -230.900; -627.000; -555.000
454.846; -175.800; -474.000; -406.000
454.967;   45.600;  230.000;  539.000
455.087;   15.300;  179.000;  153.000
455.208;  107.900;  554.000;  856.000
455.329;  -65.500;  -22.000;   82.000
455.450;  132.100;  473.000;  633.000
455.570; -107.300; -234.000; -211.000
455.691;    2.000;  201.000;  407.000
455.812; -139.500; -270.000;  -92.000
455.932;  -15.100;  107.000;  -97.000
456.053; -136.500;   36.000;   24.000
456.173; -156.600; -433.000; -355.000
456.294; -223.400; -476.000; -303.000
456.415;  -77.000;  -73.000;   70.000
456.535;    0.800;  297.000;  273.000
456.656;  -11.100;  132.000;  240.000
456.776;  -53.100;    3.000;  298.000
456.897;   65.400;  308.000;  513.000
457.017;  -66.400; -153.000;   -3.000
457.138; -173.600; -402.000; -249.000
457.258;   -2.500;  263.000;  224.000
457.379;   66.800;  509.000;  521.000
457.499;   46.600;  443.000;  432.000
457.620; -191.500; -407.000; -231.000
457.740; -137.500; -132.000;  -11.000
457.860;  -40.000;   87.000;   44.000
457.981;  -46.400;  132.000;  124.000
458.101;  -97.500;  -89.000;   40.000
458.221;   18.300;  336.000;  402.000
458.342;  -73.000;   -4.000;  -37.000
458.462;  113.100;  617.000;  352.000
458.582;   -8.500; -302.000; -294.000
458.703;   91.600;  303.000;  154.000
458.823;  -36.000;   22.000;  163.000
458.943;  110.400;  341.000;  467.000
459.063;    4.400; 1124.000;  192.000
459.183;   10.700;  328.000;  313.000
459.304;   90.600;  315.000;  517.000
459.424;  -88.400; -246.000;  -89.000
459.544;  738.500;  388.000;  764.000
459.664; 1626.800;  499.000;  506.000
459.784;  601.600; 1004.000; 1175.000
459.904;  194.000;  867.000;  744.000
460.024;  198.100;  867.000;  684.000
460.144;   62.500;  449.000;  554.000
460.264;   60.700;  515.000;  327.000
460.385; -154.200; -145.000; -119.000
460.505;  131.700;  905.000;  858.000
460.625; -106.400;  -17.000;  -68.000
460.745;   25.900;  396.000;  541.000
460.864;  -63.000;  153.000;  469.000
460.984;  111.700;  499.000;  573.000
461.104;  354.100; 1656.000; 1775.000
461.224;  122.900;  657.000;  650.000
461.344;  -13.300;  431.000;  360.000
461.464;  -24.000;  258.000;  513.000
461.584;   38.800;  283.000;  466.000
461.704;  -61.500;   58.000;  108.000
461.824;  -78.800;  238.000;  259.000
461.943;  -21.700;  191.000;  130.000
462.063;  -87.900;    2.000;  324.000
462.183;  139.500;  639.000;  717.000
462.303;  303.100; 1678.000; 1230.000
462.422;  157.700;  781.000;  840.000
462.542;   -2.600;  271.000;  391.000
462.662;  145.200;  353.000;  380.000
462.782;  532.400;  833.000;  572.000
462.901; 1011.200;  545.000;  717.000
463.021;  582.600; 1702.000; 1638.000
463.141;   58.300;  337.000;  770.000
463.260;   19.000;  614.000;  474.000
463.380;  125.400;  902.000;  884.000
463.499;   10.400;  342.000;  332.000
463.619;    2.800;  581.000;  559.000
463.738;  283.500; 1644.000;  903.000
463.858;  120.000;  657.000;  811.000
463.978;    6.900;  542.000;  396.000
464.097;  156.000;  921.000; 1114.000
464.217;  320.400; 1196.000; 1143.000
464.336;  271.900; 1068.000; 1130.000
464.455;    1.300;  328.000;  659.000
464.575;  163.600;  597.000;  602.000
464.694;  412.700; 1204.000; 1179.000
464.814;  323.600; 1190.000; 1138.000
464.933;  176.100; 1095.000; 1027.000
465.052;  299.100; 1412.000; 1054.000
465.172;  222.400;  922.000;  799.000
465.291;  328.600; 1376.000; 1320.000
465.410;   75.400;  462.000;  735.000
465.530;  269.700; 1355.000; 1310.000
465.649;  202.700; 1209.000; 1273.000
465.768;  334.200; 1673.000; 1508.000
465.888;  198.500;  941.000; 1174.000
466.007;  248.300; 1335.000; 1440.000
466.126;   41.000;  721.000;  641.000
466.245;  172.100; 1176.000; 1187.000
466.364;  122.800;  950.000; 1060.000
466.484;  169.700; 1024.000; 1213.000
466.603;  160.400; 1101.000; 1222.000
466.722;  312.000; 1490.000; 1769.000
466.841;  238.500; 1151.000; 1401.000
466.960;  150.500; 1069.000;  972.000
467.079;  354.400; 1971.000; 1786.000
467.198;  163.700; 1238.000; 1181.000
467.317;  249.300; 1768.000; 1162.000
467.436;  225.200; 1709.000; 1261.000
467.555;  306.200; 1796.000; 1746.000
467.674;  213.500; 1227.000; 1329.000
467.793;  157.300; 1376.000; 1374.000
467.912;  242.600; 1658.000; 1539.000
468.031;  359.200; 2038.000; 1930.000
468.150;  330.800; 1842.000; 1837.000
468.269;  471.200; 2313.000; 2090.000
468.388;  466.700; 2168.000; 2339.000
468.507;  593.300; 2884.000; 2903.000
468.626;  616.300; 2555.000; 2541.000
468.744;  341.100; 2018.000; 2174.000
468.863;  513.100; 2312.000; 2523.000
468.982;  258.000; 1503.000; 1555.000
469.101;  545.600; 2788.000; 2692.000
469.220;  380.200; 2333.000; 2176.000
469.338;  575.100; 2935.000; 3051.000
469.457;  442.100; 2719.000; 2545.000
469.576;  783.600; 3953.000; 3784.000
469.695;  568.900; 2877.000; 3066.000
469.813;  918.900; 4148.000; 4192.000
469.932;  909.300; 4255.000; 4485.000
470.051;  908.500; 4075.000; 4161.000
470.169; 1827.600; 4470.000; 4338.000
470.288; 2982.900; 4700.000; 4809.000
470.406; 1679.000; 5059.000; 5194.000
470.525; 1324.300; 6101.000; 5787.000
470.644; 1402.400; 6847.000; 6794.000
470.762; 1742.800; 8397.000; 7873.000
470.881; 1895.300; 8651.000; 8464.000
470.999; 2198.000; 9685.000; 9151.000
471.118; 2244.600;11174.000;10711.000

