
Integration time [ms]: 200.000
Averaging Nr. [scans]: 10
Smoothing Nr. [pixels]: 0
Data measured with spectrometer [name]: 2101012U2
Wave   ;Sample   ;Dark     ;Reference
[nm]   ;[counts] ;[counts] ;[counts] 

197.733;   97.000;  516.000;  404.000
197.879; -182.700; -610.000; -634.000
198.025;  -76.500; -475.000; -420.000
198.171; -160.600; -602.000; -612.000
198.317;  -73.600; -401.000; -316.000
198.463; -126.500; -655.000; -404.000
198.609;   66.700;  181.000; -137.000
198.755; -189.200; -644.000; -410.000
198.901; -136.400; -505.000; -424.000
199.047; -121.500; -615.000; -488.000
199.193;  -59.200; -230.000; -468.000
199.339;  -80.400; -222.000; -369.000
199.485;   82.600;  330.000;  271.000
199.631;    7.700;  227.000;  310.000
199.777;  -97.400; -466.000; -398.000
199.923; -120.400; -610.000; -424.000
200.069;  -13.200; -141.000;  -58.000
200.215;  105.500;  128.000;  453.000
200.361;   70.500;  243.000;  477.000
200.507; -150.200; -600.000; -373.000
200.653;  -45.200; -371.000; -194.000
200.798;  -76.800; -215.000; -125.000
200.944;   -1.300; -146.000;  -41.000
201.090;   82.200;   61.000;  222.000
201.236;   -4.100; -116.000; -158.000
201.382;  237.900;  874.000;  903.000
201.528;   17.500;  -58.000;  -48.000
201.674; -122.700; -386.000; -293.000
201.819; -134.300; -540.000; -439.000
201.965; -184.300; -699.000; -447.000
202.111;  -19.700; -273.000; -226.000
202.257;  -91.300; -250.000; -238.000
202.402;  -10.600;   13.000;  -36.000
202.548;  -63.700; -169.000; -116.000
202.694;  210.300;  410.000; -183.000
202.840; -178.600; -603.000; -531.000
202.985; -153.200; -681.000; -639.000
203.131; -204.300; -832.000; -666.000
203.277;  -63.100; -199.000; -262.000
203.423; -108.400; -434.000; -520.000
203.568;  -71.100; -462.000; -237.000
203.714; -125.300; -535.000; -542.000
203.860; -178.300; -682.000; -641.000
204.005;   19.400;  112.000;  167.000
204.151;  148.900;  561.000;  556.000
204.296;  -99.300; -354.000; -221.000
204.442; -126.700; -600.000; -547.000
204.588; -153.100; -592.000; -579.000
204.733;   52.700;  178.000;  168.000
204.879; -297.100;-1018.000; -822.000
205.025;   19.400;  -99.000;  126.000
205.170;  -10.900;  -17.000;   94.000
205.316;  209.400;  438.000;  661.000
205.461; -176.300; -698.000; -554.000
205.607;  174.700;  609.000;  665.000
205.752; -180.900; -626.000; -551.000
205.898; -136.800; -501.000; -391.000
206.043; -137.500; -578.000; -506.000
206.189;  -91.700; -243.000; -285.000
206.334;  160.700;  554.000;  606.000
206.480;  169.900;  409.000;  239.000
206.625; -182.100; -529.000; -552.000
206.771;  -78.000; -451.000; -373.000
206.916;  -82.700; -210.000; -537.000
207.062; -160.900; -545.000; -591.000
207.207; -114.800; -546.000; -443.000
207.353;  137.800;  185.000;  460.000
207.498;   57.300;  196.000;   85.000
207.643;  -91.100; -501.000; -370.000
207.789; -249.700;-1069.000; -910.000
207.934; -197.400; -665.000; -713.000
208.080; -100.700; -154.000;   66.000
208.225;  -16.700;  -22.000;  -57.000
208.370; -164.900; -727.000; -619.000
208.516; -134.900; -741.000; -487.000
208.661;  -69.800; -127.000;  -69.000
208.806;  -47.600; -165.000; -171.000
208.952; -250.200;-1044.000; -731.000
209.097;  173.900;  378.000;  349.000
209.242;  -92.900; -307.000; -382.000
209.387;   89.400;  392.000;  350.000
209.533; -127.000; -321.000; -350.000
209.678;  178.800;  472.000;  543.000
209.823; -101.500; -408.000; -310.000
209.969; -213.300; -860.000; -757.000
210.114; -213.300; -907.000; -719.000
210.259; -241.600; -939.000; -889.000
210.404;   -3.900; -171.000;  103.000
210.549;   23.300;  108.000;    3.000
210.695;  -17.700;   -3.000;  -95.000
210.840;   72.700;   94.000;   67.000
210.985; -123.600; -484.000; -303.000
211.130;  155.700;  268.000;  406.000
211.275;   42.500;  207.000;  199.000
211.420;  -94.400; -300.000; -289.000
211.566; -138.600; -536.000; -489.000
211.711;   48.800;  218.000;  157.000
211.856; -120.200; -545.000; -519.000
212.001;   27.900;  151.000;   44.000
212.146;   24.000;  153.000;   49.000
212.291;  -65.100; -210.000; -186.000
212.436;  -71.400; -280.000;   -6.000
212.581; -172.200; -685.000; -653.000
212.726; -154.200; -487.000; -538.000
212.871;  -75.900; -552.000; -217.000
213.016; -320.600;-1172.000;-1029.000
213.161;  136.100;  406.000;  291.000
213.306; -163.800; -435.000; -577.000
213.451; -210.300; -778.000; -689.000
213.596;  -87.700; -455.000; -347.000
213.741;  -74.200; -448.000; -538.000
213.886; -151.800; -498.000; -517.000
214.031;  -32.600; -294.000; -124.000
214.176; -120.200; -408.000; -341.000
214.321;  -46.800; -296.000; -157.000
214.466;  -32.700; -163.000;  -43.000
214.611;   12.000;  -61.000;  -10.000
214.756; -251.000; -948.000; -858.000
214.901;  -33.500; -388.000; -226.000
215.046; -256.300; -797.000; -825.000
215.191;   41.300;  128.000;   35.000
215.336;  -26.900; -157.000;  -19.000
215.480; -139.100; -684.000; -505.000
215.625;  -33.400; -175.000;  -19.000
215.770; -140.400; -757.000; -662.000
215.915;    6.000;   -5.000;  -97.000
216.060;  -32.700; -113.000;  -21.000
216.205; -209.900; -731.000; -779.000
216.349; -156.700; -470.000; -533.000
216.494; -300.600; -939.000; -867.000
216.639; -251.300; -823.000; -888.000
216.784; -166.700; -577.000; -525.000
216.929;  100.400;  392.000;  281.000
217.073;  -33.000; -244.000;  -31.000
217.218;   65.700;   78.000;  -47.000
217.363; -171.500; -656.000; -618.000
217.507; -163.000; -623.000; -588.000
217.652; -259.000; -845.000; -874.000
217.797; -182.200; -708.000; -659.000
217.942; -250.300; -856.000; -720.000
218.086;  161.600;  608.000;  539.000
218.231;  -51.000; -174.000;  -26.000
218.376;  -58.100; -337.000; -229.000
218.520;   19.500;  -41.000;   96.000
218.665;  -50.200; -338.000; -204.000
218.810;  -77.400; -275.000; -233.000
218.954;   56.100;  201.000;   35.000
219.099; -221.200; -713.000; -963.000
219.243; -135.900; -589.000; -554.000
219.388;  -35.800; -264.000; -136.000
219.532;    0.900; -116.000; -116.000
219.677; -123.600; -564.000; -521.000
219.822;    2.200;   33.000;   89.000
219.966;   10.100;   17.000;  -99.000
220.111;  -45.600; -328.000;  -40.000
220.255; -180.000; -797.000; -750.000
220.400;  -39.400; -180.000; -146.000
220.544; -145.400; -516.000; -450.000
220.689;  -87.000; -422.000; -451.000
220.833;  -43.400; -123.000;  -58.000
220.978; -110.300; -393.000; -563.000
221.122;   73.800;  319.000;  307.000
221.267; -219.400; -906.000; -837.000
221.411; -144.300; -478.000; -394.000
221.555;  -16.800; -104.000;  -23.000
221.700;  -79.000; -329.000; -222.000
221.844;   75.400;  255.000;  272.000
221.989;  -73.400; -328.000; -311.000
222.133;  -89.600; -289.000; -307.000
222.277;   15.900;    5.000;   78.000
222.422;   51.700;  227.000;  113.000
222.566;  -80.000; -381.000; -214.000
222.711; -106.700; -414.000; -479.000
222.855; -142.000; -643.000; -586.000
222.999; -167.400; -642.000; -717.000
223.144;  -55.700; -195.000; -194.000
223.288;  109.200;  423.000;  251.000
223.432;    8.300;  184.000;  230.000
223.576;   40.300;  152.000;  -21.000
223.721;   89.900;  364.000;  273.000
223.865;  -82.800; -472.000; -475.000
224.009;  543.500; 1673.000; 1631.000
224.153; -128.500; -660.000; -671.000
224.298; -135.500; -531.000; -489.000
224.442;  -44.600;  -74.000;  -33.000
224.586;   -4.100; -169.000; -106.000
224.730; -184.600; -858.000; -670.000
224.875; -202.500; -739.000; -688.000
225.019;   33.900;  102.000;  188.000
225.163;  136.700;  208.000;  341.000
225.307;   44.200;   97.000;  -91.000
225.451;  142.600;  360.000;  481.000
225.595;   64.500;  264.000;  176.000
225.739;    0.300; -170.000;  -94.000
225.884;   22.200;   86.000;    5.000
226.028; -203.800; -760.000; -626.000
226.172;  -59.000; -260.000; -273.000
226.316; -244.100; -941.000; -902.000
226.460; -118.600; -645.000; -493.000
226.604; -122.200; -406.000; -400.000
226.748; -215.000; -836.000; -733.000
226.892;  -73.200; -227.000; -181.000
227.036;  -94.700; -537.000; -447.000
227.180; -120.700; -551.000; -375.000
227.324; -120.600; -561.000; -580.000
227.468; -239.400; -819.000; -717.000
227.612;   27.700;  242.000;  -28.000
227.756; -207.900; -845.000; -698.000
227.900;  116.700;  342.000;  441.000
228.044; -140.800; -509.000; -290.000
228.188;  158.600;  448.000;  568.000
228.332; -184.600; -546.000; -472.000
228.476;  -35.900; -223.000; -149.000
228.620;  -34.200; -210.000; -150.000
228.764;  167.400;  431.000;  349.000
228.908;  -39.000; -155.000;   30.000
229.052;  -98.000; -615.000; -528.000
229.195;  -12.600; -172.000;   13.000
229.339;  -42.700; -235.000; -305.000
229.483;  -33.400;    5.000; -162.000
229.627;   10.400; -156.000;  139.000
229.771;  -94.100; -218.000; -294.000
229.915;   26.700;  230.000;   79.000
230.059; -187.300; -648.000; -663.000
230.202;  -53.900; -370.000; -317.000
230.346;  -33.400; -107.000;  107.000
230.490; -112.800; -489.000; -521.000
230.634; -232.200; -736.000; -553.000
230.777;  196.000;  478.000;  509.000
230.921; -117.200; -450.000; -359.000
231.065;  -67.100; -246.000; -286.000
231.209;   71.600;  261.000;  265.000
231.352;   63.300;   54.000;   40.000
231.496;   50.200;  568.000;  188.000
231.640; -142.700; -693.000; -621.000
231.783;  146.500;  546.000;  525.000
231.927;  -74.800; -294.000; -365.000
232.071; -242.200; -962.000; -736.000
232.214; -245.400; -980.000; -764.000
232.358; -210.300; -683.000; -599.000
232.502;   10.500;  -19.000;    7.000
232.645; -304.700;-1090.000; -927.000
232.789;  -55.000; -257.000; -218.000
232.933;  -83.100; -407.000; -224.000
233.076; -253.100;-1038.000; -897.000
233.220; -233.400; -752.000; -777.000
233.363; -148.000; -669.000; -477.000
233.507;  135.000;  371.000;  129.000
233.650; -167.700; -764.000; -834.000
233.794;  113.400;  438.000;  461.000
233.938; -105.600; -530.000; -362.000
234.081;    0.500;  -93.000;   31.000
234.225; -153.100; -631.000; -539.000
234.368; -213.300; -773.000; -723.000
234.512;  -61.900; -385.000; -299.000
234.655; -158.200; -582.000; -555.000
234.798; -146.900; -493.000; -466.000
234.942; -269.300; -884.000;-1002.000
235.085; -128.000; -651.000; -443.000
235.229; -131.200; -405.000; -410.000
235.372;  -52.500; -247.000; -191.000
235.516; -129.600; -397.000; -321.000
235.659;   66.100;   92.000;  121.000
235.802;   -5.000;  -38.000;  -22.000
235.946;   78.100;  335.000;  215.000
236.089;   62.300;  126.000;  250.000
236.233;  112.800;  275.000;  298.000
236.376; -128.300; -235.000; -378.000
236.519;  -92.300; -297.000; -319.000
236.663;  -61.800; -215.000; -117.000
236.806; -252.900;-1029.000; -999.000
236.949;  146.500;  543.000;  431.000
237.092;  170.000;  412.000;  391.000
237.236; -170.100; -589.000; -502.000
237.379;  191.900;  352.000;  428.000
237.522; -210.400; -879.000; -768.000
237.666;  -35.800; -271.000;   18.000
237.809; -242.600; -851.000; -823.000
237.952;   98.200;  469.000;  271.000
238.095; -149.100; -447.000; -442.000
238.238;  178.600;  688.000;  700.000
238.382;   -0.800;  166.000;  103.000
238.525; -157.400; -598.000; -511.000
238.668; -303.500;-1060.000; -985.000
238.811; -183.100; -638.000; -643.000
238.954; -126.600; -483.000; -334.000
239.097;  188.900;  617.000;  664.000
239.241;   69.700;  394.000;  326.000
239.384;  -50.800; -254.000; -214.000
239.527;  -84.100; -424.000; -224.000
239.670; -264.600; -994.000;-1091.000
239.813; -235.700; -696.000; -658.000
239.956;  177.400;  579.000;  473.000
240.099; -235.700; -778.000; -725.000
240.242;  140.800;  428.000;  432.000
240.385;  129.700;  466.000;  450.000
240.528;  -99.600; -706.000; -473.000
240.671;   45.500;  189.000;  134.000
240.814;  -87.900; -441.000; -158.000
240.957; -194.600; -767.000; -578.000
241.100; -183.200; -779.000; -755.000
241.243; -287.800;-1234.000; -893.000
241.386; -138.600; -508.000; -379.000
241.529; -184.900; -735.000; -547.000
241.672; -118.500; -566.000; -495.000
241.815; -244.000; -832.000; -808.000
241.958;  -22.100; -125.000; -182.000
242.101; -158.700; -545.000; -390.000
242.244;  -55.400; -270.000; -325.000
242.387;  -41.700; -304.000; -246.000
242.530;  124.800;  470.000;  134.000
242.673; -103.300; -381.000; -309.000
242.815; -225.100; -925.000; -899.000
242.958; -143.600; -482.000; -381.000
243.101;   32.900;  132.000;  187.000
243.244; -165.200; -564.000; -521.000
243.387;  -78.300; -313.000; -316.000
243.530; -176.400; -657.000; -674.000
243.672;   21.900;   43.000;  -92.000
243.815; -104.600; -355.000; -283.000
243.958;  -15.200;   98.000;  -26.000
244.101;    0.300;   59.000;  -16.000
244.243;   -8.700;  -47.000;  101.000
244.386; -226.600; -761.000; -630.000
244.529;  -50.000; -132.000; -139.000
244.672; -303.400;-1154.000; -951.000
244.814; -187.100; -621.000; -794.000
244.957;  -70.300; -380.000; -304.000
245.100; -119.000; -489.000; -489.000
245.242; -106.300; -387.000; -374.000
245.385;   19.400;  -59.000;  -39.000
245.528; -246.700; -871.000; -705.000
245.670;  188.700;  612.000;  634.000
245.813; -176.000; -599.000; -547.000
245.956;  -47.000; -324.000; -275.000
246.098; -144.500; -508.000; -650.000
246.241;   51.000;  194.000;   48.000
246.383;  -45.600; -119.000;  -73.000
246.526; -137.500; -454.000; -525.000
246.669; -238.000; -889.000; -780.000
246.811;   55.500;  172.000;   -1.000
246.954; -115.800; -512.000; -426.000
247.096;  -28.600;  -84.000;   -6.000
247.239; -122.300; -482.000; -445.000
247.381; -130.500; -647.000; -488.000
247.524;  163.500;  645.000;  679.000
247.666;  -28.100;   58.000;   11.000
247.809; -225.000; -887.000; -691.000
247.951;  -12.700;  -75.000;  138.000
248.094;   66.200;  432.000;  308.000
248.236; -320.800;-1262.000;-1238.000
248.378;   -8.500; -356.000;  -81.000
248.521;  -54.900; -334.000; -337.000
248.663;  -56.600; -236.000; -267.000
248.806;  -38.000; -300.000; -266.000
248.948; -212.700; -886.000; -763.000
249.090;  -78.500; -428.000; -398.000
249.233; -122.300; -344.000; -381.000
249.375; -110.200; -474.000; -451.000
249.518;   -9.700;  -83.000; -133.000
249.660;    0.000; -103.000;    3.000
249.802; -352.100;-1303.000;-1189.000
249.945; -133.300; -612.000; -540.000
250.087; -230.200; -834.000; -768.000
250.229;  -91.600; -362.000; -480.000
250.371; -142.500; -494.000; -439.000
250.514;  -82.700; -310.000; -244.000
250.656; -145.200;   69.000;  102.000
250.798; -249.800; -849.000; -800.000
250.940;  -99.200; -322.000; -322.000
251.083;  -33.400; -335.000; -111.000
251.225;  128.600;  338.000;  310.000
251.367;  -58.600; -274.000; -373.000
251.509;  -82.300; -265.000; -210.000
251.651; -204.500; -731.000; -671.000
251.794;  120.300;  538.000;  632.000
251.936; -200.700; -821.000; -747.000
252.078; -130.900; -540.000; -461.000
252.220; -117.500; -645.000; -477.000
252.362;  135.400;  344.000;  462.000
252.504; -160.700; -677.000; -584.000
252.646; -234.300; -875.000; -722.000
252.788;  -36.100;   14.000; -128.000
252.931;  -98.000; -257.000; -253.000
253.073;  -83.800; -376.000; -317.000
253.215;   -3.900;  141.000;  122.000
253.357;  -44.300;   82.000; -153.000
253.499; -107.700; -374.000; -234.000
253.641; -143.300; -749.000; -594.000
253.783; -192.900; -609.000; -527.000
253.925; -145.100; -586.000; -591.000
254.067; -209.600; -744.000; -667.000
254.209;  -52.000; -391.000; -259.000
254.351; -288.500; -865.000; -883.000
254.493; -127.600; -441.000; -417.000
254.635; -217.400; -936.000; -818.000
254.777; -172.100; -752.000; -687.000
254.918; -171.400; -512.000; -430.000
255.060; -119.000; -551.000; -395.000
255.202;  -99.900; -473.000; -261.000
255.344; -129.400; -658.000; -455.000
255.486; -127.600; -471.000; -406.000
255.628; -176.200; -780.000; -781.000
255.770; -176.700; -676.000; -536.000
255.912; -125.300; -559.000; -468.000
256.053; -180.600; -730.000; -508.000
256.195;  336.700; 1008.000;  903.000
256.337; -186.700; -861.000; -595.000
256.479;  112.500;  532.000;  416.000
256.621;  -68.600; -394.000; -212.000
256.762; -168.800; -789.000; -742.000
256.904;   92.300;  485.000;  487.000
257.046;  -79.600; -381.000; -271.000
257.188;  -67.400; -351.000; -264.000
257.329; -127.300; -525.000; -464.000
257.471; -217.500; -939.000; -807.000
257.613; -116.000; -584.000; -498.000
257.755; -292.100;-1073.000; -982.000
257.896;   86.600;  286.000;  392.000
258.038; -142.500; -403.000; -352.000
258.180;  -54.400; -354.000; -279.000
258.321; -181.300; -581.000; -457.000
258.463;  -37.800;  -71.000;  133.000
258.605; -163.300; -562.000; -570.000
258.746; -185.700; -886.000; -772.000
258.888; -274.000;-1026.000;-1020.000
259.029;   50.300;  121.000;   -8.000
259.171; -170.700; -614.000; -550.000
259.313;   21.200;  -49.000;  -47.000
259.454; -149.900; -536.000; -414.000
259.596;  -94.100; -483.000; -390.000
259.737; -126.200; -590.000; -474.000
259.879;   75.700;  217.000;  311.000
260.020;  174.700;  901.000;  636.000
260.162;  -53.400; -146.000; -253.000
260.303; -238.900; -768.000; -687.000
260.445; -155.800; -609.000; -613.000
260.586;   64.200;  392.000;  157.000
260.728;  -75.400; -360.000; -248.000
260.869; -123.500; -350.000; -343.000
261.011;  186.900;  706.000;  537.000
261.152; -115.400; -479.000; -319.000
261.293; -170.100; -576.000; -595.000
261.435;  -58.400; -219.000; -184.000
261.576;  -62.300; -455.000; -325.000
261.718;  128.400;  420.000;  470.000
261.859; -266.200; -940.000; -949.000
262.000; -268.900; -951.000;-1016.000
262.142;  -43.000;  -52.000;  -60.000
262.283; -246.500; -808.000; -691.000
262.424; -167.800; -666.000; -625.000
262.566; -304.500;-1161.000; -983.000
262.707; -228.400; -840.000; -830.000
262.848; -228.300; -769.000; -726.000
262.990;  -65.800; -362.000; -345.000
263.131;  176.700;  650.000;  681.000
263.272;  -31.600;  -61.000;  -41.000
263.413; -162.500; -589.000; -561.000
263.555; -134.500; -669.000; -143.000
263.696; -171.700; -550.000; -641.000
263.837;  -64.900; -449.000; -551.000
263.978;    7.800;   -5.000;  -77.000
264.119;  -81.700; -283.000; -264.000
264.261; -214.300; -847.000; -630.000
264.402;   10.800;   33.000;   40.000
264.543; -143.200; -509.000; -524.000
264.684;  -21.700;   61.000;  -50.000
264.825; -154.800; -816.000; -538.000
264.966;  -28.400;  -84.000;  -67.000
265.107; -228.900; -646.000; -670.000
265.248; -217.400; -825.000; -812.000
265.390;    3.000;  152.000;   -9.000
265.531;  -21.500; -238.000; -107.000
265.672; -157.600; -557.000; -630.000
265.813;  122.700;  563.000;  439.000
265.954; -308.000; -959.000; -940.000
266.095;  -23.700; -372.000; -322.000
266.236; -238.800; -686.000; -548.000
266.377;  -77.700; -243.000; -297.000
266.518; -148.000; -619.000; -547.000
266.659;   69.000;  170.000;  268.000
266.800;   39.600;   83.000;   85.000
266.941; -147.200; -487.000; -478.000
267.082;   65.800;  354.000;   99.000
267.223;  -63.000; -344.000; -273.000
267.364; -228.900; -892.000; -686.000
267.504;  -14.800;    3.000;  135.000
267.645;   32.800;  160.000;   67.000
267.786;  -81.000; -147.000;  -86.000
267.927; -133.300; -473.000; -379.000
268.068;  -24.200; -186.000;  -61.000
268.209;  -93.500; -175.000; -413.000
268.350; -110.800; -388.000; -532.000
268.490; -160.100; -648.000; -521.000
268.631;   91.600;  127.000;  225.000
268.772; -222.300; -874.000; -647.000
268.913;  -60.300; -328.000; -476.000
269.054;  -31.000; -117.000;   12.000
269.194;  -71.500; -418.000; -402.000
269.335; -301.200;-1137.000;-1074.000
269.476;  -12.500;   33.000;  -35.000
269.617;  -70.400; -347.000; -392.000
269.757; -161.000; -713.000; -646.000
269.898; -189.200; -856.000; -613.000
270.039; -115.200; -415.000; -405.000
270.180; -271.700; -952.000; -816.000
270.320;  -31.400; -190.000; -250.000
270.461;  -75.600; -277.000; -249.000
270.602;   -0.600; -186.000; -156.000
270.742; -246.900; -868.000; -943.000
270.883;  -78.500; -442.000; -390.000
271.023;  -99.800; -358.000; -357.000
271.164; -146.200; -607.000; -528.000
271.305; -204.000; -666.000; -654.000
271.445; -203.500; -722.000; -683.000
271.586; -137.200; -462.000; -283.000
271.726;  -77.900; -397.000; -322.000
271.867; -139.000; -594.000; -534.000
272.008;  259.600; -473.000; -285.000
272.148;  213.700;  462.000;  468.000
272.289;    3.400; -113.000; -181.000
272.429;   -1.200;   19.000;  185.000
272.570; -201.300; -633.000; -737.000
272.710; -186.400; -825.000; -775.000
272.851;  -36.800;  113.000; -130.000
272.991; -326.200;-1173.000;-1077.000
273.131; -127.600; -419.000; -459.000
273.272; -187.200; -683.000; -723.000
273.412;   21.000; -143.000;  -31.000
273.553; -140.700; -488.000; -507.000
273.693;  296.700;  913.000;  858.000
273.834; -210.600; -894.000; -692.000
273.974; -128.500; -664.000; -615.000
274.114; -178.500; -772.000; -560.000
274.255;  167.900;  414.000;  373.000
274.395;  -17.000; -180.000; -125.000
274.535;   94.700;  199.000;  350.000
274.676;   70.300;  225.000;   94.000
274.816;   37.100;  110.000;   34.000
274.956; -184.600; -624.000; -690.000
275.097; -177.800;-1014.000; -922.000
275.237; -238.100; -913.000; -803.000
275.377; -179.000; -778.000; -689.000
275.517; -273.100; -878.000; -937.000
275.658;  -93.400; -590.000; -555.000
275.798; -153.500; -606.000; -413.000
275.938;   76.800;  215.000;  323.000
276.078; -182.800; -626.000; -395.000
276.218;    9.000;   99.000;  104.000
276.359; -254.900;-1026.000;-1024.000
276.499; -120.800; -605.000; -446.000
276.639;  -55.400; -305.000; -151.000
276.779;  -72.500; -475.000; -357.000
276.919; -195.900; -783.000; -624.000
277.059;  -32.200; -261.000; -212.000
277.199;  -68.300; -357.000; -259.000
277.340;  103.100;  287.000;  175.000
277.480; -222.200; -840.000; -693.000
277.620;   81.600;  192.000;   16.000
277.760; -382.700;-1533.000;-1294.000
277.900;   75.100;  113.000;   33.000
278.040;   68.400;  137.000;  159.000
278.180;  100.500;  270.000;  170.000
278.320;   24.100;   21.000;   56.000
278.460; -114.000; -443.000; -469.000
278.600; -182.800; -708.000; -598.000
278.740;   93.300;  448.000;  224.000
278.880; -151.400; -768.000; -791.000
279.020;   23.100; -194.000; -144.000
279.160; -173.900; -672.000; -595.000
279.300; -241.900; -926.000; -873.000
279.440; -181.400; -709.000; -622.000
279.579; -123.400;-1014.000; -929.000
279.719; -119.500; -410.000; -394.000
279.859;   91.600;   -4.000;   41.000
279.999;   33.000; -208.000;  101.000
280.139;  -54.000; -435.000; -387.000
280.279; -189.100; -708.000; -745.000
280.419;  -22.000; -229.000; -147.000
280.559;  -67.100; -259.000; -180.000
280.698; -140.300; -790.000; -639.000
280.838; -198.300; -778.000; -800.000
280.978; -208.300; -846.000; -790.000
281.118; -214.100; -811.000; -704.000
281.257;   48.600;   24.000;    6.000
281.397; -284.900;-1094.000; -960.000
281.537; -160.200; -599.000; -712.000
281.677;  -38.400; -150.000; -101.000
281.816; -156.600; -700.000; -630.000
281.956;  -39.100; -193.000; -257.000
282.096; -108.900; -539.000; -396.000
282.235; -197.500; -672.000; -638.000
282.375;  -36.300; -243.000;  -98.000
282.515; -215.000; -715.000; -707.000
282.654;   73.700;   29.000;  106.000
282.794;   71.700;  388.000;  244.000
282.934;  -95.200; -530.000; -491.000
283.073; -246.700;-1030.000; -857.000
283.213;  -81.700; -460.000; -467.000
283.353;  -73.400; -408.000; -349.000
283.492;  -11.000; -264.000; -296.000
283.632;  -42.200; -254.000; -168.000
283.771; -184.600; -859.000; -730.000
283.911;  -96.000; -369.000; -260.000
284.050; -199.400; -794.000; -748.000
284.190; -323.500;-1229.000;-1096.000
284.329; -284.900;-1055.000; -964.000
284.469; -128.900; -516.000; -591.000
284.608; -109.300; -559.000; -598.000
284.748; -193.300; -614.000; -570.000
284.887;   26.700;  -87.000;  -20.000
285.027; -237.600; -844.000; -892.000
285.166;  -44.500; -192.000; -249.000
285.306;    4.600; -116.000;  -33.000
285.445;  -37.600; -229.000; -343.000
285.584; -182.400; -630.000; -494.000
285.724;  -76.200; -282.000; -322.000
285.863; -220.100; -857.000; -507.000
286.002;  -85.800; -366.000; -276.000
286.142; -214.100; -715.000; -622.000
286.281; -129.600; -525.000; -493.000
286.420; -141.100; -554.000; -417.000
286.560;  208.700;  653.000;  623.000
286.699; -287.200; -958.000; -912.000
286.838; -174.400; -590.000; -591.000
286.978; -175.900; -533.000; -537.000
287.117; -258.600;-1085.000; -950.000
287.256;  -67.600; -228.000; -211.000
287.395;  -92.300; -197.000; -378.000
287.535;  -81.200; -370.000; -298.000
287.674; -142.400; -509.000; -484.000
287.813;  158.700;  661.000;  533.000
287.952; -252.200;-1010.000; -871.000
288.091; -275.800;-1049.000; -915.000
288.231;   50.400;   13.000;   15.000
288.370; -330.800;-1217.000;-1200.000
288.509; -179.000; -728.000; -645.000
288.648; -190.200; -770.000; -548.000
288.787;  -59.600; -243.000;  -87.000
288.926; -151.800; -454.000; -475.000
289.065;  261.400;  859.000;  672.000
289.204;  -85.200; -377.000; -217.000
289.344; -178.700; -791.000; -690.000
289.483;   49.400;  416.000;  304.000
289.622;  -16.200; -291.000; -149.000
289.761;  -11.900; -309.000; -166.000
289.900; -201.100; -785.000; -626.000
290.039;  -23.700;  -12.000;  -95.000
290.178;  -84.800; -274.000; -180.000
290.317; -114.900; -618.000; -479.000
290.456; -125.000; -463.000; -451.000
290.595; -261.500; -961.000; -833.000
290.734; -263.200; -904.000; -891.000
290.873; -119.500; -456.000; -420.000
291.011; -207.000; -833.000; -843.000
291.150; -193.300; -770.000; -682.000
291.289;  -19.900; -343.000; -110.000
291.428; -175.500; -599.000; -480.000
291.567; -110.400; -370.000; -442.000
291.706;   17.500;  109.000;  154.000
291.845; -169.800; -597.000; -505.000
291.984; -328.500;-1234.000;-1061.000
292.122;  151.800;  602.000;  582.000
292.261;  136.100;  620.000;  463.000
292.400;   43.900; -144.000;  211.000
292.539; -235.100; -959.000; -813.000
292.678;  -40.800; -325.000; -300.000
292.816; -284.500;-1136.000; -965.000
292.955; -192.300; -844.000; -684.000
293.094;  -33.000; -173.000; -337.000
293.233; -116.500; -556.000; -400.000
293.371;  -59.700; -225.000;  -84.000
293.510; -208.900; -866.000; -780.000
293.649; -252.000; -959.000; -924.000
293.787; -195.100;-1083.000;-1012.000
293.926;   -5.800; -113.000;  -32.000
294.065;  -60.700; -379.000; -290.000
294.203;  125.400;  298.000;  406.000
294.342;   44.200;   74.000;  156.000
294.481;10913.200;51180.000; -836.000
294.619;  -53.300; -425.000; -582.000
294.758; -315.900;-1230.000;-1137.000
294.896;  151.300; -125.000;    5.000
295.035; -277.800;-1040.000;-1006.000
295.174; -248.900;-1082.000; -954.000
295.312;  -85.800; -323.000; -203.000
295.451;  -35.800; -307.000; -428.000
295.589; -114.400; -389.000; -518.000
295.728;   14.700; -292.000; -165.000
295.866;   -6.100;  -36.000;  -51.000
296.005; -133.200; -584.000; -341.000
296.143; -123.100; -558.000; -596.000
296.282; -226.200; -957.000; -881.000
296.420; -159.100; -657.000; -557.000
296.559; -198.900; -892.000; -633.000
296.697;  -62.800; -847.000; -665.000
296.835;  -13.800;-1141.000;-1002.000
296.974;   77.800;  -23.000;   39.000
297.112;  -24.300; -443.000; -504.000
297.251; -146.800; -815.000; -755.000
297.389;   68.400; -576.000; -438.000
297.527;   78.600; -145.000;  -83.000
297.666; -129.700; -486.000; -438.000
297.804;  -97.200; -404.000; -264.000
297.942;    5.100; -136.000; -161.000
298.081;    3.000; -183.000;   63.000
298.219;  126.400;  -17.000;  -19.000
298.357;   42.800; -144.000;  -71.000
298.495;  -22.600; -810.000; -812.000
298.634;  102.600;  245.000;  219.000
298.772;   -0.100; -220.000; -338.000
298.910;  -67.400; -309.000; -182.000
299.048;  -12.800; -130.000; -153.000
299.187;  -88.300; -350.000; -250.000
299.325;   24.500;   52.000;  122.000
299.463;   17.000; -389.000; -299.000
299.601;  129.000; -327.000; -271.000
299.739; -218.500; -908.000; -883.000
299.877; -156.300; -791.000; -703.000
300.016; -160.200;-1095.000; -935.000
300.154;  178.700;  -19.000; -161.000
300.292;  -41.300; -428.000; -348.000
300.430;   28.200; -408.000; -291.000
300.568; -240.800; -940.000; -874.000
300.706; -110.700; -366.000; -469.000
300.844; -197.900;-1108.000; -979.000
300.982;  187.100;  246.000;  282.000
301.120; -220.200; -965.000; -866.000
301.258; -128.200; -812.000; -705.000
301.396;   41.000;  104.000;  -41.000
301.534;   82.800; -218.000; -293.000
301.672;  -74.300; -664.000; -521.000
301.810;  -34.900; -613.000; -545.000
301.948;  190.900;   53.000;  149.000
302.086;  766.000; -250.000;  -32.000
302.224; 1128.300; -610.000; -585.000
302.362;  -11.900; -558.000; -622.000
302.500; -119.500; -923.000; -893.000
302.638;  169.900;  128.000;  245.000
302.776;  -13.300; -352.000; -408.000
302.913;  108.100;  447.000;  236.000
303.051;  -12.300;  -86.000;  -23.000
303.189;  113.400;   90.000;  118.000
303.327;  -49.300; -341.000; -256.000
303.465; -164.800; -832.000; -588.000
303.603; -184.000; -805.000; -604.000
303.740;  172.000;  417.000;  241.000
303.878;  -28.200; -800.000; -759.000
304.016; -172.100; -915.000; -790.000
304.154; -287.000;-1123.000;-1152.000
304.291;  -82.100; -505.000; -554.000
304.429;   35.600;  102.000;   74.000
304.567; -256.200; -908.000; -893.000
304.705; -112.000; -408.000; -515.000
304.842;   68.300; -616.000; -540.000
304.980;  122.800;  215.000;   35.000
305.118;   54.500; -367.000; -365.000
305.255; -184.900; -945.000; -927.000
305.393;  115.400;  178.000;  239.000
305.531; -236.400;-1173.000; -956.000
305.668; -105.000; -663.000; -582.000
305.806;  112.300; -358.000; -439.000
305.943;   74.800; -629.000; -637.000
306.081;   61.500; -378.000; -267.000
306.219; -191.700; -863.000; -748.000
306.356;   25.500;  158.000;   27.000
306.494;  289.100;  981.000;  761.000
306.631;    8.500;  -11.000;  -55.000
306.769;  -23.500; -613.000; -485.000
306.906;  -39.100; -284.000; -258.000
307.044; -107.500; -473.000; -488.000
307.181;  -86.300; -410.000; -332.000
307.319;   87.500;  112.000;   87.000
307.456; -349.000;-1191.000;-1153.000
307.594; -218.200; -980.000; -727.000
307.731;  -20.600; -371.000; -164.000
307.868;   33.100;  -15.000;   20.000
308.006; -251.500; -961.000; -847.000
308.143; -113.300; -618.000; -330.000
308.281;  275.700;  -37.000; -254.000
308.418;   -2.400; -748.000; -640.000
308.555; -147.600; -400.000; -250.000
308.693; -145.500; -577.000; -573.000
308.830; -169.400; -712.000; -657.000
308.967;   14.000; -215.000;  -95.000
309.105;  -82.000; -507.000; -396.000
309.242;   58.600; -468.000; -367.000
309.379;  503.400; -577.000; -655.000
309.517; -127.800; -936.000; -948.000
309.654; -167.500; -910.000; -734.000
309.791;  -98.000; -662.000; -580.000
309.928; -255.300; -977.000; -914.000
310.065;  306.600;  819.000;  697.000
310.203;  -92.300; -825.000; -850.000
310.340;  -37.400; -465.000; -321.000
310.477; -147.600; -412.000; -516.000
310.614;  -93.300; -383.000; -473.000
310.751; -128.000; -427.000; -518.000
310.889;   17.300;    1.000;   11.000
311.026; -290.800;-1161.000; -939.000
311.163;  -67.100; -386.000; -380.000
311.300; -133.300; -512.000; -479.000
311.437; -136.900; -658.000; -619.000
311.574; -300.400;-1226.000; -985.000
311.711;  -69.200; -595.000; -433.000
311.848;  -47.900; -380.000; -388.000
311.985;   64.800;  270.000;   93.000
312.122; -234.800; -932.000; -762.000
312.259; -246.000; -941.000; -994.000
312.396; -151.900; -508.000; -551.000
312.533; -140.200; -812.000; -790.000
312.670; -250.200;-1070.000; -898.000
312.807;  -61.400; -352.000; -367.000
312.944; -130.600; -513.000; -611.000
313.081;  -54.100; -150.000; -415.000
313.218; -222.800;-1111.000; -867.000
313.355;   19.700; -531.000; -449.000
313.492;  -18.700; -455.000; -292.000
313.629;  270.800;  815.000;  735.000
313.766; -327.100;-1176.000;-1008.000
313.902;    3.900; -186.000;   21.000
314.039;  -76.600; -372.000; -289.000
314.176;   71.300;  286.000;  192.000
314.313; -116.900; -569.000; -473.000
314.450; -160.300; -788.000; -684.000
314.587; -113.800; -468.000; -480.000
314.723;   45.100;  -78.000;  130.000
314.860;   70.300;  318.000;  332.000
314.997;   79.600;  223.000;  142.000
315.134;  -63.500; -385.000; -368.000
315.270;  -39.900; -480.000; -496.000
315.407; -295.400;-1094.000; -967.000
315.544; -117.800; -657.000; -538.000
315.681; -140.700; -681.000; -565.000
315.817;   52.500; -133.000; -176.000
315.954;  -48.500; -613.000; -392.000
316.091; -241.100;-1045.000;-1023.000
316.227;  -25.900;  -71.000; -179.000
316.364;   50.100;   23.000;    6.000
316.500;  -82.500; -113.000; -300.000
316.637;  -75.800; -181.000; -302.000
316.774; -116.700; -625.000; -358.000
316.910; -179.400; -598.000; -629.000
317.047; -101.100; -487.000; -351.000
317.183;  -77.800; -435.000; -566.000
317.320;  -20.100; -367.000; -321.000
317.456; -123.100; -733.000; -805.000
317.593; -177.200; -598.000; -641.000
317.729;   35.600;  168.000;  -67.000
317.866; -365.100;-1434.000;-1285.000
318.002; -156.800; -708.000; -948.000
318.139; -188.500; -883.000; -867.000
318.275; -177.600;-1003.000; -738.000
318.412; -119.300; -517.000; -336.000
318.548; -105.700; -751.000; -720.000
318.685; -208.300; -985.000; -888.000
318.821; -177.500; -762.000; -735.000
318.957;   20.000;   34.000;  -23.000
319.094;  111.600;  297.000;  154.000
319.230; -142.500; -756.000; -742.000
319.367;  135.600; -471.000; -520.000
319.503;   24.300; -538.000; -436.000
319.639; -183.700; -877.000; -793.000
319.775; -176.500; -750.000; -685.000
319.912;  -69.900; -424.000; -519.000
320.048; -231.200;-1184.000;-1184.000
320.184;  168.700;   59.000;   70.000
320.321; -137.600; -497.000; -467.000
320.457;  160.600;  475.000;  662.000
320.593;  -75.900; -375.000; -382.000
320.729; -199.300; -732.000; -734.000
320.866; -142.100; -577.000; -635.000
321.002; -148.600; -759.000; -809.000
321.138;  -52.600; -135.000; -211.000
321.274;  100.500; -148.000; -115.000
321.410;  -92.000; -585.000; -353.000
321.546; -122.400;-1011.000; -911.000
321.683;  117.600;  400.000;  185.000
321.819;   44.000;  -48.000; -117.000
321.955; -214.400; -743.000; -722.000
322.091;  -91.900; -585.000; -540.000
322.227;   -5.700; -382.000; -202.000
322.363;  -44.400; -320.000; -215.000
322.499; -108.400; -343.000; -331.000
322.635;  277.400;  636.000;  443.000
322.771;   48.600; -139.000;   12.000
322.907;  158.400;  129.000;  327.000
323.043;  -73.200; -115.000; -206.000
323.179;  -95.200; -394.000; -363.000
323.315;  -38.200; -401.000; -371.000
323.451;  114.000; -328.000; -236.000
323.587;   90.300;  -60.000;  -77.000
323.723;  -32.700; -682.000; -601.000
323.859;  -40.800; -258.000;  -76.000
323.995;  -33.300; -467.000; -409.000
324.131; -233.600; -967.000; -892.000
324.267;  -71.600; -254.000; -276.000
324.402; -254.300; -960.000; -983.000
324.538;  -15.200; -279.000; -104.000
324.674;   72.200;  164.000;   77.000
324.810;  255.600;  226.000;  308.000
324.946;   -3.100; -810.000; -658.000
325.082; -103.700; -568.000; -475.000
325.217;  -33.200;  -62.000;   16.000
325.353; -193.200; -764.000; -659.000
325.489; -169.000; -540.000; -506.000
325.625; -141.300; -579.000; -525.000
325.760;  142.700;  517.000;  376.000
325.896;  -61.200; -515.000; -702.000
326.032; -114.700; -403.000; -352.000
326.168;  -93.000; -462.000; -369.000
326.303; -104.900; -352.000; -461.000
326.439;    8.400; -336.000; -276.000
326.575;  -10.200; -190.000;  -29.000
326.710;   21.700; -156.000;  -30.000
326.846;  -11.500;  146.000;  103.000
326.982; -163.200; -530.000; -548.000
327.117; -146.400; -481.000; -442.000
327.253; -184.000; -745.000; -742.000
327.388; -221.900;-1137.000;-1153.000
327.524;  -71.600; -811.000; -578.000
327.659;   -2.700;  -58.000;  -22.000
327.795;   -5.300;   69.000;   45.000
327.931; -181.000; -723.000; -499.000
328.066;  -48.300; -417.000; -276.000
328.202;  -55.700;   12.000; -129.000
328.337;  235.900;  957.000;  713.000
328.473;   23.800;  -12.000;  -74.000
328.608;    6.900; -256.000; -267.000
328.743; -180.400; -799.000; -664.000
328.879;   66.600;  214.000;  114.000
329.014; -133.700; -102.000; -122.000
329.150; -156.700; -358.000; -483.000
329.285; -128.400; -465.000; -466.000
329.421;  -82.300; -548.000; -246.000
329.556;  -29.900;  -36.000;   85.000
329.691; -170.600; -633.000; -615.000
329.827; -133.200; -626.000; -480.000
329.962;  -54.400;  131.000; -301.000
330.097; -169.200; -673.000; -585.000
330.233;  -77.300; -410.000; -223.000
330.368; -221.600; -839.000; -628.000
330.503;    4.800;    3.000;   98.000
330.638;    0.200;  -93.000; -125.000
330.774; -143.400; -609.000; -530.000
330.909;  -64.700; -434.000; -244.000
331.044; -166.000; -714.000; -708.000
331.179; -355.300;-1217.000;-1109.000
331.315;   26.100;   77.000;   20.000
331.450;   44.400;  157.000;  285.000
331.585; -164.800; -805.000; -706.000
331.720; -180.000; -510.000; -460.000
331.855;   56.200;  -35.000; -102.000
331.990;  315.100;   62.000;  138.000
332.126;  185.900; -110.000;   71.000
332.261;  -40.300; -379.000; -265.000
332.396;   -9.400; -135.000; -242.000
332.531; -232.900;-1074.000;-1031.000
332.666;   21.400; -519.000; -363.000
332.801; -189.600; -726.000; -807.000
332.936;  -14.500; -192.000; -122.000
333.071; -295.100; -870.000; -817.000
333.206;   83.500;  307.000;  379.000
333.341;  110.900;  344.000;  418.000
333.476; -192.000; -627.000; -623.000
333.611;  -35.600; -251.000; -173.000
333.746;  -71.800; -381.000; -464.000
333.881; -247.200; -973.000; -935.000
334.016; -281.800; -936.000; -917.000
334.151; -263.200; -746.000; -702.000
334.286;   67.600;  152.000;  186.000
334.421;  -25.700; -125.000; -178.000
334.556; -166.700; -611.000; -567.000
334.690; -151.200; -631.000; -577.000
334.825;  120.600;  381.000;   83.000
334.960; -148.600; -285.000; -413.000
335.095;   51.500;  135.000;  -91.000
335.230; -194.800; -722.000; -738.000
335.365; -279.500;-1084.000; -990.000
335.499; -299.300;-1108.000;-1037.000
335.634;   33.900;    9.000;  534.000
335.769; -216.100; -755.000; -720.000
335.904; -111.200; -603.000; -561.000
336.038; -145.600; -735.000; -657.000
336.173; -263.900;-1206.000;-1194.000
336.308;   -8.700; -116.000; -189.000
336.443;  -13.700; -544.000; -634.000
336.577; -187.800; -936.000; -787.000
336.712;   88.100;   -4.000;  -12.000
336.847; -123.100; -724.000; -607.000
336.981;   36.800; -272.000; -208.000
337.116;  390.100;  615.000;  501.000
337.250;  137.600; -434.000; -421.000
337.385;  325.000; -297.000; -208.000
337.520;   82.500; -632.000; -603.000
337.654;  -46.100; -215.000; -126.000
337.789; -235.100; -989.000; -933.000
337.923;  -61.000; -104.000; -205.000
338.058; -184.500; -673.000; -738.000
338.192;  -84.100; -611.000; -488.000
338.327;   24.300;  -18.000; -155.000
338.461; -133.100; -299.000; -469.000
338.596; -140.500; -780.000; -638.000
338.730; -221.100; -767.000; -803.000
338.865;  145.900;  -46.000; -140.000
338.999; -140.200; -846.000; -702.000
339.134;  -81.800; -634.000; -536.000
339.268;  -62.800; -741.000; -603.000
339.403;  371.900; -740.000; -775.000
339.537;   94.400; -894.000; -820.000
339.671; -192.000; -829.000; -813.000
339.806; -118.300; -556.000; -512.000
339.940;   13.600; -261.000; -235.000
340.074; -188.500; -685.000; -510.000
340.209;  -30.100; -351.000; -230.000
340.343; -155.700; -517.000; -573.000
340.477;  332.200;  998.000; 1036.000
340.612; -144.400;-1033.000; -900.000
340.746;  194.900; -199.000; -243.000
340.880; -186.800; -924.000; -785.000
341.014;  -45.400;  -45.000; -154.000
341.149; -195.500; -756.000; -718.000
341.283; -202.100; -839.000; -754.000
341.417; -216.100;-1124.000; -938.000
341.551;   81.200; -768.000; -708.000
341.685;  -95.500; -633.000; -611.000
341.820;  -95.000; -562.000; -493.000
341.954;  -94.800; -218.000; -349.000
342.088; -279.300;-1102.000;-1019.000
342.222;  119.400;  565.000;  618.000
342.356;  -87.500; -395.000; -335.000
342.490; -186.300; -880.000; -841.000
342.624;  -83.000; -339.000; -242.000
342.758;  -45.500; -364.000; -312.000
342.892; -121.800; -710.000; -585.000
343.026;  -77.600;  -58.000; -116.000
343.160;  -91.400; -426.000; -376.000
343.294; -143.000; -474.000; -337.000
343.428;  -56.500; -488.000; -448.000
343.562;    4.400; -172.000;  -23.000
343.696;  -56.000; -385.000; -314.000
343.830;  -39.700; -362.000; -356.000
343.964;   25.800; -231.000; -168.000
344.098; 1123.100;  199.000;   70.000
344.232;  974.500; -266.000; -127.000
344.366;   89.000; -567.000; -453.000
344.500;   45.900; -665.000; -744.000
344.634;   24.300; -324.000; -164.000
344.768;  -30.100; -531.000; -341.000
344.902;   54.300;  278.000;  256.000
345.035; -138.200; -556.000; -496.000
345.169; -235.900; -933.000; -656.000
345.303;  -50.300; -308.000; -482.000
345.437; -156.500; -826.000; -717.000
345.571; -141.000; -675.000; -594.000
345.704; -101.300; -309.000; -532.000
345.838;    2.900; -331.000; -284.000
345.972;  -49.900; -543.000; -495.000
346.106;  237.300; -179.000; -190.000
346.239;  518.300; -312.000; -243.000
346.373;  -27.300; -343.000; -302.000
346.507; -279.700; -950.000; -962.000
346.640;  194.000;  -30.000;   13.000
346.774; -138.100; -650.000; -797.000
346.908;   -2.800; -138.000;  -11.000
347.041; -158.400; -646.000; -593.000
347.175;    6.000;  259.000;   27.000
347.309; -149.100; -698.000; -628.000
347.442; -192.000; -883.000; -732.000
347.576;  397.100;  670.000;  668.000
347.709;  253.900; -123.000;  -52.000
347.843; -177.500; -933.000; -825.000
347.976;   79.900;  235.000;  294.000
348.110; -338.700;-1268.000;-1186.000
348.243; -176.000; -679.000; -772.000
348.377;   32.400;  -26.000;   60.000
348.510;  124.100;  403.000;  540.000
348.644;  -67.300;  -37.000; -159.000
348.777;   26.800;  180.000;  191.000
348.911;  -60.000; -142.000; -112.000
349.044;  279.600;  471.000;  448.000
349.178;  112.100;-1069.000;-1006.000
349.311;  195.000;  141.000;  255.000
349.444;  -41.500; -927.000; -813.000
349.578;  -35.300; -347.000; -200.000
349.711; -221.300; -959.000; -862.000
349.845;  -49.500; -661.000; -591.000
349.978; -312.700;-1224.000;-1137.000
350.111; -138.700; -546.000; -612.000
350.244; -159.000; -596.000; -700.000
350.378;   -0.800; -392.000; -393.000
350.511; -136.000; -393.000; -426.000
350.644; -210.000; -808.000; -806.000
350.778;   20.400;  168.000;  104.000
350.911;   26.200;  134.000;  140.000
351.044; -152.900; -685.000; -615.000
351.177;  -35.700; -321.000; -281.000
351.310;   -3.000;    3.000; -131.000
351.444; -151.600; -888.000; -788.000
351.577;  180.200;  140.000;   90.000
351.710;  232.600;  593.000;  417.000
351.843;  -54.400; -165.000;  -77.000
351.976;   10.100;  149.000;  -79.000
352.109; -151.600; -621.000; -612.000
352.242;  -21.400; -464.000; -419.000
352.376; -126.600; -580.000; -636.000
352.509;  120.800; -437.000; -356.000
352.642; -106.800; -654.000; -604.000
352.775;   52.200; -141.000;  -98.000
352.908; -199.900; -933.000; -904.000
353.041; -205.000; -814.000; -824.000
353.174; -105.000; -551.000; -424.000
353.307; -189.300; -753.000; -764.000
353.440;  156.000;  541.000;  453.000
353.573; -236.800; -957.000;-1008.000
353.706;  -83.700; -384.000; -558.000
353.839;  -32.000; -264.000; -220.000
353.971; -180.000; -657.000; -512.000
354.104; -185.300; -896.000; -835.000
354.237; -115.900; -627.000; -662.000
354.370; -167.900; -846.000; -879.000
354.503; -367.200;-1231.000;-1308.000
354.636;  -51.600; -529.000; -348.000
354.769; -239.100; -937.000; -860.000
354.902;  -24.300; -230.000; -139.000
355.034;  -41.300; -164.000; -220.000
355.167;  -36.800; -262.000; -162.000
355.300; -214.200;-1061.000; -880.000
355.433; 1218.800;  -71.000;  -14.000
355.565; 1849.100; -402.000; -384.000
355.698;  465.000; -356.000; -296.000
355.831; -100.800; -882.000; -801.000
355.964;  112.600; -285.000; -170.000
356.096; -216.900; -856.000; -843.000
356.229;  -24.200; -523.000; -530.000
356.362;  385.100; -373.000; -266.000
356.494;  749.200; -229.000; -162.000
356.627;  594.700;  269.000;  377.000
356.760;  866.000;  120.000;   53.000
356.892; 1126.300; -286.000; -601.000
357.025;  816.200;  403.000;  389.000
357.157;  674.600; -167.000; -179.000
357.290;  858.500; -856.000; -713.000
357.423;  199.800; -667.000; -556.000
357.555;  147.700; -217.000; -228.000
357.688;   69.100; -483.000; -364.000
357.820;  479.100; -870.000; -877.000
357.953; 4669.400; -563.000; -589.000
358.085;  929.500; -632.000; -612.000
358.218; 1194.200;-1131.000; -932.000
358.350;  262.900;  -58.000;  312.000
358.483; -255.400;-1300.000;-1187.000
358.615; -111.200;-1182.000;-1078.000
358.747; -188.700;-1187.000;-1058.000
358.880;  -16.900; -810.000; -744.000
359.012;  -54.600; -376.000; -202.000
359.145;  -86.600; -480.000; -511.000
359.277;  -40.600; -962.000; -913.000
359.409; 3957.100;  536.000;  231.000
359.542;  903.600; -738.000; -688.000
359.674;  141.500;   46.000;   13.000
359.806; -105.200; -565.000; -438.000
359.939;  -82.900; -617.000; -516.000
360.071;  -39.300; -583.000; -579.000
360.203;  -29.600; -411.000; -364.000
360.335;   82.900;  164.000;  -16.000
360.468;  246.900; -249.000; -307.000
360.600; 2966.900; -547.000; -454.000
360.732; 3572.900; -546.000; -423.000
360.864;  386.200;-1216.000;-1044.000
360.996;  297.400; -516.000; -554.000
361.129;    1.000; -389.000; -598.000
361.261;   41.900;  110.000; -113.000
361.393;  -79.800; -252.000; -214.000
361.525;   55.400;   94.000;  244.000
361.657;  -99.100; -821.000; -703.000
361.789;   27.500; -139.000; -155.000
361.921;  205.700; -642.000; -593.000
362.053;  405.300;  524.000;  541.000
362.185;  106.600;  288.000;   72.000
362.318; -134.500; -709.000; -705.000
362.450;  208.300;  294.000;  444.000
362.582;   15.900; -913.000; -870.000
362.714;  -43.000; -353.000; -332.000
362.846; -130.300; -606.000; -490.000
362.978; -229.900; -941.000; -811.000
363.109;   32.200; -161.000; -260.000
363.241;  441.700; -739.000; -749.000
363.373;  471.400; -649.000; -564.000
363.505;  815.400; -186.000;  -91.000
363.637;  170.200; -787.000; -601.000
363.769; -263.200;-1067.000;-1080.000
363.901; -128.700; -596.000; -654.000
364.033; -243.000;-1103.000;-1062.000
364.165;   15.700; -283.000; -283.000
364.296;   82.100; -316.000; -177.000
364.428;  -47.200;-1344.000;-1220.000
364.560; -131.300; -679.000; -661.000
364.692; -137.700; -738.000; -835.000
364.824;  256.600; -588.000; -456.000
364.955;  563.600; -402.000; -564.000
365.087; 1105.200;-1097.000; -852.000
365.219;  -23.200; -686.000; -816.000
365.351; -149.700; -526.000; -572.000
365.482;  107.100;  300.000;  240.000
365.614;  -78.600; -402.000; -314.000
365.746; -179.800; -729.000; -752.000
365.877; -208.100; -706.000; -672.000
366.009;  358.600;  -35.000;  -62.000
366.141; -221.300;-1249.000;-1134.000
366.272; -203.300; -803.000; -719.000
366.404; -238.500;-1005.000; -874.000
366.535;   21.900; -139.000;  -12.000
366.667; -166.700; -644.000; -649.000
366.799;  115.900;  353.000;  203.000
366.930; -223.700; -862.000; -996.000
367.062;  105.300; -639.000; -613.000
367.193;  127.300; -872.000; -842.000
367.325; -124.600; -580.000; -684.000
367.456;   23.100; -246.000;   31.000
367.588;  217.000; -371.000; -318.000
367.719;   40.100;  -44.000;  -45.000
367.851;  -29.500; -222.000; -241.000
367.982; -150.800; -875.000; -732.000
368.113;  107.000; -475.000; -358.000
368.245; -210.000; -960.000; -841.000
368.376;  -25.500; -254.000; -302.000
368.508;  -50.700; -188.000; -263.000
368.639; -268.300;-1166.000;-1034.000
368.770; -105.900; -670.000; -589.000
368.902; -141.000; -836.000; -926.000
369.033; -221.200; -906.000; -855.000
369.164; -102.000; -720.000; -653.000
369.296; -200.200; -452.000; -601.000
369.427;   23.000; -209.000; -144.000
369.558; -114.500; -593.000; -377.000
369.689; -137.600; -721.000; -569.000
369.821; -220.700; -951.000; -845.000
369.952;    4.800;   42.000; -108.000
370.083;  -61.300; -229.000; -108.000
370.214; -163.500; -735.000; -650.000
370.345;   -2.100;   65.000;   81.000
370.477; -165.500; -810.000; -790.000
370.608;  286.400; -328.000; -264.000
370.739; -147.800;-1233.000;-1292.000
370.870; -154.500;-1102.000; -923.000
371.001;   73.500; -378.000; -467.000
371.132; -181.600; -754.000; -735.000
371.263;   15.900;  -42.000; -148.000
371.394; -258.400; -841.000; -748.000
371.525;   98.100;  345.000;  225.000
371.657; -200.300; -808.000; -670.000
371.788;  129.100;  103.000;  199.000
371.919;  193.800; -384.000; -304.000
372.050; 4704.700;  -91.000; -156.000
372.181; 1367.700; -188.000; -294.000
372.311;  510.000;   42.000; -127.000
372.442;   15.800; -457.000; -451.000
372.573;  -39.400; -444.000; -340.000
372.704; -256.600;-1008.000; -980.000
372.835;   99.900; -228.000; -289.000
372.966; -143.000; -646.000; -554.000
373.097; -136.600; -575.000; -711.000
373.228;  -94.000; -717.000; -542.000
373.359;   97.400; -824.000; -536.000
373.490; 1010.400; -881.000; -727.000
373.620; 1279.500;-1001.000; -803.000
373.751; 2252.500; -332.000; -396.000
373.882;  888.100; -663.000; -733.000
374.013;   67.300; -449.000; -262.000
374.143;  -78.800; -581.000; -659.000
374.274; -222.200; -987.000; -908.000
374.405;  214.500; -388.000; -276.000
374.536;  513.500; -526.000; -387.000
374.666; 1345.500; -759.000; -807.000
374.797;  253.000; -817.000; -868.000
374.928; 1035.400; -710.000; -560.000
375.058; 1014.700; -535.000; -500.000
375.189;   95.200;  -59.000;  -93.000
375.320; -216.600; -928.000;-1034.000
375.450;  -99.500; -625.000; -616.000
375.581;  -94.900; -526.000; -436.000
375.712;  -33.700; -574.000; -250.000
375.842;  330.300; -438.000; -415.000
375.973;  214.400; -554.000; -513.000
376.103; -101.200; -665.000; -648.000
376.234; -133.600; -531.000; -552.000
376.364; -140.700; -944.000; -867.000
376.495;  481.300;  925.000;  529.000
376.625;  -30.000; -472.000; -485.000
376.756;   17.700; -709.000; -678.000
376.886; -206.700;-1178.000;-1026.000
377.017;   -4.700;-1048.000;-1061.000
377.147;  417.200; -786.000; -782.000
377.278;  136.600;  174.000;  228.000
377.408; -228.600; -801.000; -815.000
377.538; -162.100; -707.000; -693.000
377.669; -103.400; -537.000; -613.000
377.799; -159.500; -645.000; -635.000
377.929; -122.700; -610.000; -428.000
378.060; -248.600; -781.000; -847.000
378.190; -147.700; -726.000; -531.000
378.320;  -83.600; -401.000; -406.000
378.451;    8.800; -131.000;  -22.000
378.581;   -7.700;  -67.000; -110.000
378.711;  270.100; 1035.000;  866.000
378.841;  -78.900; -533.000; -675.000
378.972; -165.400; -871.000; -751.000
379.102;  -54.700; -652.000; -579.000
379.232;  -38.000; -126.000;  -73.000
379.362; -206.500;-1001.000; -885.000
379.492;  -36.300; -373.000; -424.000
379.623;  177.800;    0.000;  111.000
379.753; -206.500;-1107.000; -974.000
379.883;  292.100;   59.000;  156.000
380.013; -110.000;-1081.000;-1017.000
380.143; -235.900;-1097.000;-1056.000
380.273; -231.400; -985.000; -861.000
380.403;    8.900; -344.000; -257.000
380.533; -121.900; -651.000; -664.000
380.663;  151.700;  173.000;  128.000
380.793; -213.500;-1027.000;-1074.000
380.923;   -5.800; -103.000;  -34.000
381.053; -192.900; -613.000; -623.000
381.183;  -41.900; -106.000; -248.000
381.313;  -16.300; -656.000; -470.000
381.443;   36.200; -692.000; -473.000
381.573;  200.800; -402.000; -409.000
381.703;  194.300;-1249.000;-1095.000
381.833; -301.800;-1454.000;-1336.000
381.963;  166.600; -134.000;  -87.000
382.093; 1657.600; -925.000; -909.000
382.223;  417.700; -713.000; -602.000
382.353;  -83.700; -801.000; -608.000
382.482;  418.000;-1091.000; -964.000
382.612;  877.700; -872.000; -644.000
382.742;  471.600; -695.000; -622.000
382.872;  230.300; -565.000; -551.000
383.002;  121.600;  347.000; -132.000
383.131;   -3.600; -226.000; -160.000
383.261;  -98.900; -706.000; -768.000
383.391;  372.500; -552.000; -377.000
383.521; 4252.300;  451.000;  263.000
383.650;  810.300; -947.000; -904.000
383.780;  -72.500; -783.000; -656.000
383.910;  232.100;  880.000;  802.000
384.039;  -22.600; -794.000; -656.000
384.169;  116.400;-1205.000;-1017.000
384.299; -100.700; -650.000; -662.000
384.428; -169.000; -764.000; -680.000
384.558;  -39.000; -308.000; -275.000
384.687;  -62.300; -414.000; -334.000
384.817;   77.600;   75.000;   -2.000
384.947;   -6.600; -234.000; -141.000
385.076;  468.900;  982.000;  912.000
385.206;  216.400;  369.000;  480.000
385.335;  -33.400; -549.000; -417.000
385.465; -161.300; -655.000; -663.000
385.594;  199.500;  -53.000;  -44.000
385.724;  461.400; -868.000; -838.000
385.853;  119.100; -296.000; -270.000
385.982; 1716.300; -743.000; -787.000
386.112; 2649.800;-1052.000; -871.000
386.241;  169.800; -307.000; -312.000
386.371;   43.300; -174.000;  -87.000
386.500;  -67.700; -825.000; -789.000
386.629;  -16.200; -874.000; -817.000
386.759;   87.700;  -43.000;   68.000
386.888;   11.500; -170.000; -250.000
387.017; -145.800; -648.000; -620.000
387.147; -187.600; -771.000; -798.000
387.276;  -38.900; -410.000; -397.000
387.405;   -0.400; -398.000; -342.000
387.535; -103.100; -452.000; -361.000
387.664; -131.800; -692.000; -620.000
387.793;   77.100; -198.000; -113.000
387.922;  697.400;  255.000;  200.000
388.052;  -52.700; -576.000; -423.000
388.181;  -11.600; -342.000; -472.000
388.310; -105.300; -889.000; -710.000
388.439; -109.700; -749.000; -742.000
388.568;  282.300;  365.000;  244.000
388.697; 1283.200; -756.000; -653.000
388.826;  220.100; -768.000; -666.000
388.956;   68.000; -285.000; -307.000
389.085;  -45.800; -347.000; -287.000
389.214; -194.200; -842.000; -872.000
389.343; -103.000; -645.000; -413.000
389.472;  553.400;  126.000;  149.000
389.601;  652.700;   91.000;    0.000
389.730;  -37.800; -568.000; -687.000
389.859;  138.500;  226.000;   46.000
389.988;  251.300; -423.000; -408.000
390.117;  179.700; -168.000; -146.000
390.246;  -22.000; -331.000; -320.000
390.375;   65.200; -673.000; -626.000
390.504; -121.300; -703.000; -621.000
390.633; -176.600; -672.000; -726.000
390.761; -128.100; -732.000; -645.000
390.890;   10.400;   -4.000; -130.000
391.019;  -74.300; -421.000; -441.000
391.148; -254.000; -826.000; -855.000
391.277; -115.400; -576.000; -493.000
391.406; -170.600; -821.000; -805.000
391.534;   48.900;  574.000; -301.000
391.663; -132.700; -583.000; -645.000
391.792; -151.100; -673.000; -701.000
391.921;  138.500;   -3.000;   15.000
392.050;  214.100; -287.000; -228.000
392.178; -153.100;-1206.000;-1061.000
392.307;  110.400; -758.000; -712.000
392.436;   46.000; -427.000; -641.000
392.564;   71.600;  166.000;   -6.000
392.693; -186.400; -860.000; -682.000
392.822;  225.800; -529.000; -534.000
392.950;   24.000; -880.000; -714.000
393.079;  384.500; -188.000; -328.000
393.208;    2.200; -488.000; -511.000
393.336;    1.800; -170.000; -145.000
393.465;  -55.500; -317.000; -199.000
393.593;   60.100;   62.000;   79.000
393.722; -272.000;-1121.000; -916.000
393.850;  -16.700; -188.000;  -61.000
393.979; -301.800; -926.000; -805.000
394.107;  -93.000; -517.000; -537.000
394.236;  -49.200; -570.000; -507.000
394.364;  400.700;  383.000;  206.000
394.493;  556.800; -911.000; -767.000
394.621;  -56.100; -955.000; -916.000
394.750;  832.100; -873.000; -923.000
394.878; 3603.000; -247.000; -149.000
395.007; 4736.500; -721.000; -807.000
395.135;  301.300; -790.000; -721.000
395.263; -203.400;-1038.000;-1040.000
395.392;   38.900;  -25.000; -107.000
395.520; -191.900; -818.000; -679.000
395.648; -204.200; -865.000; -915.000
395.777;  -54.300; -366.000; -405.000
395.905;  -63.900; -449.000; -564.000
396.033;   72.500;  217.000;  172.000
396.162; 1043.800; -399.000; -453.000
396.290;  899.500;  -17.000;   -2.000
396.418;  107.900; -555.000; -514.000
396.546; -148.500; -571.000; -466.000
396.674; -200.400; -850.000; -878.000
396.803;   27.200;  -72.000;  -23.000
396.931;   88.400; -179.000; -199.000
397.059;  -85.400;-1026.000; -989.000
397.187; -203.500;-1026.000; -975.000
397.315; -206.300; -884.000; -649.000
397.443; -147.300; -592.000; -443.000
397.572; -150.900; -578.000; -424.000
397.700;  -27.400; -607.000; -614.000
397.828;   28.100;  120.000;  -90.000
397.956;  -82.400; -508.000; -478.000
398.084; -132.900; -767.000; -626.000
398.212;  100.400;  137.000;  124.000
398.340;   32.900;  -56.000;  159.000
398.468;   30.800; -390.000; -169.000
398.596; -254.300; -993.000; -953.000
398.724; -202.400; -762.000; -767.000
398.852; -317.600;-1024.000; -976.000
398.980;  -85.700; -560.000; -560.000
399.108; -126.900; -982.000; -735.000
399.236;   93.200;   13.000;    8.000
399.363;   49.600;  222.000;  196.000
399.491; -129.100; -404.000; -398.000
399.619; -220.000; -829.000; -800.000
399.747; -176.300; -859.000; -771.000
399.875;  128.100;  220.000;  234.000
400.003;  -72.700; -359.000; -284.000
400.130; -137.400; -421.000; -341.000
400.258;    3.500;  -83.000;   38.000
400.386;  -91.300; -352.000; -168.000
400.514;  -71.700; -526.000; -587.000
400.641; -219.700; -928.000; -802.000
400.769; -231.300; -979.000; -888.000
400.897; -213.000; -838.000; -793.000
401.025;   10.900; -166.000; -152.000
401.152;   44.000;  220.000;   38.000
401.280;  -94.900; -430.000; -429.000
401.408; -185.400; -712.000; -576.000
401.535; -165.700; -735.000; -758.000
401.663; -345.500;-1134.000;-1054.000
401.790; -127.400; -514.000; -525.000
401.918;  142.200;  436.000;  405.000
402.046;   26.200;  134.000;  122.000
402.173;  -28.800;  -18.000;    7.000
402.301;  -90.400; -519.000; -397.000
402.428;  131.100;  528.000;  383.000
402.556; -255.500;-1188.000; -913.000
402.683;    2.900;  -20.000;   -1.000
402.811;   17.100;  -37.000; -206.000
402.938;   23.400;   20.000;   27.000
403.066;  207.200; -574.000; -558.000
403.193;  394.700;  299.000;  239.000
403.321;  303.100; -396.000; -574.000
403.448;  405.100;   83.000;   27.000
403.575;  217.800;  -90.000;  -46.000
403.703; -212.600; -732.000; -557.000
403.830; -116.200; -531.000; -496.000
403.957; -281.200;-1117.000;-1023.000
404.085;   39.500;  -61.000; -172.000
404.212;  135.800;  -50.000;   63.000
404.339;  331.900; -566.000; -306.000
404.467; 7241.500; -612.000; -524.000
404.594; 4483.800; -287.000; -227.000
404.721;  900.000; -869.000; -764.000
404.848;  106.500; -113.000; -202.000
404.976; -223.700; -856.000; -783.000
405.103;    6.000;  -14.000;  -82.000
405.230;   40.200;  190.000;  226.000
405.357;   37.100;  117.000;   44.000
405.484;  343.000;  -49.000;    5.000
405.612;   30.400; -548.000; -563.000
405.739;  -94.200; -488.000; -243.000
405.866;  195.100;  669.000;  385.000
405.993;  -72.100; -398.000; -102.000
406.120; -189.900; -801.000; -887.000
406.247;  -98.600; -323.000; -342.000
406.374;  599.900;  540.000;  629.000
406.501;   45.200; -632.000; -702.000
406.628; -129.300; -621.000; -589.000
406.755; -211.100; -803.000; -620.000
406.882;  -48.100; -228.000; -277.000
407.009; -161.500; -719.000; -628.000
407.136;   40.300; -480.000; -401.000
407.263;   48.700; -939.000; -829.000
407.390; -130.400; -692.000; -614.000
407.517; -293.200;-1139.000;-1187.000
407.644;  -81.600; -332.000; -256.000
407.771; -115.200; -249.000; -287.000
407.898;   50.400;  168.000;  328.000
408.025; -125.200; -421.000; -313.000
408.151;   20.000;   82.000;  153.000
408.278;  -75.500; -267.000; -216.000
408.405; -197.400; -931.000; -899.000
408.532; -112.600; -549.000; -542.000
408.659; -177.900; -677.000; -648.000
408.785; -357.400;-1298.000;-1170.000
408.912;  -90.700; -412.000; -296.000
409.039; -166.000; -610.000; -686.000
409.166; -157.200; -591.000; -555.000
409.292; -176.400; -571.000; -534.000
409.419; -210.900; -665.000; -649.000
409.546; -128.900; -431.000; -192.000
409.672; -167.300; -713.000; -545.000
409.799;   27.700;  -36.000;   34.000
409.926;  -73.000; -180.000; -179.000
410.052; -326.500;-1127.000;-1091.000
410.179;  -42.100; -368.000; -392.000
410.305; -135.800; -375.000; -493.000
410.432;  -80.500; -220.000; -333.000
410.558; -138.900; -305.000; -380.000
410.685; -175.200; -688.000; -431.000
410.812; -162.300; -409.000; -588.000
410.938; -238.200; -964.000; -808.000
411.065; -166.000; -671.000; -645.000
411.191;  -14.600; -189.000; -174.000
411.317; -198.500; -823.000; -742.000
411.444; -119.200; -317.000; -246.000
411.570; -122.100; -339.000; -294.000
411.697; -207.700; -758.000; -752.000
411.823; -324.800; -989.000; -999.000
411.949;  -27.400;  -56.000;   17.000
412.076; -190.600; -539.000; -519.000
412.202; -206.100; -758.000; -757.000
412.329; -243.600; -798.000; -752.000
412.455; -218.700; -821.000; -657.000
412.581;  -11.300;  -15.000;  172.000
412.707;  -75.500; -540.000; -457.000
412.834;   69.500;  156.000;  219.000
412.960; -159.800; -785.000; -784.000
413.086; -201.100; -743.000; -701.000
413.212;  229.800;  604.000;  578.000
413.339; -172.700; -685.000; -701.000
413.465;   13.600; -364.000; -310.000
413.591; -145.900; -757.000; -474.000
413.717;  -93.300; -358.000; -366.000
413.843; -230.300; -839.000; -861.000
413.969; -106.500;  -47.000; -292.000
414.096; -195.800; -679.000; -679.000
414.222;   33.200;  -33.000;   85.000
414.348;  -75.800; -652.000; -385.000
414.474;  131.000;   38.000;  -52.000
414.600;  -24.500; -126.000; -144.000
414.726;   34.300;  -96.000;  -55.000
414.852; -117.200; -365.000; -342.000
414.978;   77.700;  104.000;  -18.000
415.104;   67.900;   38.000;   80.000
415.230;   43.500; -329.000; -330.000
415.356;    4.100; -409.000; -514.000
415.482;  256.300;   13.000;  -35.000
415.608;  343.100; -247.000; -323.000
415.734; 1268.700;   67.000;   38.000
415.860;25960.900; -875.000; -767.000
415.986;17001.700; -685.000; -607.000
416.111; 1399.000; -798.000; -652.000
416.237;  269.100; -424.000; -571.000
416.363; 1476.000; -765.000; -733.000
416.489; 5138.200; -324.000; -251.000
416.615;  429.400; -707.000; -742.000
416.741;  -88.600; -677.000; -784.000
416.866; -157.800; -673.000; -736.000
416.992; -195.900; -801.000; -818.000
417.118;  -52.400;  -41.000;  -80.000
417.244; -140.400; -798.000; -531.000
417.369; -161.800; -801.000; -612.000
417.495;  -27.100; -325.000; -254.000
417.621; -190.100;-1015.000; -803.000
417.746;  -16.400; -579.000; -572.000
417.872;   78.100; -254.000; -144.000
417.998;   38.300; -515.000; -530.000
418.123; 1347.900;-1073.000; -845.000
418.249; 6561.000; -512.000; -601.000
418.374;  743.100; -916.000; -824.000
418.500;   89.000; -383.000; -482.000
418.626;  166.500;   70.000;  -59.000
418.751;  148.800; -549.000; -448.000
418.877;  201.800; -637.000; -643.000
419.002; 2431.000; -688.000; -560.000
419.128;15744.000; -930.000; -721.000
419.253; 3378.800; -967.000; -837.000
419.379;  444.600; -391.000; -338.000
419.504;  541.000;  325.000;  415.000
419.629;  621.500; -393.000; -212.000
419.755; 4850.900; -317.000; -254.000
419.880;26192.500;  -98.000;   67.000
420.006;14677.200; -280.000; -221.000
420.131;36080.400; -662.000; -775.000
420.256; 4699.700; -315.000; -316.000
420.382;  576.600; -665.000; -687.000
420.507;   31.000; -649.000; -778.000
420.632;  172.900; -337.000; -339.000
420.758;  322.200; -251.000; -425.000
420.883; -193.400; -876.000; -672.000
421.008; -159.500; -775.000; -619.000
421.133; -121.700; -509.000; -467.000
421.259;  -72.500; -325.000; -259.000
421.384; -188.600; -834.000; -693.000
421.509; -118.700;-1052.000; -862.000
421.634; 1423.700; -936.000; -820.000
421.759;  524.500; -359.000; -327.000
421.885; -133.500; -717.000; -656.000
422.010; -118.400; -673.000; -542.000
422.135; -279.100; -695.000; -727.000
422.260;   90.400;  340.000;  280.000
422.385;  -35.600;   12.000;  -98.000
422.510;   59.900;  151.000;  -26.000
422.635;   45.800;  -87.000;  -43.000
422.760;  147.300; -766.000; -791.000
422.885;   77.600;  -57.000;  -80.000
423.010;  -31.200; -112.000; -169.000
423.135; -182.900; -481.000; -561.000
423.260;    0.800; -150.000; -245.000
423.385;  132.700;  476.000;  222.000
423.510;   70.400;   71.000;  -22.000
423.635;  118.900;  133.000;   45.000
423.760;  141.200;  383.000;  328.000
423.885;   98.200;  336.000;  391.000
424.010;   50.300;  -68.000;  -13.000
424.135;   11.800;    5.000;  -33.000
424.259; -124.600; -654.000; -457.000
424.384;  -77.900; -279.000; -272.000
424.509;   -7.500; -260.000; -186.000
424.634; -203.700; -761.000; -623.000
424.759;  -67.700; -688.000; -544.000
424.883;  -49.700; -506.000; -527.000
425.008;  198.700; -502.000; -410.000
425.133; 2462.700; -679.000; -653.000
425.258; 1046.800; -517.000; -381.000
425.382; 1314.300; -867.000; -774.000
425.507; 3125.300; -487.000; -543.000
425.632;  421.200; -802.000; -663.000
425.756;  621.400; -256.000; -146.000
425.881; 8791.500; -831.000; -857.000
426.006;21575.200; -604.000; -355.000
426.130; 3058.800; -696.000; -508.000
426.255;  350.100; -611.000; -491.000
426.379;  177.000; -189.000; -577.000
426.504;  549.700;  660.000;  544.000
426.629; 5186.700; -519.000; -466.000
426.753; 3192.600;   64.000;  -46.000
426.878;  357.100; -252.000; -288.000
427.002;  127.000; -651.000; -668.000
427.127; 2152.300;  -35.000; -158.000
427.251;14746.100;  372.000;  401.000
427.375; 3757.000; -191.000; -173.000
427.500; 2876.000; -616.000; -610.000
427.624;  887.500; -234.000; -400.000
427.749;  136.400; -216.000; -225.000
427.873;  -68.500; -499.000; -412.000
427.997;  -53.700; -222.000; -230.000
428.122;  175.100;  795.000;  703.000
428.246;  235.600;  433.000;  434.000
428.371; -235.700; -869.000; -773.000
428.495; -151.100; -624.000; -646.000
428.619;  -40.900; -186.000; -117.000
428.743;   32.200;   65.000;  132.000
428.868;   -7.900; -732.000; -643.000
428.992; 1770.000; -219.000; -326.000
429.116;  637.300; -329.000; -357.000
429.240;  426.500;  419.000;  426.000
429.365;  -40.500; -454.000; -574.000
429.489;  -94.200; -638.000; -647.000
429.613;   55.300; -236.000; -177.000
429.737;   23.100; -563.000; -432.000
429.861;  323.200; -247.000; -133.000
429.985; 7337.400; -425.000; -305.000
430.109; 7188.300; -770.000; -908.000
430.234;  862.900;   76.000;  -50.000
430.358;   52.500; -250.000; -160.000
430.482; -100.200; -672.000; -564.000
430.606; -141.400; -655.000; -375.000
430.730;   11.200; -437.000; -388.000
430.854;   64.000; -909.000; -835.000
430.978; -122.300; -795.000; -764.000
431.102; -124.300; -499.000; -422.000
431.226; -192.400; -874.000; -815.000
431.350;   87.800;  345.000;  422.000
431.474; -114.500; -661.000; -373.000
431.597; -271.500;-1060.000; -848.000
431.721;  -97.900; -276.000; -267.000
431.845; -218.600; -704.000; -472.000
431.969;  -87.200; -304.000; -349.000
432.093; -124.000; -395.000; -317.000
432.217;   33.300;   32.000;   82.000
432.341; -162.500; -523.000; -518.000
432.464;   26.000;   96.000;   40.000
432.588;  176.500; -401.000; -329.000
432.712;  109.500;  -52.000;  -52.000
432.836;   76.300;  213.000;  263.000
432.959;  -63.900; -372.000; -311.000
433.083;  136.600;   11.000;    2.000
433.207;  554.900;  285.000;  930.000
433.330; 6691.000; -391.000; -200.000
433.454; 7347.300; -654.000; -638.000
433.578; 4410.900;  583.000;  278.000
433.701;  661.300; -623.000; -675.000
433.825;  127.200; -292.000; -299.000
433.949;  222.400;   28.000;  -72.000
434.072;   20.000; -410.000; -323.000
434.196;   -6.400; -309.000; -117.000
434.319; 7759.800;25482.000;25124.000
434.443;  915.100; -656.000; -603.000
434.566; 3320.600;  281.000;   62.000
434.690;  439.100; -637.000; -383.000
434.813;   29.600; -251.000; -173.000
434.937; -115.500; -569.000; -696.000
435.060;  -52.400; -423.000; -332.000
435.184;  319.400; -492.000; -217.000
435.307;  197.500;  159.000;  102.000
435.431;   21.000;  -40.000;   24.000
435.554; -132.600; -399.000; -240.000
435.677; -109.800; -350.000; -258.000
435.801;  -15.200;  -25.000;   49.000
435.924;   48.800;    1.000;  -67.000
436.048; -243.800;-1019.000; -732.000
436.171;  -91.500; -240.000;  -66.000
436.294;  -41.100; -248.000; -229.000
436.417;   57.900; -963.000; -849.000
436.541; -204.200; -814.000; -840.000
436.664;  -50.500; -242.000; -316.000
436.787;   -8.200;   13.000;  113.000
436.910; -177.600; -792.000; -422.000
437.034;   51.500;  142.000;  143.000
437.157;  117.100;  -11.000;    0.000
437.280;  -81.500; -392.000; -292.000
437.403; -162.500; -982.000; -869.000
437.526;  796.600; -903.000; -865.000
437.649; 2750.500; -505.000; -332.000
437.772;  263.600; -692.000; -540.000
437.896;  229.600;  700.000;  544.000
438.019; -175.500; -758.000; -503.000
438.142; -130.200; -596.000; -506.000
438.265;  -97.100; -639.000; -670.000
438.388;  633.900; -520.000; -410.000
438.511;   19.500; -597.000; -394.000
438.634;  -45.600; -247.000; -125.000
438.757; -212.300; -693.000; -619.000
438.880;    4.100;  -34.000;  -57.000
439.003; -116.400; -417.000; -437.000
439.126;  -58.500; -287.000; -167.000
439.248;  -89.600;  -98.000; -139.000
439.371;  -45.600;    9.000;  -53.000
439.494;  138.600;  510.000;  439.000
439.617;  -45.400;   65.000;  -88.000
439.740; -325.300; -968.000; -816.000
439.863; -233.500; -755.000; -595.000
439.986; -157.800; -476.000; -431.000
440.108;  -26.200; -161.000; -112.000
440.231; -292.600; -950.000; -836.000
440.354;    1.200;  -64.000; -150.000
440.477;  -54.800; -566.000; -542.000
440.599;    2.000; -200.000; -225.000
440.722; -195.900; -709.000; -586.000
440.845;  238.000;  751.000;  928.000
440.968; -140.200; -415.000; -311.000
441.090;  -72.200; -199.000;  -33.000
441.213; -277.000;-1021.000; -825.000
441.336;  -47.300; -159.000;   -5.000
441.458; -111.500; -549.000; -396.000
441.581; -181.200; -628.000; -629.000
441.703;  -75.700; -152.000;   13.000
441.826; -185.400; -557.000; -400.000
441.948;  -59.400;   56.000;   51.000
442.071;  149.000;  555.000;  424.000
442.193; -172.000; -531.000; -485.000
442.316;   78.600;  152.000;   97.000
442.438;   17.600; -233.000;  -10.000
442.561;  142.700;  272.000;  262.000
442.683;  640.900; -809.000; -522.000
442.806; 1420.300;   -8.000;   74.000
442.928;  -54.400; -859.000; -604.000
443.051; -113.600; -577.000; -373.000
443.173; -123.900; -341.000; -339.000
443.295; -101.400; -263.000; -371.000
443.418;  -72.000; -321.000;  -29.000
443.540;   21.400; -106.000;   -4.000
443.662; -223.700; -563.000; -465.000
443.785;    3.100;  335.000;  199.000
443.907; -146.300; -362.000; -208.000
444.029; -205.300; -767.000; -494.000
444.152; -228.800; -644.000; -554.000
444.274;    5.000;  -18.000;  -24.000
444.396; -179.300; -461.000; -221.000
444.518; -198.300; -691.000; -454.000
444.640; -174.100; -268.000; -111.000
444.763;    1.900;  388.000;  249.000
444.885; -184.900; -432.000; -392.000
445.007;  -18.000;   35.000;   86.000
445.129; -181.100; -610.000; -515.000
445.251; -159.900; -372.000; -439.000
445.373; -208.600; -537.000; -386.000
445.495;   57.700;  242.000;  350.000
445.617;  168.800;  853.000;  753.000
445.739;  -54.500; -215.000;  -97.000
445.861;  -45.100; -245.000; -112.000
445.984;  -52.400; -267.000; -101.000
446.105;  243.500; -418.000; -251.000
446.227;  758.100; -176.000;  -19.000
446.349;  -49.200; -358.000; -249.000
446.471; -166.300; -615.000; -448.000
446.593;  -94.600; -316.000;   19.000
446.715;   32.400;  -67.000;   41.000
446.837;  190.000;  697.000;  832.000
446.959; -181.100; -457.000; -478.000
447.081; -221.100; -628.000; -518.000
447.203;  193.300;  862.000;  834.000
447.325; -137.800; -270.000;   42.000
447.446;   43.800;  286.000;  530.000
447.568; -253.500; -921.000; -803.000
447.690; -104.100; -236.000; -245.000
447.812; -261.900; -798.000; -519.000
447.933;   23.800;  155.000;  127.000
448.055;  -78.100; -306.000; -261.000
448.177;  224.000;   31.000;   79.000
448.299;   32.200; -935.000; -727.000
448.420;   54.900;  -25.000;  159.000
448.542;  -24.500;   -3.000;   33.000
448.664;   35.600;  109.000;  322.000
448.785;  -27.700;  265.000;   83.000
448.907; -126.600; -614.000; -353.000
449.028; -119.500; -771.000; -471.000
449.150;  154.400;  492.000;  589.000
449.272; -320.800;-1044.000; -913.000
449.393;  124.400;  612.000;  694.000
449.515; -248.000; -634.000; -581.000
449.636;  -65.500; -264.000; -155.000
449.758;  151.200;  763.000;  622.000
449.879; -152.900; -498.000; -396.000
450.001;  -99.000; -149.000;  -49.000
450.122;  -26.700;  -95.000;  162.000
450.244;    7.500;   37.000;  364.000
450.365; -140.300; -495.000; -301.000
450.486;  -17.600;   80.000;  268.000
450.608;  118.700;  393.000;  326.000
450.729;  173.500;  578.000;  645.000
450.850;  -47.300; -574.000; -466.000
450.972;  977.700; -552.000; -389.000
451.093; 6368.400;  190.000;  588.000
451.214; 2372.200; -516.000; -337.000
451.336;  548.400;  773.000;  579.000
451.457;  107.900;  264.000;  393.000
451.578;   -6.900; -118.000;  -74.000
451.699; -182.400; -546.000; -540.000
451.821;  -81.100; -284.000;  -50.000
451.942;   33.100;  278.000;  285.000
452.063;  118.900;  228.000;  419.000
452.184;  764.500;  -54.000;  -49.000
452.305; 1427.300;  103.000;  170.000
452.427;  115.300; -549.000; -301.000
452.548;  -29.300;   23.000;   79.000
452.669;  -70.400; -257.000;  -89.000
452.790;  -27.700;    3.000;  -18.000
452.911;    4.900;  195.000;  259.000
453.032; -104.900; -289.000;  -60.000
453.153;  -63.200;  -29.000;   81.000
453.274;  212.200;  737.000;  868.000
453.395;  -44.300;  -51.000;  175.000
453.516;  331.500; 1317.000; 1388.000
453.637; -109.900; -205.000; -150.000
453.758;  -37.300;   15.000;   69.000
453.879; -196.200; -462.000; -250.000
454.000;  245.900; 1086.000;  948.000
454.121; -184.600; -554.000; -326.000
454.242; -192.100; -599.000; -383.000
454.362;  -61.300;  -99.000;  114.000
454.483;  -38.400; -309.000; -229.000
454.604;  142.700;  512.000;  580.000
454.725; -199.700; -627.000; -555.000
454.846; -223.300; -474.000; -406.000
454.967;   18.600;  230.000;  539.000
455.087;   -9.100;  179.000;  153.000
455.208;  103.400;  554.000;  856.000
455.329;  -81.600;  -22.000;   82.000
455.450;  122.800;  473.000;  633.000
455.570;  -96.900; -234.000; -211.000
455.691;   -4.300;  201.000;  407.000
455.812; -144.200; -270.000;  -92.000
455.932; -100.900;  107.000;  -97.000
456.053; -108.100;   36.000;   24.000
456.173; -169.500; -433.000; -355.000
456.294; -223.800; -476.000; -303.000
456.415;  -63.600;  -73.000;   70.000
456.535;  -13.200;  297.000;  273.000
456.656;  -12.600;  132.000;  240.000
456.776;  -51.000;    3.000;  298.000
456.897;   72.500;  308.000;  513.000
457.017; -122.500; -153.000;   -3.000
457.138; -183.200; -402.000; -249.000
457.258;  -14.100;  263.000;  224.000
457.379;   25.000;  509.000;  521.000
457.499;    1.800;  443.000;  432.000
457.620; -182.100; -407.000; -231.000
457.740; -150.500; -132.000;  -11.000
457.860;  -58.500;   87.000;   44.000
457.981;  -54.900;  132.000;  124.000
458.101; -104.700;  -89.000;   40.000
458.221;   -8.000;  336.000;  402.000
458.342;  -49.700;   -4.000;  -37.000
458.462;   97.700;  617.000;  352.000
458.582;  -46.200; -302.000; -294.000
458.703;   51.500;  303.000;  154.000
458.823;   -2.100;   22.000;  163.000
458.943;   47.600;  341.000;  467.000
459.063;  -21.500; 1124.000;  192.000
459.183;   27.600;  328.000;  313.000
459.304;   63.000;  315.000;  517.000
459.424;  -93.100; -246.000;  -89.000
459.544;  514.500;  388.000;  764.000
459.664; 1114.400;  499.000;  506.000
459.784;  447.400; 1004.000; 1175.000
459.904;  141.700;  867.000;  744.000
460.024;  164.100;  867.000;  684.000
460.144;   66.700;  449.000;  554.000
460.264;   58.200;  515.000;  327.000
460.385; -136.000; -145.000; -119.000
460.505;  148.900;  905.000;  858.000
460.625; -125.500;  -17.000;  -68.000
460.745;    0.400;  396.000;  541.000
460.864;  -52.200;  153.000;  469.000
460.984;   84.400;  499.000;  573.000
461.104;  348.700; 1656.000; 1775.000
461.224;  151.800;  657.000;  650.000
461.344;    1.300;  431.000;  360.000
461.464;  -16.400;  258.000;  513.000
461.584;   -4.100;  283.000;  466.000
461.704;  -47.000;   58.000;  108.000
461.824;  -46.200;  238.000;  259.000
461.943;  -18.800;  191.000;  130.000
462.063;  -78.500;    2.000;  324.000
462.183;  118.700;  639.000;  717.000
462.303;  233.700; 1678.000; 1230.000
462.422;  134.700;  781.000;  840.000
462.542;   -6.500;  271.000;  391.000
462.662;  100.500;  353.000;  380.000
462.782;  387.200;  833.000;  572.000
462.901;  647.300;  545.000;  717.000
463.021;  539.400; 1702.000; 1638.000
463.141;   73.600;  337.000;  770.000
463.260;    2.000;  614.000;  474.000
463.380;   99.200;  902.000;  884.000
463.499;   17.400;  342.000;  332.000
463.619;  -34.500;  581.000;  559.000
463.738;  304.200; 1644.000;  903.000
463.858;   61.800;  657.000;  811.000
463.978;    2.000;  542.000;  396.000
464.097;  164.300;  921.000; 1114.000
464.217;  269.200; 1196.000; 1143.000
464.336;  276.900; 1068.000; 1130.000
464.455;  -10.100;  328.000;  659.000
464.575;   85.300;  597.000;  602.000
464.694;  329.400; 1204.000; 1179.000
464.814;  248.500; 1190.000; 1138.000
464.933;  170.000; 1095.000; 1027.000
465.052;  255.200; 1412.000; 1054.000
465.172;  195.100;  922.000;  799.000
465.291;  291.000; 1376.000; 1320.000
465.410;   98.400;  462.000;  735.000
465.530;  244.000; 1355.000; 1310.000
465.649;  203.000; 1209.000; 1273.000
465.768;  355.200; 1673.000; 1508.000
465.888;  149.400;  941.000; 1174.000
466.007;  243.000; 1335.000; 1440.000
466.126;   69.100;  721.000;  641.000
466.245;  206.100; 1176.000; 1187.000
466.364;  123.700;  950.000; 1060.000
466.484;  188.400; 1024.000; 1213.000
466.603;  113.200; 1101.000; 1222.000
466.722;  320.100; 1490.000; 1769.000
466.841;  191.700; 1151.000; 1401.000
466.960;  154.500; 1069.000;  972.000
467.079;  348.100; 1971.000; 1786.000
467.198;  175.700; 1238.000; 1181.000
467.317;  242.000; 1768.000; 1162.000
467.436;  239.200; 1709.000; 1261.000
467.555;  336.400; 1796.000; 1746.000
467.674;  210.600; 1227.000; 1329.000
467.793;  171.700; 1376.000; 1374.000
467.912;  259.400; 1658.000; 1539.000
468.031;  351.500; 2038.000; 1930.000
468.150;  392.900; 1842.000; 1837.000
468.269;  443.900; 2313.000; 2090.000
468.388;  455.600; 2168.000; 2339.000
468.507;  580.300; 2884.000; 2903.000
468.626;  630.200; 2555.000; 2541.000
468.744;  360.600; 2018.000; 2174.000
468.863;  501.100; 2312.000; 2523.000
468.982;  267.000; 1503.000; 1555.000
469.101;  509.500; 2788.000; 2692.000
469.220;  376.400; 2333.000; 2176.000
469.338;  623.800; 2935.000; 3051.000
469.457;  468.000; 2719.000; 2545.000
469.576;  741.900; 3953.000; 3784.000
469.695;  545.100; 2877.000; 3066.000
469.813;  858.800; 4148.000; 4192.000
469.932;  847.400; 4255.000; 4485.000
470.051;  943.100; 4075.000; 4161.000
470.169; 1569.800; 4470.000; 4338.000
470.288; 2274.400; 4700.000; 4809.000
470.406; 1523.600; 5059.000; 5194.000
470.525; 1253.600; 6101.000; 5787.000
470.644; 1346.800; 6847.000; 6794.000
470.762; 1708.200; 8397.000; 7873.000
470.881; 1886.000; 8651.000; 8464.000
470.999; 2137.700; 9685.000; 9151.000
471.118; 2296.500;11174.000;10711.000

