
Integration time [ms]: 200.000
Averaging Nr. [scans]: 10
Smoothing Nr. [pixels]: 0
Data measured with spectrometer [name]: 2101012U2
Wave   ;Sample   ;Dark     ;Reference
[nm]   ;[counts] ;[counts] ;[counts] 

197.733;   87.200;  516.000;  404.000
197.879; -179.100; -610.000; -634.000
198.025;  -94.100; -475.000; -420.000
198.171; -158.500; -602.000; -612.000
198.317;  -61.900; -401.000; -316.000
198.463; -139.700; -655.000; -404.000
198.609;   59.600;  181.000; -137.000
198.755; -167.900; -644.000; -410.000
198.901; -126.200; -505.000; -424.000
199.047; -132.900; -615.000; -488.000
199.193; -117.600; -230.000; -468.000
199.339;  -96.600; -222.000; -369.000
199.485;   82.500;  330.000;  271.000
199.631;   14.700;  227.000;  310.000
199.777;  -94.800; -466.000; -398.000
199.923; -134.600; -610.000; -424.000
200.069;  -22.000; -141.000;  -58.000
200.215;   90.700;  128.000;  453.000
200.361;   81.200;  243.000;  477.000
200.507; -132.100; -600.000; -373.000
200.653;  -33.700; -371.000; -194.000
200.798;  -62.600; -215.000; -125.000
200.944;    7.100; -146.000;  -41.000
201.090;   88.400;   61.000;  222.000
201.236;   -6.500; -116.000; -158.000
201.382;  239.100;  874.000;  903.000
201.528;   21.500;  -58.000;  -48.000
201.674;  -72.400; -386.000; -293.000
201.819; -118.000; -540.000; -439.000
201.965; -168.000; -699.000; -447.000
202.111;  -51.400; -273.000; -226.000
202.257;  -80.900; -250.000; -238.000
202.402;   18.600;   13.000;  -36.000
202.548;  -58.600; -169.000; -116.000
202.694;  167.500;  410.000; -183.000
202.840; -150.300; -603.000; -531.000
202.985; -130.500; -681.000; -639.000
203.131; -193.300; -832.000; -666.000
203.277;  -37.400; -199.000; -262.000
203.423; -130.500; -434.000; -520.000
203.568;  -80.700; -462.000; -237.000
203.714; -124.700; -535.000; -542.000
203.860; -147.500; -682.000; -641.000
204.005;   -1.600;  112.000;  167.000
204.151;  146.500;  561.000;  556.000
204.296; -108.500; -354.000; -221.000
204.442; -148.000; -600.000; -547.000
204.588; -142.000; -592.000; -579.000
204.733;   37.600;  178.000;  168.000
204.879; -254.300;-1018.000; -822.000
205.025;   -0.200;  -99.000;  126.000
205.170;   29.700;  -17.000;   94.000
205.316;  171.900;  438.000;  661.000
205.461; -161.900; -698.000; -554.000
205.607;  159.100;  609.000;  665.000
205.752; -157.800; -626.000; -551.000
205.898; -105.500; -501.000; -391.000
206.043; -109.300; -578.000; -506.000
206.189;  -80.800; -243.000; -285.000
206.334;  165.600;  554.000;  606.000
206.480;  160.200;  409.000;  239.000
206.625; -151.600; -529.000; -552.000
206.771;  -83.500; -451.000; -373.000
206.916;  -70.900; -210.000; -537.000
207.062; -154.900; -545.000; -591.000
207.207; -113.700; -546.000; -443.000
207.353;   94.300;  185.000;  460.000
207.498;   44.600;  196.000;   85.000
207.643; -103.900; -501.000; -370.000
207.789; -265.700;-1069.000; -910.000
207.934; -178.600; -665.000; -713.000
208.080;  -32.700; -154.000;   66.000
208.225;  -12.300;  -22.000;  -57.000
208.370; -150.300; -727.000; -619.000
208.516; -152.900; -741.000; -487.000
208.661;  -74.700; -127.000;  -69.000
208.806;  -32.500; -165.000; -171.000
208.952; -234.100;-1044.000; -731.000
209.097;  120.100;  378.000;  349.000
209.242;  -71.600; -307.000; -382.000
209.387;  117.900;  392.000;  350.000
209.533;  -88.900; -321.000; -350.000
209.678;  154.200;  472.000;  543.000
209.823; -102.000; -408.000; -310.000
209.969; -218.000; -860.000; -757.000
210.114; -201.900; -907.000; -719.000
210.259; -242.400; -939.000; -889.000
210.404;  -28.000; -171.000;  103.000
210.549;   21.500;  108.000;    3.000
210.695;  -10.700;   -3.000;  -95.000
210.840;   70.500;   94.000;   67.000
210.985; -140.200; -484.000; -303.000
211.130;  147.700;  268.000;  406.000
211.275;   40.400;  207.000;  199.000
211.420;  -91.900; -300.000; -289.000
211.566; -151.900; -536.000; -489.000
211.711;   52.500;  218.000;  157.000
211.856; -134.800; -545.000; -519.000
212.001;   35.900;  151.000;   44.000
212.146;   -7.000;  153.000;   49.000
212.291;  -35.500; -210.000; -186.000
212.436;  -52.700; -280.000;   -6.000
212.581; -206.500; -685.000; -653.000
212.726; -157.800; -487.000; -538.000
212.871;  -92.900; -552.000; -217.000
213.016; -298.900;-1172.000;-1029.000
213.161;  135.800;  406.000;  291.000
213.306; -152.500; -435.000; -577.000
213.451; -212.500; -778.000; -689.000
213.596;  -78.600; -455.000; -347.000
213.741; -113.100; -448.000; -538.000
213.886; -153.900; -498.000; -517.000
214.031;  -41.800; -294.000; -124.000
214.176; -126.500; -408.000; -341.000
214.321;  -55.300; -296.000; -157.000
214.466;  -48.900; -163.000;  -43.000
214.611;   -0.800;  -61.000;  -10.000
214.756; -259.200; -948.000; -858.000
214.901;  -47.000; -388.000; -226.000
215.046; -264.700; -797.000; -825.000
215.191;   22.300;  128.000;   35.000
215.336;   -2.700; -157.000;  -19.000
215.480; -157.000; -684.000; -505.000
215.625;  -33.000; -175.000;  -19.000
215.770; -171.800; -757.000; -662.000
215.915;   -3.900;   -5.000;  -97.000
216.060;  -28.100; -113.000;  -21.000
216.205; -212.000; -731.000; -779.000
216.349; -155.900; -470.000; -533.000
216.494; -271.600; -939.000; -867.000
216.639; -244.100; -823.000; -888.000
216.784; -192.000; -577.000; -525.000
216.929;  102.500;  392.000;  281.000
217.073;  -21.800; -244.000;  -31.000
217.218;    8.500;   78.000;  -47.000
217.363; -186.000; -656.000; -618.000
217.507; -170.700; -623.000; -588.000
217.652; -269.100; -845.000; -874.000
217.797; -198.400; -708.000; -659.000
217.942; -199.900; -856.000; -720.000
218.086;  138.400;  608.000;  539.000
218.231;  -48.900; -174.000;  -26.000
218.376;  -90.400; -337.000; -229.000
218.520;   24.100;  -41.000;   96.000
218.665;  -63.600; -338.000; -204.000
218.810;  -55.900; -275.000; -233.000
218.954;   34.200;  201.000;   35.000
219.099; -208.900; -713.000; -963.000
219.243; -159.600; -589.000; -554.000
219.388;  -72.000; -264.000; -136.000
219.532;  -43.900; -116.000; -116.000
219.677; -124.300; -564.000; -521.000
219.822;   14.200;   33.000;   89.000
219.966;    1.500;   17.000;  -99.000
220.111;  -65.000; -328.000;  -40.000
220.255; -183.300; -797.000; -750.000
220.400;  -62.400; -180.000; -146.000
220.544; -145.500; -516.000; -450.000
220.689; -115.600; -422.000; -451.000
220.833;  -54.600; -123.000;  -58.000
220.978;  -95.900; -393.000; -563.000
221.122;   21.600;  319.000;  307.000
221.267; -236.600; -906.000; -837.000
221.411; -151.700; -478.000; -394.000
221.555;   14.800; -104.000;  -23.000
221.700;  -94.500; -329.000; -222.000
221.844;   82.000;  255.000;  272.000
221.989;  -91.500; -328.000; -311.000
222.133;  -62.600; -289.000; -307.000
222.277;  -28.900;    5.000;   78.000
222.422;   52.000;  227.000;  113.000
222.566;  -72.800; -381.000; -214.000
222.711; -120.500; -414.000; -479.000
222.855; -168.500; -643.000; -586.000
222.999; -194.100; -642.000; -717.000
223.144;  -64.200; -195.000; -194.000
223.288;  112.400;  423.000;  251.000
223.432;   -4.900;  184.000;  230.000
223.576;   19.600;  152.000;  -21.000
223.721;   76.700;  364.000;  273.000
223.865;  -98.400; -472.000; -475.000
224.009;  507.000; 1673.000; 1631.000
224.153; -157.900; -660.000; -671.000
224.298; -150.400; -531.000; -489.000
224.442;   -9.500;  -74.000;  -33.000
224.586;  -18.400; -169.000; -106.000
224.730; -197.900; -858.000; -670.000
224.875; -207.900; -739.000; -688.000
225.019;   21.800;  102.000;  188.000
225.163;  122.100;  208.000;  341.000
225.307;   11.400;   97.000;  -91.000
225.451;  110.300;  360.000;  481.000
225.595;   60.600;  264.000;  176.000
225.739;  -20.800; -170.000;  -94.000
225.884;   42.300;   86.000;    5.000
226.028; -195.900; -760.000; -626.000
226.172;  -66.600; -260.000; -273.000
226.316; -240.500; -941.000; -902.000
226.460; -121.400; -645.000; -493.000
226.604;  -91.800; -406.000; -400.000
226.748; -208.100; -836.000; -733.000
226.892;  -38.700; -227.000; -181.000
227.036;  -97.800; -537.000; -447.000
227.180; -106.800; -551.000; -375.000
227.324; -143.100; -561.000; -580.000
227.468; -206.600; -819.000; -717.000
227.612;   35.200;  242.000;  -28.000
227.756; -199.500; -845.000; -698.000
227.900;  111.400;  342.000;  441.000
228.044; -138.000; -509.000; -290.000
228.188;  110.900;  448.000;  568.000
228.332; -158.400; -546.000; -472.000
228.476;  -42.800; -223.000; -149.000
228.620;  -71.300; -210.000; -150.000
228.764;  138.000;  431.000;  349.000
228.908;  -59.800; -155.000;   30.000
229.052; -145.900; -615.000; -528.000
229.195;  -49.100; -172.000;   13.000
229.339;  -51.700; -235.000; -305.000
229.483;  -13.000;    5.000; -162.000
229.627;    5.800; -156.000;  139.000
229.771; -109.400; -218.000; -294.000
229.915;   21.500;  230.000;   79.000
230.059; -141.300; -648.000; -663.000
230.202;  -84.700; -370.000; -317.000
230.346;  -24.500; -107.000;  107.000
230.490; -127.900; -489.000; -521.000
230.634; -223.600; -736.000; -553.000
230.777;  158.700;  478.000;  509.000
230.921; -116.600; -450.000; -359.000
231.065;  -88.100; -246.000; -286.000
231.209;   59.000;  261.000;  265.000
231.352;   42.900;   54.000;   40.000
231.496;   37.400;  568.000;  188.000
231.640; -142.900; -693.000; -621.000
231.783;  120.600;  546.000;  525.000
231.927;  -96.900; -294.000; -365.000
232.071; -259.400; -962.000; -736.000
232.214; -227.100; -980.000; -764.000
232.358; -191.700; -683.000; -599.000
232.502;   14.200;  -19.000;    7.000
232.645; -270.500;-1090.000; -927.000
232.789;  -40.400; -257.000; -218.000
232.933;  -82.700; -407.000; -224.000
233.076; -263.200;-1038.000; -897.000
233.220; -183.900; -752.000; -777.000
233.363; -150.200; -669.000; -477.000
233.507;  125.000;  371.000;  129.000
233.650; -187.900; -764.000; -834.000
233.794;   85.700;  438.000;  461.000
233.938; -101.500; -530.000; -362.000
234.081;  -18.700;  -93.000;   31.000
234.225; -115.600; -631.000; -539.000
234.368; -205.100; -773.000; -723.000
234.512;  -89.400; -385.000; -299.000
234.655; -181.300; -582.000; -555.000
234.798; -151.200; -493.000; -466.000
234.942; -230.300; -884.000;-1002.000
235.085; -154.000; -651.000; -443.000
235.229; -133.900; -405.000; -410.000
235.372; -108.800; -247.000; -191.000
235.516;  -84.400; -397.000; -321.000
235.659;   39.700;   92.000;  121.000
235.802;  -12.400;  -38.000;  -22.000
235.946;   66.200;  335.000;  215.000
236.089;   72.500;  126.000;  250.000
236.233;  120.400;  275.000;  298.000
236.376; -106.300; -235.000; -378.000
236.519;  -84.600; -297.000; -319.000
236.663;  -32.800; -215.000; -117.000
236.806; -239.700;-1029.000; -999.000
236.949;   99.500;  543.000;  431.000
237.092;  133.200;  412.000;  391.000
237.236; -189.200; -589.000; -502.000
237.379;  148.400;  352.000;  428.000
237.522; -211.200; -879.000; -768.000
237.666;  -30.200; -271.000;   18.000
237.809; -240.300; -851.000; -823.000
237.952;  102.800;  469.000;  271.000
238.095; -136.300; -447.000; -442.000
238.238;  176.800;  688.000;  700.000
238.382;   -8.100;  166.000;  103.000
238.525; -121.000; -598.000; -511.000
238.668; -283.000;-1060.000; -985.000
238.811; -153.100; -638.000; -643.000
238.954;  -88.000; -483.000; -334.000
239.097;  194.700;  617.000;  664.000
239.241;   62.400;  394.000;  326.000
239.384;  -90.300; -254.000; -214.000
239.527;  -97.500; -424.000; -224.000
239.670; -282.000; -994.000;-1091.000
239.813; -177.800; -696.000; -658.000
239.956;  151.900;  579.000;  473.000
240.099; -200.300; -778.000; -725.000
240.242;  124.300;  428.000;  432.000
240.385;  103.900;  466.000;  450.000
240.528; -164.600; -706.000; -473.000
240.671;   73.400;  189.000;  134.000
240.814;  -73.500; -441.000; -158.000
240.957; -183.700; -767.000; -578.000
241.100; -182.900; -779.000; -755.000
241.243; -288.100;-1234.000; -893.000
241.386; -139.800; -508.000; -379.000
241.529; -145.100; -735.000; -547.000
241.672; -145.400; -566.000; -495.000
241.815; -245.800; -832.000; -808.000
241.958;  -58.900; -125.000; -182.000
242.101; -150.800; -545.000; -390.000
242.244;  -71.200; -270.000; -325.000
242.387;  -70.300; -304.000; -246.000
242.530;  114.000;  470.000;  134.000
242.673;  -68.800; -381.000; -309.000
242.815; -226.700; -925.000; -899.000
242.958; -147.900; -482.000; -381.000
243.101;   55.100;  132.000;  187.000
243.244; -160.700; -564.000; -521.000
243.387;  -66.600; -313.000; -316.000
243.530; -182.400; -657.000; -674.000
243.672;  -30.000;   43.000;  -92.000
243.815;  -94.300; -355.000; -283.000
243.958;   -6.500;   98.000;  -26.000
244.101;   11.500;   59.000;  -16.000
244.243;   -6.400;  -47.000;  101.000
244.386; -219.600; -761.000; -630.000
244.529;  -55.200; -132.000; -139.000
244.672; -296.200;-1154.000; -951.000
244.814; -222.200; -621.000; -794.000
244.957; -137.000; -380.000; -304.000
245.100; -147.300; -489.000; -489.000
245.242; -113.600; -387.000; -374.000
245.385;  -14.900;  -59.000;  -39.000
245.528; -227.400; -871.000; -705.000
245.670;  212.500;  612.000;  634.000
245.813; -157.800; -599.000; -547.000
245.956;  -77.100; -324.000; -275.000
246.098; -139.300; -508.000; -650.000
246.241;   23.800;  194.000;   48.000
246.383;  -42.600; -119.000;  -73.000
246.526; -126.400; -454.000; -525.000
246.669; -228.100; -889.000; -780.000
246.811;   46.800;  172.000;   -1.000
246.954; -104.500; -512.000; -426.000
247.096;  -11.800;  -84.000;   -6.000
247.239; -133.100; -482.000; -445.000
247.381; -153.400; -647.000; -488.000
247.524;  172.500;  645.000;  679.000
247.666;  -11.000;   58.000;   11.000
247.809; -238.600; -887.000; -691.000
247.951;  -40.300;  -75.000;  138.000
248.094;   44.400;  432.000;  308.000
248.236; -333.000;-1262.000;-1238.000
248.378;  -76.800; -356.000;  -81.000
248.521;  -82.400; -334.000; -337.000
248.663;  -92.100; -236.000; -267.000
248.806;  -58.600; -300.000; -266.000
248.948; -253.700; -886.000; -763.000
249.090; -120.400; -428.000; -398.000
249.233; -134.600; -344.000; -381.000
249.375; -121.500; -474.000; -451.000
249.518;  -40.100;  -83.000; -133.000
249.660;   10.000; -103.000;    3.000
249.802; -348.100;-1303.000;-1189.000
249.945; -150.300; -612.000; -540.000
250.087; -222.100; -834.000; -768.000
250.229;  -95.800; -362.000; -480.000
250.371; -135.700; -494.000; -439.000
250.514;  -88.000; -310.000; -244.000
250.656;   -2.100;   69.000;  102.000
250.798; -224.800; -849.000; -800.000
250.940; -110.400; -322.000; -322.000
251.083;  -75.900; -335.000; -111.000
251.225;  117.200;  338.000;  310.000
251.367;  -86.700; -274.000; -373.000
251.509;  -62.700; -265.000; -210.000
251.651; -180.300; -731.000; -671.000
251.794;  168.100;  538.000;  632.000
251.936; -193.100; -821.000; -747.000
252.078; -177.300; -540.000; -461.000
252.220; -155.000; -645.000; -477.000
252.362;   60.000;  344.000;  462.000
252.504; -175.500; -677.000; -584.000
252.646; -198.300; -875.000; -722.000
252.788;  -41.500;   14.000; -128.000
252.931;  -70.200; -257.000; -253.000
253.073;  -95.100; -376.000; -317.000
253.215;   -2.900;  141.000;  122.000
253.357;  -40.600;   82.000; -153.000
253.499;  -86.800; -374.000; -234.000
253.641; -174.000; -749.000; -594.000
253.783; -181.100; -609.000; -527.000
253.925; -155.200; -586.000; -591.000
254.067; -188.400; -744.000; -667.000
254.209;  -64.900; -391.000; -259.000
254.351; -287.000; -865.000; -883.000
254.493; -139.000; -441.000; -417.000
254.635; -236.800; -936.000; -818.000
254.777; -189.400; -752.000; -687.000
254.918; -149.200; -512.000; -430.000
255.060; -114.900; -551.000; -395.000
255.202; -115.200; -473.000; -261.000
255.344; -166.000; -658.000; -455.000
255.486; -134.500; -471.000; -406.000
255.628; -215.900; -780.000; -781.000
255.770; -163.300; -676.000; -536.000
255.912; -119.600; -559.000; -468.000
256.053; -172.700; -730.000; -508.000
256.195;  314.300; 1008.000;  903.000
256.337; -185.600; -861.000; -595.000
256.479;  103.300;  532.000;  416.000
256.621;  -61.100; -394.000; -212.000
256.762; -189.000; -789.000; -742.000
256.904;  116.100;  485.000;  487.000
257.046; -117.300; -381.000; -271.000
257.188;  -70.800; -351.000; -264.000
257.329; -141.900; -525.000; -464.000
257.471; -215.200; -939.000; -807.000
257.613; -119.900; -584.000; -498.000
257.755; -304.500;-1073.000; -982.000
257.896;   77.500;  286.000;  392.000
258.038; -126.400; -403.000; -352.000
258.180;  -88.600; -354.000; -279.000
258.321; -171.000; -581.000; -457.000
258.463;   17.300;  -71.000;  133.000
258.605; -173.000; -562.000; -570.000
258.746; -226.400; -886.000; -772.000
258.888; -292.100;-1026.000;-1020.000
259.029;   33.000;  121.000;   -8.000
259.171; -189.200; -614.000; -550.000
259.313;   -4.500;  -49.000;  -47.000
259.454; -151.200; -536.000; -414.000
259.596; -105.300; -483.000; -390.000
259.737; -129.800; -590.000; -474.000
259.879;   91.500;  217.000;  311.000
260.020;  184.400;  901.000;  636.000
260.162;  -51.100; -146.000; -253.000
260.303; -228.000; -768.000; -687.000
260.445; -158.500; -609.000; -613.000
260.586;   41.300;  392.000;  157.000
260.728;  -86.800; -360.000; -248.000
260.869; -133.800; -350.000; -343.000
261.011;  176.200;  706.000;  537.000
261.152; -146.900; -479.000; -319.000
261.293; -170.800; -576.000; -595.000
261.435;  -55.700; -219.000; -184.000
261.576; -117.600; -455.000; -325.000
261.718;  102.200;  420.000;  470.000
261.859; -267.300; -940.000; -949.000
262.000; -244.000; -951.000;-1016.000
262.142;  -22.700;  -52.000;  -60.000
262.283; -234.200; -808.000; -691.000
262.424; -173.500; -666.000; -625.000
262.566; -302.000;-1161.000; -983.000
262.707; -224.800; -840.000; -830.000
262.848; -237.100; -769.000; -726.000
262.990;  -89.200; -362.000; -345.000
263.131;  155.300;  650.000;  681.000
263.272;   -2.600;  -61.000;  -41.000
263.413; -183.700; -589.000; -561.000
263.555; -148.000; -669.000; -143.000
263.696; -157.200; -550.000; -641.000
263.837; -125.500; -449.000; -551.000
263.978;   42.900;   -5.000;  -77.000
264.119;  -83.200; -283.000; -264.000
264.261; -225.700; -847.000; -630.000
264.402;   -9.100;   33.000;   40.000
264.543; -145.700; -509.000; -524.000
264.684;  -15.800;   61.000;  -50.000
264.825; -169.800; -816.000; -538.000
264.966;  -30.100;  -84.000;  -67.000
265.107; -201.800; -646.000; -670.000
265.248; -226.600; -825.000; -812.000
265.390;   -3.100;  152.000;   -9.000
265.531;  -41.400; -238.000; -107.000
265.672; -149.500; -557.000; -630.000
265.813;  141.500;  563.000;  439.000
265.954; -286.400; -959.000; -940.000
266.095;  -26.300; -372.000; -322.000
266.236; -175.700; -686.000; -548.000
266.377;  -79.000; -243.000; -297.000
266.518; -134.500; -619.000; -547.000
266.659;   62.200;  170.000;  268.000
266.800;   17.800;   83.000;   85.000
266.941; -165.500; -487.000; -478.000
267.082;   58.500;  354.000;   99.000
267.223;  -75.700; -344.000; -273.000
267.364; -229.200; -892.000; -686.000
267.504;  -22.100;    3.000;  135.000
267.645;  -29.500;  160.000;   67.000
267.786;  -66.800; -147.000;  -86.000
267.927; -154.300; -473.000; -379.000
268.068;  -44.500; -186.000;  -61.000
268.209;  -76.000; -175.000; -413.000
268.350;  -75.300; -388.000; -532.000
268.490; -167.200; -648.000; -521.000
268.631;   75.300;  127.000;  225.000
268.772; -234.300; -874.000; -647.000
268.913;  -82.900; -328.000; -476.000
269.054;  -14.200; -117.000;   12.000
269.194;  -73.900; -418.000; -402.000
269.335; -271.200;-1137.000;-1074.000
269.476;   -0.700;   33.000;  -35.000
269.617;  -92.200; -347.000; -392.000
269.757; -198.400; -713.000; -646.000
269.898; -202.200; -856.000; -613.000
270.039; -139.500; -415.000; -405.000
270.180; -281.300; -952.000; -816.000
270.320;  -39.600; -190.000; -250.000
270.461;  -55.900; -277.000; -249.000
270.602;  -34.900; -186.000; -156.000
270.742; -244.800; -868.000; -943.000
270.883; -132.900; -442.000; -390.000
271.023; -130.200; -358.000; -357.000
271.164; -140.500; -607.000; -528.000
271.305; -203.200; -666.000; -654.000
271.445; -183.900; -722.000; -683.000
271.586; -108.300; -462.000; -283.000
271.726;  -96.200; -397.000; -322.000
271.867; -187.200; -594.000; -534.000
272.008;  -63.200; -473.000; -285.000
272.148;  111.900;  462.000;  468.000
272.289;  -40.100; -113.000; -181.000
272.429;   13.100;   19.000;  185.000
272.570; -194.400; -633.000; -737.000
272.710; -220.500; -825.000; -775.000
272.851;  -50.100;  113.000; -130.000
272.991; -310.700;-1173.000;-1077.000
273.131; -138.600; -419.000; -459.000
273.272; -225.900; -683.000; -723.000
273.412;    2.100; -143.000;  -31.000
273.553; -157.400; -488.000; -507.000
273.693;  235.500;  913.000;  858.000
273.834; -240.800; -894.000; -692.000
273.974; -176.500; -664.000; -615.000
274.114; -197.900; -772.000; -560.000
274.255;   65.400;  414.000;  373.000
274.395;  -67.500; -180.000; -125.000
274.535;   60.800;  199.000;  350.000
274.676;   51.000;  225.000;   94.000
274.816;   16.100;  110.000;   34.000
274.956; -214.100; -624.000; -690.000
275.097; -249.600;-1014.000; -922.000
275.237; -235.700; -913.000; -803.000
275.377; -201.800; -778.000; -689.000
275.517; -284.300; -878.000; -937.000
275.658; -163.000; -590.000; -555.000
275.798; -146.600; -606.000; -413.000
275.938;   48.900;  215.000;  323.000
276.078; -183.700; -626.000; -395.000
276.218;    0.800;   99.000;  104.000
276.359; -271.400;-1026.000;-1024.000
276.499; -166.900; -605.000; -446.000
276.639;  -89.600; -305.000; -151.000
276.779; -114.900; -475.000; -357.000
276.919; -208.700; -783.000; -624.000
277.059;  -54.000; -261.000; -212.000
277.199;  -86.200; -357.000; -259.000
277.340;   39.700;  287.000;  175.000
277.480; -251.400; -840.000; -693.000
277.620;   56.400;  192.000;   16.000
277.760; -405.600;-1533.000;-1294.000
277.900;    9.700;  113.000;   33.000
278.040;   63.100;  137.000;  159.000
278.180;   51.100;  270.000;  170.000
278.320;   28.200;   21.000;   56.000
278.460; -134.000; -443.000; -469.000
278.600; -171.300; -708.000; -598.000
278.740;   95.000;  448.000;  224.000
278.880; -272.400; -768.000; -791.000
279.020;  -28.900; -194.000; -144.000
279.160; -168.300; -672.000; -595.000
279.300; -246.300; -926.000; -873.000
279.440; -190.300; -709.000; -622.000
279.579; -259.500;-1014.000; -929.000
279.719; -118.600; -410.000; -394.000
279.859;   43.400;   -4.000;   41.000
279.999;  -57.000; -208.000;  101.000
280.139;  -84.300; -435.000; -387.000
280.279; -242.500; -708.000; -745.000
280.419;  -44.100; -229.000; -147.000
280.559;  -64.200; -259.000; -180.000
280.698; -168.700; -790.000; -639.000
280.838; -219.300; -778.000; -800.000
280.978; -197.200; -846.000; -790.000
281.118; -205.300; -811.000; -704.000
281.257;   20.000;   24.000;    6.000
281.397; -296.300;-1094.000; -960.000
281.537; -205.000; -599.000; -712.000
281.677;  -52.200; -150.000; -101.000
281.816; -193.900; -700.000; -630.000
281.956;  -61.200; -193.000; -257.000
282.096; -135.700; -539.000; -396.000
282.235; -208.500; -672.000; -638.000
282.375;  -35.400; -243.000;  -98.000
282.515; -228.400; -715.000; -707.000
282.654;    9.500;   29.000;  106.000
282.794;   49.100;  388.000;  244.000
282.934; -154.600; -530.000; -491.000
283.073; -290.100;-1030.000; -857.000
283.213;  -94.600; -460.000; -467.000
283.353; -139.100; -408.000; -349.000
283.492;  -65.000; -264.000; -296.000
283.632; -111.900; -254.000; -168.000
283.771; -193.900; -859.000; -730.000
283.911; -121.200; -369.000; -260.000
284.050; -213.500; -794.000; -748.000
284.190; -309.600;-1229.000;-1096.000
284.329; -274.200;-1055.000; -964.000
284.469; -193.900; -516.000; -591.000
284.608; -125.400; -559.000; -598.000
284.748; -146.400; -614.000; -570.000
284.887;   -5.500;  -87.000;  -20.000
285.027; -249.400; -844.000; -892.000
285.166;  -54.800; -192.000; -249.000
285.306;  -22.800; -116.000;  -33.000
285.445;  -92.500; -229.000; -343.000
285.584; -176.900; -630.000; -494.000
285.724;  -70.100; -282.000; -322.000
285.863; -214.100; -857.000; -507.000
286.002;  -99.100; -366.000; -276.000
286.142; -220.600; -715.000; -622.000
286.281; -132.800; -525.000; -493.000
286.420; -165.900; -554.000; -417.000
286.560;  169.800;  653.000;  623.000
286.699; -312.700; -958.000; -912.000
286.838; -156.100; -590.000; -591.000
286.978; -155.600; -533.000; -537.000
287.117; -280.700;-1085.000; -950.000
287.256;  -65.300; -228.000; -211.000
287.395; -113.300; -197.000; -378.000
287.535; -128.200; -370.000; -298.000
287.674; -163.100; -509.000; -484.000
287.813;  124.000;  661.000;  533.000
287.952; -263.100;-1010.000; -871.000
288.091; -300.400;-1049.000; -915.000
288.231;   29.700;   13.000;   15.000
288.370; -343.500;-1217.000;-1200.000
288.509; -205.400; -728.000; -645.000
288.648; -188.500; -770.000; -548.000
288.787;  -42.000; -243.000;  -87.000
288.926; -132.400; -454.000; -475.000
289.065;  224.700;  859.000;  672.000
289.204; -116.900; -377.000; -217.000
289.344; -200.200; -791.000; -690.000
289.483;   50.000;  416.000;  304.000
289.622;  -61.300; -291.000; -149.000
289.761;  -45.900; -309.000; -166.000
289.900; -189.500; -785.000; -626.000
290.039;  -14.800;  -12.000;  -95.000
290.178;  -76.900; -274.000; -180.000
290.317; -165.800; -618.000; -479.000
290.456; -110.200; -463.000; -451.000
290.595; -278.300; -961.000; -833.000
290.734; -266.700; -904.000; -891.000
290.873; -145.700; -456.000; -420.000
291.011; -239.400; -833.000; -843.000
291.150; -200.100; -770.000; -682.000
291.289;  -53.600; -343.000; -110.000
291.428; -163.800; -599.000; -480.000
291.567; -121.100; -370.000; -442.000
291.706;   20.200;  109.000;  154.000
291.845; -198.200; -597.000; -505.000
291.984; -346.200;-1234.000;-1061.000
292.122;  146.100;  602.000;  582.000
292.261;   69.500;  620.000;  463.000
292.400;    5.300; -144.000;  211.000
292.539; -243.900; -959.000; -813.000
292.678;  -77.100; -325.000; -300.000
292.816; -304.900;-1136.000; -965.000
292.955; -227.000; -844.000; -684.000
293.094;  -47.900; -173.000; -337.000
293.233; -122.500; -556.000; -400.000
293.371;  -46.700; -225.000;  -84.000
293.510; -232.100; -866.000; -780.000
293.649; -290.000; -959.000; -924.000
293.787; -303.400;-1083.000;-1012.000
293.926;  -54.500; -113.000;  -32.000
294.065; -100.400; -379.000; -290.000
294.203;   84.000;  298.000;  406.000
294.342;   30.400;   74.000;  156.000
294.481;12838.200;51180.000; -836.000
294.619;  -49.300; -425.000; -582.000
294.758; -308.200;-1230.000;-1137.000
294.896;  -17.900; -125.000;    5.000
295.035; -303.500;-1040.000;-1006.000
295.174; -300.200;-1082.000; -954.000
295.312; -116.300; -323.000; -203.000
295.451; -117.800; -307.000; -428.000
295.589; -166.600; -389.000; -518.000
295.728;    1.500; -292.000; -165.000
295.866;  -63.000;  -36.000;  -51.000
296.005; -192.200; -584.000; -341.000
296.143; -165.000; -558.000; -596.000
296.282; -257.700; -957.000; -881.000
296.420; -173.900; -657.000; -557.000
296.559; -212.500; -892.000; -633.000
296.697; -179.100; -847.000; -665.000
296.835; -310.000;-1141.000;-1002.000
296.974;   30.600;  -23.000;   39.000
297.112; -125.300; -443.000; -504.000
297.251; -233.400; -815.000; -755.000
297.389; -142.400; -576.000; -438.000
297.527;  -61.400; -145.000;  -83.000
297.666; -130.000; -486.000; -438.000
297.804; -117.400; -404.000; -264.000
297.942;  -10.800; -136.000; -161.000
298.081;  -43.000; -183.000;   63.000
298.219;  -63.500;  -17.000;  -19.000
298.357;  -77.800; -144.000;  -71.000
298.495; -262.600; -810.000; -812.000
298.634;  -14.600;  245.000;  219.000
298.772;  -58.900; -220.000; -338.000
298.910; -126.000; -309.000; -182.000
299.048;  -46.100; -130.000; -153.000
299.187;  -82.700; -350.000; -250.000
299.325;   -9.400;   52.000;  122.000
299.463; -150.100; -389.000; -299.000
299.601;  -78.600; -327.000; -271.000
299.739; -274.600; -908.000; -883.000
299.877; -192.000; -791.000; -703.000
300.016; -299.700;-1095.000; -935.000
300.154;  -26.500;  -19.000; -161.000
300.292; -151.400; -428.000; -348.000
300.430; -100.700; -408.000; -291.000
300.568; -276.100; -940.000; -874.000
300.706; -161.700; -366.000; -469.000
300.844; -303.000;-1108.000; -979.000
300.982;  100.500;  246.000;  282.000
301.120; -288.600; -965.000; -866.000
301.258; -229.000; -812.000; -705.000
301.396;  -10.600;  104.000;  -41.000
301.534;  -89.500; -218.000; -293.000
301.672; -173.900; -664.000; -521.000
301.810; -162.400; -613.000; -545.000
301.948;   18.600;   53.000;  149.000
302.086;  -44.400; -250.000;  -32.000
302.224; -200.600; -610.000; -585.000
302.362; -185.700; -558.000; -622.000
302.500; -265.000; -923.000; -893.000
302.638;   38.800;  128.000;  245.000
302.776;  -94.400; -352.000; -408.000
302.913;   54.600;  447.000;  236.000
303.051;  -78.900;  -86.000;  -23.000
303.189;   38.400;   90.000;  118.000
303.327;  -88.800; -341.000; -256.000
303.465; -181.900; -832.000; -588.000
303.603; -218.200; -805.000; -604.000
303.740;  111.200;  417.000;  241.000
303.878; -232.300; -800.000; -759.000
304.016; -228.900; -915.000; -790.000
304.154; -310.300;-1123.000;-1152.000
304.291; -157.700; -505.000; -554.000
304.429;   20.700;  102.000;   74.000
304.567; -279.600; -908.000; -893.000
304.705; -119.700; -408.000; -515.000
304.842; -180.700; -616.000; -540.000
304.980;    8.100;  215.000;   35.000
305.118;  -97.000; -367.000; -365.000
305.255; -252.400; -945.000; -927.000
305.393;   67.600;  178.000;  239.000
305.531; -308.600;-1173.000; -956.000
305.668; -177.900; -663.000; -582.000
305.806; -117.100; -358.000; -439.000
305.943; -171.700; -629.000; -637.000
306.081;  -93.700; -378.000; -267.000
306.219; -234.700; -863.000; -748.000
306.356;  -13.200;  158.000;   27.000
306.494;  194.300;  981.000;  761.000
306.631;  -14.800;  -11.000;  -55.000
306.769; -134.300; -613.000; -485.000
306.906;  -79.800; -284.000; -258.000
307.044; -177.200; -473.000; -488.000
307.181; -151.100; -410.000; -332.000
307.319;    5.100;  112.000;   87.000
307.456; -351.400;-1191.000;-1153.000
307.594; -267.000; -980.000; -727.000
307.731;  -85.400; -371.000; -164.000
307.868;  -50.700;  -15.000;   20.000
308.006; -275.700; -961.000; -847.000
308.143; -168.000; -618.000; -330.000
308.281;  -83.500;  -37.000; -254.000
308.418; -198.200; -748.000; -640.000
308.555; -173.600; -400.000; -250.000
308.693; -165.400; -577.000; -573.000
308.830; -249.700; -712.000; -657.000
308.967;  -43.000; -215.000;  -95.000
309.105;  -95.800; -507.000; -396.000
309.242; -131.900; -468.000; -367.000
309.379; -201.100; -577.000; -655.000
309.517; -262.300; -936.000; -948.000
309.654; -241.500; -910.000; -734.000
309.791; -177.400; -662.000; -580.000
309.928; -264.900; -977.000; -914.000
310.065;  146.900;  819.000;  697.000
310.203; -265.800; -825.000; -850.000
310.340; -124.800; -465.000; -321.000
310.477; -157.400; -412.000; -516.000
310.614; -138.800; -383.000; -473.000
310.751; -170.700; -427.000; -518.000
310.889;  -55.000;    1.000;   11.000
311.026; -302.700;-1161.000; -939.000
311.163; -110.700; -386.000; -380.000
311.300; -155.600; -512.000; -479.000
311.437; -178.600; -658.000; -619.000
311.574; -330.400;-1226.000; -985.000
311.711; -157.200; -595.000; -433.000
311.848; -104.900; -380.000; -388.000
311.985;   -4.300;  270.000;   93.000
312.122; -233.400; -932.000; -762.000
312.259; -258.500; -941.000; -994.000
312.396; -160.500; -508.000; -551.000
312.533; -214.200; -812.000; -790.000
312.670; -292.200;-1070.000; -898.000
312.807; -106.400; -352.000; -367.000
312.944; -178.200; -513.000; -611.000
313.081;  -83.300; -150.000; -415.000
313.218; -269.400;-1111.000; -867.000
313.355; -115.200; -531.000; -449.000
313.492; -104.100; -455.000; -292.000
313.629;  179.900;  815.000;  735.000
313.766; -331.500;-1176.000;-1008.000
313.902;  -52.300; -186.000;   21.000
314.039; -110.100; -372.000; -289.000
314.176;   18.900;  286.000;  192.000
314.313; -162.600; -569.000; -473.000
314.450; -191.400; -788.000; -684.000
314.587; -172.300; -468.000; -480.000
314.723;  -23.300;  -78.000;  130.000
314.860;   16.300;  318.000;  332.000
314.997;   50.600;  223.000;  142.000
315.134; -150.600; -385.000; -368.000
315.270; -142.500; -480.000; -496.000
315.407; -341.600;-1094.000; -967.000
315.544; -180.700; -657.000; -538.000
315.681; -186.700; -681.000; -565.000
315.817;  -41.200; -133.000; -176.000
315.954; -146.200; -613.000; -392.000
316.091; -311.800;-1045.000;-1023.000
316.227;  -95.000;  -71.000; -179.000
316.364;   -4.900;   23.000;    6.000
316.500;  -71.400; -113.000; -300.000
316.637;  -60.200; -181.000; -302.000
316.774; -156.100; -625.000; -358.000
316.910; -180.100; -598.000; -629.000
317.047; -188.600; -487.000; -351.000
317.183; -135.900; -435.000; -566.000
317.320; -114.100; -367.000; -321.000
317.456; -219.600; -733.000; -805.000
317.593; -221.800; -598.000; -641.000
317.729;   13.600;  168.000;  -67.000
317.866; -400.500;-1434.000;-1285.000
318.002; -160.600; -708.000; -948.000
318.139; -261.100; -883.000; -867.000
318.275; -241.500;-1003.000; -738.000
318.412; -164.400; -517.000; -336.000
318.548; -213.800; -751.000; -720.000
318.685; -271.000; -985.000; -888.000
318.821; -228.700; -762.000; -735.000
318.957;  -42.700;   34.000;  -23.000
319.094;   52.400;  297.000;  154.000
319.230; -212.800; -756.000; -742.000
319.367; -117.000; -471.000; -520.000
319.503; -151.400; -538.000; -436.000
319.639; -238.100; -877.000; -793.000
319.775; -216.600; -750.000; -685.000
319.912; -131.400; -424.000; -519.000
320.048; -356.600;-1184.000;-1184.000
320.184;   23.300;   59.000;   70.000
320.321; -142.800; -497.000; -467.000
320.457;  102.100;  475.000;  662.000
320.593; -135.500; -375.000; -382.000
320.729; -221.400; -732.000; -734.000
320.866; -191.300; -577.000; -635.000
321.002; -219.900; -759.000; -809.000
321.138; -101.700; -135.000; -211.000
321.274;  -28.500; -148.000; -115.000
321.410; -172.000; -585.000; -353.000
321.546; -267.400;-1011.000; -911.000
321.683;   60.900;  400.000;  185.000
321.819;  -34.600;  -48.000; -117.000
321.955; -245.300; -743.000; -722.000
322.091; -153.700; -585.000; -540.000
322.227; -106.900; -382.000; -202.000
322.363;  -93.800; -320.000; -215.000
322.499; -131.000; -343.000; -331.000
322.635;  154.800;  636.000;  443.000
322.771;  -35.800; -139.000;   12.000
322.907;   59.700;  129.000;  327.000
323.043;  -86.900; -115.000; -206.000
323.179; -115.800; -394.000; -363.000
323.315; -144.000; -401.000; -371.000
323.451; -112.200; -328.000; -236.000
323.587;  -84.200;  -60.000;  -77.000
323.723; -188.900; -682.000; -601.000
323.859;  -90.000; -258.000;  -76.000
323.995;  -93.300; -467.000; -409.000
324.131; -279.500; -967.000; -892.000
324.267;  -75.900; -254.000; -276.000
324.402; -274.900; -960.000; -983.000
324.538;  -64.800; -279.000; -104.000
324.674;    3.400;  164.000;   77.000
324.810;   11.300;  226.000;  308.000
324.946; -133.900; -810.000; -658.000
325.082; -144.100; -568.000; -475.000
325.217;  -45.900;  -62.000;   16.000
325.353; -212.600; -764.000; -659.000
325.489; -196.900; -540.000; -506.000
325.625; -168.600; -579.000; -525.000
325.760;   60.800;  517.000;  376.000
325.896; -191.600; -515.000; -702.000
326.032; -116.300; -403.000; -352.000
326.168; -146.300; -462.000; -369.000
326.303;  -91.300; -352.000; -461.000
326.439;  -59.000; -336.000; -276.000
326.575;  -47.200; -190.000;  -29.000
326.710;  -64.200; -156.000;  -30.000
326.846;   12.800;  146.000;  103.000
326.982; -188.400; -530.000; -548.000
327.117; -142.800; -481.000; -442.000
327.253; -216.600; -745.000; -742.000
327.388; -334.600;-1137.000;-1153.000
327.524; -173.000; -811.000; -578.000
327.659;  -31.100;  -58.000;  -22.000
327.795;  -36.900;   69.000;   45.000
327.931; -200.700; -723.000; -499.000
328.066;  -94.000; -417.000; -276.000
328.202;  -39.800;   12.000; -129.000
328.337;  197.200;  957.000;  713.000
328.473;  -24.400;  -12.000;  -74.000
328.608;  -78.200; -256.000; -267.000
328.743; -252.000; -799.000; -664.000
328.879;   53.600;  214.000;  114.000
329.014; -134.900; -102.000; -122.000
329.150; -169.800; -358.000; -483.000
329.285; -152.900; -465.000; -466.000
329.421; -133.400; -548.000; -246.000
329.556;  -11.900;  -36.000;   85.000
329.691; -209.000; -633.000; -615.000
329.827; -177.800; -626.000; -480.000
329.962;  -80.300;  131.000; -301.000
330.097; -174.600; -673.000; -585.000
330.233; -115.500; -410.000; -223.000
330.368; -239.000; -839.000; -628.000
330.503;  -27.100;    3.000;   98.000
330.638;  -22.900;  -93.000; -125.000
330.774; -182.600; -609.000; -530.000
330.909;  -86.500; -434.000; -244.000
331.044; -172.600; -714.000; -708.000
331.179; -352.100;-1217.000;-1109.000
331.315;   52.600;   77.000;   20.000
331.450;   27.800;  157.000;  285.000
331.585; -226.700; -805.000; -706.000
331.720; -192.000; -510.000; -460.000
331.855;  -44.900;  -35.000; -102.000
331.990;  -34.500;   62.000;  138.000
332.126;  -47.100; -110.000;   71.000
332.261; -118.900; -379.000; -265.000
332.396;  -82.200; -135.000; -242.000
332.531; -289.500;-1074.000;-1031.000
332.666; -130.800; -519.000; -363.000
332.801; -232.800; -726.000; -807.000
332.936;  -59.100; -192.000; -122.000
333.071; -297.600; -870.000; -817.000
333.206;   20.200;  307.000;  379.000
333.341;   54.100;  344.000;  418.000
333.476; -179.600; -627.000; -623.000
333.611;  -37.800; -251.000; -173.000
333.746; -103.900; -381.000; -464.000
333.881; -256.400; -973.000; -935.000
334.016; -255.000; -936.000; -917.000
334.151; -249.700; -746.000; -702.000
334.286;   21.400;  152.000;  186.000
334.421;  -11.600; -125.000; -178.000
334.556; -164.300; -611.000; -567.000
334.690; -210.000; -631.000; -577.000
334.825;   96.000;  381.000;   83.000
334.960; -142.400; -285.000; -413.000
335.095;   -8.800;  135.000;  -91.000
335.230; -231.600; -722.000; -738.000
335.365; -290.000;-1084.000; -990.000
335.499; -341.800;-1108.000;-1037.000
335.634;   -6.600;    9.000;  534.000
335.769; -272.800; -755.000; -720.000
335.904; -182.300; -603.000; -561.000
336.038; -199.400; -735.000; -657.000
336.173; -317.100;-1206.000;-1194.000
336.308;  -95.200; -116.000; -189.000
336.443; -181.900; -544.000; -634.000
336.577; -266.400; -936.000; -787.000
336.712;   -9.900;   -4.000;  -12.000
336.847; -250.800; -724.000; -607.000
336.981; -104.100; -272.000; -208.000
337.116;  122.200;  615.000;  501.000
337.250; -160.700; -434.000; -421.000
337.385;  -90.400; -297.000; -208.000
337.520; -168.900; -632.000; -603.000
337.654; -132.600; -215.000; -126.000
337.789; -255.100; -989.000; -933.000
337.923;  -46.500; -104.000; -205.000
338.058; -222.500; -673.000; -738.000
338.192; -199.600; -611.000; -488.000
338.327;  -44.500;  -18.000; -155.000
338.461; -170.000; -299.000; -469.000
338.596; -208.700; -780.000; -638.000
338.730; -226.800; -767.000; -803.000
338.865;  -35.400;  -46.000; -140.000
338.999; -261.200; -846.000; -702.000
339.134; -199.600; -634.000; -536.000
339.268; -199.500; -741.000; -603.000
339.403; -243.000; -740.000; -775.000
339.537; -231.100; -894.000; -820.000
339.671; -250.200; -829.000; -813.000
339.806; -185.100; -556.000; -512.000
339.940;  -58.800; -261.000; -235.000
340.074; -226.700; -685.000; -510.000
340.209;  -70.600; -351.000; -230.000
340.343; -203.100; -517.000; -573.000
340.477;  266.200;  998.000; 1036.000
340.612; -263.100;-1033.000; -900.000
340.746; -123.200; -199.000; -243.000
340.880; -262.200; -924.000; -785.000
341.014;    4.000;  -45.000; -154.000
341.149; -222.300; -756.000; -718.000
341.283; -218.900; -839.000; -754.000
341.417; -299.300;-1124.000; -938.000
341.551; -226.600; -768.000; -708.000
341.685; -142.900; -633.000; -611.000
341.820; -196.900; -562.000; -493.000
341.954; -150.700; -218.000; -349.000
342.088; -294.700;-1102.000;-1019.000
342.222;   95.500;  565.000;  618.000
342.356; -168.900; -395.000; -335.000
342.490; -255.900; -880.000; -841.000
342.624; -138.000; -339.000; -242.000
342.758; -139.700; -364.000; -312.000
342.892; -203.200; -710.000; -585.000
343.026;  -68.300;  -58.000; -116.000
343.160; -110.400; -426.000; -376.000
343.294; -147.100; -474.000; -337.000
343.428; -143.800; -488.000; -448.000
343.562;  -59.500; -172.000;  -23.000
343.696; -123.800; -385.000; -314.000
343.830; -105.000; -362.000; -356.000
343.964;  -44.400; -231.000; -168.000
344.098;  -21.700;  199.000;   70.000
344.232;   -4.200; -266.000; -127.000
344.366; -200.900; -567.000; -453.000
344.500; -194.000; -665.000; -744.000
344.634; -115.200; -324.000; -164.000
344.768; -162.900; -531.000; -341.000
344.902;   30.900;  278.000;  256.000
345.035; -149.300; -556.000; -496.000
345.169; -259.600; -933.000; -656.000
345.303; -183.100; -308.000; -482.000
345.437; -261.400; -826.000; -717.000
345.571; -201.400; -675.000; -594.000
345.704; -147.800; -309.000; -532.000
345.838;  -58.000; -331.000; -284.000
345.972; -175.900; -543.000; -495.000
346.106;  -22.800; -179.000; -190.000
346.239; -124.500; -312.000; -243.000
346.373;  -83.600; -343.000; -302.000
346.507; -321.900; -950.000; -962.000
346.640;  -45.000;  -30.000;   13.000
346.774; -199.200; -650.000; -797.000
346.908;  -40.400; -138.000;  -11.000
347.041; -191.900; -646.000; -593.000
347.175;   45.900;  259.000;   27.000
347.309; -223.500; -698.000; -628.000
347.442; -266.000; -883.000; -732.000
347.576;  149.000;  670.000;  668.000
347.709;  -48.900; -123.000;  -52.000
347.843; -268.900; -933.000; -825.000
347.976;   41.800;  235.000;  294.000
348.110; -349.300;-1268.000;-1186.000
348.243; -218.300; -679.000; -772.000
348.377;    7.500;  -26.000;   60.000
348.510;   93.300;  403.000;  540.000
348.644;  -88.500;  -37.000; -159.000
348.777;   13.100;  180.000;  191.000
348.911;  -68.300; -142.000; -112.000
349.044;  120.700;  471.000;  448.000
349.178; -324.700;-1069.000;-1006.000
349.311;   60.200;  141.000;  255.000
349.444; -274.300; -927.000; -813.000
349.578;  -64.200; -347.000; -200.000
349.711; -296.000; -959.000; -862.000
349.845; -190.000; -661.000; -591.000
349.978; -340.300;-1224.000;-1137.000
350.111; -170.600; -546.000; -612.000
350.244; -205.700; -596.000; -700.000
350.378; -119.200; -392.000; -393.000
350.511; -143.300; -393.000; -426.000
350.644; -235.500; -808.000; -806.000
350.778;  -19.100;  168.000;  104.000
350.911;    5.300;  134.000;  140.000
351.044; -196.400; -685.000; -615.000
351.177;  -95.900; -321.000; -281.000
351.310;  -30.700;    3.000; -131.000
351.444; -257.500; -888.000; -788.000
351.577;   -4.600;  140.000;   90.000
351.710;  139.100;  593.000;  417.000
351.843;  -73.400; -165.000;  -77.000
351.976;  -32.300;  149.000;  -79.000
352.109; -199.400; -621.000; -612.000
352.242; -144.600; -464.000; -419.000
352.376; -197.200; -580.000; -636.000
352.509; -127.000; -437.000; -356.000
352.642; -305.800; -654.000; -604.000
352.775;  -71.000; -141.000;  -98.000
352.908; -323.100; -933.000; -904.000
353.041; -240.500; -814.000; -824.000
353.174; -177.700; -551.000; -424.000
353.307; -229.800; -753.000; -764.000
353.440;   73.100;  541.000;  453.000
353.573; -280.100; -957.000;-1008.000
353.706; -239.900; -384.000; -558.000
353.839; -146.700; -264.000; -220.000
353.971; -203.100; -657.000; -512.000
354.104; -255.500; -896.000; -835.000
354.237; -222.000; -627.000; -662.000
354.370; -247.200; -846.000; -879.000
354.503; -377.500;-1231.000;-1308.000
354.636; -131.500; -529.000; -348.000
354.769; -273.900; -937.000; -860.000
354.902;  -72.800; -230.000; -139.000
355.034; -103.700; -164.000; -220.000
355.167;  -83.500; -262.000; -162.000
355.300; -283.900;-1061.000; -880.000
355.433;  -57.100;  -71.000;  -14.000
355.565; -177.000; -402.000; -384.000
355.698; -133.700; -356.000; -296.000
355.831; -279.500; -882.000; -801.000
355.964;  -76.000; -285.000; -170.000
356.096; -302.300; -856.000; -843.000
356.229; -166.200; -523.000; -530.000
356.362; -118.400; -373.000; -266.000
356.494;  -75.100; -229.000; -162.000
356.627;   19.300;  269.000;  377.000
356.760;  -10.700;  120.000;   53.000
356.892; -175.400; -286.000; -601.000
357.025;   71.300;  403.000;  389.000
357.157;  -71.500; -167.000; -179.000
357.290; -250.000; -856.000; -713.000
357.423; -195.000; -667.000; -556.000
357.555;  -64.400; -217.000; -228.000
357.688; -139.500; -483.000; -364.000
357.820; -263.400; -870.000; -877.000
357.953; -200.600; -563.000; -589.000
358.085; -200.100; -632.000; -612.000
358.218; -303.100;-1131.000; -932.000
358.350;  -52.700;  -58.000;  312.000
358.483; -365.500;-1300.000;-1187.000
358.615; -309.900;-1182.000;-1078.000
358.747; -338.400;-1187.000;-1058.000
358.880; -246.700; -810.000; -744.000
359.012; -121.800; -376.000; -202.000
359.145; -164.800; -480.000; -511.000
359.277; -303.200; -962.000; -913.000
359.409;   87.700;  536.000;  231.000
359.542; -229.100; -738.000; -688.000
359.674;  -27.000;   46.000;   13.000
359.806; -189.900; -565.000; -438.000
359.939; -175.900; -617.000; -516.000
360.071; -202.000; -583.000; -579.000
360.203; -103.500; -411.000; -364.000
360.335;    0.100;  164.000;  -16.000
360.468;  -90.400; -249.000; -307.000
360.600; -174.300; -547.000; -454.000
360.732; -200.300; -546.000; -423.000
360.864; -343.400;-1216.000;-1044.000
360.996; -140.100; -516.000; -554.000
361.129; -195.100; -389.000; -598.000
361.261;  -35.200;  110.000; -113.000
361.393; -105.000; -252.000; -214.000
361.525;   20.500;   94.000;  244.000
361.657; -228.900; -821.000; -703.000
361.789;  -79.100; -139.000; -155.000
361.921; -206.300; -642.000; -593.000
362.053;  159.900;  524.000;  541.000
362.185;  -10.300;  288.000;   72.000
362.318; -237.600; -709.000; -705.000
362.450;   55.300;  294.000;  444.000
362.582; -285.300; -913.000; -870.000
362.714; -140.800; -353.000; -332.000
362.846; -170.100; -606.000; -490.000
362.978; -293.800; -941.000; -811.000
363.109; -101.300; -161.000; -260.000
363.241; -237.400; -739.000; -749.000
363.373; -183.300; -649.000; -564.000
363.505;  -53.200; -186.000;  -91.000
363.637; -202.100; -787.000; -601.000
363.769; -370.200;-1067.000;-1080.000
363.901; -155.900; -596.000; -654.000
364.033; -336.600;-1103.000;-1062.000
364.165;  -62.300; -283.000; -283.000
364.296; -109.700; -316.000; -177.000
364.428; -393.100;-1344.000;-1220.000
364.560; -180.900; -679.000; -661.000
364.692; -192.000; -738.000; -835.000
364.824; -184.600; -588.000; -456.000
364.955; -110.700; -402.000; -564.000
365.087; -286.400;-1097.000; -852.000
365.219; -246.200; -686.000; -816.000
365.351; -195.600; -526.000; -572.000
365.482;   28.300;  300.000;  240.000
365.614; -120.800; -402.000; -314.000
365.746; -228.100; -729.000; -752.000
365.877; -237.700; -706.000; -672.000
366.009;  -50.800;  -35.000;  -62.000
366.141; -383.500;-1249.000;-1134.000
366.272; -255.000; -803.000; -719.000
366.404; -259.700;-1005.000; -874.000
366.535;  -20.400; -139.000;  -12.000
366.667; -209.700; -644.000; -649.000
366.799;   59.000;  353.000;  203.000
366.930; -276.100; -862.000; -996.000
367.062; -169.600; -639.000; -613.000
367.193; -271.200; -872.000; -842.000
367.325; -170.400; -580.000; -684.000
367.456; -119.800; -246.000;   31.000
367.588; -108.200; -371.000; -318.000
367.719;  -82.100;  -44.000;  -45.000
367.851;  -77.900; -222.000; -241.000
367.982; -303.400; -875.000; -732.000
368.113; -136.100; -475.000; -358.000
368.245; -308.700; -960.000; -841.000
368.376;  -90.600; -254.000; -302.000
368.508; -119.600; -188.000; -263.000
368.639; -330.400;-1166.000;-1034.000
368.770; -221.400; -670.000; -589.000
368.902; -255.900; -836.000; -926.000
369.033; -292.200; -906.000; -855.000
369.164; -205.200; -720.000; -653.000
369.296; -220.700; -452.000; -601.000
369.427; -103.400; -209.000; -144.000
369.558; -156.100; -593.000; -377.000
369.689; -187.400; -721.000; -569.000
369.821; -255.700; -951.000; -845.000
369.952;  -12.400;   42.000; -108.000
370.083; -106.200; -229.000; -108.000
370.214; -180.800; -735.000; -650.000
370.345;  -15.800;   65.000;   81.000
370.477; -258.700; -810.000; -790.000
370.608;  -90.300; -328.000; -264.000
370.739; -343.400;-1233.000;-1292.000
370.870; -297.800;-1102.000; -923.000
371.001; -138.900; -378.000; -467.000
371.132; -215.600; -754.000; -735.000
371.263;  -56.500;  -42.000; -148.000
371.394; -263.700; -841.000; -748.000
371.525;   41.800;  345.000;  225.000
371.657; -239.400; -808.000; -670.000
371.788;   45.000;  103.000;  199.000
371.919; -131.600; -384.000; -304.000
372.050;  -44.300;  -91.000; -156.000
372.181;  -57.000; -188.000; -294.000
372.311;  -51.300;   42.000; -127.000
372.442; -175.500; -457.000; -451.000
372.573;  -90.400; -444.000; -340.000
372.704; -306.500;-1008.000; -980.000
372.835; -114.400; -228.000; -289.000
372.966; -207.600; -646.000; -554.000
373.097; -219.000; -575.000; -711.000
373.228; -244.600; -717.000; -542.000
373.359; -222.200; -824.000; -536.000
373.490; -270.500; -881.000; -727.000
373.620; -255.700;-1001.000; -803.000
373.751; -145.900; -332.000; -396.000
373.882; -174.300; -663.000; -733.000
374.013; -111.800; -449.000; -262.000
374.143; -184.000; -581.000; -659.000
374.274; -292.600; -987.000; -908.000
374.405; -107.500; -388.000; -276.000
374.536; -154.900; -526.000; -387.000
374.666; -212.200; -759.000; -807.000
374.797; -259.400; -817.000; -868.000
374.928; -215.800; -710.000; -560.000
375.058; -174.600; -535.000; -500.000
375.189;  -79.400;  -59.000;  -93.000
375.320; -301.800; -928.000;-1034.000
375.450; -203.700; -625.000; -616.000
375.581; -152.000; -526.000; -436.000
375.712; -137.800; -574.000; -250.000
375.842; -171.000; -438.000; -415.000
375.973; -181.400; -554.000; -513.000
376.103; -228.200; -665.000; -648.000
376.234; -164.300; -531.000; -552.000
376.364; -278.500; -944.000; -867.000
376.495;  209.000;  925.000;  529.000
376.625; -142.300; -472.000; -485.000
376.756; -217.300; -709.000; -678.000
376.886; -365.500;-1178.000;-1026.000
377.017; -296.600;-1048.000;-1061.000
377.147; -291.300; -786.000; -782.000
377.278;   41.400;  174.000;  228.000
377.408; -238.300; -801.000; -815.000
377.538; -240.300; -707.000; -693.000
377.669; -189.300; -537.000; -613.000
377.799; -233.400; -645.000; -635.000
377.929; -196.400; -610.000; -428.000
378.060; -285.100; -781.000; -847.000
378.190; -220.400; -726.000; -531.000
378.320; -144.400; -401.000; -406.000
378.451;  -52.800; -131.000;  -22.000
378.581;  -43.700;  -67.000; -110.000
378.711;  184.900; 1035.000;  866.000
378.841; -185.500; -533.000; -675.000
378.972; -302.200; -871.000; -751.000
379.102; -188.400; -652.000; -579.000
379.232; -104.500; -126.000;  -73.000
379.362; -292.900;-1001.000; -885.000
379.492; -181.200; -373.000; -424.000
379.623;   16.500;    0.000;  111.000
379.753; -320.700;-1107.000; -974.000
379.883;   -5.400;   59.000;  156.000
380.013; -298.400;-1081.000;-1017.000
380.143; -312.600;-1097.000;-1056.000
380.273; -292.500; -985.000; -861.000
380.403;  -78.300; -344.000; -257.000
380.533; -249.700; -651.000; -664.000
380.663;   18.800;  173.000;  128.000
380.793; -331.300;-1027.000;-1074.000
380.923; -112.900; -103.000;  -34.000
381.053; -218.000; -613.000; -623.000
381.183;  -72.900; -106.000; -248.000
381.313; -213.300; -656.000; -470.000
381.443; -154.000; -692.000; -473.000
381.573; -157.100; -402.000; -409.000
381.703; -351.200;-1249.000;-1095.000
381.833; -396.500;-1454.000;-1336.000
381.963;  -33.200; -134.000;  -87.000
382.093; -287.400; -925.000; -909.000
382.223; -194.600; -713.000; -602.000
382.353; -254.600; -801.000; -608.000
382.482; -336.100;-1091.000; -964.000
382.612; -222.000; -872.000; -644.000
382.742; -195.900; -695.000; -622.000
382.872; -158.900; -565.000; -551.000
383.002;  -20.800;  347.000; -132.000
383.131; -107.500; -226.000; -160.000
383.261; -222.800; -706.000; -768.000
383.391; -190.100; -552.000; -377.000
383.521;   50.200;  451.000;  263.000
383.650; -300.000; -947.000; -904.000
383.780; -185.700; -783.000; -656.000
383.910;  154.600;  880.000;  802.000
384.039; -256.100; -794.000; -656.000
384.169; -385.000;-1205.000;-1017.000
384.299; -188.700; -650.000; -662.000
384.428; -219.600; -764.000; -680.000
384.558; -118.000; -308.000; -275.000
384.687; -120.300; -414.000; -334.000
384.817;  -32.400;   75.000;   -2.000
384.947;  -87.400; -234.000; -141.000
385.076;  234.400;  982.000;  912.000
385.206;   80.400;  369.000;  480.000
385.335; -137.400; -549.000; -417.000
385.465; -246.600; -655.000; -663.000
385.594;   -4.600;  -53.000;  -44.000
385.724; -284.200; -868.000; -838.000
385.853; -101.100; -296.000; -270.000
385.982; -263.200; -743.000; -787.000
386.112; -284.200;-1052.000; -871.000
386.241; -131.500; -307.000; -312.000
386.371;  -77.200; -174.000;  -87.000
386.500; -304.800; -825.000; -789.000
386.629; -262.900; -874.000; -817.000
386.759;  -44.400;  -43.000;   68.000
386.888;  -78.200; -170.000; -250.000
387.017; -236.500; -648.000; -620.000
387.147; -248.600; -771.000; -798.000
387.276; -166.700; -410.000; -397.000
387.405; -137.900; -398.000; -342.000
387.535; -147.800; -452.000; -361.000
387.664; -196.900; -692.000; -620.000
387.793; -122.800; -198.000; -113.000
387.922;    8.000;  255.000;  200.000
388.052; -184.000; -576.000; -423.000
388.181; -154.700; -342.000; -472.000
388.310; -264.400; -889.000; -710.000
388.439; -246.700; -749.000; -742.000
388.568;    5.200;  365.000;  244.000
388.697; -213.200; -756.000; -653.000
388.826; -212.600; -768.000; -666.000
388.956; -114.900; -285.000; -307.000
389.085; -144.600; -347.000; -287.000
389.214; -268.700; -842.000; -872.000
389.343; -195.200; -645.000; -413.000
389.472;   35.500;  126.000;  149.000
389.601;  -10.000;   91.000;    0.000
389.730; -194.100; -568.000; -687.000
389.859;   29.200;  226.000;   46.000
389.988; -143.700; -423.000; -408.000
390.117;  -92.500; -168.000; -146.000
390.246; -120.700; -331.000; -320.000
390.375; -233.800; -673.000; -626.000
390.504; -207.300; -703.000; -621.000
390.633; -270.700; -672.000; -726.000
390.761; -251.100; -732.000; -645.000
390.890;  -43.900;   -4.000; -130.000
391.019; -168.400; -421.000; -441.000
391.148; -279.200; -826.000; -855.000
391.277; -211.800; -576.000; -493.000
391.406; -262.500; -821.000; -805.000
391.534;    3.100;  574.000; -301.000
391.663; -233.100; -583.000; -645.000
391.792; -230.400; -673.000; -701.000
391.921;  -54.200;   -3.000;   15.000
392.050;  -97.400; -287.000; -228.000
392.178; -341.300;-1206.000;-1061.000
392.307; -245.800; -758.000; -712.000
392.436; -209.100; -427.000; -641.000
392.564;  -34.400;  166.000;   -6.000
392.693; -224.900; -860.000; -682.000
392.822; -191.000; -529.000; -534.000
392.950; -252.000; -880.000; -714.000
393.079; -124.600; -188.000; -328.000
393.208; -165.900; -488.000; -511.000
393.336;  -75.300; -170.000; -145.000
393.465;  -70.400; -317.000; -199.000
393.593;    7.400;   62.000;   79.000
393.722; -331.000;-1121.000; -916.000
393.850;  -41.000; -188.000;  -61.000
393.979; -303.500; -926.000; -805.000
394.107; -188.400; -517.000; -537.000
394.236; -166.100; -570.000; -507.000
394.364;   90.200;  383.000;  206.000
394.493; -272.500; -911.000; -767.000
394.621; -262.600; -955.000; -916.000
394.750; -286.900; -873.000; -923.000
394.878; -104.200; -247.000; -149.000
395.007; -261.500; -721.000; -807.000
395.135; -217.100; -790.000; -721.000
395.263; -300.500;-1038.000;-1040.000
395.392;  -33.600;  -25.000; -107.000
395.520; -186.700; -818.000; -679.000
395.648; -302.200; -865.000; -915.000
395.777; -164.600; -366.000; -405.000
395.905; -172.800; -449.000; -564.000
396.033;    0.100;  217.000;  172.000
396.162; -124.000; -399.000; -453.000
396.290;  -50.400;  -17.000;   -2.000
396.418; -206.200; -555.000; -514.000
396.546; -264.900; -571.000; -466.000
396.674; -278.900; -850.000; -878.000
396.803;  -17.100;  -72.000;  -23.000
396.931; -110.500; -179.000; -199.000
397.059; -321.900;-1026.000; -989.000
397.187; -282.800;-1026.000; -975.000
397.315; -283.900; -884.000; -649.000
397.443; -192.800; -592.000; -443.000
397.572; -162.300; -578.000; -424.000
397.700; -204.800; -607.000; -614.000
397.828;  -76.100;  120.000;  -90.000
397.956; -178.500; -508.000; -478.000
398.084; -238.300; -767.000; -626.000
398.212;  -10.200;  137.000;  124.000
398.340;  -60.000;  -56.000;  159.000
398.468; -151.800; -390.000; -169.000
398.596; -308.200; -993.000; -953.000
398.724; -258.200; -762.000; -767.000
398.852; -276.100;-1024.000; -976.000
398.980; -159.700; -560.000; -560.000
399.108; -229.200; -982.000; -735.000
399.236;  -15.800;   13.000;    8.000
399.363;   31.500;  222.000;  196.000
399.491; -164.200; -404.000; -398.000
399.619; -279.100; -829.000; -800.000
399.747; -247.500; -859.000; -771.000
399.875;   40.200;  220.000;  234.000
400.003; -140.600; -359.000; -284.000
400.130; -154.400; -421.000; -341.000
400.258;  -21.000;  -83.000;   38.000
400.386;  -85.100; -352.000; -168.000
400.514; -203.000; -526.000; -587.000
400.641; -288.500; -928.000; -802.000
400.769; -289.100; -979.000; -888.000
400.897; -264.700; -838.000; -793.000
401.025;  -71.400; -166.000; -152.000
401.152;    9.900;  220.000;   38.000
401.280; -151.400; -430.000; -429.000
401.408; -253.000; -712.000; -576.000
401.535; -200.900; -735.000; -758.000
401.663; -380.300;-1134.000;-1054.000
401.790; -173.800; -514.000; -525.000
401.918;   74.600;  436.000;  405.000
402.046;  -31.800;  134.000;  122.000
402.173;  -30.800;  -18.000;    7.000
402.301; -154.500; -519.000; -397.000
402.428;  102.700;  528.000;  383.000
402.556; -319.500;-1188.000; -913.000
402.683;  -81.600;  -20.000;   -1.000
402.811;  -28.200;  -37.000; -206.000
402.938;  -14.500;   20.000;   27.000
403.066; -188.900; -574.000; -558.000
403.193;   -2.900;  299.000;  239.000
403.321; -166.100; -396.000; -574.000
403.448;   -3.700;   83.000;   27.000
403.575;  -77.300;  -90.000;  -46.000
403.703; -244.300; -732.000; -557.000
403.830; -193.600; -531.000; -496.000
403.957; -335.400;-1117.000;-1023.000
404.085;  -76.600;  -61.000; -172.000
404.212;  -61.000;  -50.000;   63.000
404.339; -137.900; -566.000; -306.000
404.467; -156.500; -612.000; -524.000
404.594;  -87.500; -287.000; -227.000
404.721; -218.100; -869.000; -764.000
404.848;  -77.800; -113.000; -202.000
404.976; -283.400; -856.000; -783.000
405.103;  -15.400;  -14.000;  -82.000
405.230;  -30.700;  190.000;  226.000
405.357;  -48.000;  117.000;   44.000
405.484;  -49.500;  -49.000;    5.000
405.612; -169.600; -548.000; -563.000
405.739; -136.200; -488.000; -243.000
405.866;  135.400;  669.000;  385.000
405.993; -105.300; -398.000; -102.000
406.120; -283.700; -801.000; -887.000
406.247; -148.000; -323.000; -342.000
406.374;  134.100;  540.000;  629.000
406.501; -219.000; -632.000; -702.000
406.628; -186.000; -621.000; -589.000
406.755; -228.500; -803.000; -620.000
406.882; -134.400; -228.000; -277.000
407.009; -206.200; -719.000; -628.000
407.136; -146.200; -480.000; -401.000
407.263; -294.700; -939.000; -829.000
407.390; -200.400; -692.000; -614.000
407.517; -365.000;-1139.000;-1187.000
407.644; -112.800; -332.000; -256.000
407.771; -163.100; -249.000; -287.000
407.898;   12.400;  168.000;  328.000
408.025; -162.100; -421.000; -313.000
408.151;   -9.700;   82.000;  153.000
408.278; -109.100; -267.000; -216.000
408.405; -255.400; -931.000; -899.000
408.532; -192.200; -549.000; -542.000
408.659; -228.800; -677.000; -648.000
408.785; -393.100;-1298.000;-1170.000
408.912;  -92.600; -412.000; -296.000
409.039; -190.200; -610.000; -686.000
409.166; -220.500; -591.000; -555.000
409.292; -219.100; -571.000; -534.000
409.419; -233.100; -665.000; -649.000
409.546; -126.200; -431.000; -192.000
409.672; -208.300; -713.000; -545.000
409.799;  -72.600;  -36.000;   34.000
409.926;  -97.200; -180.000; -179.000
410.052; -361.100;-1127.000;-1091.000
410.179; -156.500; -368.000; -392.000
410.305; -134.800; -375.000; -493.000
410.432; -121.400; -220.000; -333.000
410.558; -165.700; -305.000; -380.000
410.685; -219.700; -688.000; -431.000
410.812; -186.900; -409.000; -588.000
410.938; -254.700; -964.000; -808.000
411.065; -206.500; -671.000; -645.000
411.191;  -93.600; -189.000; -174.000
411.317; -258.700; -823.000; -742.000
411.444; -107.000; -317.000; -246.000
411.570; -132.300; -339.000; -294.000
411.697; -213.500; -758.000; -752.000
411.823; -319.000; -989.000; -999.000
411.949;  -82.500;  -56.000;   17.000
412.076; -189.100; -539.000; -519.000
412.202; -215.400; -758.000; -757.000
412.329; -264.100; -798.000; -752.000
412.455; -208.700; -821.000; -657.000
412.581;   -7.900;  -15.000;  172.000
412.707; -178.700; -540.000; -457.000
412.834;    9.400;  156.000;  219.000
412.960; -270.800; -785.000; -784.000
413.086; -258.800; -743.000; -701.000
413.212;  100.400;  604.000;  578.000
413.339; -271.400; -685.000; -701.000
413.465; -168.000; -364.000; -310.000
413.591; -254.300; -757.000; -474.000
413.717; -122.500; -358.000; -366.000
413.843; -283.400; -839.000; -861.000
413.969; -136.600;  -47.000; -292.000
414.096; -213.600; -679.000; -679.000
414.222;  -15.000;  -33.000;   85.000
414.348; -201.500; -652.000; -385.000
414.474;  -67.100;   38.000;  -52.000
414.600;  -66.000; -126.000; -144.000
414.726;  -58.700;  -96.000;  -55.000
414.852; -176.000; -365.000; -342.000
414.978;  -39.700;  104.000;  -18.000
415.104;  -52.400;   38.000;   80.000
415.230; -165.900; -329.000; -330.000
415.356; -203.500; -409.000; -514.000
415.482;  -65.700;   13.000;  -35.000
415.608; -120.300; -247.000; -323.000
415.734;  -14.800;   67.000;   38.000
415.860; -278.700; -875.000; -767.000
415.986; -221.900; -685.000; -607.000
416.111; -220.600; -798.000; -652.000
416.237; -160.100; -424.000; -571.000
416.363; -256.900; -765.000; -733.000
416.489; -127.600; -324.000; -251.000
416.615; -244.400; -707.000; -742.000
416.741; -237.800; -677.000; -784.000
416.866; -233.900; -673.000; -736.000
416.992; -264.500; -801.000; -818.000
417.118; -112.900;  -41.000;  -80.000
417.244; -233.200; -798.000; -531.000
417.369; -242.400; -801.000; -612.000
417.495; -108.900; -325.000; -254.000
417.621; -298.300;-1015.000; -803.000
417.746; -168.200; -579.000; -572.000
417.872;  -89.300; -254.000; -144.000
417.998; -168.000; -515.000; -530.000
418.123; -316.200;-1073.000; -845.000
418.249; -163.800; -512.000; -601.000
418.374; -283.000; -916.000; -824.000
418.500; -168.000; -383.000; -482.000
418.626;   -2.800;   70.000;  -59.000
418.751; -170.300; -549.000; -448.000
418.877; -213.400; -637.000; -643.000
419.002; -181.900; -688.000; -560.000
419.128; -270.800; -930.000; -721.000
419.253; -294.100; -967.000; -837.000
419.379; -203.500; -391.000; -338.000
419.504;   39.000;  325.000;  415.000
419.629;  -94.700; -393.000; -212.000
419.755;  -73.200; -317.000; -254.000
419.880;  -82.900;  -98.000;   67.000
420.006; -109.400; -280.000; -221.000
420.131; -236.100; -662.000; -775.000
420.256; -161.300; -315.000; -316.000
420.382; -205.700; -665.000; -687.000
420.507; -239.500; -649.000; -778.000
420.632; -167.000; -337.000; -339.000
420.758; -104.200; -251.000; -425.000
420.883; -259.200; -876.000; -672.000
421.008; -225.600; -775.000; -619.000
421.133; -171.800; -509.000; -467.000
421.259; -121.900; -325.000; -259.000
421.384; -244.600; -834.000; -693.000
421.509; -271.600;-1052.000; -862.000
421.634; -302.800; -936.000; -820.000
421.759; -177.800; -359.000; -327.000
421.885; -222.900; -717.000; -656.000
422.010; -202.400; -673.000; -542.000
422.135; -284.200; -695.000; -727.000
422.260;   50.500;  340.000;  280.000
422.385;  -87.600;   12.000;  -98.000
422.510;   23.000;  151.000;  -26.000
422.635;  -52.500;  -87.000;  -43.000
422.760; -228.400; -766.000; -791.000
422.885;  -43.900;  -57.000;  -80.000
423.010;  -89.300; -112.000; -169.000
423.135; -195.300; -481.000; -561.000
423.260; -114.900; -150.000; -245.000
423.385;   29.700;  476.000;  222.000
423.510;  -23.800;   71.000;  -22.000
423.635;  -46.300;  133.000;   45.000
423.760;   30.100;  383.000;  328.000
423.885;   38.200;  336.000;  391.000
424.010;  -76.800;  -68.000;  -13.000
424.135;  -42.400;    5.000;  -33.000
424.259; -204.300; -654.000; -457.000
424.384; -166.300; -279.000; -272.000
424.509; -100.900; -260.000; -186.000
424.634; -241.500; -761.000; -623.000
424.759; -175.100; -688.000; -544.000
424.883; -155.800; -506.000; -527.000
425.008; -191.900; -502.000; -410.000
425.133; -255.200; -679.000; -653.000
425.258; -198.500; -517.000; -381.000
425.382; -256.000; -867.000; -774.000
425.507; -199.100; -487.000; -543.000
425.632; -268.900; -802.000; -663.000
425.756; -106.100; -256.000; -146.000
425.881; -258.300; -831.000; -857.000
426.006; -172.500; -604.000; -355.000
426.130; -243.400; -696.000; -508.000
426.255; -199.200; -611.000; -491.000
426.379; -105.000; -189.000; -577.000
426.504;  110.100;  660.000;  544.000
426.629; -220.600; -519.000; -466.000
426.753;  -56.600;   64.000;  -46.000
426.878; -158.700; -252.000; -288.000
427.002; -257.600; -651.000; -668.000
427.127; -119.100;  -35.000; -158.000
427.251;   56.200;  372.000;  401.000
427.375; -105.200; -191.000; -173.000
427.500; -226.100; -616.000; -610.000
427.624; -138.700; -234.000; -400.000
427.749; -126.100; -216.000; -225.000
427.873; -183.900; -499.000; -412.000
427.997; -103.800; -222.000; -230.000
428.122;  121.700;  795.000;  703.000
428.246;   70.200;  433.000;  434.000
428.371; -267.200; -869.000; -773.000
428.495; -213.800; -624.000; -646.000
428.619;  -82.200; -186.000; -117.000
428.743;  -22.300;   65.000;  132.000
428.868; -238.900; -732.000; -643.000
428.992; -141.800; -219.000; -326.000
429.116; -149.300; -329.000; -357.000
429.240;   39.600;  419.000;  426.000
429.365; -161.600; -454.000; -574.000
429.489; -214.300; -638.000; -647.000
429.613; -107.800; -236.000; -177.000
429.737; -209.900; -563.000; -432.000
429.861; -108.900; -247.000; -133.000
429.985; -189.400; -425.000; -305.000
430.109; -326.200; -770.000; -908.000
430.234;   -0.500;   76.000;  -50.000
430.358; -130.700; -250.000; -160.000
430.482; -247.400; -672.000; -564.000
430.606; -200.800; -655.000; -375.000
430.730; -175.600; -437.000; -388.000
430.854; -299.600; -909.000; -835.000
430.978; -244.800; -795.000; -764.000
431.102; -203.200; -499.000; -422.000
431.226; -287.000; -874.000; -815.000
431.350;   46.200;  345.000;  422.000
431.474; -201.000; -661.000; -373.000
431.597; -335.500;-1060.000; -848.000
431.721; -154.500; -276.000; -267.000
431.845; -232.000; -704.000; -472.000
431.969; -117.400; -304.000; -349.000
432.093; -190.400; -395.000; -317.000
432.217;  -33.100;   32.000;   82.000
432.341; -176.200; -523.000; -518.000
432.464;  -63.400;   96.000;   40.000
432.588; -198.200; -401.000; -329.000
432.712; -112.300;  -52.000;  -52.000
432.836;   -0.900;  213.000;  263.000
432.959; -135.900; -372.000; -311.000
433.083;  -87.300;   11.000;    2.000
433.207;   79.500;  285.000;  930.000
433.330; -129.700; -391.000; -200.000
433.454; -196.400; -654.000; -638.000
433.578;   94.600;  583.000;  278.000
433.701; -226.700; -623.000; -675.000
433.825; -151.800; -292.000; -299.000
433.949; -102.100;   28.000;  -72.000
434.072; -125.000; -410.000; -323.000
434.196; -102.500; -309.000; -117.000
434.319; 7447.500;25482.000;25124.000
434.443; -206.600; -656.000; -603.000
434.566;  -28.000;  281.000;   62.000
434.690; -191.200; -637.000; -383.000
434.813; -117.700; -251.000; -173.000
434.937; -233.400; -569.000; -696.000
435.060; -197.200; -423.000; -332.000
435.184; -154.300; -492.000; -217.000
435.307;  -43.100;  159.000;  102.000
435.431;  -51.000;  -40.000;   24.000
435.554; -154.100; -399.000; -240.000
435.677; -134.600; -350.000; -258.000
435.801;  -64.800;  -25.000;   49.000
435.924;  -45.100;    1.000;  -67.000
436.048; -307.400;-1019.000; -732.000
436.171; -142.200; -240.000;  -66.000
436.294; -133.500; -248.000; -229.000
436.417; -293.700; -963.000; -849.000
436.541; -288.000; -814.000; -840.000
436.664; -115.200; -242.000; -316.000
436.787;  -11.700;   13.000;  113.000
436.910; -207.200; -792.000; -422.000
437.034;  -37.000;  142.000;  143.000
437.157;  -53.900;  -11.000;    0.000
437.280; -156.300; -392.000; -292.000
437.403; -305.800; -982.000; -869.000
437.526; -310.300; -903.000; -865.000
437.649; -169.900; -505.000; -332.000
437.772; -240.000; -692.000; -540.000
437.896;  132.900;  700.000;  544.000
438.019; -225.900; -758.000; -503.000
438.142; -177.700; -596.000; -506.000
438.265; -246.600; -639.000; -670.000
438.388; -146.400; -520.000; -410.000
438.511; -210.000; -597.000; -394.000
438.634; -155.900; -247.000; -125.000
438.757; -254.400; -693.000; -619.000
438.880; -107.700;  -34.000;  -57.000
439.003; -185.800; -417.000; -437.000
439.126; -113.800; -287.000; -167.000
439.248; -109.200;  -98.000; -139.000
439.371;  -63.400;    9.000;  -53.000
439.494;  130.800;  510.000;  439.000
439.617;  -76.700;   65.000;  -88.000
439.740; -323.800; -968.000; -816.000
439.863; -262.900; -755.000; -595.000
439.986; -224.500; -476.000; -431.000
440.108;  -88.100; -161.000; -112.000
440.231; -355.800; -950.000; -836.000
440.354;  -84.300;  -64.000; -150.000
440.477; -253.200; -566.000; -542.000
440.599; -112.900; -200.000; -225.000
440.722; -233.800; -709.000; -586.000
440.845;  152.800;  751.000;  928.000
440.968; -162.700; -415.000; -311.000
441.090; -124.600; -199.000;  -33.000
441.213; -310.900;-1021.000; -825.000
441.336;  -74.600; -159.000;   -5.000
441.458; -179.800; -549.000; -396.000
441.581; -229.200; -628.000; -629.000
441.703; -122.300; -152.000;   13.000
441.826; -209.700; -557.000; -400.000
441.948;  -59.500;   56.000;   51.000
442.071;   86.100;  555.000;  424.000
442.193; -220.600; -531.000; -485.000
442.316;   -8.600;  152.000;   97.000
442.438; -125.600; -233.000;  -10.000
442.561;  -13.600;  272.000;  262.000
442.683; -264.000; -809.000; -522.000
442.806;  -34.200;   -8.000;   74.000
442.928; -297.700; -859.000; -604.000
443.051; -214.700; -577.000; -373.000
443.173; -178.500; -341.000; -339.000
443.295; -149.800; -263.000; -371.000
443.418; -148.500; -321.000;  -29.000
443.540;  -95.500; -106.000;   -4.000
443.662; -229.600; -563.000; -465.000
443.785;    9.500;  335.000;  199.000
443.907; -201.900; -362.000; -208.000
444.029; -231.800; -767.000; -494.000
444.152; -219.200; -644.000; -554.000
444.274;  -36.000;  -18.000;  -24.000
444.396; -218.300; -461.000; -221.000
444.518; -240.600; -691.000; -454.000
444.640; -190.300; -268.000; -111.000
444.763;    5.500;  388.000;  249.000
444.885; -222.300; -432.000; -392.000
445.007;  -52.200;   35.000;   86.000
445.129; -201.700; -610.000; -515.000
445.251; -176.300; -372.000; -439.000
445.373; -249.000; -537.000; -386.000
445.495;   46.700;  242.000;  350.000
445.617;   95.300;  853.000;  753.000
445.739; -141.200; -215.000;  -97.000
445.861;  -90.700; -245.000; -112.000
445.984; -136.800; -267.000; -101.000
446.105; -176.400; -418.000; -251.000
446.227; -106.700; -176.000;  -19.000
446.349; -194.200; -358.000; -249.000
446.471; -250.900; -615.000; -448.000
446.593; -158.800; -316.000;   19.000
446.715;  -74.500;  -67.000;   41.000
446.837;  155.900;  697.000;  832.000
446.959; -172.800; -457.000; -478.000
447.081; -244.300; -628.000; -518.000
447.203;  153.100;  862.000;  834.000
447.325; -133.700; -270.000;   42.000
447.446;   40.300;  286.000;  530.000
447.568; -321.300; -921.000; -803.000
447.690; -187.400; -236.000; -245.000
447.812; -244.800; -798.000; -519.000
447.933;  -15.500;  155.000;  127.000
448.055; -155.200; -306.000; -261.000
448.177;   -6.700;   31.000;   79.000
448.299; -336.400; -935.000; -727.000
448.420;  -33.500;  -25.000;  159.000
448.542;  -87.400;   -3.000;   33.000
448.664;   -6.200;  109.000;  322.000
448.785;  -21.200;  265.000;   83.000
448.907; -187.300; -614.000; -353.000
449.028; -265.200; -771.000; -471.000
449.150;  138.800;  492.000;  589.000
449.272; -337.900;-1044.000; -913.000
449.393;  123.600;  612.000;  694.000
449.515; -271.000; -634.000; -581.000
449.636; -150.100; -264.000; -155.000
449.758;  105.800;  763.000;  622.000
449.879; -188.900; -498.000; -396.000
450.001; -144.300; -149.000;  -49.000
450.122;  -50.700;  -95.000;  162.000
450.244;  -70.200;   37.000;  364.000
450.365; -183.800; -495.000; -301.000
450.486;  -99.900;   80.000;  268.000
450.608;   28.100;  393.000;  326.000
450.729;   71.400;  578.000;  645.000
450.850; -227.200; -574.000; -466.000
450.972; -254.300; -552.000; -389.000
451.093;   36.600;  190.000;  588.000
451.214; -232.300; -516.000; -337.000
451.336;   97.900;  773.000;  579.000
451.457;   21.900;  264.000;  393.000
451.578;  -85.400; -118.000;  -74.000
451.699; -237.000; -546.000; -540.000
451.821; -109.500; -284.000;  -50.000
451.942;  -53.800;  278.000;  285.000
452.063;   30.100;  228.000;  419.000
452.184; -135.200;  -54.000;  -49.000
452.305;  -34.500;  103.000;  170.000
452.427; -190.600; -549.000; -301.000
452.548;  -80.400;   23.000;   79.000
452.669; -116.400; -257.000;  -89.000
452.790; -114.800;    3.000;  -18.000
452.911;  -16.100;  195.000;  259.000
453.032;  -96.800; -289.000;  -60.000
453.153;  -61.200;  -29.000;   81.000
453.274;  151.600;  737.000;  868.000
453.395;  -76.800;  -51.000;  175.000
453.516;  225.200; 1317.000; 1388.000
453.637; -140.600; -205.000; -150.000
453.758;  -68.700;   15.000;   69.000
453.879; -177.900; -462.000; -250.000
454.000;  177.500; 1086.000;  948.000
454.121; -242.300; -554.000; -326.000
454.242; -253.600; -599.000; -383.000
454.362;  -73.500;  -99.000;  114.000
454.483; -169.700; -309.000; -229.000
454.604;   27.200;  512.000;  580.000
454.725; -241.400; -627.000; -555.000
454.846; -209.300; -474.000; -406.000
454.967;  -17.800;  230.000;  539.000
455.087;  -25.900;  179.000;  153.000
455.208;   57.300;  554.000;  856.000
455.329; -111.500;  -22.000;   82.000
455.450;   51.500;  473.000;  633.000
455.570; -144.700; -234.000; -211.000
455.691;  -69.300;  201.000;  407.000
455.812; -162.800; -270.000;  -92.000
455.932;  -73.000;  107.000;  -97.000
456.053;  -87.000;   36.000;   24.000
456.173; -177.500; -433.000; -355.000
456.294; -214.800; -476.000; -303.000
456.415; -102.600;  -73.000;   70.000
456.535;   18.100;  297.000;  273.000
456.656;  -85.800;  132.000;  240.000
456.776;  -93.600;    3.000;  298.000
456.897;   -2.200;  308.000;  513.000
457.017;  -98.000; -153.000;   -3.000
457.138; -176.900; -402.000; -249.000
457.258;  -21.200;  263.000;  224.000
457.379;  -16.000;  509.000;  521.000
457.499;  -34.800;  443.000;  432.000
457.620; -189.700; -407.000; -231.000
457.740; -131.500; -132.000;  -11.000
457.860;  -66.100;   87.000;   44.000
457.981;  -71.500;  132.000;  124.000
458.101; -122.900;  -89.000;   40.000
458.221;   -2.600;  336.000;  402.000
458.342;  -81.900;   -4.000;  -37.000
458.462;   20.500;  617.000;  352.000
458.582; -184.000; -302.000; -294.000
458.703;  -62.100;  303.000;  154.000
458.823;  -96.200;   22.000;  163.000
458.943;   12.400;  341.000;  467.000
459.063;  -48.500; 1124.000;  192.000
459.183;  -25.800;  328.000;  313.000
459.304;   43.500;  315.000;  517.000
459.424; -124.200; -246.000;  -89.000
459.544;   36.400;  388.000;  764.000
459.664;   55.800;  499.000;  506.000
459.784;  164.400; 1004.000; 1175.000
459.904;   85.600;  867.000;  744.000
460.024;  129.100;  867.000;  684.000
460.144;    2.100;  449.000;  554.000
460.264;   49.600;  515.000;  327.000
460.385; -126.700; -145.000; -119.000
460.505;  101.800;  905.000;  858.000
460.625; -153.600;  -17.000;  -68.000
460.745;    4.100;  396.000;  541.000
460.864;  -63.700;  153.000;  469.000
460.984;  -14.100;  499.000;  573.000
461.104;  314.200; 1656.000; 1775.000
461.224;   54.300;  657.000;  650.000
461.344;  -20.600;  431.000;  360.000
461.464;  -43.000;  258.000;  513.000
461.584;  -48.800;  283.000;  466.000
461.704;  -90.100;   58.000;  108.000
461.824;  -81.000;  238.000;  259.000
461.943;  -83.000;  191.000;  130.000
462.063;  -78.700;    2.000;  324.000
462.183;   72.900;  639.000;  717.000
462.303;  232.700; 1678.000; 1230.000
462.422;  126.700;  781.000;  840.000
462.542;  -80.800;  271.000;  391.000
462.662;   11.800;  353.000;  380.000
462.782;   44.900;  833.000;  572.000
462.901;   39.500;  545.000;  717.000
463.021;  284.200; 1702.000; 1638.000
463.141;  -34.800;  337.000;  770.000
463.260;   14.600;  614.000;  474.000
463.380;   81.500;  902.000;  884.000
463.499;  -10.900;  342.000;  332.000
463.619;  -18.400;  581.000;  559.000
463.738;  279.300; 1644.000;  903.000
463.858;   93.500;  657.000;  811.000
463.978;  -32.900;  542.000;  396.000
464.097;  128.700;  921.000; 1114.000
464.217;  167.900; 1196.000; 1143.000
464.336;  150.200; 1068.000; 1130.000
464.455;  -55.200;  328.000;  659.000
464.575;   39.300;  597.000;  602.000
464.694;  167.600; 1204.000; 1179.000
464.814;  129.000; 1190.000; 1138.000
464.933;  152.500; 1095.000; 1027.000
465.052;  212.700; 1412.000; 1054.000
465.172;   60.300;  922.000;  799.000
465.291;  234.800; 1376.000; 1320.000
465.410;   55.000;  462.000;  735.000
465.530;  191.800; 1355.000; 1310.000
465.649;  159.600; 1209.000; 1273.000
465.768;  263.400; 1673.000; 1508.000
465.888;  122.300;  941.000; 1174.000
466.007;  254.000; 1335.000; 1440.000
466.126;   86.900;  721.000;  641.000
466.245;  114.500; 1176.000; 1187.000
466.364;   99.000;  950.000; 1060.000
466.484;  154.500; 1024.000; 1213.000
466.603;  137.900; 1101.000; 1222.000
466.722;  267.100; 1490.000; 1769.000
466.841;  170.400; 1151.000; 1401.000
466.960;  138.400; 1069.000;  972.000
467.079;  310.700; 1971.000; 1786.000
467.198;  148.700; 1238.000; 1181.000
467.317;  267.800; 1768.000; 1162.000
467.436;  184.100; 1709.000; 1261.000
467.555;  301.400; 1796.000; 1746.000
467.674;  190.400; 1227.000; 1329.000
467.793;  162.100; 1376.000; 1374.000
467.912;  214.000; 1658.000; 1539.000
468.031;  294.100; 2038.000; 1930.000
468.150;  331.800; 1842.000; 1837.000
468.269;  387.000; 2313.000; 2090.000
468.388;  380.500; 2168.000; 2339.000
468.507;  546.900; 2884.000; 2903.000
468.626;  626.300; 2555.000; 2541.000
468.744;  318.700; 2018.000; 2174.000
468.863;  480.100; 2312.000; 2523.000
468.982;  232.000; 1503.000; 1555.000
469.101;  506.500; 2788.000; 2692.000
469.220;  409.200; 2333.000; 2176.000
469.338;  569.400; 2935.000; 3051.000
469.457;  401.300; 2719.000; 2545.000
469.576;  757.000; 3953.000; 3784.000
469.695;  495.400; 2877.000; 3066.000
469.813;  880.200; 4148.000; 4192.000
469.932;  835.400; 4255.000; 4485.000
470.051;  752.100; 4075.000; 4161.000
470.169;  841.900; 4470.000; 4338.000
470.288;  971.300; 4700.000; 4809.000
470.406; 1017.400; 5059.000; 5194.000
470.525; 1196.300; 6101.000; 5787.000
470.644; 1334.500; 6847.000; 6794.000
470.762; 1631.000; 8397.000; 7873.000
470.881; 1748.000; 8651.000; 8464.000
470.999; 1997.100; 9685.000; 9151.000
471.118; 2229.500;11174.000;10711.000

