
Integration time [ms]: 200.000
Averaging Nr. [scans]: 10
Smoothing Nr. [pixels]: 0
Data measured with spectrometer [name]: 2101012U2
Wave   ;Sample   ;Dark     ;Reference
[nm]   ;[counts] ;[counts] ;[counts] 

197.733;  142.500;  516.000;  404.000
197.879; -172.300; -610.000; -634.000
198.025;  -86.200; -475.000; -420.000
198.171; -143.400; -602.000; -612.000
198.317;  -51.800; -401.000; -316.000
198.463; -107.900; -655.000; -404.000
198.609;   59.700;  181.000; -137.000
198.755; -146.100; -644.000; -410.000
198.901; -155.400; -505.000; -424.000
199.047; -129.600; -615.000; -488.000
199.193; -106.600; -230.000; -468.000
199.339;  -79.600; -222.000; -369.000
199.485;   83.500;  330.000;  271.000
199.631;   39.600;  227.000;  310.000
199.777; -118.500; -466.000; -398.000
199.923; -135.300; -610.000; -424.000
200.069;   -8.700; -141.000;  -58.000
200.215;  120.300;  128.000;  453.000
200.361;   95.600;  243.000;  477.000
200.507; -121.800; -600.000; -373.000
200.653;  -79.200; -371.000; -194.000
200.798;  -60.800; -215.000; -125.000
200.944;    1.100; -146.000;  -41.000
201.090;   91.200;   61.000;  222.000
201.236;  -19.700; -116.000; -158.000
201.382;  258.400;  874.000;  903.000
201.528;   -3.500;  -58.000;  -48.000
201.674;  -79.400; -386.000; -293.000
201.819; -119.100; -540.000; -439.000
201.965; -167.200; -699.000; -447.000
202.111;  -44.300; -273.000; -226.000
202.257;  -72.200; -250.000; -238.000
202.402;  -13.300;   13.000;  -36.000
202.548;  -28.300; -169.000; -116.000
202.694;  197.100;  410.000; -183.000
202.840; -157.300; -603.000; -531.000
202.985; -144.300; -681.000; -639.000
203.131; -231.700; -832.000; -666.000
203.277;  -55.700; -199.000; -262.000
203.423;  -97.100; -434.000; -520.000
203.568;  -59.100; -462.000; -237.000
203.714; -114.600; -535.000; -542.000
203.860; -179.100; -682.000; -641.000
204.005;   26.900;  112.000;  167.000
204.151;  146.700;  561.000;  556.000
204.296;  -86.300; -354.000; -221.000
204.442; -132.100; -600.000; -547.000
204.588; -130.400; -592.000; -579.000
204.733;   55.100;  178.000;  168.000
204.879; -261.400;-1018.000; -822.000
205.025;   12.300;  -99.000;  126.000
205.170;   27.200;  -17.000;   94.000
205.316;  188.900;  438.000;  661.000
205.461; -164.600; -698.000; -554.000
205.607;  181.900;  609.000;  665.000
205.752; -148.300; -626.000; -551.000
205.898; -110.900; -501.000; -391.000
206.043; -130.100; -578.000; -506.000
206.189;  -83.600; -243.000; -285.000
206.334;  143.300;  554.000;  606.000
206.480;  164.200;  409.000;  239.000
206.625; -149.500; -529.000; -552.000
206.771;  -90.200; -451.000; -373.000
206.916;  -72.600; -210.000; -537.000
207.062; -134.200; -545.000; -591.000
207.207;  -99.500; -546.000; -443.000
207.353;  113.100;  185.000;  460.000
207.498;   68.900;  196.000;   85.000
207.643;  -86.400; -501.000; -370.000
207.789; -267.400;-1069.000; -910.000
207.934; -194.000; -665.000; -713.000
208.080;  -38.200; -154.000;   66.000
208.225;   -4.900;  -22.000;  -57.000
208.370; -146.200; -727.000; -619.000
208.516; -168.100; -741.000; -487.000
208.661;  -69.000; -127.000;  -69.000
208.806;  -43.500; -165.000; -171.000
208.952; -247.300;-1044.000; -731.000
209.097;  150.100;  378.000;  349.000
209.242;  -70.900; -307.000; -382.000
209.387;  119.700;  392.000;  350.000
209.533;  -90.900; -321.000; -350.000
209.678;  180.900;  472.000;  543.000
209.823;  -81.800; -408.000; -310.000
209.969; -209.100; -860.000; -757.000
210.114; -211.700; -907.000; -719.000
210.259; -236.500; -939.000; -889.000
210.404;   -6.000; -171.000;  103.000
210.549;   60.700;  108.000;    3.000
210.695;  -16.800;   -3.000;  -95.000
210.840;   57.700;   94.000;   67.000
210.985; -110.600; -484.000; -303.000
211.130;  133.500;  268.000;  406.000
211.275;   24.700;  207.000;  199.000
211.420;  -80.700; -300.000; -289.000
211.566; -124.100; -536.000; -489.000
211.711;  103.300;  218.000;  157.000
211.856; -133.600; -545.000; -519.000
212.001;   19.100;  151.000;   44.000
212.146;   40.900;  153.000;   49.000
212.291;  -34.100; -210.000; -186.000
212.436;  -30.300; -280.000;   -6.000
212.581; -186.800; -685.000; -653.000
212.726; -154.300; -487.000; -538.000
212.871; -111.000; -552.000; -217.000
213.016; -296.400;-1172.000;-1029.000
213.161;  139.600;  406.000;  291.000
213.306; -138.100; -435.000; -577.000
213.451; -173.700; -778.000; -689.000
213.596;  -68.000; -455.000; -347.000
213.741; -127.000; -448.000; -538.000
213.886; -150.800; -498.000; -517.000
214.031;  -42.900; -294.000; -124.000
214.176;  -97.400; -408.000; -341.000
214.321;  -57.500; -296.000; -157.000
214.466;  -58.900; -163.000;  -43.000
214.611;    1.900;  -61.000;  -10.000
214.756; -259.100; -948.000; -858.000
214.901;  -37.800; -388.000; -226.000
215.046; -242.200; -797.000; -825.000
215.191;   22.800;  128.000;   35.000
215.336;    1.100; -157.000;  -19.000
215.480; -147.500; -684.000; -505.000
215.625;  -24.300; -175.000;  -19.000
215.770; -191.700; -757.000; -662.000
215.915;   39.900;   -5.000;  -97.000
216.060;    5.300; -113.000;  -21.000
216.205; -224.300; -731.000; -779.000
216.349; -138.300; -470.000; -533.000
216.494; -260.600; -939.000; -867.000
216.639; -235.700; -823.000; -888.000
216.784; -170.300; -577.000; -525.000
216.929;  115.500;  392.000;  281.000
217.073;   -4.400; -244.000;  -31.000
217.218;   22.900;   78.000;  -47.000
217.363; -193.100; -656.000; -618.000
217.507; -147.500; -623.000; -588.000
217.652; -251.900; -845.000; -874.000
217.797; -169.500; -708.000; -659.000
217.942; -212.300; -856.000; -720.000
218.086;  139.500;  608.000;  539.000
218.231;  -33.000; -174.000;  -26.000
218.376;  -71.500; -337.000; -229.000
218.520;   46.800;  -41.000;   96.000
218.665;  -88.700; -338.000; -204.000
218.810;  -60.200; -275.000; -233.000
218.954;   50.600;  201.000;   35.000
219.099; -209.300; -713.000; -963.000
219.243; -114.600; -589.000; -554.000
219.388;  -42.900; -264.000; -136.000
219.532;  -13.800; -116.000; -116.000
219.677; -105.800; -564.000; -521.000
219.822;    7.800;   33.000;   89.000
219.966;   20.500;   17.000;  -99.000
220.111;  -74.300; -328.000;  -40.000
220.255; -165.400; -797.000; -750.000
220.400;  -42.600; -180.000; -146.000
220.544; -154.100; -516.000; -450.000
220.689;  -93.900; -422.000; -451.000
220.833;  -34.900; -123.000;  -58.000
220.978;  -89.800; -393.000; -563.000
221.122;   72.300;  319.000;  307.000
221.267; -213.400; -906.000; -837.000
221.411; -116.000; -478.000; -394.000
221.555;  -39.800; -104.000;  -23.000
221.700;  -81.600; -329.000; -222.000
221.844;   81.900;  255.000;  272.000
221.989;  -99.600; -328.000; -311.000
222.133;  -69.400; -289.000; -307.000
222.277;  -38.700;    5.000;   78.000
222.422;   63.400;  227.000;  113.000
222.566;  -60.800; -381.000; -214.000
222.711;  -97.100; -414.000; -479.000
222.855; -167.100; -643.000; -586.000
222.999; -153.900; -642.000; -717.000
223.144;  -61.200; -195.000; -194.000
223.288;  133.100;  423.000;  251.000
223.432;   10.900;  184.000;  230.000
223.576;   70.900;  152.000;  -21.000
223.721;   99.900;  364.000;  273.000
223.865; -125.900; -472.000; -475.000
224.009;  559.200; 1673.000; 1631.000
224.153; -188.500; -660.000; -671.000
224.298; -151.700; -531.000; -489.000
224.442;   -9.900;  -74.000;  -33.000
224.586;   -2.300; -169.000; -106.000
224.730; -194.700; -858.000; -670.000
224.875; -214.300; -739.000; -688.000
225.019;   59.500;  102.000;  188.000
225.163;  110.500;  208.000;  341.000
225.307;   44.400;   97.000;  -91.000
225.451;  134.700;  360.000;  481.000
225.595;   67.800;  264.000;  176.000
225.739;  -33.100; -170.000;  -94.000
225.884;   19.600;   86.000;    5.000
226.028; -213.600; -760.000; -626.000
226.172;  -74.700; -260.000; -273.000
226.316; -239.000; -941.000; -902.000
226.460; -142.400; -645.000; -493.000
226.604;  -87.100; -406.000; -400.000
226.748; -167.900; -836.000; -733.000
226.892;  -59.300; -227.000; -181.000
227.036;  -78.800; -537.000; -447.000
227.180; -152.200; -551.000; -375.000
227.324; -118.800; -561.000; -580.000
227.468; -217.900; -819.000; -717.000
227.612;   35.700;  242.000;  -28.000
227.756; -204.300; -845.000; -698.000
227.900;   99.600;  342.000;  441.000
228.044; -109.900; -509.000; -290.000
228.188;   96.800;  448.000;  568.000
228.332; -149.100; -546.000; -472.000
228.476;  -64.300; -223.000; -149.000
228.620;  -78.100; -210.000; -150.000
228.764;  160.100;  431.000;  349.000
228.908;    5.600; -155.000;   30.000
229.052; -128.300; -615.000; -528.000
229.195;   -7.300; -172.000;   13.000
229.339;  -74.200; -235.000; -305.000
229.483;  -72.300;    5.000; -162.000
229.627;   -9.600; -156.000;  139.000
229.771;  -78.500; -218.000; -294.000
229.915;   36.900;  230.000;   79.000
230.059; -191.200; -648.000; -663.000
230.202;  -69.900; -370.000; -317.000
230.346;  -38.400; -107.000;  107.000
230.490; -130.500; -489.000; -521.000
230.634; -204.600; -736.000; -553.000
230.777;  174.100;  478.000;  509.000
230.921;  -94.400; -450.000; -359.000
231.065;  -71.500; -246.000; -286.000
231.209;   82.100;  261.000;  265.000
231.352;   79.900;   54.000;   40.000
231.496;   54.800;  568.000;  188.000
231.640; -165.600; -693.000; -621.000
231.783;  169.600;  546.000;  525.000
231.927;  -57.200; -294.000; -365.000
232.071; -231.000; -962.000; -736.000
232.214; -224.200; -980.000; -764.000
232.358; -206.100; -683.000; -599.000
232.502;   13.400;  -19.000;    7.000
232.645; -286.300;-1090.000; -927.000
232.789;   -8.700; -257.000; -218.000
232.933;  -67.400; -407.000; -224.000
233.076; -258.000;-1038.000; -897.000
233.220; -202.500; -752.000; -777.000
233.363; -115.800; -669.000; -477.000
233.507;  126.200;  371.000;  129.000
233.650; -192.500; -764.000; -834.000
233.794;  133.800;  438.000;  461.000
233.938; -130.300; -530.000; -362.000
234.081;  -30.600;  -93.000;   31.000
234.225; -120.700; -631.000; -539.000
234.368; -223.700; -773.000; -723.000
234.512;  -89.700; -385.000; -299.000
234.655; -167.600; -582.000; -555.000
234.798; -120.300; -493.000; -466.000
234.942; -236.400; -884.000;-1002.000
235.085; -148.600; -651.000; -443.000
235.229; -142.500; -405.000; -410.000
235.372; -108.000; -247.000; -191.000
235.516; -111.200; -397.000; -321.000
235.659;   38.400;   92.000;  121.000
235.802;   12.400;  -38.000;  -22.000
235.946;   59.200;  335.000;  215.000
236.089;  102.500;  126.000;  250.000
236.233;  110.500;  275.000;  298.000
236.376;  -49.900; -235.000; -378.000
236.519;  -90.000; -297.000; -319.000
236.663;  -53.500; -215.000; -117.000
236.806; -260.400;-1029.000; -999.000
236.949;  134.700;  543.000;  431.000
237.092;  131.100;  412.000;  391.000
237.236; -165.200; -589.000; -502.000
237.379;  147.700;  352.000;  428.000
237.522; -207.500; -879.000; -768.000
237.666;   -2.700; -271.000;   18.000
237.809; -243.600; -851.000; -823.000
237.952;  117.200;  469.000;  271.000
238.095; -108.000; -447.000; -442.000
238.238;  178.200;  688.000;  700.000
238.382;   -5.900;  166.000;  103.000
238.525; -140.600; -598.000; -511.000
238.668; -276.300;-1060.000; -985.000
238.811; -144.100; -638.000; -643.000
238.954; -121.300; -483.000; -334.000
239.097;  189.000;  617.000;  664.000
239.241;   66.200;  394.000;  326.000
239.384;  -45.500; -254.000; -214.000
239.527; -105.600; -424.000; -224.000
239.670; -253.700; -994.000;-1091.000
239.813; -178.900; -696.000; -658.000
239.956;  163.900;  579.000;  473.000
240.099; -197.600; -778.000; -725.000
240.242;  143.800;  428.000;  432.000
240.385;  158.500;  466.000;  450.000
240.528; -150.600; -706.000; -473.000
240.671;   56.300;  189.000;  134.000
240.814;  -70.700; -441.000; -158.000
240.957; -197.000; -767.000; -578.000
241.100; -182.900; -779.000; -755.000
241.243; -287.600;-1234.000; -893.000
241.386; -147.000; -508.000; -379.000
241.529; -161.400; -735.000; -547.000
241.672; -126.400; -566.000; -495.000
241.815; -257.200; -832.000; -808.000
241.958;  -49.200; -125.000; -182.000
242.101; -158.600; -545.000; -390.000
242.244;  -52.500; -270.000; -325.000
242.387; -111.000; -304.000; -246.000
242.530;  122.400;  470.000;  134.000
242.673;  -81.700; -381.000; -309.000
242.815; -244.500; -925.000; -899.000
242.958; -111.100; -482.000; -381.000
243.101;   49.100;  132.000;  187.000
243.244; -146.800; -564.000; -521.000
243.387;  -62.300; -313.000; -316.000
243.530; -159.700; -657.000; -674.000
243.672;   26.800;   43.000;  -92.000
243.815;  -77.200; -355.000; -283.000
243.958;   13.200;   98.000;  -26.000
244.101;   25.900;   59.000;  -16.000
244.243;   -5.600;  -47.000;  101.000
244.386; -209.600; -761.000; -630.000
244.529;  -25.600; -132.000; -139.000
244.672; -298.800;-1154.000; -951.000
244.814; -185.000; -621.000; -794.000
244.957;  -78.900; -380.000; -304.000
245.100; -164.800; -489.000; -489.000
245.242; -106.700; -387.000; -374.000
245.385;    3.700;  -59.000;  -39.000
245.528; -255.700; -871.000; -705.000
245.670;  183.800;  612.000;  634.000
245.813; -143.300; -599.000; -547.000
245.956;  -23.500; -324.000; -275.000
246.098; -148.600; -508.000; -650.000
246.241;   40.400;  194.000;   48.000
246.383;   -2.000; -119.000;  -73.000
246.526; -142.000; -454.000; -525.000
246.669; -224.500; -889.000; -780.000
246.811;   35.400;  172.000;   -1.000
246.954; -102.200; -512.000; -426.000
247.096;  -52.900;  -84.000;   -6.000
247.239; -123.600; -482.000; -445.000
247.381; -162.600; -647.000; -488.000
247.524;  183.900;  645.000;  679.000
247.666;  -27.100;   58.000;   11.000
247.809; -179.100; -887.000; -691.000
247.951;    0.600;  -75.000;  138.000
248.094;   97.600;  432.000;  308.000
248.236; -324.800;-1262.000;-1238.000
248.378;  -25.600; -356.000;  -81.000
248.521;  -56.800; -334.000; -337.000
248.663;  -55.600; -236.000; -267.000
248.806;  -40.500; -300.000; -266.000
248.948; -216.900; -886.000; -763.000
249.090;  -88.600; -428.000; -398.000
249.233;  -53.500; -344.000; -381.000
249.375; -119.300; -474.000; -451.000
249.518;  -11.800;  -83.000; -133.000
249.660;  -13.800; -103.000;    3.000
249.802; -330.800;-1303.000;-1189.000
249.945; -130.400; -612.000; -540.000
250.087; -179.500; -834.000; -768.000
250.229;  -90.400; -362.000; -480.000
250.371; -108.500; -494.000; -439.000
250.514;  -93.800; -310.000; -244.000
250.656; -117.300;   69.000;  102.000
250.798; -234.500; -849.000; -800.000
250.940; -110.600; -322.000; -322.000
251.083;  -32.500; -335.000; -111.000
251.225;  119.000;  338.000;  310.000
251.367;  -56.300; -274.000; -373.000
251.509;  -60.900; -265.000; -210.000
251.651; -179.400; -731.000; -671.000
251.794;  148.300;  538.000;  632.000
251.936; -209.100; -821.000; -747.000
252.078; -135.000; -540.000; -461.000
252.220; -129.600; -645.000; -477.000
252.362;  160.700;  344.000;  462.000
252.504; -133.600; -677.000; -584.000
252.646; -230.900; -875.000; -722.000
252.788;   21.500;   14.000; -128.000
252.931;  -56.600; -257.000; -253.000
253.073; -113.000; -376.000; -317.000
253.215;    3.000;  141.000;  122.000
253.357;  -33.400;   82.000; -153.000
253.499;  -73.400; -374.000; -234.000
253.641; -180.500; -749.000; -594.000
253.783; -172.200; -609.000; -527.000
253.925; -178.400; -586.000; -591.000
254.067; -190.100; -744.000; -667.000
254.209;  -54.000; -391.000; -259.000
254.351; -249.800; -865.000; -883.000
254.493; -111.300; -441.000; -417.000
254.635; -182.900; -936.000; -818.000
254.777; -186.400; -752.000; -687.000
254.918; -144.300; -512.000; -430.000
255.060; -101.600; -551.000; -395.000
255.202;  -87.700; -473.000; -261.000
255.344; -142.500; -658.000; -455.000
255.486; -164.300; -471.000; -406.000
255.628; -209.400; -780.000; -781.000
255.770; -152.200; -676.000; -536.000
255.912; -120.200; -559.000; -468.000
256.053; -177.900; -730.000; -508.000
256.195;  336.900; 1008.000;  903.000
256.337; -199.000; -861.000; -595.000
256.479;  160.000;  532.000;  416.000
256.621;  -87.100; -394.000; -212.000
256.762; -204.500; -789.000; -742.000
256.904;  138.700;  485.000;  487.000
257.046; -123.000; -381.000; -271.000
257.188;  -92.100; -351.000; -264.000
257.329; -129.600; -525.000; -464.000
257.471; -224.900; -939.000; -807.000
257.613; -121.400; -584.000; -498.000
257.755; -303.600;-1073.000; -982.000
257.896;   96.400;  286.000;  392.000
258.038;  -95.300; -403.000; -352.000
258.180;  -65.700; -354.000; -279.000
258.321; -135.600; -581.000; -457.000
258.463;    6.000;  -71.000;  133.000
258.605; -161.600; -562.000; -570.000
258.746; -191.500; -886.000; -772.000
258.888; -283.200;-1026.000;-1020.000
259.029;   47.700;  121.000;   -8.000
259.171; -187.600; -614.000; -550.000
259.313;   26.900;  -49.000;  -47.000
259.454; -148.100; -536.000; -414.000
259.596; -109.900; -483.000; -390.000
259.737; -101.100; -590.000; -474.000
259.879;   78.900;  217.000;  311.000
260.020;  233.200;  901.000;  636.000
260.162;  -34.900; -146.000; -253.000
260.303; -191.500; -768.000; -687.000
260.445; -125.900; -609.000; -613.000
260.586;   70.800;  392.000;  157.000
260.728;  -56.900; -360.000; -248.000
260.869; -117.300; -350.000; -343.000
261.011;  159.100;  706.000;  537.000
261.152;  -85.600; -479.000; -319.000
261.293; -153.300; -576.000; -595.000
261.435;  -57.700; -219.000; -184.000
261.576; -101.900; -455.000; -325.000
261.718;  118.400;  420.000;  470.000
261.859; -248.300; -940.000; -949.000
262.000; -220.100; -951.000;-1016.000
262.142;  -34.100;  -52.000;  -60.000
262.283; -194.400; -808.000; -691.000
262.424; -181.100; -666.000; -625.000
262.566; -301.700;-1161.000; -983.000
262.707; -228.500; -840.000; -830.000
262.848; -210.700; -769.000; -726.000
262.990;  -93.800; -362.000; -345.000
263.131;  194.800;  650.000;  681.000
263.272;   -1.400;  -61.000;  -41.000
263.413; -181.300; -589.000; -561.000
263.555; -110.700; -669.000; -143.000
263.696; -154.600; -550.000; -641.000
263.837; -125.800; -449.000; -551.000
263.978;    1.300;   -5.000;  -77.000
264.119;  -93.700; -283.000; -264.000
264.261; -238.600; -847.000; -630.000
264.402;    6.000;   33.000;   40.000
264.543; -129.300; -509.000; -524.000
264.684;   15.300;   61.000;  -50.000
264.825; -107.000; -816.000; -538.000
264.966;   23.200;  -84.000;  -67.000
265.107; -207.100; -646.000; -670.000
265.248; -236.900; -825.000; -812.000
265.390;   11.400;  152.000;   -9.000
265.531;  -43.200; -238.000; -107.000
265.672; -180.300; -557.000; -630.000
265.813;  134.700;  563.000;  439.000
265.954; -282.100; -959.000; -940.000
266.095;  -20.100; -372.000; -322.000
266.236; -198.600; -686.000; -548.000
266.377;  -89.700; -243.000; -297.000
266.518; -111.000; -619.000; -547.000
266.659;   93.700;  170.000;  268.000
266.800;   52.300;   83.000;   85.000
266.941; -142.300; -487.000; -478.000
267.082;   25.900;  354.000;   99.000
267.223;  -93.100; -344.000; -273.000
267.364; -210.300; -892.000; -686.000
267.504;   -4.900;    3.000;  135.000
267.645;    2.700;  160.000;   67.000
267.786;  -19.700; -147.000;  -86.000
267.927; -124.100; -473.000; -379.000
268.068;  -24.300; -186.000;  -61.000
268.209;  -85.300; -175.000; -413.000
268.350; -113.300; -388.000; -532.000
268.490; -120.100; -648.000; -521.000
268.631;  114.300;  127.000;  225.000
268.772; -194.300; -874.000; -647.000
268.913;  -85.900; -328.000; -476.000
269.054;  -12.800; -117.000;   12.000
269.194;  -84.200; -418.000; -402.000
269.335; -311.400;-1137.000;-1074.000
269.476;  -15.600;   33.000;  -35.000
269.617;  -75.600; -347.000; -392.000
269.757; -164.700; -713.000; -646.000
269.898; -232.300; -856.000; -613.000
270.039; -133.500; -415.000; -405.000
270.180; -242.900; -952.000; -816.000
270.320;  -49.400; -190.000; -250.000
270.461;  -70.100; -277.000; -249.000
270.602;    1.400; -186.000; -156.000
270.742; -228.900; -868.000; -943.000
270.883; -119.200; -442.000; -390.000
271.023; -110.900; -358.000; -357.000
271.164; -142.200; -607.000; -528.000
271.305; -190.900; -666.000; -654.000
271.445; -178.000; -722.000; -683.000
271.586; -117.900; -462.000; -283.000
271.726; -102.400; -397.000; -322.000
271.867; -143.300; -594.000; -534.000
272.008;  211.400; -473.000; -285.000
272.148;  231.400;  462.000;  468.000
272.289;   -9.100; -113.000; -181.000
272.429;   38.800;   19.000;  185.000
272.570; -173.000; -633.000; -737.000
272.710; -169.100; -825.000; -775.000
272.851;   -4.500;  113.000; -130.000
272.991; -301.800;-1173.000;-1077.000
273.131; -124.300; -419.000; -459.000
273.272; -176.900; -683.000; -723.000
273.412;  -11.900; -143.000;  -31.000
273.553; -108.900; -488.000; -507.000
273.693;  290.700;  913.000;  858.000
273.834; -182.800; -894.000; -692.000
273.974; -145.900; -664.000; -615.000
274.114; -192.600; -772.000; -560.000
274.255;  170.900;  414.000;  373.000
274.395;   19.400; -180.000; -125.000
274.535;   61.100;  199.000;  350.000
274.676;   61.800;  225.000;   94.000
274.816;   19.300;  110.000;   34.000
274.956; -151.200; -624.000; -690.000
275.097; -177.700;-1014.000; -922.000
275.237; -237.100; -913.000; -803.000
275.377; -183.200; -778.000; -689.000
275.517; -310.100; -878.000; -937.000
275.658;  -89.800; -590.000; -555.000
275.798; -162.900; -606.000; -413.000
275.938;   86.900;  215.000;  323.000
276.078; -149.700; -626.000; -395.000
276.218;   47.400;   99.000;  104.000
276.359; -246.700;-1026.000;-1024.000
276.499; -143.900; -605.000; -446.000
276.639;  -32.100; -305.000; -151.000
276.779;  -86.000; -475.000; -357.000
276.919; -182.400; -783.000; -624.000
277.059;  -32.800; -261.000; -212.000
277.199;  -68.400; -357.000; -259.000
277.340;   87.100;  287.000;  175.000
277.480; -194.600; -840.000; -693.000
277.620;   76.700;  192.000;   16.000
277.760; -405.200;-1533.000;-1294.000
277.900;   24.900;  113.000;   33.000
278.040;   65.800;  137.000;  159.000
278.180;   72.300;  270.000;  170.000
278.320;   21.900;   21.000;   56.000
278.460; -113.600; -443.000; -469.000
278.600; -181.700; -708.000; -598.000
278.740;  114.100;  448.000;  224.000
278.880; -162.200; -768.000; -791.000
279.020;    1.400; -194.000; -144.000
279.160; -145.000; -672.000; -595.000
279.300; -231.300; -926.000; -873.000
279.440; -160.700; -709.000; -622.000
279.579; -107.200;-1014.000; -929.000
279.719;  -91.000; -410.000; -394.000
279.859;  119.700;   -4.000;   41.000
279.999;   50.000; -208.000;  101.000
280.139;  -36.300; -435.000; -387.000
280.279; -161.700; -708.000; -745.000
280.419;  -41.100; -229.000; -147.000
280.559;  -34.500; -259.000; -180.000
280.698; -139.900; -790.000; -639.000
280.838; -193.200; -778.000; -800.000
280.978; -198.700; -846.000; -790.000
281.118; -197.400; -811.000; -704.000
281.257;   30.300;   24.000;    6.000
281.397; -266.900;-1094.000; -960.000
281.537; -140.400; -599.000; -712.000
281.677;  -19.300; -150.000; -101.000
281.816; -128.200; -700.000; -630.000
281.956;  -13.700; -193.000; -257.000
282.096; -113.500; -539.000; -396.000
282.235; -196.000; -672.000; -638.000
282.375;  -11.500; -243.000;  -98.000
282.515; -182.400; -715.000; -707.000
282.654;   73.200;   29.000;  106.000
282.794;  109.400;  388.000;  244.000
282.934; -116.800; -530.000; -491.000
283.073; -255.300;-1030.000; -857.000
283.213;  -85.900; -460.000; -467.000
283.353;  -60.500; -408.000; -349.000
283.492;  -36.900; -264.000; -296.000
283.632;  -76.100; -254.000; -168.000
283.771; -213.200; -859.000; -730.000
283.911;  -91.400; -369.000; -260.000
284.050; -204.400; -794.000; -748.000
284.190; -337.800;-1229.000;-1096.000
284.329; -272.900;-1055.000; -964.000
284.469; -141.700; -516.000; -591.000
284.608; -117.600; -559.000; -598.000
284.748; -152.700; -614.000; -570.000
284.887;   23.900;  -87.000;  -20.000
285.027; -232.800; -844.000; -892.000
285.166;  -35.000; -192.000; -249.000
285.306;   63.500; -116.000;  -33.000
285.445;  -51.400; -229.000; -343.000
285.584; -177.000; -630.000; -494.000
285.724;  -46.600; -282.000; -322.000
285.863; -196.800; -857.000; -507.000
286.002;  -91.200; -366.000; -276.000
286.142; -195.400; -715.000; -622.000
286.281; -141.300; -525.000; -493.000
286.420; -124.600; -554.000; -417.000
286.560;  190.000;  653.000;  623.000
286.699; -250.300; -958.000; -912.000
286.838; -132.900; -590.000; -591.000
286.978; -183.200; -533.000; -537.000
287.117; -255.100;-1085.000; -950.000
287.256;  -40.100; -228.000; -211.000
287.395;  -79.500; -197.000; -378.000
287.535;  -90.200; -370.000; -298.000
287.674; -132.200; -509.000; -484.000
287.813;  128.900;  661.000;  533.000
287.952; -256.800;-1010.000; -871.000
288.091; -304.300;-1049.000; -915.000
288.231;   48.500;   13.000;   15.000
288.370; -329.300;-1217.000;-1200.000
288.509; -174.200; -728.000; -645.000
288.648; -172.300; -770.000; -548.000
288.787;  -53.900; -243.000;  -87.000
288.926; -126.500; -454.000; -475.000
289.065;  241.000;  859.000;  672.000
289.204;  -79.900; -377.000; -217.000
289.344; -193.100; -791.000; -690.000
289.483;   73.700;  416.000;  304.000
289.622;  -30.400; -291.000; -149.000
289.761;  -23.300; -309.000; -166.000
289.900; -214.500; -785.000; -626.000
290.039;  -32.900;  -12.000;  -95.000
290.178;  -57.200; -274.000; -180.000
290.317; -141.300; -618.000; -479.000
290.456; -116.700; -463.000; -451.000
290.595; -282.600; -961.000; -833.000
290.734; -263.300; -904.000; -891.000
290.873; -138.900; -456.000; -420.000
291.011; -237.200; -833.000; -843.000
291.150; -238.200; -770.000; -682.000
291.289;  -53.800; -343.000; -110.000
291.428; -142.000; -599.000; -480.000
291.567;  -82.300; -370.000; -442.000
291.706;   -5.700;  109.000;  154.000
291.845; -159.000; -597.000; -505.000
291.984; -322.400;-1234.000;-1061.000
292.122;  147.700;  602.000;  582.000
292.261;  116.500;  620.000;  463.000
292.400;   49.000; -144.000;  211.000
292.539; -227.200; -959.000; -813.000
292.678;  -50.700; -325.000; -300.000
292.816; -300.100;-1136.000; -965.000
292.955; -159.800; -844.000; -684.000
293.094;  -27.000; -173.000; -337.000
293.233;  -94.300; -556.000; -400.000
293.371;  -57.500; -225.000;  -84.000
293.510; -218.400; -866.000; -780.000
293.649; -241.100; -959.000; -924.000
293.787; -188.800;-1083.000;-1012.000
293.926;    4.700; -113.000;  -32.000
294.065;  -80.000; -379.000; -290.000
294.203;  123.600;  298.000;  406.000
294.342;   60.300;   74.000;  156.000
294.481;12317.900;51180.000; -836.000
294.619;  -23.700; -425.000; -582.000
294.758; -284.000;-1230.000;-1137.000
294.896;  128.200; -125.000;    5.000
295.035; -250.800;-1040.000;-1006.000
295.174; -283.000;-1082.000; -954.000
295.312;  -63.800; -323.000; -203.000
295.451;  -66.200; -307.000; -428.000
295.589; -112.600; -389.000; -518.000
295.728;   -3.800; -292.000; -165.000
295.866;    1.800;  -36.000;  -51.000
296.005; -137.400; -584.000; -341.000
296.143; -153.600; -558.000; -596.000
296.282; -224.000; -957.000; -881.000
296.420; -153.200; -657.000; -557.000
296.559; -173.000; -892.000; -633.000
296.697;  -25.100; -847.000; -665.000
296.835;  -31.100;-1141.000;-1002.000
296.974;  115.400;  -23.000;   39.000
297.112;   -5.700; -443.000; -504.000
297.251; -152.500; -815.000; -755.000
297.389;   78.600; -576.000; -438.000
297.527;   71.400; -145.000;  -83.000
297.666;  -92.900; -486.000; -438.000
297.804;  -78.200; -404.000; -264.000
297.942;    6.500; -136.000; -161.000
298.081;   31.000; -183.000;   63.000
298.219;  116.600;  -17.000;  -19.000
298.357;   73.700; -144.000;  -71.000
298.495;   -3.000; -810.000; -812.000
298.634;  110.300;  245.000;  219.000
298.772;   35.000; -220.000; -338.000
298.910;  -43.300; -309.000; -182.000
299.048;  -28.200; -130.000; -153.000
299.187;  -52.100; -350.000; -250.000
299.325;   52.400;   52.000;  122.000
299.463;   33.900; -389.000; -299.000
299.601;  103.800; -327.000; -271.000
299.739; -191.600; -908.000; -883.000
299.877; -157.100; -791.000; -703.000
300.016; -182.300;-1095.000; -935.000
300.154;  244.800;  -19.000; -161.000
300.292;   26.100; -428.000; -348.000
300.430;   34.600; -408.000; -291.000
300.568; -183.600; -940.000; -874.000
300.706;  -75.200; -366.000; -469.000
300.844; -190.900;-1108.000; -979.000
300.982;  201.700;  246.000;  282.000
301.120; -211.200; -965.000; -866.000
301.258; -164.200; -812.000; -705.000
301.396;   72.300;  104.000;  -41.000
301.534;   65.400; -218.000; -293.000
301.672;  -35.000; -664.000; -521.000
301.810;  -13.900; -613.000; -545.000
301.948;  215.200;   53.000;  149.000
302.086;  746.700; -250.000;  -32.000
302.224; 1206.800; -610.000; -585.000
302.362;   36.100; -558.000; -622.000
302.500; -116.000; -923.000; -893.000
302.638;  195.300;  128.000;  245.000
302.776;   -6.300; -352.000; -408.000
302.913;  123.200;  447.000;  236.000
303.051;   -9.800;  -86.000;  -23.000
303.189;   87.800;   90.000;  118.000
303.327;  -58.500; -341.000; -256.000
303.465; -160.700; -832.000; -588.000
303.603; -171.900; -805.000; -604.000
303.740;  151.700;  417.000;  241.000
303.878;  -39.400; -800.000; -759.000
304.016; -174.300; -915.000; -790.000
304.154; -275.300;-1123.000;-1152.000
304.291;  -97.700; -505.000; -554.000
304.429;   18.300;  102.000;   74.000
304.567; -250.600; -908.000; -893.000
304.705;  -86.100; -408.000; -515.000
304.842;   97.600; -616.000; -540.000
304.980;  125.100;  215.000;   35.000
305.118;   14.300; -367.000; -365.000
305.255; -156.200; -945.000; -927.000
305.393;  114.300;  178.000;  239.000
305.531; -215.800;-1173.000; -956.000
305.668; -138.500; -663.000; -582.000
305.806;  103.900; -358.000; -439.000
305.943;   86.200; -629.000; -637.000
306.081;   70.000; -378.000; -267.000
306.219; -206.100; -863.000; -748.000
306.356;   32.800;  158.000;   27.000
306.494;  276.900;  981.000;  761.000
306.631;   40.200;  -11.000;  -55.000
306.769;  -17.600; -613.000; -485.000
306.906;  -43.400; -284.000; -258.000
307.044;  -98.400; -473.000; -488.000
307.181;  -91.300; -410.000; -332.000
307.319;   26.700;  112.000;   87.000
307.456; -316.300;-1191.000;-1153.000
307.594; -218.700; -980.000; -727.000
307.731;   -8.700; -371.000; -164.000
307.868;   32.100;  -15.000;   20.000
308.006; -261.200; -961.000; -847.000
308.143; -117.200; -618.000; -330.000
308.281;  271.300;  -37.000; -254.000
308.418;  -24.200; -748.000; -640.000
308.555; -104.400; -400.000; -250.000
308.693; -155.700; -577.000; -573.000
308.830; -168.700; -712.000; -657.000
308.967;   19.200; -215.000;  -95.000
309.105;  -38.600; -507.000; -396.000
309.242;   66.800; -468.000; -367.000
309.379;  599.500; -577.000; -655.000
309.517; -113.500; -936.000; -948.000
309.654; -178.800; -910.000; -734.000
309.791; -118.600; -662.000; -580.000
309.928; -218.200; -977.000; -914.000
310.065;  334.800;  819.000;  697.000
310.203;  -93.200; -825.000; -850.000
310.340;  -54.300; -465.000; -321.000
310.477; -126.200; -412.000; -516.000
310.614;  -92.800; -383.000; -473.000
310.751; -123.100; -427.000; -518.000
310.889;   -8.200;    1.000;   11.000
311.026; -260.800;-1161.000; -939.000
311.163;  -82.900; -386.000; -380.000
311.300; -127.900; -512.000; -479.000
311.437; -134.800; -658.000; -619.000
311.574; -295.500;-1226.000; -985.000
311.711; -115.000; -595.000; -433.000
311.848;  -53.800; -380.000; -388.000
311.985;   48.000;  270.000;   93.000
312.122; -235.000; -932.000; -762.000
312.259; -209.700; -941.000; -994.000
312.396; -115.200; -508.000; -551.000
312.533; -134.300; -812.000; -790.000
312.670; -254.500;-1070.000; -898.000
312.807;  -31.900; -352.000; -367.000
312.944; -101.000; -513.000; -611.000
313.081;  -53.000; -150.000; -415.000
313.218; -214.900;-1111.000; -867.000
313.355;   29.100; -531.000; -449.000
313.492;  -13.500; -455.000; -292.000
313.629;  241.600;  815.000;  735.000
313.766; -284.100;-1176.000;-1008.000
313.902;    2.000; -186.000;   21.000
314.039;  -43.500; -372.000; -289.000
314.176;   58.800;  286.000;  192.000
314.313; -122.400; -569.000; -473.000
314.450; -135.200; -788.000; -684.000
314.587; -137.100; -468.000; -480.000
314.723;   32.500;  -78.000;  130.000
314.860;   69.100;  318.000;  332.000
314.997;  100.700;  223.000;  142.000
315.134;  -47.700; -385.000; -368.000
315.270;  -63.500; -480.000; -496.000
315.407; -236.500;-1094.000; -967.000
315.544; -114.500; -657.000; -538.000
315.681; -129.300; -681.000; -565.000
315.817;   41.900; -133.000; -176.000
315.954;  -13.800; -613.000; -392.000
316.091; -249.100;-1045.000;-1023.000
316.227;  -30.900;  -71.000; -179.000
316.364;   23.700;   23.000;    6.000
316.500;  -73.000; -113.000; -300.000
316.637;  -73.100; -181.000; -302.000
316.774; -140.300; -625.000; -358.000
316.910; -144.900; -598.000; -629.000
317.047;  -72.200; -487.000; -351.000
317.183;  -63.900; -435.000; -566.000
317.320;  -45.100; -367.000; -321.000
317.456; -137.900; -733.000; -805.000
317.593; -162.000; -598.000; -641.000
317.729;   35.100;  168.000;  -67.000
317.866; -371.400;-1434.000;-1285.000
318.002; -170.400; -708.000; -948.000
318.139; -211.100; -883.000; -867.000
318.275; -196.800;-1003.000; -738.000
318.412;  -76.700; -517.000; -336.000
318.548;  -63.800; -751.000; -720.000
318.685; -205.300; -985.000; -888.000
318.821; -160.400; -762.000; -735.000
318.957;  -21.800;   34.000;  -23.000
319.094;  109.400;  297.000;  154.000
319.230; -121.700; -756.000; -742.000
319.367;  159.300; -471.000; -520.000
319.503;   94.800; -538.000; -436.000
319.639; -188.200; -877.000; -793.000
319.775; -126.700; -750.000; -685.000
319.912;  -94.100; -424.000; -519.000
320.048; -206.800;-1184.000;-1184.000
320.184;  171.800;   59.000;   70.000
320.321;  -97.700; -497.000; -467.000
320.457;  202.300;  475.000;  662.000
320.593; -131.400; -375.000; -382.000
320.729; -185.600; -732.000; -734.000
320.866; -121.000; -577.000; -635.000
321.002; -162.800; -759.000; -809.000
321.138;    1.700; -135.000; -211.000
321.274;  112.600; -148.000; -115.000
321.410;  -57.800; -585.000; -353.000
321.546; -110.700;-1011.000; -911.000
321.683;  132.400;  400.000;  185.000
321.819;   17.700;  -48.000; -117.000
321.955; -184.100; -743.000; -722.000
322.091;  -65.500; -585.000; -540.000
322.227;  -26.200; -382.000; -202.000
322.363;  -20.500; -320.000; -215.000
322.499;  -70.700; -343.000; -331.000
322.635;  291.700;  636.000;  443.000
322.771;   39.500; -139.000;   12.000
322.907;  179.900;  129.000;  327.000
323.043;   -0.500; -115.000; -206.000
323.179;  -81.500; -394.000; -363.000
323.315;   -1.500; -401.000; -371.000
323.451;  112.700; -328.000; -236.000
323.587;  150.700;  -60.000;  -77.000
323.723;  -24.700; -682.000; -601.000
323.859;  -40.200; -258.000;  -76.000
323.995;  -53.200; -467.000; -409.000
324.131; -236.400; -967.000; -892.000
324.267;  -87.600; -254.000; -276.000
324.402; -227.300; -960.000; -983.000
324.538;  -36.200; -279.000; -104.000
324.674;   41.900;  164.000;   77.000
324.810;  239.700;  226.000;  308.000
324.946;    3.100; -810.000; -658.000
325.082; -118.700; -568.000; -475.000
325.217;  -13.400;  -62.000;   16.000
325.353; -181.800; -764.000; -659.000
325.489; -149.500; -540.000; -506.000
325.625; -129.100; -579.000; -525.000
325.760;  132.900;  517.000;  376.000
325.896;  -40.200; -515.000; -702.000
326.032;  -67.900; -403.000; -352.000
326.168;  -93.000; -462.000; -369.000
326.303; -109.500; -352.000; -461.000
326.439;   10.200; -336.000; -276.000
326.575;   33.900; -190.000;  -29.000
326.710;   16.400; -156.000;  -30.000
326.846;   49.200;  146.000;  103.000
326.982; -169.500; -530.000; -548.000
327.117; -134.800; -481.000; -442.000
327.253; -163.600; -745.000; -742.000
327.388; -246.200;-1137.000;-1153.000
327.524; -107.800; -811.000; -578.000
327.659;  -32.000;  -58.000;  -22.000
327.795;    6.000;   69.000;   45.000
327.931; -143.000; -723.000; -499.000
328.066;  -29.000; -417.000; -276.000
328.202;   -6.800;   12.000; -129.000
328.337;  244.900;  957.000;  713.000
328.473;   29.900;  -12.000;  -74.000
328.608;   -1.300; -256.000; -267.000
328.743; -176.000; -799.000; -664.000
328.879;   79.500;  214.000;  114.000
329.014; -101.700; -102.000; -122.000
329.150; -149.100; -358.000; -483.000
329.285; -129.400; -465.000; -466.000
329.421;  -49.700; -548.000; -246.000
329.556;   13.600;  -36.000;   85.000
329.691; -186.700; -633.000; -615.000
329.827; -141.500; -626.000; -480.000
329.962;  -16.600;  131.000; -301.000
330.097; -169.300; -673.000; -585.000
330.233;  -54.400; -410.000; -223.000
330.368; -214.200; -839.000; -628.000
330.503;   14.800;    3.000;   98.000
330.638;   24.700;  -93.000; -125.000
330.774; -104.800; -609.000; -530.000
330.909;  -48.300; -434.000; -244.000
331.044; -165.800; -714.000; -708.000
331.179; -293.900;-1217.000;-1109.000
331.315;   33.900;   77.000;   20.000
331.450;   77.600;  157.000;  285.000
331.585; -147.100; -805.000; -706.000
331.720; -145.600; -510.000; -460.000
331.855;    8.800;  -35.000; -102.000
331.990;  432.700;   62.000;  138.000
332.126;  248.700; -110.000;   71.000
332.261;  -34.800; -379.000; -265.000
332.396;   10.800; -135.000; -242.000
332.531; -181.400;-1074.000;-1031.000
332.666;   38.700; -519.000; -363.000
332.801; -175.300; -726.000; -807.000
332.936;   -8.000; -192.000; -122.000
333.071; -293.500; -870.000; -817.000
333.206;   51.500;  307.000;  379.000
333.341;   92.900;  344.000;  418.000
333.476; -149.900; -627.000; -623.000
333.611;  -55.200; -251.000; -173.000
333.746;  -48.600; -381.000; -464.000
333.881; -233.800; -973.000; -935.000
334.016; -211.500; -936.000; -917.000
334.151; -223.400; -746.000; -702.000
334.286;   78.200;  152.000;  186.000
334.421;  -13.100; -125.000; -178.000
334.556; -166.200; -611.000; -567.000
334.690; -151.600; -631.000; -577.000
334.825;  120.600;  381.000;   83.000
334.960;  -83.900; -285.000; -413.000
335.095;   27.700;  135.000;  -91.000
335.230; -193.100; -722.000; -738.000
335.365; -253.300;-1084.000; -990.000
335.499; -273.600;-1108.000;-1037.000
335.634;   46.900;    9.000;  534.000
335.769; -181.800; -755.000; -720.000
335.904; -122.400; -603.000; -561.000
336.038; -125.300; -735.000; -657.000
336.173; -283.200;-1206.000;-1194.000
336.308;   -4.600; -116.000; -189.000
336.443;   20.200; -544.000; -634.000
336.577; -190.800; -936.000; -787.000
336.712;  118.900;   -4.000;  -12.000
336.847; -113.400; -724.000; -607.000
336.981;   50.500; -272.000; -208.000
337.116;  412.700;  615.000;  501.000
337.250;  163.000; -434.000; -421.000
337.385;  406.100; -297.000; -208.000
337.520;  129.000; -632.000; -603.000
337.654;  -31.300; -215.000; -126.000
337.789; -228.900; -989.000; -933.000
337.923;  -23.600; -104.000; -205.000
338.058; -167.300; -673.000; -738.000
338.192;  -48.600; -611.000; -488.000
338.327;    7.000;  -18.000; -155.000
338.461; -112.400; -299.000; -469.000
338.596; -166.600; -780.000; -638.000
338.730; -186.200; -767.000; -803.000
338.865;  195.200;  -46.000; -140.000
338.999;  -88.100; -846.000; -702.000
339.134;  -56.000; -634.000; -536.000
339.268;    0.100; -741.000; -603.000
339.403;  524.100; -740.000; -775.000
339.537;  187.300; -894.000; -820.000
339.671; -193.100; -829.000; -813.000
339.806; -105.500; -556.000; -512.000
339.940;   68.900; -261.000; -235.000
340.074; -158.700; -685.000; -510.000
340.209;  -67.200; -351.000; -230.000
340.343; -148.100; -517.000; -573.000
340.477;  355.300;  998.000; 1036.000
340.612; -115.400;-1033.000; -900.000
340.746;  253.200; -199.000; -243.000
340.880; -118.100; -924.000; -785.000
341.014;  -36.200;  -45.000; -154.000
341.149; -182.400; -756.000; -718.000
341.283; -201.600; -839.000; -754.000
341.417; -223.400;-1124.000; -938.000
341.551;   85.000; -768.000; -708.000
341.685;  -61.900; -633.000; -611.000
341.820; -113.800; -562.000; -493.000
341.954;  -45.600; -218.000; -349.000
342.088; -251.200;-1102.000;-1019.000
342.222;  121.600;  565.000;  618.000
342.356; -121.200; -395.000; -335.000
342.490; -190.600; -880.000; -841.000
342.624;  -71.600; -339.000; -242.000
342.758;   -0.700; -364.000; -312.000
342.892; -118.000; -710.000; -585.000
343.026;  -53.100;  -58.000; -116.000
343.160;  -85.300; -426.000; -376.000
343.294; -125.900; -474.000; -337.000
343.428;  -68.800; -488.000; -448.000
343.562;    0.100; -172.000;  -23.000
343.696;  -57.100; -385.000; -314.000
343.830;  -56.100; -362.000; -356.000
343.964;   51.200; -231.000; -168.000
344.098; 1226.900;  199.000;   70.000
344.232;  978.100; -266.000; -127.000
344.366;  136.500; -567.000; -453.000
344.500;   41.800; -665.000; -744.000
344.634;   62.600; -324.000; -164.000
344.768;  -65.000; -531.000; -341.000
344.902;   70.500;  278.000;  256.000
345.035; -114.100; -556.000; -496.000
345.169; -231.100; -933.000; -656.000
345.303;  -44.600; -308.000; -482.000
345.437; -155.700; -826.000; -717.000
345.571; -131.600; -675.000; -594.000
345.704; -124.800; -309.000; -532.000
345.838;   -9.400; -331.000; -284.000
345.972;  -55.200; -543.000; -495.000
346.106;  237.000; -179.000; -190.000
346.239;  607.000; -312.000; -243.000
346.373;  -22.500; -343.000; -302.000
346.507; -265.100; -950.000; -962.000
346.640;  224.400;  -30.000;   13.000
346.774; -115.400; -650.000; -797.000
346.908;   14.700; -138.000;  -11.000
347.041; -175.900; -646.000; -593.000
347.175;   25.600;  259.000;   27.000
347.309; -121.200; -698.000; -628.000
347.442; -192.900; -883.000; -732.000
347.576;  461.400;  670.000;  668.000
347.709;  250.500; -123.000;  -52.000
347.843; -169.000; -933.000; -825.000
347.976;  129.500;  235.000;  294.000
348.110; -345.000;-1268.000;-1186.000
348.243; -179.100; -679.000; -772.000
348.377;   52.300;  -26.000;   60.000
348.510;  145.900;  403.000;  540.000
348.644;  -47.500;  -37.000; -159.000
348.777;   29.900;  180.000;  191.000
348.911;  -27.100; -142.000; -112.000
349.044;  309.200;  471.000;  448.000
349.178;  111.300;-1069.000;-1006.000
349.311;  182.700;  141.000;  255.000
349.444;    2.000; -927.000; -813.000
349.578;  -15.800; -347.000; -200.000
349.711; -189.200; -959.000; -862.000
349.845;  -35.000; -661.000; -591.000
349.978; -269.000;-1224.000;-1137.000
350.111; -163.800; -546.000; -612.000
350.244; -173.800; -596.000; -700.000
350.378;   -8.400; -392.000; -393.000
350.511; -132.300; -393.000; -426.000
350.644; -197.300; -808.000; -806.000
350.778;   52.000;  168.000;  104.000
350.911;   50.100;  134.000;  140.000
351.044; -167.400; -685.000; -615.000
351.177;  -57.500; -321.000; -281.000
351.310;    7.700;    3.000; -131.000
351.444; -147.300; -888.000; -788.000
351.577;  221.500;  140.000;   90.000
351.710;  236.400;  593.000;  417.000
351.843;  -56.300; -165.000;  -77.000
351.976;   18.300;  149.000;  -79.000
352.109; -158.700; -621.000; -612.000
352.242;  -64.400; -464.000; -419.000
352.376; -122.700; -580.000; -636.000
352.509;  192.100; -437.000; -356.000
352.642;  -84.600; -654.000; -604.000
352.775;   72.000; -141.000;  -98.000
352.908; -207.500; -933.000; -904.000
353.041; -200.000; -814.000; -824.000
353.174;  -94.500; -551.000; -424.000
353.307; -155.200; -753.000; -764.000
353.440;  134.800;  541.000;  453.000
353.573; -206.100; -957.000;-1008.000
353.706;  -58.100; -384.000; -558.000
353.839;  -28.800; -264.000; -220.000
353.971; -163.000; -657.000; -512.000
354.104; -189.300; -896.000; -835.000
354.237;  -89.900; -627.000; -662.000
354.370; -167.700; -846.000; -879.000
354.503; -350.100;-1231.000;-1308.000
354.636;  -62.100; -529.000; -348.000
354.769; -247.100; -937.000; -860.000
354.902;  -13.000; -230.000; -139.000
355.034;   -7.800; -164.000; -220.000
355.167;  -44.100; -262.000; -162.000
355.300; -196.900;-1061.000; -880.000
355.433; 1555.400;  -71.000;  -14.000
355.565; 2353.100; -402.000; -384.000
355.698;  557.100; -356.000; -296.000
355.831;  -65.700; -882.000; -801.000
355.964;  134.800; -285.000; -170.000
356.096; -159.000; -856.000; -843.000
356.229;  -51.500; -523.000; -530.000
356.362;  492.900; -373.000; -266.000
356.494;  937.200; -229.000; -162.000
356.627;  656.200;  269.000;  377.000
356.760; 1017.600;  120.000;   53.000
356.892; 1489.400; -286.000; -601.000
357.025;  886.400;  403.000;  389.000
357.157;  764.000; -167.000; -179.000
357.290; 1113.700; -856.000; -713.000
357.423;  302.700; -667.000; -556.000
357.555;  123.800; -217.000; -228.000
357.688;  180.100; -483.000; -364.000
357.820;  500.700; -870.000; -877.000
357.953; 4890.800; -563.000; -589.000
358.085;  976.400; -632.000; -612.000
358.218; 1285.000;-1131.000; -932.000
358.350;  284.200;  -58.000;  312.000
358.483; -269.900;-1300.000;-1187.000
358.615; -135.800;-1182.000;-1078.000
358.747; -162.600;-1187.000;-1058.000
358.880;   15.100; -810.000; -744.000
359.012;  -22.400; -376.000; -202.000
359.145;  -83.400; -480.000; -511.000
359.277;  -11.600; -962.000; -913.000
359.409; 4094.800;  536.000;  231.000
359.542;  962.200; -738.000; -688.000
359.674;  153.700;   46.000;   13.000
359.806;  -93.300; -565.000; -438.000
359.939;  -70.400; -617.000; -516.000
360.071;  -39.300; -583.000; -579.000
360.203;  -30.700; -411.000; -364.000
360.335;  127.200;  164.000;  -16.000
360.468;  273.200; -249.000; -307.000
360.600; 3347.500; -547.000; -454.000
360.732; 4477.200; -546.000; -423.000
360.864;  547.700;-1216.000;-1044.000
360.996;  309.300; -516.000; -554.000
361.129;   45.200; -389.000; -598.000
361.261;   55.600;  110.000; -113.000
361.393;   -1.000; -252.000; -214.000
361.525;   83.600;   94.000;  244.000
361.657;  -98.300; -821.000; -703.000
361.789;    5.400; -139.000; -155.000
361.921;  236.500; -642.000; -593.000
362.053;  391.000;  524.000;  541.000
362.185;  113.600;  288.000;   72.000
362.318; -149.000; -709.000; -705.000
362.450;  203.700;  294.000;  444.000
362.582;   10.100; -913.000; -870.000
362.714;  -25.000; -353.000; -332.000
362.846; -132.200; -606.000; -490.000
362.978; -257.700; -941.000; -811.000
363.109;  101.200; -161.000; -260.000
363.241;  488.500; -739.000; -749.000
363.373;  623.300; -649.000; -564.000
363.505; 1074.300; -186.000;  -91.000
363.637;  232.600; -787.000; -601.000
363.769; -229.800;-1067.000;-1080.000
363.901; -106.200; -596.000; -654.000
364.033; -227.100;-1103.000;-1062.000
364.165;  -10.100; -283.000; -283.000
364.296;  151.600; -316.000; -177.000
364.428;   71.400;-1344.000;-1220.000
364.560;  -80.400; -679.000; -661.000
364.692; -112.600; -738.000; -835.000
364.824;  287.800; -588.000; -456.000
364.955;  666.900; -402.000; -564.000
365.087; 1477.500;-1097.000; -852.000
365.219;   38.300; -686.000; -816.000
365.351; -104.600; -526.000; -572.000
365.482;  136.100;  300.000;  240.000
365.614;  -81.100; -402.000; -314.000
365.746; -162.900; -729.000; -752.000
365.877; -180.900; -706.000; -672.000
366.009;  430.600;  -35.000;  -62.000
366.141; -176.000;-1249.000;-1134.000
366.272; -191.800; -803.000; -719.000
366.404; -224.600;-1005.000; -874.000
366.535;    1.900; -139.000;  -12.000
366.667; -142.600; -644.000; -649.000
366.799;  120.500;  353.000;  203.000
366.930; -219.800; -862.000; -996.000
367.062;  173.900; -639.000; -613.000
367.193;  240.300; -872.000; -842.000
367.325; -132.500; -580.000; -684.000
367.456;   81.200; -246.000;   31.000
367.588;  283.000; -371.000; -318.000
367.719;   92.500;  -44.000;  -45.000
367.851;  -31.300; -222.000; -241.000
367.982; -106.400; -875.000; -732.000
368.113;  131.300; -475.000; -358.000
368.245; -245.200; -960.000; -841.000
368.376;  -13.400; -254.000; -302.000
368.508;  -56.900; -188.000; -263.000
368.639; -268.100;-1166.000;-1034.000
368.770;  -62.900; -670.000; -589.000
368.902; -135.700; -836.000; -926.000
369.033; -174.200; -906.000; -855.000
369.164;  -99.100; -720.000; -653.000
369.296; -174.100; -452.000; -601.000
369.427;   28.100; -209.000; -144.000
369.558;  -59.500; -593.000; -377.000
369.689; -137.300; -721.000; -569.000
369.821; -228.000; -951.000; -845.000
369.952;  -20.100;   42.000; -108.000
370.083;  -76.900; -229.000; -108.000
370.214; -170.500; -735.000; -650.000
370.345;   28.200;   65.000;   81.000
370.477; -151.100; -810.000; -790.000
370.608;  305.100; -328.000; -264.000
370.739; -204.700;-1233.000;-1292.000
370.870; -145.700;-1102.000; -923.000
371.001;  113.800; -378.000; -467.000
371.132; -130.600; -754.000; -735.000
371.263;  -20.400;  -42.000; -148.000
371.394; -230.500; -841.000; -748.000
371.525;   84.900;  345.000;  225.000
371.657; -187.600; -808.000; -670.000
371.788;  118.400;  103.000;  199.000
371.919;  237.200; -384.000; -304.000
372.050; 4922.000;  -91.000; -156.000
372.181; 1391.900; -188.000; -294.000
372.311;  513.500;   42.000; -127.000
372.442;   21.700; -457.000; -451.000
372.573;  -23.800; -444.000; -340.000
372.704; -240.200;-1008.000; -980.000
372.835;  137.400; -228.000; -289.000
372.966;  -86.300; -646.000; -554.000
373.097; -120.500; -575.000; -711.000
373.228;  -90.600; -717.000; -542.000
373.359;  118.000; -824.000; -536.000
373.490; 1198.700; -881.000; -727.000
373.620; 1398.900;-1001.000; -803.000
373.751; 2269.100; -332.000; -396.000
373.882;  938.700; -663.000; -733.000
374.013;   84.200; -449.000; -262.000
374.143;  -56.900; -581.000; -659.000
374.274; -209.400; -987.000; -908.000
374.405;  253.100; -388.000; -276.000
374.536;  557.300; -526.000; -387.000
374.666; 1359.900; -759.000; -807.000
374.797;  229.800; -817.000; -868.000
374.928; 1022.000; -710.000; -560.000
375.058; 1091.400; -535.000; -500.000
375.189;  129.900;  -59.000;  -93.000
375.320; -210.600; -928.000;-1034.000
375.450;  -81.300; -625.000; -616.000
375.581;  -65.000; -526.000; -436.000
375.712;  -36.700; -574.000; -250.000
375.842;  347.400; -438.000; -415.000
375.973;  229.100; -554.000; -513.000
376.103;  -98.700; -665.000; -648.000
376.234; -147.700; -531.000; -552.000
376.364; -100.300; -944.000; -867.000
376.495;  527.300;  925.000;  529.000
376.625;  -33.400; -472.000; -485.000
376.756;   34.000; -709.000; -678.000
376.886; -211.000;-1178.000;-1026.000
377.017;   79.200;-1048.000;-1061.000
377.147;  551.000; -786.000; -782.000
377.278;  142.300;  174.000;  228.000
377.408; -216.500; -801.000; -815.000
377.538; -167.100; -707.000; -693.000
377.669; -120.000; -537.000; -613.000
377.799; -155.900; -645.000; -635.000
377.929;  -90.200; -610.000; -428.000
378.060; -216.100; -781.000; -847.000
378.190;  -67.300; -726.000; -531.000
378.320;  -83.700; -401.000; -406.000
378.451;   14.600; -131.000;  -22.000
378.581;   30.100;  -67.000; -110.000
378.711;  319.200; 1035.000;  866.000
378.841;  -48.300; -533.000; -675.000
378.972; -115.700; -871.000; -751.000
379.102;  -29.300; -652.000; -579.000
379.232;  -29.500; -126.000;  -73.000
379.362; -203.000;-1001.000; -885.000
379.492;  -62.200; -373.000; -424.000
379.623;  185.900;    0.000;  111.000
379.753; -207.200;-1107.000; -974.000
379.883;  334.200;   59.000;  156.000
380.013;  -62.700;-1081.000;-1017.000
380.143; -256.500;-1097.000;-1056.000
380.273; -191.600; -985.000; -861.000
380.403;  -35.500; -344.000; -257.000
380.533;  -91.400; -651.000; -664.000
380.663;  146.200;  173.000;  128.000
380.793; -205.600;-1027.000;-1074.000
380.923;   -1.100; -103.000;  -34.000
381.053; -138.900; -613.000; -623.000
381.183;  -15.100; -106.000; -248.000
381.313;   52.000; -656.000; -470.000
381.443;   40.800; -692.000; -473.000
381.573;  197.400; -402.000; -409.000
381.703;  239.500;-1249.000;-1095.000
381.833; -267.500;-1454.000;-1336.000
381.963;  206.300; -134.000;  -87.000
382.093; 1788.900; -925.000; -909.000
382.223;  482.500; -713.000; -602.000
382.353;  -72.400; -801.000; -608.000
382.482;  382.600;-1091.000; -964.000
382.612;  914.300; -872.000; -644.000
382.742;  507.200; -695.000; -622.000
382.872;  291.100; -565.000; -551.000
383.002;   85.100;  347.000; -132.000
383.131;   -5.300; -226.000; -160.000
383.261;  -70.400; -706.000; -768.000
383.391;  422.400; -552.000; -377.000
383.521; 5242.400;  451.000;  263.000
383.650; 1109.600; -947.000; -904.000
383.780;  -74.900; -783.000; -656.000
383.910;  254.000;  880.000;  802.000
384.039;  -59.700; -794.000; -656.000
384.169;  173.400;-1205.000;-1017.000
384.299;  -76.700; -650.000; -662.000
384.428; -151.800; -764.000; -680.000
384.558;  -78.300; -308.000; -275.000
384.687;  -37.200; -414.000; -334.000
384.817;   49.700;   75.000;   -2.000
384.947;   12.700; -234.000; -141.000
385.076;  486.200;  982.000;  912.000
385.206;  246.000;  369.000;  480.000
385.335;  -82.100; -549.000; -417.000
385.465; -146.500; -655.000; -663.000
385.594;  187.000;  -53.000;  -44.000
385.724;  461.200; -868.000; -838.000
385.853;  127.800; -296.000; -270.000
385.982; 1860.000; -743.000; -787.000
386.112; 2657.300;-1052.000; -871.000
386.241;  156.600; -307.000; -312.000
386.371;   52.900; -174.000;  -87.000
386.500;  -43.900; -825.000; -789.000
386.629;   17.700; -874.000; -817.000
386.759;  114.100;  -43.000;   68.000
386.888;   10.300; -170.000; -250.000
387.017; -129.200; -648.000; -620.000
387.147; -160.500; -771.000; -798.000
387.276;  -27.600; -410.000; -397.000
387.405;    9.500; -398.000; -342.000
387.535;  -72.800; -452.000; -361.000
387.664; -103.500; -692.000; -620.000
387.793;  101.500; -198.000; -113.000
387.922;  681.800;  255.000;  200.000
388.052;  -14.600; -576.000; -423.000
388.181;   -5.000; -342.000; -472.000
388.310;  -53.200; -889.000; -710.000
388.439;  -98.600; -749.000; -742.000
388.568;  291.200;  365.000;  244.000
388.697; 1299.900; -756.000; -653.000
388.826;  204.100; -768.000; -666.000
388.956;   53.700; -285.000; -307.000
389.085;  -37.900; -347.000; -287.000
389.214; -176.900; -842.000; -872.000
389.343;  -95.300; -645.000; -413.000
389.472;  741.500;  126.000;  149.000
389.601;  812.300;   91.000;    0.000
389.730;  -13.200; -568.000; -687.000
389.859;  143.000;  226.000;   46.000
389.988;  248.600; -423.000; -408.000
390.117;  208.000; -168.000; -146.000
390.246;  -24.700; -331.000; -320.000
390.375;  102.000; -673.000; -626.000
390.504;  -82.300; -703.000; -621.000
390.633; -160.900; -672.000; -726.000
390.761; -128.800; -732.000; -645.000
390.890;   37.800;   -4.000; -130.000
391.019;  -64.700; -421.000; -441.000
391.148; -212.500; -826.000; -855.000
391.277; -110.800; -576.000; -493.000
391.406; -149.900; -821.000; -805.000
391.534;   81.500;  574.000; -301.000
391.663;  -94.200; -583.000; -645.000
391.792; -178.300; -673.000; -701.000
391.921;  155.900;   -3.000;   15.000
392.050;  257.000; -287.000; -228.000
392.178; -156.300;-1206.000;-1061.000
392.307;  137.200; -758.000; -712.000
392.436;   21.500; -427.000; -641.000
392.564;   76.900;  166.000;   -6.000
392.693; -148.400; -860.000; -682.000
392.822;  205.900; -529.000; -534.000
392.950;   78.500; -880.000; -714.000
393.079;  390.100; -188.000; -328.000
393.208;   21.100; -488.000; -511.000
393.336;   11.500; -170.000; -145.000
393.465;  -42.900; -317.000; -199.000
393.593;   34.400;   62.000;   79.000
393.722; -264.200;-1121.000; -916.000
393.850;  -18.600; -188.000;  -61.000
393.979; -274.000; -926.000; -805.000
394.107;  -93.600; -517.000; -537.000
394.236;  -48.500; -570.000; -507.000
394.364;  456.200;  383.000;  206.000
394.493;  669.300; -911.000; -767.000
394.621;  -52.400; -955.000; -916.000
394.750; 1142.300; -873.000; -923.000
394.878; 4725.200; -247.000; -149.000
395.007; 5986.100; -721.000; -807.000
395.135;  392.300; -790.000; -721.000
395.263; -154.000;-1038.000;-1040.000
395.392;   37.800;  -25.000; -107.000
395.520; -185.900; -818.000; -679.000
395.648; -190.000; -865.000; -915.000
395.777;  -11.700; -366.000; -405.000
395.905;  -69.700; -449.000; -564.000
396.033;   85.900;  217.000;  172.000
396.162; 1139.800; -399.000; -453.000
396.290;  913.900;  -17.000;   -2.000
396.418;  104.500; -555.000; -514.000
396.546; -130.400; -571.000; -466.000
396.674; -201.100; -850.000; -878.000
396.803;   45.300;  -72.000;  -23.000
396.931;  114.200; -179.000; -199.000
397.059;  -59.000;-1026.000; -989.000
397.187; -202.200;-1026.000; -975.000
397.315; -228.200; -884.000; -649.000
397.443; -145.300; -592.000; -443.000
397.572; -147.600; -578.000; -424.000
397.700;  -31.100; -607.000; -614.000
397.828;   38.800;  120.000;  -90.000
397.956;  -84.000; -508.000; -478.000
398.084; -125.700; -767.000; -626.000
398.212;   80.700;  137.000;  124.000
398.340;   50.100;  -56.000;  159.000
398.468;   74.600; -390.000; -169.000
398.596; -220.400; -993.000; -953.000
398.724; -214.200; -762.000; -767.000
398.852; -273.800;-1024.000; -976.000
398.980; -115.100; -560.000; -560.000
399.108;  -71.500; -982.000; -735.000
399.236;   63.200;   13.000;    8.000
399.363;   80.100;  222.000;  196.000
399.491; -107.200; -404.000; -398.000
399.619; -210.500; -829.000; -800.000
399.747; -195.000; -859.000; -771.000
399.875;  174.200;  220.000;  234.000
400.003;  -79.300; -359.000; -284.000
400.130; -122.500; -421.000; -341.000
400.258;   18.300;  -83.000;   38.000
400.386;  -61.100; -352.000; -168.000
400.514;  -94.700; -526.000; -587.000
400.641; -188.000; -928.000; -802.000
400.769; -253.800; -979.000; -888.000
400.897; -175.500; -838.000; -793.000
401.025;   -6.900; -166.000; -152.000
401.152;   37.800;  220.000;   38.000
401.280; -114.300; -430.000; -429.000
401.408; -216.600; -712.000; -576.000
401.535; -160.900; -735.000; -758.000
401.663; -348.100;-1134.000;-1054.000
401.790; -156.900; -514.000; -525.000
401.918;  131.000;  436.000;  405.000
402.046;   36.400;  134.000;  122.000
402.173;  -11.300;  -18.000;    7.000
402.301;  -96.700; -519.000; -397.000
402.428;  135.800;  528.000;  383.000
402.556; -262.900;-1188.000; -913.000
402.683;  -11.900;  -20.000;   -1.000
402.811;   -3.200;  -37.000; -206.000
402.938;   18.000;   20.000;   27.000
403.066;  225.700; -574.000; -558.000
403.193;  429.500;  299.000;  239.000
403.321;  362.600; -396.000; -574.000
403.448;  435.400;   83.000;   27.000
403.575;  235.300;  -90.000;  -46.000
403.703; -166.900; -732.000; -557.000
403.830; -111.500; -531.000; -496.000
403.957; -227.700;-1117.000;-1023.000
404.085;   36.000;  -61.000; -172.000
404.212;  232.000;  -50.000;   63.000
404.339;  438.500; -566.000; -306.000
404.467; 9344.700; -612.000; -524.000
404.594; 5472.100; -287.000; -227.000
404.721; 1158.000; -869.000; -764.000
404.848;  115.500; -113.000; -202.000
404.976; -165.100; -856.000; -783.000
405.103;   21.500;  -14.000;  -82.000
405.230;   69.700;  190.000;  226.000
405.357;   90.200;  117.000;   44.000
405.484;  419.300;  -49.000;    5.000
405.612;   74.400; -548.000; -563.000
405.739;  -66.200; -488.000; -243.000
405.866;  230.200;  669.000;  385.000
405.993;  -70.000; -398.000; -102.000
406.120; -224.000; -801.000; -887.000
406.247;  -89.800; -323.000; -342.000
406.374;  654.800;  540.000;  629.000
406.501;   38.600; -632.000; -702.000
406.628; -137.900; -621.000; -589.000
406.755; -149.700; -803.000; -620.000
406.882;  -38.100; -228.000; -277.000
407.009; -174.800; -719.000; -628.000
407.136;   35.800; -480.000; -401.000
407.263;  110.200; -939.000; -829.000
407.390; -135.700; -692.000; -614.000
407.517; -309.000;-1139.000;-1187.000
407.644;  -67.000; -332.000; -256.000
407.771; -147.100; -249.000; -287.000
407.898;  106.100;  168.000;  328.000
408.025; -106.300; -421.000; -313.000
408.151;   39.900;   82.000;  153.000
408.278;  -64.700; -267.000; -216.000
408.405; -182.300; -931.000; -899.000
408.532;  -83.500; -549.000; -542.000
408.659; -181.700; -677.000; -648.000
408.785; -355.300;-1298.000;-1170.000
408.912;  -83.800; -412.000; -296.000
409.039; -166.700; -610.000; -686.000
409.166; -165.800; -591.000; -555.000
409.292; -187.500; -571.000; -534.000
409.419; -197.700; -665.000; -649.000
409.546; -130.400; -431.000; -192.000
409.672; -189.900; -713.000; -545.000
409.799;    5.200;  -36.000;   34.000
409.926;  -24.500; -180.000; -179.000
410.052; -302.800;-1127.000;-1091.000
410.179;  -86.300; -368.000; -392.000
410.305; -100.100; -375.000; -493.000
410.432;  -42.400; -220.000; -333.000
410.558; -148.500; -305.000; -380.000
410.685; -138.900; -688.000; -431.000
410.812; -150.200; -409.000; -588.000
410.938; -224.600; -964.000; -808.000
411.065; -146.900; -671.000; -645.000
411.191;  -14.000; -189.000; -174.000
411.317; -211.700; -823.000; -742.000
411.444;  -86.600; -317.000; -246.000
411.570; -111.900; -339.000; -294.000
411.697; -171.900; -758.000; -752.000
411.823; -293.500; -989.000; -999.000
411.949;  -50.300;  -56.000;   17.000
412.076; -164.000; -539.000; -519.000
412.202; -198.400; -758.000; -757.000
412.329; -194.900; -798.000; -752.000
412.455; -189.800; -821.000; -657.000
412.581;   35.800;  -15.000;  172.000
412.707; -117.500; -540.000; -457.000
412.834;   48.000;  156.000;  219.000
412.960; -152.500; -785.000; -784.000
413.086; -171.500; -743.000; -701.000
413.212;  268.400;  604.000;  578.000
413.339; -145.700; -685.000; -701.000
413.465;  -16.200; -364.000; -310.000
413.591; -152.300; -757.000; -474.000
413.717;  -77.300; -358.000; -366.000
413.843; -225.100; -839.000; -861.000
413.969;  -83.200;  -47.000; -292.000
414.096; -160.600; -679.000; -679.000
414.222;   24.700;  -33.000;   85.000
414.348;  -67.000; -652.000; -385.000
414.474;  133.200;   38.000;  -52.000
414.600;  -20.600; -126.000; -144.000
414.726;   22.200;  -96.000;  -55.000
414.852;  -88.400; -365.000; -342.000
414.978;   92.300;  104.000;  -18.000
415.104;  144.500;   38.000;   80.000
415.230;   29.400; -329.000; -330.000
415.356;   84.300; -409.000; -514.000
415.482;  314.000;   13.000;  -35.000
415.608;  458.100; -247.000; -323.000
415.734; 1586.900;   67.000;   38.000
415.860;32355.100; -875.000; -767.000
415.986;21084.600; -685.000; -607.000
416.111; 1744.300; -798.000; -652.000
416.237;  393.500; -424.000; -571.000
416.363; 1902.200; -765.000; -733.000
416.489; 6508.400; -324.000; -251.000
416.615;  617.000; -707.000; -742.000
416.741;  -65.900; -677.000; -784.000
416.866; -164.200; -673.000; -736.000
416.992; -182.200; -801.000; -818.000
417.118;    3.900;  -41.000;  -80.000
417.244; -128.600; -798.000; -531.000
417.369; -137.400; -801.000; -612.000
417.495;    3.000; -325.000; -254.000
417.621; -160.100;-1015.000; -803.000
417.746;    5.700; -579.000; -572.000
417.872;   83.800; -254.000; -144.000
417.998;   76.000; -515.000; -530.000
418.123; 1801.700;-1073.000; -845.000
418.249; 8367.500; -512.000; -601.000
418.374; 1002.600; -916.000; -824.000
418.500;  166.200; -383.000; -482.000
418.626;  243.600;   70.000;  -59.000
418.751;  187.100; -549.000; -448.000
418.877;  285.500; -637.000; -643.000
419.002; 3089.000; -688.000; -560.000
419.128;19936.900; -930.000; -721.000
419.253; 4297.700; -967.000; -837.000
419.379;  633.600; -391.000; -338.000
419.504;  676.100;  325.000;  415.000
419.629;  860.500; -393.000; -212.000
419.755; 6212.600; -317.000; -254.000
419.880;33440.300;  -98.000;   67.000
420.006;18329.000; -280.000; -221.000
420.131;45246.900; -662.000; -775.000
420.256; 5910.100; -315.000; -316.000
420.382;  723.200; -665.000; -687.000
420.507;   83.300; -649.000; -778.000
420.632;  136.300; -337.000; -339.000
420.758;  266.100; -251.000; -425.000
420.883; -149.500; -876.000; -672.000
421.008; -175.700; -775.000; -619.000
421.133; -118.500; -509.000; -467.000
421.259;  -68.300; -325.000; -259.000
421.384; -190.600; -834.000; -693.000
421.509; -112.300;-1052.000; -862.000
421.634; 1401.000; -936.000; -820.000
421.759;  528.800; -359.000; -327.000
421.885;  -81.700; -717.000; -656.000
422.010; -143.800; -673.000; -542.000
422.135; -221.100; -695.000; -727.000
422.260;   89.400;  340.000;  280.000
422.385;  -30.300;   12.000;  -98.000
422.510;   41.600;  151.000;  -26.000
422.635;   52.100;  -87.000;  -43.000
422.760;  141.300; -766.000; -791.000
422.885;  123.600;  -57.000;  -80.000
423.010;   18.200; -112.000; -169.000
423.135; -105.500; -481.000; -561.000
423.260;    0.800; -150.000; -245.000
423.385;  148.900;  476.000;  222.000
423.510;  105.500;   71.000;  -22.000
423.635;  145.900;  133.000;   45.000
423.760;  138.000;  383.000;  328.000
423.885;  144.700;  336.000;  391.000
424.010;   28.600;  -68.000;  -13.000
424.135;    3.600;    5.000;  -33.000
424.259; -147.200; -654.000; -457.000
424.384;  -69.000; -279.000; -272.000
424.509;  -11.000; -260.000; -186.000
424.634; -146.500; -761.000; -623.000
424.759;  -31.000; -688.000; -544.000
424.883;   31.600; -506.000; -527.000
425.008;  267.300; -502.000; -410.000
425.133; 3175.800; -679.000; -653.000
425.258; 1320.500; -517.000; -381.000
425.382; 1453.400; -867.000; -774.000
425.507; 3350.200; -487.000; -543.000
425.632;  572.700; -802.000; -663.000
425.756;  719.900; -256.000; -146.000
425.881;11351.900; -831.000; -857.000
426.006;27815.600; -604.000; -355.000
426.130; 3889.800; -696.000; -508.000
426.255;  510.000; -611.000; -491.000
426.379;  272.600; -189.000; -577.000
426.504;  714.500;  660.000;  544.000
426.629; 6463.700; -519.000; -466.000
426.753; 4038.100;   64.000;  -46.000
426.878;  506.500; -252.000; -288.000
427.002;  248.100; -651.000; -668.000
427.127; 2821.100;  -35.000; -158.000
427.251;18296.000;  372.000;  401.000
427.375; 4752.800; -191.000; -173.000
427.500; 3042.200; -616.000; -610.000
427.624;  988.900; -234.000; -400.000
427.749;  124.000; -216.000; -225.000
427.873;  -61.100; -499.000; -412.000
427.997;  -43.300; -222.000; -230.000
428.122;  204.200;  795.000;  703.000
428.246;  176.600;  433.000;  434.000
428.371; -213.100; -869.000; -773.000
428.495; -170.300; -624.000; -646.000
428.619;   -4.200; -186.000; -117.000
428.743;   99.100;   65.000;  132.000
428.868;   13.000; -732.000; -643.000
428.992; 1837.500; -219.000; -326.000
429.116;  681.900; -329.000; -357.000
429.240;  388.700;  419.000;  426.000
429.365;  -35.800; -454.000; -574.000
429.489;  -92.900; -638.000; -647.000
429.613;   95.100; -236.000; -177.000
429.737;   88.800; -563.000; -432.000
429.861;  437.300; -247.000; -133.000
429.985; 9239.700; -425.000; -305.000
430.109; 9119.600; -770.000; -908.000
430.234; 1052.700;   76.000;  -50.000
430.358;  117.600; -250.000; -160.000
430.482; -114.600; -672.000; -564.000
430.606;  -79.400; -655.000; -375.000
430.730;   34.400; -437.000; -388.000
430.854;   72.100; -909.000; -835.000
430.978; -106.500; -795.000; -764.000
431.102; -131.100; -499.000; -422.000
431.226; -199.300; -874.000; -815.000
431.350;  141.100;  345.000;  422.000
431.474; -102.600; -661.000; -373.000
431.597; -243.600;-1060.000; -848.000
431.721; -109.700; -276.000; -267.000
431.845; -241.700; -704.000; -472.000
431.969; -108.500; -304.000; -349.000
432.093; -117.200; -395.000; -317.000
432.217;   23.400;   32.000;   82.000
432.341; -130.900; -523.000; -518.000
432.464;   57.800;   96.000;   40.000
432.588;  221.500; -401.000; -329.000
432.712;  153.400;  -52.000;  -52.000
432.836;  159.900;  213.000;  263.000
432.959;    5.000; -372.000; -311.000
433.083;  175.600;   11.000;    2.000
433.207;  656.200;  285.000;  930.000
433.330; 8482.600; -391.000; -200.000
433.454; 9536.600; -654.000; -638.000
433.578; 5576.400;  583.000;  278.000
433.701;  900.100; -623.000; -675.000
433.825;  169.000; -292.000; -299.000
433.949;  234.800;   28.000;  -72.000
434.072;   37.900; -410.000; -323.000
434.196;   -3.900; -309.000; -117.000
434.319; 7877.200;25482.000;25124.000
434.443; 1238.600; -656.000; -603.000
434.566; 4131.800;  281.000;   62.000
434.690;  613.300; -637.000; -383.000
434.813;  138.800; -251.000; -173.000
434.937; -126.100; -569.000; -696.000
435.060;  -69.100; -423.000; -332.000
435.184;  368.400; -492.000; -217.000
435.307;  207.000;  159.000;  102.000
435.431;   24.700;  -40.000;   24.000
435.554;  -68.600; -399.000; -240.000
435.677;  -93.300; -350.000; -258.000
435.801;  -29.300;  -25.000;   49.000
435.924;   -8.300;    1.000;  -67.000
436.048; -215.300;-1019.000; -732.000
436.171;  -90.600; -240.000;  -66.000
436.294;  -14.300; -248.000; -229.000
436.417;  143.700; -963.000; -849.000
436.541; -155.100; -814.000; -840.000
436.664;  -42.800; -242.000; -316.000
436.787;   20.300;   13.000;  113.000
436.910; -180.500; -792.000; -422.000
437.034;   89.100;  142.000;  143.000
437.157;   68.500;  -11.000;    0.000
437.280;  -76.000; -392.000; -292.000
437.403; -164.900; -982.000; -869.000
437.526;  750.500; -903.000; -865.000
437.649; 2649.700; -505.000; -332.000
437.772;  276.900; -692.000; -540.000
437.896;  233.600;  700.000;  544.000
438.019; -140.600; -758.000; -503.000
438.142; -109.800; -596.000; -506.000
438.265;  -70.100; -639.000; -670.000
438.388;  707.900; -520.000; -410.000
438.511;  100.700; -597.000; -394.000
438.634;  -83.500; -247.000; -125.000
438.757; -217.700; -693.000; -619.000
438.880;    8.900;  -34.000;  -57.000
439.003;  -96.700; -417.000; -437.000
439.126;  -97.400; -287.000; -167.000
439.248;  -51.200;  -98.000; -139.000
439.371;  -17.100;    9.000;  -53.000
439.494;  138.700;  510.000;  439.000
439.617;  -57.000;   65.000;  -88.000
439.740; -275.200; -968.000; -816.000
439.863; -252.800; -755.000; -595.000
439.986; -176.000; -476.000; -431.000
440.108;  -32.200; -161.000; -112.000
440.231; -272.700; -950.000; -836.000
440.354;   -5.100;  -64.000; -150.000
440.477;    7.300; -566.000; -542.000
440.599;   11.700; -200.000; -225.000
440.722; -214.000; -709.000; -586.000
440.845;  202.300;  751.000;  928.000
440.968; -144.200; -415.000; -311.000
441.090;  -76.500; -199.000;  -33.000
441.213; -297.800;-1021.000; -825.000
441.336;  -34.600; -159.000;   -5.000
441.458; -100.700; -549.000; -396.000
441.581; -190.600; -628.000; -629.000
441.703;  -82.700; -152.000;   13.000
441.826; -149.300; -557.000; -400.000
441.948;   -0.400;   56.000;   51.000
442.071;  121.800;  555.000;  424.000
442.193; -175.000; -531.000; -485.000
442.316;   51.000;  152.000;   97.000
442.438;  110.600; -233.000;  -10.000
442.561;  138.100;  272.000;  262.000
442.683;  658.700; -809.000; -522.000
442.806; 1435.200;   -8.000;   74.000
442.928;  -73.400; -859.000; -604.000
443.051;  -82.900; -577.000; -373.000
443.173; -110.000; -341.000; -339.000
443.295; -105.600; -263.000; -371.000
443.418;  -87.800; -321.000;  -29.000
443.540;    4.000; -106.000;   -4.000
443.662; -172.400; -563.000; -465.000
443.785;   51.500;  335.000;  199.000
443.907; -180.400; -362.000; -208.000
444.029; -214.400; -767.000; -494.000
444.152; -234.500; -644.000; -554.000
444.274;   -4.800;  -18.000;  -24.000
444.396; -163.600; -461.000; -221.000
444.518; -223.800; -691.000; -454.000
444.640; -135.900; -268.000; -111.000
444.763;   18.500;  388.000;  249.000
444.885; -161.000; -432.000; -392.000
445.007;   -3.600;   35.000;   86.000
445.129; -150.100; -610.000; -515.000
445.251; -140.700; -372.000; -439.000
445.373; -225.000; -537.000; -386.000
445.495;   46.800;  242.000;  350.000
445.617;  172.800;  853.000;  753.000
445.739;  -94.000; -215.000;  -97.000
445.861;  -10.500; -245.000; -112.000
445.984;  -44.000; -267.000; -101.000
446.105;  265.600; -418.000; -251.000
446.227;  800.200; -176.000;  -19.000
446.349;  -36.900; -358.000; -249.000
446.471; -156.100; -615.000; -448.000
446.593;  -77.500; -316.000;   19.000
446.715;   33.400;  -67.000;   41.000
446.837;  209.900;  697.000;  832.000
446.959; -157.400; -457.000; -478.000
447.081; -210.300; -628.000; -518.000
447.203;  189.500;  862.000;  834.000
447.325; -108.200; -270.000;   42.000
447.446;   62.300;  286.000;  530.000
447.568; -263.100; -921.000; -803.000
447.690; -109.900; -236.000; -245.000
447.812; -252.300; -798.000; -519.000
447.933;   33.700;  155.000;  127.000
448.055;  -64.700; -306.000; -261.000
448.177;  249.500;   31.000;   79.000
448.299;   31.200; -935.000; -727.000
448.420;   98.600;  -25.000;  159.000
448.542;    0.400;   -3.000;   33.000
448.664;   30.800;  109.000;  322.000
448.785;   -2.900;  265.000;   83.000
448.907; -105.300; -614.000; -353.000
449.028;  -63.800; -771.000; -471.000
449.150;  170.900;  492.000;  589.000
449.272; -320.800;-1044.000; -913.000
449.393;  134.100;  612.000;  694.000
449.515; -213.500; -634.000; -581.000
449.636;  -82.300; -264.000; -155.000
449.758;  189.800;  763.000;  622.000
449.879; -143.200; -498.000; -396.000
450.001;  -87.300; -149.000;  -49.000
450.122;  -15.600;  -95.000;  162.000
450.244;    8.900;   37.000;  364.000
450.365; -122.900; -495.000; -301.000
450.486;    0.900;   80.000;  268.000
450.608;   89.000;  393.000;  326.000
450.729;  180.700;  578.000;  645.000
450.850;   11.400; -574.000; -466.000
450.972; 1327.000; -552.000; -389.000
451.093; 8214.700;  190.000;  588.000
451.214; 3107.000; -516.000; -337.000
451.336;  677.800;  773.000;  579.000
451.457;  158.800;  264.000;  393.000
451.578;  -10.900; -118.000;  -74.000
451.699; -192.100; -546.000; -540.000
451.821;  -83.600; -284.000;  -50.000
451.942;   38.600;  278.000;  285.000
452.063;  115.500;  228.000;  419.000
452.184; 1013.300;  -54.000;  -49.000
452.305; 1731.300;  103.000;  170.000
452.427;  200.000; -549.000; -301.000
452.548;   40.500;   23.000;   79.000
452.669;  -55.900; -257.000;  -89.000
452.790;  -29.200;    3.000;  -18.000
452.911;   57.600;  195.000;  259.000
453.032;  -83.200; -289.000;  -60.000
453.153;    0.600;  -29.000;   81.000
453.274;  180.500;  737.000;  868.000
453.395;  -21.300;  -51.000;  175.000
453.516;  198.100; 1317.000; 1388.000
453.637;  -77.100; -205.000; -150.000
453.758;  -58.800;   15.000;   69.000
453.879; -175.300; -462.000; -250.000
454.000;  246.600; 1086.000;  948.000
454.121; -161.200; -554.000; -326.000
454.242; -202.700; -599.000; -383.000
454.362;  -15.600;  -99.000;  114.000
454.483;  -26.800; -309.000; -229.000
454.604;  139.400;  512.000;  580.000
454.725; -188.200; -627.000; -555.000
454.846; -197.800; -474.000; -406.000
454.967;   36.700;  230.000;  539.000
455.087;   16.600;  179.000;  153.000
455.208;  114.400;  554.000;  856.000
455.329;  -54.700;  -22.000;   82.000
455.450;  146.400;  473.000;  633.000
455.570;  -94.000; -234.000; -211.000
455.691;   -5.100;  201.000;  407.000
455.812; -158.100; -270.000;  -92.000
455.932;  -53.500;  107.000;  -97.000
456.053;  -96.400;   36.000;   24.000
456.173; -132.300; -433.000; -355.000
456.294; -202.300; -476.000; -303.000
456.415;  -66.900;  -73.000;   70.000
456.535;    3.900;  297.000;  273.000
456.656;  -16.700;  132.000;  240.000
456.776;  -62.300;    3.000;  298.000
456.897;   85.400;  308.000;  513.000
457.017; -106.700; -153.000;   -3.000
457.138; -168.200; -402.000; -249.000
457.258;   30.400;  263.000;  224.000
457.379;   40.600;  509.000;  521.000
457.499;   40.900;  443.000;  432.000
457.620; -151.900; -407.000; -231.000
457.740; -127.700; -132.000;  -11.000
457.860;  -49.000;   87.000;   44.000
457.981;  -47.100;  132.000;  124.000
458.101;  -89.200;  -89.000;   40.000
458.221;   63.700;  336.000;  402.000
458.342;  -75.000;   -4.000;  -37.000
458.462;   95.600;  617.000;  352.000
458.582;   -8.900; -302.000; -294.000
458.703;  107.400;  303.000;  154.000
458.823;    1.400;   22.000;  163.000
458.943;   99.700;  341.000;  467.000
459.063;   31.100; 1124.000;  192.000
459.183;   -2.500;  328.000;  313.000
459.304;   76.800;  315.000;  517.000
459.424;  -75.500; -246.000;  -89.000
459.544;  632.900;  388.000;  764.000
459.664; 1410.100;  499.000;  506.000
459.784;  564.100; 1004.000; 1175.000
459.904;  156.500;  867.000;  744.000
460.024;  216.700;  867.000;  684.000
460.144;  101.000;  449.000;  554.000
460.264;   47.100;  515.000;  327.000
460.385;  -77.000; -145.000; -119.000
460.505;  139.100;  905.000;  858.000
460.625;  -90.100;  -17.000;  -68.000
460.745;  -11.100;  396.000;  541.000
460.864;  -15.600;  153.000;  469.000
460.984;  108.300;  499.000;  573.000
461.104;  330.100; 1656.000; 1775.000
461.224;  114.800;  657.000;  650.000
461.344;   26.500;  431.000;  360.000
461.464;    7.600;  258.000;  513.000
461.584;   29.700;  283.000;  466.000
461.704;  -31.500;   58.000;  108.000
461.824;  -30.200;  238.000;  259.000
461.943;  -23.500;  191.000;  130.000
462.063;  -73.900;    2.000;  324.000
462.183;  142.000;  639.000;  717.000
462.303;  267.200; 1678.000; 1230.000
462.422;  121.000;  781.000;  840.000
462.542;  -16.900;  271.000;  391.000
462.662;  128.000;  353.000;  380.000
462.782;  471.600;  833.000;  572.000
462.901;  850.600;  545.000;  717.000
463.021;  562.000; 1702.000; 1638.000
463.141;   53.900;  337.000;  770.000
463.260;   39.700;  614.000;  474.000
463.380;  108.500;  902.000;  884.000
463.499;  -33.200;  342.000;  332.000
463.619;   -1.400;  581.000;  559.000
463.738;  330.700; 1644.000;  903.000
463.858;   82.800;  657.000;  811.000
463.978;    7.100;  542.000;  396.000
464.097;  160.500;  921.000; 1114.000
464.217;  286.000; 1196.000; 1143.000
464.336;  305.600; 1068.000; 1130.000
464.455;    2.300;  328.000;  659.000
464.575;  147.600;  597.000;  602.000
464.694;  337.700; 1204.000; 1179.000
464.814;  337.200; 1190.000; 1138.000
464.933;  240.600; 1095.000; 1027.000
465.052;  262.500; 1412.000; 1054.000
465.172;  208.400;  922.000;  799.000
465.291;  284.400; 1376.000; 1320.000
465.410;  150.100;  462.000;  735.000
465.530;  243.100; 1355.000; 1310.000
465.649;  225.100; 1209.000; 1273.000
465.768;  347.100; 1673.000; 1508.000
465.888;  195.400;  941.000; 1174.000
466.007;  257.700; 1335.000; 1440.000
466.126;   96.200;  721.000;  641.000
466.245;  114.300; 1176.000; 1187.000
466.364;  141.500;  950.000; 1060.000
466.484;  207.600; 1024.000; 1213.000
466.603;  206.600; 1101.000; 1222.000
466.722;  322.400; 1490.000; 1769.000
466.841;  215.900; 1151.000; 1401.000
466.960;  145.500; 1069.000;  972.000
467.079;  351.300; 1971.000; 1786.000
467.198;  196.800; 1238.000; 1181.000
467.317;  288.800; 1768.000; 1162.000
467.436;  217.100; 1709.000; 1261.000
467.555;  344.500; 1796.000; 1746.000
467.674;  181.600; 1227.000; 1329.000
467.793;  163.700; 1376.000; 1374.000
467.912;  245.400; 1658.000; 1539.000
468.031;  338.100; 2038.000; 1930.000
468.150;  348.100; 1842.000; 1837.000
468.269;  476.800; 2313.000; 2090.000
468.388;  469.400; 2168.000; 2339.000
468.507;  601.800; 2884.000; 2903.000
468.626;  608.600; 2555.000; 2541.000
468.744;  365.400; 2018.000; 2174.000
468.863;  449.700; 2312.000; 2523.000
468.982;  246.700; 1503.000; 1555.000
469.101;  551.400; 2788.000; 2692.000
469.220;  355.800; 2333.000; 2176.000
469.338;  603.700; 2935.000; 3051.000
469.457;  469.200; 2719.000; 2545.000
469.576;  767.100; 3953.000; 3784.000
469.695;  538.400; 2877.000; 3066.000
469.813;  946.300; 4148.000; 4192.000
469.932;  907.200; 4255.000; 4485.000
470.051;  883.400; 4075.000; 4161.000
470.169; 1657.600; 4470.000; 4338.000
470.288; 2620.200; 4700.000; 4809.000
470.406; 1632.700; 5059.000; 5194.000
470.525; 1357.700; 6101.000; 5787.000
470.644; 1383.600; 6847.000; 6794.000
470.762; 1744.600; 8397.000; 7873.000
470.881; 1950.100; 8651.000; 8464.000
470.999; 2146.900; 9685.000; 9151.000
471.118; 2364.800;11174.000;10711.000

