
Integration time [ms]: 100.000
Averaging Nr. [scans]: 40
Smoothing Nr. [pixels]: 0
Data measured with spectrometer [name]: 2101012U2
Wave   ;Sample   ;Dark     ;Reference
[nm]   ;[counts] ;[counts] ;[counts] 

197.733;   60.450;  516.000;  404.000
197.879;  -85.625; -610.000; -634.000
198.025;  -48.675; -475.000; -420.000
198.171;  -77.150; -602.000; -612.000
198.317;  -30.000; -401.000; -316.000
198.463;  -70.025; -655.000; -404.000
198.609;   42.500;  181.000; -137.000
198.755;  -91.250; -644.000; -410.000
198.901;  -58.225; -505.000; -424.000
199.047;  -69.150; -615.000; -488.000
199.193;  -39.100; -230.000; -468.000
199.339;  -53.075; -222.000; -369.000
199.485;   46.500;  330.000;  271.000
199.631;   18.425;  227.000;  310.000
199.777;  -49.425; -466.000; -398.000
199.923;  -76.300; -610.000; -424.000
200.069;    5.625; -141.000;  -58.000
200.215;   58.050;  128.000;  453.000
200.361;   53.250;  243.000;  477.000
200.507;  -66.100; -600.000; -373.000
200.653;  -28.250; -371.000; -194.000
200.798;  -40.850; -215.000; -125.000
200.944;   -3.750; -146.000;  -41.000
201.090;   32.675;   61.000;  222.000
201.236;   -0.350; -116.000; -158.000
201.382;  118.025;  874.000;  903.000
201.528;    4.725;  -58.000;  -48.000
201.674;  -45.325; -386.000; -293.000
201.819;  -61.800; -540.000; -439.000
201.965;  -75.125; -699.000; -447.000
202.111;  -27.700; -273.000; -226.000
202.257;  -46.925; -250.000; -238.000
202.402;    7.950;   13.000;  -36.000
202.548;  -33.575; -169.000; -116.000
202.694;   77.500;  410.000; -183.000
202.840;  -78.650; -603.000; -531.000
202.985;  -87.700; -681.000; -639.000
203.131; -100.825; -832.000; -666.000
203.277;  -19.950; -199.000; -262.000
203.423;  -62.150; -434.000; -520.000
203.568;  -41.300; -462.000; -237.000
203.714;  -70.400; -535.000; -542.000
203.860;  -90.450; -682.000; -641.000
204.005;    7.875;  112.000;  167.000
204.151;   83.000;  561.000;  556.000
204.296;  -48.500; -354.000; -221.000
204.442;  -75.800; -600.000; -547.000
204.588;  -69.300; -592.000; -579.000
204.733;   29.800;  178.000;  168.000
204.879; -135.650;-1018.000; -822.000
205.025;    9.925;  -99.000;  126.000
205.170;   -8.725;  -17.000;   94.000
205.316;   74.225;  438.000;  661.000
205.461;  -83.450; -698.000; -554.000
205.607;   88.625;  609.000;  665.000
205.752;  -86.850; -626.000; -551.000
205.898;  -56.775; -501.000; -391.000
206.043;  -59.825; -578.000; -506.000
206.189;  -38.325; -243.000; -285.000
206.334;   71.000;  554.000;  606.000
206.480;   65.350;  409.000;  239.000
206.625;  -90.825; -529.000; -552.000
206.771;  -48.675; -451.000; -373.000
206.916;  -50.375; -210.000; -537.000
207.062;  -89.650; -545.000; -591.000
207.207;  -73.250; -546.000; -443.000
207.353;   43.900;  185.000;  460.000
207.498;   10.475;  196.000;   85.000
207.643;  -50.925; -501.000; -370.000
207.789; -118.075;-1069.000; -910.000
207.934;  -88.050; -665.000; -713.000
208.080;  -30.725; -154.000;   66.000
208.225;   -9.475;  -22.000;  -57.000
208.370;  -92.000; -727.000; -619.000
208.516;  -84.425; -741.000; -487.000
208.661;  -39.900; -127.000;  -69.000
208.806;  -19.600; -165.000; -171.000
208.952; -123.450;-1044.000; -731.000
209.097;   66.525;  378.000;  349.000
209.242;  -45.775; -307.000; -382.000
209.387;   68.425;  392.000;  350.000
209.533;  -47.650; -321.000; -350.000
209.678;   76.375;  472.000;  543.000
209.823;  -59.625; -408.000; -310.000
209.969; -101.825; -860.000; -757.000
210.114;  -98.600; -907.000; -719.000
210.259; -126.575; -939.000; -889.000
210.404;  -12.800; -171.000;  103.000
210.549;   20.975;  108.000;    3.000
210.695;  -22.100;   -3.000;  -95.000
210.840;   23.525;   94.000;   67.000
210.985;  -66.650; -484.000; -303.000
211.130;   74.025;  268.000;  406.000
211.275;    5.775;  207.000;  199.000
211.420;  -61.450; -300.000; -289.000
211.566;  -64.525; -536.000; -489.000
211.711;   21.550;  218.000;  157.000
211.856;  -72.800; -545.000; -519.000
212.001;    6.150;  151.000;   44.000
212.146;   12.600;  153.000;   49.000
212.291;  -14.425; -210.000; -186.000
212.436;  -28.050; -280.000;   -6.000
212.581;  -83.025; -685.000; -653.000
212.726;  -87.450; -487.000; -538.000
212.871;  -52.700; -552.000; -217.000
213.016; -159.275;-1172.000;-1029.000
213.161;   65.275;  406.000;  291.000
213.306;  -76.900; -435.000; -577.000
213.451;  -88.100; -778.000; -689.000
213.596;  -54.250; -455.000; -347.000
213.741;  -54.725; -448.000; -538.000
213.886;  -78.600; -498.000; -517.000
214.031;  -19.075; -294.000; -124.000
214.176;  -61.850; -408.000; -341.000
214.321;  -29.175; -296.000; -157.000
214.466;  -30.875; -163.000;  -43.000
214.611;   -6.400;  -61.000;  -10.000
214.756; -133.875; -948.000; -858.000
214.901;  -24.975; -388.000; -226.000
215.046; -130.625; -797.000; -825.000
215.191;    3.325;  128.000;   35.000
215.336;  -17.525; -157.000;  -19.000
215.480;  -63.975; -684.000; -505.000
215.625;  -15.375; -175.000;  -19.000
215.770;  -88.175; -757.000; -662.000
215.915;  -10.100;   -5.000;  -97.000
216.060;  -11.850; -113.000;  -21.000
216.205; -109.375; -731.000; -779.000
216.349;  -64.175; -470.000; -533.000
216.494; -130.425; -939.000; -867.000
216.639; -119.175; -823.000; -888.000
216.784;  -81.400; -577.000; -525.000
216.929;   52.425;  392.000;  281.000
217.073;  -20.425; -244.000;  -31.000
217.218;   18.225;   78.000;  -47.000
217.363;  -83.400; -656.000; -618.000
217.507;  -88.125; -623.000; -588.000
217.652; -124.675; -845.000; -874.000
217.797;  -82.800; -708.000; -659.000
217.942; -110.575; -856.000; -720.000
218.086;   87.900;  608.000;  539.000
218.231;  -21.300; -174.000;  -26.000
218.376;  -33.650; -337.000; -229.000
218.520;  -11.825;  -41.000;   96.000
218.665;  -31.500; -338.000; -204.000
218.810;  -44.925; -275.000; -233.000
218.954;   19.000;  201.000;   35.000
219.099; -107.950; -713.000; -963.000
219.243;  -71.825; -589.000; -554.000
219.388;  -29.575; -264.000; -136.000
219.532;   -5.225; -116.000; -116.000
219.677;  -95.150; -564.000; -521.000
219.822;    2.650;   33.000;   89.000
219.966;   -6.900;   17.000;  -99.000
220.111;  -30.400; -328.000;  -40.000
220.255; -103.925; -797.000; -750.000
220.400;  -26.875; -180.000; -146.000
220.544;  -70.550; -516.000; -450.000
220.689;  -59.150; -422.000; -451.000
220.833;  -21.425; -123.000;  -58.000
220.978;  -55.150; -393.000; -563.000
221.122;   23.025;  319.000;  307.000
221.267; -119.275; -906.000; -837.000
221.411;  -74.625; -478.000; -394.000
221.555;  -12.525; -104.000;  -23.000
221.700;  -47.000; -329.000; -222.000
221.844;   39.300;  255.000;  272.000
221.989;  -55.750; -328.000; -311.000
222.133;  -39.975; -289.000; -307.000
222.277;    2.975;    5.000;   78.000
222.422;   19.000;  227.000;  113.000
222.566;  -47.050; -381.000; -214.000
222.711;  -57.525; -414.000; -479.000
222.855;  -81.350; -643.000; -586.000
222.999;  -86.525; -642.000; -717.000
223.144;  -32.600; -195.000; -194.000
223.288;   49.450;  423.000;  251.000
223.432;   23.800;  184.000;  230.000
223.576;    8.275;  152.000;  -21.000
223.721;   40.775;  364.000;  273.000
223.865;  -63.825; -472.000; -475.000
224.009;  267.175; 1673.000; 1631.000
224.153;  -82.900; -660.000; -671.000
224.298;  -69.500; -531.000; -489.000
224.442;  -20.050;  -74.000;  -33.000
224.586;  -15.300; -169.000; -106.000
224.730; -101.750; -858.000; -670.000
224.875; -108.800; -739.000; -688.000
225.019;    2.325;  102.000;  188.000
225.163;   56.600;  208.000;  341.000
225.307;   13.375;   97.000;  -91.000
225.451;   28.600;  360.000;  481.000
225.595;   13.900;  264.000;  176.000
225.739;  -16.900; -170.000;  -94.000
225.884;   -9.350;   86.000;    5.000
226.028; -104.075; -760.000; -626.000
226.172;  -43.275; -260.000; -273.000
226.316; -128.600; -941.000; -902.000
226.460;  -83.400; -645.000; -493.000
226.604;  -51.400; -406.000; -400.000
226.748; -111.425; -836.000; -733.000
226.892;  -26.550; -227.000; -181.000
227.036;  -48.475; -537.000; -447.000
227.180;  -51.775; -551.000; -375.000
227.324;  -69.975; -561.000; -580.000
227.468; -127.950; -819.000; -717.000
227.612;   14.325;  242.000;  -28.000
227.756;  -96.325; -845.000; -698.000
227.900;   56.450;  342.000;  441.000
228.044;  -56.125; -509.000; -290.000
228.188;   51.625;  448.000;  568.000
228.332;  -91.975; -546.000; -472.000
228.476;  -27.925; -223.000; -149.000
228.620;  -41.400; -210.000; -150.000
228.764;   62.650;  431.000;  349.000
228.908;  -14.350; -155.000;   30.000
229.052;  -57.900; -615.000; -528.000
229.195;  -15.000; -172.000;   13.000
229.339;  -36.525; -235.000; -305.000
229.483;  -33.575;    5.000; -162.000
229.627;    5.325; -156.000;  139.000
229.771;  -50.550; -218.000; -294.000
229.915;   -2.925;  230.000;   79.000
230.059;  -91.875; -648.000; -663.000
230.202;  -56.875; -370.000; -317.000
230.346;  -25.275; -107.000;  107.000
230.490;  -59.625; -489.000; -521.000
230.634; -127.900; -736.000; -553.000
230.777;   83.800;  478.000;  509.000
230.921;  -45.725; -450.000; -359.000
231.065;  -39.250; -246.000; -286.000
231.209;   17.325;  261.000;  265.000
231.352;   17.000;   54.000;   40.000
231.496;   23.300;  568.000;  188.000
231.640;  -89.900; -693.000; -621.000
231.783;   63.400;  546.000;  525.000
231.927;  -45.725; -294.000; -365.000
232.071; -124.250; -962.000; -736.000
232.214; -113.400; -980.000; -764.000
232.358;  -91.425; -683.000; -599.000
232.502;   -1.975;  -19.000;    7.000
232.645; -143.450;-1090.000; -927.000
232.789;  -25.475; -257.000; -218.000
232.933;  -47.550; -407.000; -224.000
233.076; -132.800;-1038.000; -897.000
233.220; -115.075; -752.000; -777.000
233.363;  -70.725; -669.000; -477.000
233.507;   51.325;  371.000;  129.000
233.650; -102.100; -764.000; -834.000
233.794;   34.300;  438.000;  461.000
233.938;  -62.475; -530.000; -362.000
234.081;  -19.775;  -93.000;   31.000
234.225;  -68.700; -631.000; -539.000
234.368; -114.950; -773.000; -723.000
234.512;  -38.525; -385.000; -299.000
234.655;  -85.725; -582.000; -555.000
234.798;  -77.975; -493.000; -466.000
234.942; -138.025; -884.000;-1002.000
235.085;  -75.275; -651.000; -443.000
235.229;  -75.425; -405.000; -410.000
235.372;  -55.700; -247.000; -191.000
235.516;  -63.575; -397.000; -321.000
235.659;   21.525;   92.000;  121.000
235.802;  -14.675;  -38.000;  -22.000
235.946;   16.300;  335.000;  215.000
236.089;    9.800;  126.000;  250.000
236.233;   47.750;  275.000;  298.000
236.376;  -44.225; -235.000; -378.000
236.519;  -50.575; -297.000; -319.000
236.663;  -37.650; -215.000; -117.000
236.806; -147.925;-1029.000; -999.000
236.949;   50.400;  543.000;  431.000
237.092;   58.650;  412.000;  391.000
237.236;  -93.100; -589.000; -502.000
237.379;   50.950;  352.000;  428.000
237.522; -126.750; -879.000; -768.000
237.666;  -11.700; -271.000;   18.000
237.809; -136.800; -851.000; -823.000
237.952;   45.225;  469.000;  271.000
238.095;  -74.775; -447.000; -442.000
238.238;   87.300;  688.000;  700.000
238.382;   -0.525;  166.000;  103.000
238.525;  -73.325; -598.000; -511.000
238.668; -137.025;-1060.000; -985.000
238.811;  -85.800; -638.000; -643.000
238.954;  -59.400; -483.000; -334.000
239.097;   85.075;  617.000;  664.000
239.241;   10.000;  394.000;  326.000
239.384;  -46.775; -254.000; -214.000
239.527;  -63.000; -424.000; -224.000
239.670; -156.725; -994.000;-1091.000
239.813; -124.125; -696.000; -658.000
239.956;   82.450;  579.000;  473.000
240.099; -126.550; -778.000; -725.000
240.242;   61.900;  428.000;  432.000
240.385;   36.400;  466.000;  450.000
240.528;  -69.650; -706.000; -473.000
240.671;   21.975;  189.000;  134.000
240.814;  -37.100; -441.000; -158.000
240.957;  -90.925; -767.000; -578.000
241.100;  -93.075; -779.000; -755.000
241.243; -139.350;-1234.000; -893.000
241.386;  -65.600; -508.000; -379.000
241.529;  -92.625; -735.000; -547.000
241.672;  -69.550; -566.000; -495.000
241.815; -122.850; -832.000; -808.000
241.958;  -25.975; -125.000; -182.000
242.101;  -83.500; -545.000; -390.000
242.244;  -32.900; -270.000; -325.000
242.387;  -44.425; -304.000; -246.000
242.530;   55.025;  470.000;  134.000
242.673;  -40.900; -381.000; -309.000
242.815; -118.775; -925.000; -899.000
242.958;  -70.575; -482.000; -381.000
243.101;   10.100;  132.000;  187.000
243.244;  -84.550; -564.000; -521.000
243.387;  -52.125; -313.000; -316.000
243.530;  -93.325; -657.000; -674.000
243.672;   -5.350;   43.000;  -92.000
243.815;  -50.050; -355.000; -283.000
243.958;    0.650;   98.000;  -26.000
244.101;    5.600;   59.000;  -16.000
244.243;  -12.000;  -47.000;  101.000
244.386; -125.825; -761.000; -630.000
244.529;  -12.275; -132.000; -139.000
244.672; -162.075;-1154.000; -951.000
244.814;  -99.650; -621.000; -794.000
244.957;  -55.325; -380.000; -304.000
245.100;  -67.400; -489.000; -489.000
245.242;  -66.475; -387.000; -374.000
245.385;    1.600;  -59.000;  -39.000
245.528; -129.825; -871.000; -705.000
245.670;   88.875;  612.000;  634.000
245.813;  -87.875; -599.000; -547.000
245.956;  -41.700; -324.000; -275.000
246.098;  -73.725; -508.000; -650.000
246.241;    3.500;  194.000;   48.000
246.383;  -10.750; -119.000;  -73.000
246.526;  -67.300; -454.000; -525.000
246.669; -114.500; -889.000; -780.000
246.811;    9.800;  172.000;   -1.000
246.954;  -71.300; -512.000; -426.000
247.096;  -27.875;  -84.000;   -6.000
247.239;  -62.275; -482.000; -445.000
247.381;  -96.100; -647.000; -488.000
247.524;   91.600;  645.000;  679.000
247.666;   -2.925;   58.000;   11.000
247.809; -120.900; -887.000; -691.000
247.951;   -7.675;  -75.000;  138.000
248.094;   20.975;  432.000;  308.000
248.236; -167.675;-1262.000;-1238.000
248.378;  -12.700; -356.000;  -81.000
248.521;  -25.225; -334.000; -337.000
248.663;  -35.950; -236.000; -267.000
248.806;  -28.250; -300.000; -266.000
248.948; -109.300; -886.000; -763.000
249.090;  -55.025; -428.000; -398.000
249.233;  -55.575; -344.000; -381.000
249.375;  -65.625; -474.000; -451.000
249.518;  -18.825;  -83.000; -133.000
249.660;  -21.775; -103.000;    3.000
249.802; -177.575;-1303.000;-1189.000
249.945;  -74.650; -612.000; -540.000
250.087; -117.875; -834.000; -768.000
250.229;  -56.825; -362.000; -480.000
250.371;  -76.850; -494.000; -439.000
250.514;  -31.600; -310.000; -244.000
250.656;  -85.450;   69.000;  102.000
250.798; -116.600; -849.000; -800.000
250.940;  -62.475; -322.000; -322.000
251.083;  -23.575; -335.000; -111.000
251.225;   42.425;  338.000;  310.000
251.367;  -40.575; -274.000; -373.000
251.509;  -29.450; -265.000; -210.000
251.651;  -96.800; -731.000; -671.000
251.794;   84.850;  538.000;  632.000
251.936; -113.850; -821.000; -747.000
252.078;  -69.950; -540.000; -461.000
252.220;  -73.575; -645.000; -477.000
252.362;   77.700;  344.000;  462.000
252.504;  -86.225; -677.000; -584.000
252.646; -121.175; -875.000; -722.000
252.788;    3.200;   14.000; -128.000
252.931;  -52.625; -257.000; -253.000
253.073;  -48.675; -376.000; -317.000
253.215;   -5.475;  141.000;  122.000
253.357;  -20.850;   82.000; -153.000
253.499;  -57.725; -374.000; -234.000
253.641;  -89.625; -749.000; -594.000
253.783; -101.050; -609.000; -527.000
253.925;  -84.700; -586.000; -591.000
254.067; -131.200; -744.000; -667.000
254.209;  -30.525; -391.000; -259.000
254.351; -147.850; -865.000; -883.000
254.493;  -63.100; -441.000; -417.000
254.635; -134.600; -936.000; -818.000
254.777; -100.075; -752.000; -687.000
254.918;  -65.050; -512.000; -430.000
255.060;  -60.200; -551.000; -395.000
255.202;  -63.825; -473.000; -261.000
255.344;  -85.175; -658.000; -455.000
255.486;  -60.975; -471.000; -406.000
255.628; -104.125; -780.000; -781.000
255.770;  -94.475; -676.000; -536.000
255.912;  -61.150; -559.000; -468.000
256.053; -101.675; -730.000; -508.000
256.195;  162.850; 1008.000;  903.000
256.337;  -99.800; -861.000; -595.000
256.479;   62.875;  532.000;  416.000
256.621;  -58.975; -394.000; -212.000
256.762; -105.450; -789.000; -742.000
256.904;   63.325;  485.000;  487.000
257.046;  -58.975; -381.000; -271.000
257.188;  -43.800; -351.000; -264.000
257.329;  -80.025; -525.000; -464.000
257.471; -120.125; -939.000; -807.000
257.613;  -67.400; -584.000; -498.000
257.755; -145.150;-1073.000; -982.000
257.896;   25.075;  286.000;  392.000
258.038;  -62.525; -403.000; -352.000
258.180;  -36.700; -354.000; -279.000
258.321;  -90.625; -581.000; -457.000
258.463;    2.875;  -71.000;  133.000
258.605;  -92.050; -562.000; -570.000
258.746; -104.850; -886.000; -772.000
258.888; -155.025;-1026.000;-1020.000
259.029;   21.075;  121.000;   -8.000
259.171;  -98.725; -614.000; -550.000
259.313;  -12.225;  -49.000;  -47.000
259.454;  -79.725; -536.000; -414.000
259.596;  -53.200; -483.000; -390.000
259.737;  -83.900; -590.000; -474.000
259.879;   36.650;  217.000;  311.000
260.020;   84.075;  901.000;  636.000
260.162;  -27.150; -146.000; -253.000
260.303; -124.525; -768.000; -687.000
260.445;  -84.050; -609.000; -613.000
260.586;   15.525;  392.000;  157.000
260.728;  -49.550; -360.000; -248.000
260.869;  -64.200; -350.000; -343.000
261.011;   79.600;  706.000;  537.000
261.152;  -68.500; -479.000; -319.000
261.293;  -80.800; -576.000; -595.000
261.435;  -32.325; -219.000; -184.000
261.576;  -63.050; -455.000; -325.000
261.718;   42.025;  420.000;  470.000
261.859; -141.925; -940.000; -949.000
262.000; -137.175; -951.000;-1016.000
262.142;  -14.775;  -52.000;  -60.000
262.283; -119.700; -808.000; -691.000
262.424;  -92.400; -666.000; -625.000
262.566; -154.675;-1161.000; -983.000
262.707; -115.975; -840.000; -830.000
262.848; -125.400; -769.000; -726.000
262.990;  -54.525; -362.000; -345.000
263.131;   79.150;  650.000;  681.000
263.272;  -11.950;  -61.000;  -41.000
263.413;  -82.250; -589.000; -561.000
263.555;  -71.375; -669.000; -143.000
263.696;  -81.600; -550.000; -641.000
263.837;  -59.175; -449.000; -551.000
263.978;   -4.925;   -5.000;  -77.000
264.119;  -36.825; -283.000; -264.000
264.261; -118.275; -847.000; -630.000
264.402;   -8.000;   33.000;   40.000
264.543;  -90.300; -509.000; -524.000
264.684;   -8.950;   61.000;  -50.000
264.825;  -81.250; -816.000; -538.000
264.966;   -2.550;  -84.000;  -67.000
265.107; -111.300; -646.000; -670.000
265.248; -122.650; -825.000; -812.000
265.390;  -19.800;  152.000;   -9.000
265.531;  -19.675; -238.000; -107.000
265.672;  -90.025; -557.000; -630.000
265.813;   67.725;  563.000;  439.000
265.954; -139.325; -959.000; -940.000
266.095;  -12.750; -372.000; -322.000
266.236; -103.900; -686.000; -548.000
266.377;  -49.300; -243.000; -297.000
266.518;  -76.900; -619.000; -547.000
266.659;   20.325;  170.000;  268.000
266.800;    9.025;   83.000;   85.000
266.941;  -91.375; -487.000; -478.000
267.082;   25.425;  354.000;   99.000
267.223;  -58.075; -344.000; -273.000
267.364; -120.025; -892.000; -686.000
267.504;   -7.525;    3.000;  135.000
267.645;   -9.950;  160.000;   67.000
267.786;  -39.025; -147.000;  -86.000
267.927;  -92.275; -473.000; -379.000
268.068;  -25.800; -186.000;  -61.000
268.209;  -52.275; -175.000; -413.000
268.350;  -60.200; -388.000; -532.000
268.490;  -82.325; -648.000; -521.000
268.631;   28.675;  127.000;  225.000
268.772;  -99.550; -874.000; -647.000
268.913;  -45.875; -328.000; -476.000
269.054;  -15.575; -117.000;   12.000
269.194;  -52.275; -418.000; -402.000
269.335; -149.650;-1137.000;-1074.000
269.476;  -29.225;   33.000;  -35.000
269.617;  -67.725; -347.000; -392.000
269.757;  -86.975; -713.000; -646.000
269.898; -110.650; -856.000; -613.000
270.039;  -68.425; -415.000; -405.000
270.180; -147.575; -952.000; -816.000
270.320;  -40.850; -190.000; -250.000
270.461;  -49.375; -277.000; -249.000
270.602;  -15.350; -186.000; -156.000
270.742; -132.250; -868.000; -943.000
270.883;  -65.200; -442.000; -390.000
271.023;  -57.475; -358.000; -357.000
271.164;  -82.250; -607.000; -528.000
271.305;  -86.475; -666.000; -654.000
271.445;  -84.225; -722.000; -683.000
271.586;  -75.100; -462.000; -283.000
271.726;  -51.350; -397.000; -322.000
271.867;  -61.325; -594.000; -534.000
272.008;  157.500; -473.000; -285.000
272.148;  121.825;  462.000;  468.000
272.289;    0.825; -113.000; -181.000
272.429;   13.850;   19.000;  185.000
272.570;  -91.350; -633.000; -737.000
272.710; -115.075; -825.000; -775.000
272.851;  -30.625;  113.000; -130.000
272.991; -165.000;-1173.000;-1077.000
273.131;  -64.850; -419.000; -459.000
273.272;  -93.775; -683.000; -723.000
273.412;   -4.300; -143.000;  -31.000
273.553;  -52.675; -488.000; -507.000
273.693;  139.025;  913.000;  858.000
273.834;  -92.875; -894.000; -692.000
273.974;  -79.775; -664.000; -615.000
274.114; -109.050; -772.000; -560.000
274.255;   71.600;  414.000;  373.000
274.395;    0.050; -180.000; -125.000
274.535;   38.450;  199.000;  350.000
274.676;   12.975;  225.000;   94.000
274.816;    0.075;  110.000;   34.000
274.956;  -87.325; -624.000; -690.000
275.097;  -74.950;-1014.000; -922.000
275.237; -116.450; -913.000; -803.000
275.377; -100.750; -778.000; -689.000
275.517; -143.225; -878.000; -937.000
275.658;  -69.675; -590.000; -555.000
275.798;  -75.275; -606.000; -413.000
275.938;   17.575;  215.000;  323.000
276.078; -104.225; -626.000; -395.000
276.218;    8.075;   99.000;  104.000
276.359; -131.375;-1026.000;-1024.000
276.499;  -72.650; -605.000; -446.000
276.639;  -33.250; -305.000; -151.000
276.779;  -54.250; -475.000; -357.000
276.919; -110.200; -783.000; -624.000
277.059;  -31.600; -261.000; -212.000
277.199;  -54.900; -357.000; -259.000
277.340;   41.425;  287.000;  175.000
277.480; -114.700; -840.000; -693.000
277.620;   10.800;  192.000;   16.000
277.760; -205.900;-1533.000;-1294.000
277.900;   10.575;  113.000;   33.000
278.040;   17.150;  137.000;  159.000
278.180;   45.625;  270.000;  170.000
278.320;    2.750;   21.000;   56.000
278.460;  -66.625; -443.000; -469.000
278.600;  -90.950; -708.000; -598.000
278.740;   60.675;  448.000;  224.000
278.880;  -75.100; -768.000; -791.000
279.020;  -14.300; -194.000; -144.000
279.160;  -97.525; -672.000; -595.000
279.300; -112.450; -926.000; -873.000
279.440; -101.025; -709.000; -622.000
279.579;  -23.175;-1014.000; -929.000
279.719;  -59.250; -410.000; -394.000
279.859;   72.975;   -4.000;   41.000
279.999;   18.575; -208.000;  101.000
280.139;  -18.800; -435.000; -387.000
280.279;  -79.875; -708.000; -745.000
280.419;  -19.775; -229.000; -147.000
280.559;  -49.975; -259.000; -180.000
280.698;  -86.150; -790.000; -639.000
280.838;  -94.850; -778.000; -800.000
280.978; -105.375; -846.000; -790.000
281.118; -117.775; -811.000; -704.000
281.257;    2.225;   24.000;    6.000
281.397; -135.850;-1094.000; -960.000
281.537; -103.375; -599.000; -712.000
281.677;  -20.100; -150.000; -101.000
281.816;  -95.725; -700.000; -630.000
281.956;  -42.950; -193.000; -257.000
282.096;  -67.050; -539.000; -396.000
282.235; -112.375; -672.000; -638.000
282.375;  -23.400; -243.000;  -98.000
282.515; -102.500; -715.000; -707.000
282.654;   18.100;   29.000;  106.000
282.794;   16.225;  388.000;  244.000
282.934;  -53.200; -530.000; -491.000
283.073; -143.925;-1030.000; -857.000
283.213;  -61.300; -460.000; -467.000
283.353;  -45.475; -408.000; -349.000
283.492;  -36.550; -264.000; -296.000
283.632;  -64.600; -254.000; -168.000
283.771; -101.275; -859.000; -730.000
283.911;  -52.450; -369.000; -260.000
284.050; -106.900; -794.000; -748.000
284.190; -155.050;-1229.000;-1096.000
284.329; -149.975;-1055.000; -964.000
284.469;  -78.900; -516.000; -591.000
284.608;  -66.800; -559.000; -598.000
284.748;  -98.300; -614.000; -570.000
284.887;  -16.925;  -87.000;  -20.000
285.027; -144.500; -844.000; -892.000
285.166;  -36.250; -192.000; -249.000
285.306;   -7.025; -116.000;  -33.000
285.445;  -49.150; -229.000; -343.000
285.584;  -89.975; -630.000; -494.000
285.724;  -52.425; -282.000; -322.000
285.863; -128.800; -857.000; -507.000
286.002;  -51.250; -366.000; -276.000
286.142; -106.300; -715.000; -622.000
286.281;  -77.425; -525.000; -493.000
286.420;  -81.200; -554.000; -417.000
286.560;   91.225;  653.000;  623.000
286.699; -147.575; -958.000; -912.000
286.838;  -80.250; -590.000; -591.000
286.978; -103.025; -533.000; -537.000
287.117; -131.600;-1085.000; -950.000
287.256;  -34.750; -228.000; -211.000
287.395;  -67.025; -197.000; -378.000
287.535;  -54.975; -370.000; -298.000
287.674;  -79.150; -509.000; -484.000
287.813;   44.300;  661.000;  533.000
287.952; -135.975;-1010.000; -871.000
288.091; -158.875;-1049.000; -915.000
288.231;    5.950;   13.000;   15.000
288.370; -184.375;-1217.000;-1200.000
288.509;  -86.750; -728.000; -645.000
288.648; -107.700; -770.000; -548.000
288.787;  -36.750; -243.000;  -87.000
288.926;  -64.225; -454.000; -475.000
289.065;  121.525;  859.000;  672.000
289.204;  -52.650; -377.000; -217.000
289.344;  -83.075; -791.000; -690.000
289.483;   24.775;  416.000;  304.000
289.622;  -29.375; -291.000; -149.000
289.761;  -28.275; -309.000; -166.000
289.900; -117.800; -785.000; -626.000
290.039;  -11.825;  -12.000;  -95.000
290.178;  -43.825; -274.000; -180.000
290.317;  -86.825; -618.000; -479.000
290.456;  -72.800; -463.000; -451.000
290.595; -148.250; -961.000; -833.000
290.734; -141.400; -904.000; -891.000
290.873;  -77.550; -456.000; -420.000
291.011; -124.500; -833.000; -843.000
291.150; -107.300; -770.000; -682.000
291.289;  -25.400; -343.000; -110.000
291.428; -102.275; -599.000; -480.000
291.567;  -48.175; -370.000; -442.000
291.706;    0.225;  109.000;  154.000
291.845; -102.575; -597.000; -505.000
291.984; -177.550;-1234.000;-1061.000
292.122;   74.275;  602.000;  582.000
292.261;   38.425;  620.000;  463.000
292.400;    1.100; -144.000;  211.000
292.539; -133.075; -959.000; -813.000
292.678;  -40.575; -325.000; -300.000
292.816; -170.975;-1136.000; -965.000
292.955; -100.175; -844.000; -684.000
293.094;  -36.625; -173.000; -337.000
293.233;  -58.800; -556.000; -400.000
293.371;  -39.200; -225.000;  -84.000
293.510; -107.975; -866.000; -780.000
293.649; -132.650; -959.000; -924.000
293.787;  -86.175;-1083.000;-1012.000
293.926;   -8.075; -113.000;  -32.000
294.065;  -41.450; -379.000; -290.000
294.203;   40.275;  298.000;  406.000
294.342;   13.550;   74.000;  156.000
294.481; 6093.250;51180.000; -836.000
294.619;  -29.925; -425.000; -582.000
294.758; -149.850;-1230.000;-1137.000
294.896;   65.750; -125.000;    5.000
295.035; -124.650;-1040.000;-1006.000
295.174; -125.200;-1082.000; -954.000
295.312;  -42.175; -323.000; -203.000
295.451;  -13.850; -307.000; -428.000
295.589;  -63.475; -389.000; -518.000
295.728;   19.600; -292.000; -165.000
295.866;  -11.200;  -36.000;  -51.000
296.005;  -66.350; -584.000; -341.000
296.143;  -80.275; -558.000; -596.000
296.282; -112.375; -957.000; -881.000
296.420; -105.050; -657.000; -557.000
296.559;  -94.650; -892.000; -633.000
296.697;    9.975; -847.000; -665.000
296.835;   33.425;-1141.000;-1002.000
296.974;   28.975;  -23.000;   39.000
297.112;   -5.700; -443.000; -504.000
297.251;  -75.775; -815.000; -755.000
297.389;   64.675; -576.000; -438.000
297.527;   28.925; -145.000;  -83.000
297.666;  -71.850; -486.000; -438.000
297.804;  -64.775; -404.000; -264.000
297.942;  -15.000; -136.000; -161.000
298.081;  -11.350; -183.000;   63.000
298.219;   68.000;  -17.000;  -19.000
298.357;   37.950; -144.000;  -71.000
298.495;   25.650; -810.000; -812.000
298.634;   67.000;  245.000;  219.000
298.772;   44.725; -220.000; -338.000
298.910;  -54.975; -309.000; -182.000
299.048;   -9.425; -130.000; -153.000
299.187;  -29.250; -350.000; -250.000
299.325;   10.775;   52.000;  122.000
299.463;   20.925; -389.000; -299.000
299.601;   81.125; -327.000; -271.000
299.739; -111.625; -908.000; -883.000
299.877;  -86.825; -791.000; -703.000
300.016;  -56.500;-1095.000; -935.000
300.154;  148.925;  -19.000; -161.000
300.292;   40.425; -428.000; -348.000
300.430;   29.150; -408.000; -291.000
300.568; -113.600; -940.000; -874.000
300.706;  -48.575; -366.000; -469.000
300.844;  -98.175;-1108.000; -979.000
300.982;  120.125;  246.000;  282.000
301.120; -122.275; -965.000; -866.000
301.258;  -77.125; -812.000; -705.000
301.396;    7.725;  104.000;  -41.000
301.534;   69.800; -218.000; -293.000
301.672;  -21.775; -664.000; -521.000
301.810;   20.875; -613.000; -545.000
301.948;  100.500;   53.000;  149.000
302.086;  548.325; -250.000;  -32.000
302.224;  868.950; -610.000; -585.000
302.362;   21.550; -558.000; -622.000
302.500;  -27.325; -923.000; -893.000
302.638;   80.275;  128.000;  245.000
302.776;   -9.775; -352.000; -408.000
302.913;   52.200;  447.000;  236.000
303.051;   -7.850;  -86.000;  -23.000
303.189;   56.900;   90.000;  118.000
303.327;  -40.925; -341.000; -256.000
303.465;  -75.350; -832.000; -588.000
303.603;  -98.400; -805.000; -604.000
303.740;   97.300;  417.000;  241.000
303.878;   -9.300; -800.000; -759.000
304.016;  -91.075; -915.000; -790.000
304.154; -144.725;-1123.000;-1152.000
304.291;  -34.850; -505.000; -554.000
304.429;   10.075;  102.000;   74.000
304.567; -137.025; -908.000; -893.000
304.705;  -64.225; -408.000; -515.000
304.842;   75.800; -616.000; -540.000
304.980;   46.825;  215.000;   35.000
305.118;   18.700; -367.000; -365.000
305.255;  -87.750; -945.000; -927.000
305.393;   54.700;  178.000;  239.000
305.531; -120.575;-1173.000; -956.000
305.668;  -78.675; -663.000; -582.000
305.806;   80.300; -358.000; -439.000
305.943;   83.025; -629.000; -637.000
306.081;   35.300; -378.000; -267.000
306.219; -106.275; -863.000; -748.000
306.356;    2.500;  158.000;   27.000
306.494;   91.050;  981.000;  761.000
306.631;  -12.825;  -11.000;  -55.000
306.769;  -13.575; -613.000; -485.000
306.906;  -22.275; -284.000; -258.000
307.044;  -65.925; -473.000; -488.000
307.181;  -82.250; -410.000; -332.000
307.319;   14.200;  112.000;   87.000
307.456; -184.075;-1191.000;-1153.000
307.594; -112.700; -980.000; -727.000
307.731;   -8.100; -371.000; -164.000
307.868;    0.175;  -15.000;   20.000
308.006; -145.275; -961.000; -847.000
308.143;  -68.375; -618.000; -330.000
308.281;   97.875;  -37.000; -254.000
308.418;  -38.475; -748.000; -640.000
308.555;  -86.450; -400.000; -250.000
308.693;  -79.625; -577.000; -573.000
308.830; -127.075; -712.000; -657.000
308.967;  -31.700; -215.000;  -95.000
309.105;  -53.750; -507.000; -396.000
309.242;    1.625; -468.000; -367.000
309.379;  215.850; -577.000; -655.000
309.517;  -81.500; -936.000; -948.000
309.654; -122.125; -910.000; -734.000
309.791;  -67.325; -662.000; -580.000
309.928; -121.950; -977.000; -914.000
310.065;  170.350;  819.000;  697.000
310.203;  -21.300; -825.000; -850.000
310.340;  -11.375; -465.000; -321.000
310.477;  -85.675; -412.000; -516.000
310.614;  -82.700; -383.000; -473.000
310.751;  -71.975; -427.000; -518.000
310.889;  -23.850;    1.000;   11.000
311.026; -160.300;-1161.000; -939.000
311.163;  -52.675; -386.000; -380.000
311.300;  -92.025; -512.000; -479.000
311.437;  -78.100; -658.000; -619.000
311.574; -162.300;-1226.000; -985.000
311.711;  -61.050; -595.000; -433.000
311.848;  -44.525; -380.000; -388.000
311.985;   14.150;  270.000;   93.000
312.122; -124.300; -932.000; -762.000
312.259; -131.200; -941.000; -994.000
312.396;  -78.525; -508.000; -551.000
312.533;  -96.000; -812.000; -790.000
312.670; -128.725;-1070.000; -898.000
312.807;  -35.325; -352.000; -367.000
312.944;  -83.275; -513.000; -611.000
313.081;  -29.125; -150.000; -415.000
313.218; -118.400;-1111.000; -867.000
313.355;   -7.475; -531.000; -449.000
313.492;   -0.600; -455.000; -292.000
313.629;  137.800;  815.000;  735.000
313.766; -164.675;-1176.000;-1008.000
313.902;   -9.025; -186.000;   21.000
314.039;  -53.625; -372.000; -289.000
314.176;   30.500;  286.000;  192.000
314.313;  -78.150; -569.000; -473.000
314.450;  -79.150; -788.000; -684.000
314.587;  -66.300; -468.000; -480.000
314.723;   -2.875;  -78.000;  130.000
314.860;   14.400;  318.000;  332.000
314.997;   32.750;  223.000;  142.000
315.134;  -42.775; -385.000; -368.000
315.270;  -39.175; -480.000; -496.000
315.407; -137.950;-1094.000; -967.000
315.544;  -53.500; -657.000; -538.000
315.681;  -79.750; -681.000; -565.000
315.817;   21.550; -133.000; -176.000
315.954;   14.700; -613.000; -392.000
316.091; -130.250;-1045.000;-1023.000
316.227;  -35.750;  -71.000; -179.000
316.364;    4.900;   23.000;    6.000
316.500;  -67.400; -113.000; -300.000
316.637;  -54.200; -181.000; -302.000
316.774; -102.175; -625.000; -358.000
316.910;  -89.275; -598.000; -629.000
317.047;  -74.800; -487.000; -351.000
317.183;  -49.975; -435.000; -566.000
317.320;   -6.000; -367.000; -321.000
317.456;  -68.425; -733.000; -805.000
317.593; -100.725; -598.000; -641.000
317.729;    5.775;  168.000;  -67.000
317.866; -200.725;-1434.000;-1285.000
318.002;  -93.150; -708.000; -948.000
318.139; -111.125; -883.000; -867.000
318.275; -120.125;-1003.000; -738.000
318.412;  -68.575; -517.000; -336.000
318.548;  -41.625; -751.000; -720.000
318.685; -123.250; -985.000; -888.000
318.821;  -94.650; -762.000; -735.000
318.957;  -29.325;   34.000;  -23.000
319.094;   37.600;  297.000;  154.000
319.230;  -67.525; -756.000; -742.000
319.367;  101.100; -471.000; -520.000
319.503;   37.625; -538.000; -436.000
319.639; -102.150; -877.000; -793.000
319.775;  -80.300; -750.000; -685.000
319.912;  -54.975; -424.000; -519.000
320.048;  -86.825;-1184.000;-1184.000
320.184;   82.900;   59.000;   70.000
320.321;  -60.700; -497.000; -467.000
320.457;   63.075;  475.000;  662.000
320.593;  -62.275; -375.000; -382.000
320.729; -108.575; -732.000; -734.000
320.866;  -91.225; -577.000; -635.000
321.002;  -88.725; -759.000; -809.000
321.138;  -32.275; -135.000; -211.000
321.274;   69.400; -148.000; -115.000
321.410;  -28.200; -585.000; -353.000
321.546;  -37.300;-1011.000; -911.000
321.683;   53.500;  400.000;  185.000
321.819;    5.975;  -48.000; -117.000
321.955; -119.625; -743.000; -722.000
322.091;  -41.800; -585.000; -540.000
322.227;  -28.900; -382.000; -202.000
322.363;  -19.125; -320.000; -215.000
322.499;  -45.600; -343.000; -331.000
322.635;  155.575;  636.000;  443.000
322.771;    7.425; -139.000;   12.000
322.907;   87.050;  129.000;  327.000
323.043;  -46.400; -115.000; -206.000
323.179;  -29.500; -394.000; -363.000
323.315;   -8.300; -401.000; -371.000
323.451;   83.450; -328.000; -236.000
323.587;   47.400;  -60.000;  -77.000
323.723;    5.925; -682.000; -601.000
323.859;   -5.025; -258.000;  -76.000
323.995;  -48.850; -467.000; -409.000
324.131; -117.225; -967.000; -892.000
324.267;  -37.775; -254.000; -276.000
324.402; -143.800; -960.000; -983.000
324.538;  -28.925; -279.000; -104.000
324.674;   10.175;  164.000;   77.000
324.810;  117.425;  226.000;  308.000
324.946;  -20.400; -810.000; -658.000
325.082;  -77.400; -568.000; -475.000
325.217;  -21.600;  -62.000;   16.000
325.353; -116.550; -764.000; -659.000
325.489;  -96.475; -540.000; -506.000
325.625;  -78.725; -579.000; -525.000
325.760;   60.125;  517.000;  376.000
325.896;  -21.100; -515.000; -702.000
326.032;  -54.400; -403.000; -352.000
326.168;  -80.275; -462.000; -369.000
326.303;  -58.025; -352.000; -461.000
326.439;  -16.500; -336.000; -276.000
326.575;  -19.375; -190.000;  -29.000
326.710;  -14.275; -156.000;  -30.000
326.846;  -30.100;  146.000;  103.000
326.982; -103.950; -530.000; -548.000
327.117;  -74.325; -481.000; -442.000
327.253;  -84.600; -745.000; -742.000
327.388; -144.725;-1137.000;-1153.000
327.524;  -68.700; -811.000; -578.000
327.659;  -35.225;  -58.000;  -22.000
327.795;  -17.725;   69.000;   45.000
327.931;  -88.950; -723.000; -499.000
328.066;  -34.075; -417.000; -276.000
328.202;  -14.950;   12.000; -129.000
328.337;   92.600;  957.000;  713.000
328.473;   35.700;  -12.000;  -74.000
328.608;  -32.175; -256.000; -267.000
328.743;  -92.950; -799.000; -664.000
328.879;    9.075;  214.000;  114.000
329.014;  -33.950; -102.000; -122.000
329.150;  -75.350; -358.000; -483.000
329.285;  -89.050; -465.000; -466.000
329.421;  -57.000; -548.000; -246.000
329.556;  -21.175;  -36.000;   85.000
329.691; -101.650; -633.000; -615.000
329.827;  -98.775; -626.000; -480.000
329.962;  -38.175;  131.000; -301.000
330.097; -103.025; -673.000; -585.000
330.233;  -63.950; -410.000; -223.000
330.368; -122.050; -839.000; -628.000
330.503;  -21.025;    3.000;   98.000
330.638;  -13.300;  -93.000; -125.000
330.774;  -63.850; -609.000; -530.000
330.909;  -48.425; -434.000; -244.000
331.044;  -99.600; -714.000; -708.000
331.179; -183.450;-1217.000;-1109.000
331.315;    3.800;   77.000;   20.000
331.450;    2.700;  157.000;  285.000
331.585;  -97.775; -805.000; -706.000
331.720;  -93.725; -510.000; -460.000
331.855;  -11.325;  -35.000; -102.000
331.990;  254.750;   62.000;  138.000
332.126;  138.850; -110.000;   71.000
332.261;  -17.350; -379.000; -265.000
332.396;  -13.650; -135.000; -242.000
332.531; -102.000;-1074.000;-1031.000
332.666;   28.900; -519.000; -363.000
332.801; -111.300; -726.000; -807.000
332.936;  -31.350; -192.000; -122.000
333.071; -139.400; -870.000; -817.000
333.206;   14.225;  307.000;  379.000
333.341;   15.850;  344.000;  418.000
333.476;  -94.800; -627.000; -623.000
333.611;  -64.675; -251.000; -173.000
333.746;  -53.100; -381.000; -464.000
333.881; -134.625; -973.000; -935.000
334.016; -134.550; -936.000; -917.000
334.151; -137.925; -746.000; -702.000
334.286;   21.625;  152.000;  186.000
334.421;  -19.475; -125.000; -178.000
334.556;  -81.125; -611.000; -567.000
334.690;  -91.600; -631.000; -577.000
334.825;   57.325;  381.000;   83.000
334.960;  -67.250; -285.000; -413.000
335.095;   -3.125;  135.000;  -91.000
335.230; -114.300; -722.000; -738.000
335.365; -154.450;-1084.000; -990.000
335.499; -140.425;-1108.000;-1037.000
335.634;   15.900;    9.000;  534.000
335.769; -108.425; -755.000; -720.000
335.904;  -57.950; -603.000; -561.000
336.038;  -57.525; -735.000; -657.000
336.173; -117.175;-1206.000;-1194.000
336.308;  -19.425; -116.000; -189.000
336.443;   11.300; -544.000; -634.000
336.577;  -90.575; -936.000; -787.000
336.712;   43.600;   -4.000;  -12.000
336.847;  -48.300; -724.000; -607.000
336.981;   40.425; -272.000; -208.000
337.116;  266.800;  615.000;  501.000
337.250;  128.800; -434.000; -421.000
337.385;  235.400; -297.000; -208.000
337.520;   95.650; -632.000; -603.000
337.654;  -42.400; -215.000; -126.000
337.789; -130.900; -989.000; -933.000
337.923;  -43.450; -104.000; -205.000
338.058; -101.675; -673.000; -738.000
338.192;  -51.300; -611.000; -488.000
338.327;  -15.350;  -18.000; -155.000
338.461;  -80.125; -299.000; -469.000
338.596; -110.100; -780.000; -638.000
338.730; -102.300; -767.000; -803.000
338.865;   81.675;  -46.000; -140.000
338.999;  -59.600; -846.000; -702.000
339.134;  -25.050; -634.000; -536.000
339.268;    4.850; -741.000; -603.000
339.403;  354.025; -740.000; -775.000
339.537;  101.175; -894.000; -820.000
339.671; -119.425; -829.000; -813.000
339.806;  -66.675; -556.000; -512.000
339.940;   -2.300; -261.000; -235.000
340.074;  -98.725; -685.000; -510.000
340.209;  -45.350; -351.000; -230.000
340.343; -107.650; -517.000; -573.000
340.477;  146.500;  998.000; 1036.000
340.612;  -70.175;-1033.000; -900.000
340.746;  125.400; -199.000; -243.000
340.880;  -81.075; -924.000; -785.000
341.014;  -28.775;  -45.000; -154.000
341.149; -130.525; -756.000; -718.000
341.283; -124.500; -839.000; -754.000
341.417; -114.375;-1124.000; -938.000
341.551;  103.300; -768.000; -708.000
341.685;  -41.875; -633.000; -611.000
341.820;  -57.100; -562.000; -493.000
341.954;  -54.475; -218.000; -349.000
342.088; -145.650;-1102.000;-1019.000
342.222;   50.900;  565.000;  618.000
342.356;  -61.275; -395.000; -335.000
342.490; -100.650; -880.000; -841.000
342.624;  -52.525; -339.000; -242.000
342.758;  -26.425; -364.000; -312.000
342.892;  -75.925; -710.000; -585.000
343.026;  -46.175;  -58.000; -116.000
343.160;  -67.925; -426.000; -376.000
343.294;  -98.825; -474.000; -337.000
343.428;  -37.575; -488.000; -448.000
343.562;  -10.500; -172.000;  -23.000
343.696;  -31.350; -385.000; -314.000
343.830;  -40.000; -362.000; -356.000
343.964;    3.150; -231.000; -168.000
344.098;  797.200;  199.000;   70.000
344.232;  661.425; -266.000; -127.000
344.366;   78.125; -567.000; -453.000
344.500;   28.825; -665.000; -744.000
344.634;    7.750; -324.000; -164.000
344.768;  -18.375; -531.000; -341.000
344.902;   22.300;  278.000;  256.000
345.035;  -70.675; -556.000; -496.000
345.169; -147.675; -933.000; -656.000
345.303;  -73.100; -308.000; -482.000
345.437;  -81.675; -826.000; -717.000
345.571;  -75.975; -675.000; -594.000
345.704;  -66.275; -309.000; -532.000
345.838;  -31.075; -331.000; -284.000
345.972;  -60.775; -543.000; -495.000
346.106;  149.300; -179.000; -190.000
346.239;  384.275; -312.000; -243.000
346.373;    8.900; -343.000; -302.000
346.507; -136.850; -950.000; -962.000
346.640;  114.625;  -30.000;   13.000
346.774;  -72.550; -650.000; -797.000
346.908;  -19.500; -138.000;  -11.000
347.041; -107.075; -646.000; -593.000
347.175;    5.075;  259.000;   27.000
347.309;  -86.850; -698.000; -628.000
347.442; -102.425; -883.000; -732.000
347.576;  250.650;  670.000;  668.000
347.709;  167.300; -123.000;  -52.000
347.843; -103.000; -933.000; -825.000
347.976;   35.375;  235.000;  294.000
348.110; -197.025;-1268.000;-1186.000
348.243; -105.900; -679.000; -772.000
348.377;   -0.975;  -26.000;   60.000
348.510;   49.450;  403.000;  540.000
348.644;  -42.000;  -37.000; -159.000
348.777;  -14.300;  180.000;  191.000
348.911;  -77.375; -142.000; -112.000
349.044;  137.425;  471.000;  448.000
349.178;  125.575;-1069.000;-1006.000
349.311;  102.075;  141.000;  255.000
349.444;  -17.575; -927.000; -813.000
349.578;  -25.400; -347.000; -200.000
349.711; -102.825; -959.000; -862.000
349.845;  -32.000; -661.000; -591.000
349.978; -159.775;-1224.000;-1137.000
350.111;  -87.975; -546.000; -612.000
350.244;  -87.075; -596.000; -700.000
350.378;   -4.900; -392.000; -393.000
350.511;  -77.500; -393.000; -426.000
350.644; -101.350; -808.000; -806.000
350.778;    8.800;  168.000;  104.000
350.911;    0.725;  134.000;  140.000
351.044; -113.450; -685.000; -615.000
351.177;  -24.650; -321.000; -281.000
351.310;  -37.225;    3.000; -131.000
351.444;  -88.425; -888.000; -788.000
351.577;  104.375;  140.000;   90.000
351.710;   96.575;  593.000;  417.000
351.843;  -32.750; -165.000;  -77.000
351.976;   -3.775;  149.000;  -79.000
352.109;  -85.650; -621.000; -612.000
352.242;  -36.950; -464.000; -419.000
352.376;  -70.525; -580.000; -636.000
352.509;  139.975; -437.000; -356.000
352.642;  -13.475; -654.000; -604.000
352.775;   52.775; -141.000;  -98.000
352.908; -124.900; -933.000; -904.000
353.041; -112.000; -814.000; -824.000
353.174;  -66.300; -551.000; -424.000
353.307;  -90.225; -753.000; -764.000
353.440;   60.550;  541.000;  453.000
353.573; -125.675; -957.000;-1008.000
353.706;  -66.125; -384.000; -558.000
353.839;  -25.175; -264.000; -220.000
353.971; -110.225; -657.000; -512.000
354.104;  -89.000; -896.000; -835.000
354.237;  -47.825; -627.000; -662.000
354.370;  -85.075; -846.000; -879.000
354.503; -186.650;-1231.000;-1308.000
354.636;  -64.350; -529.000; -348.000
354.769; -142.650; -937.000; -860.000
354.902;   -6.900; -230.000; -139.000
355.034;  -26.300; -164.000; -220.000
355.167;  -13.100; -262.000; -162.000
355.300; -108.775;-1061.000; -880.000
355.433;  981.025;  -71.000;  -14.000
355.565; 1510.400; -402.000; -384.000
355.698;  390.700; -356.000; -296.000
355.831;  -16.200; -882.000; -801.000
355.964;   56.275; -285.000; -170.000
356.096; -100.400; -856.000; -843.000
356.229;   -1.375; -523.000; -530.000
356.362;  310.775; -373.000; -266.000
356.494;  595.875; -229.000; -162.000
356.627;  462.325;  269.000;  377.000
356.760;  648.425;  120.000;   53.000
356.892;  970.225; -286.000; -601.000
357.025;  592.925;  403.000;  389.000
357.157;  532.125; -167.000; -179.000
357.290;  675.000; -856.000; -713.000
357.423;  204.875; -667.000; -556.000
357.555;  103.575; -217.000; -228.000
357.688;  115.700; -483.000; -364.000
357.820;  421.250; -870.000; -877.000
357.953; 3392.625; -563.000; -589.000
358.085;  718.350; -632.000; -612.000
358.218;  974.300;-1131.000; -932.000
358.350;  181.025;  -58.000;  312.000
358.483; -144.325;-1300.000;-1187.000
358.615;  -44.725;-1182.000;-1078.000
358.747;  -91.000;-1187.000;-1058.000
358.880;    5.125; -810.000; -744.000
359.012;  -18.925; -376.000; -202.000
359.145;  -42.425; -480.000; -511.000
359.277;   30.475; -962.000; -913.000
359.409; 2792.275;  536.000;  231.000
359.542;  706.575; -738.000; -688.000
359.674;   62.400;   46.000;   13.000
359.806;  -67.025; -565.000; -438.000
359.939;  -47.800; -617.000; -516.000
360.071;  -15.325; -583.000; -579.000
360.203;  -33.525; -411.000; -364.000
360.335;   34.275;  164.000;  -16.000
360.468;  171.250; -249.000; -307.000
360.600; 2265.625; -547.000; -454.000
360.732; 2832.875; -546.000; -423.000
360.864;  381.175;-1216.000;-1044.000
360.996;  231.300; -516.000; -554.000
361.129;   21.075; -389.000; -598.000
361.261;   19.650;  110.000; -113.000
361.393;  -38.500; -252.000; -214.000
361.525;   20.925;   94.000;  244.000
361.657;  -47.400; -821.000; -703.000
361.789;   -5.500; -139.000; -155.000
361.921;  184.275; -642.000; -593.000
362.053;  227.125;  524.000;  541.000
362.185;   28.525;  288.000;   72.000
362.318;  -90.100; -709.000; -705.000
362.450;   87.275;  294.000;  444.000
362.582;   72.425; -913.000; -870.000
362.714;  -67.575; -353.000; -332.000
362.846;  -87.275; -606.000; -490.000
362.978; -150.350; -941.000; -811.000
363.109;   13.500; -161.000; -260.000
363.241;  347.400; -739.000; -749.000
363.373;  428.175; -649.000; -564.000
363.505;  673.325; -186.000;  -91.000
363.637;  139.150; -787.000; -601.000
363.769; -140.300;-1067.000;-1080.000
363.901;  -88.625; -596.000; -654.000
364.033; -126.775;-1103.000;-1062.000
364.165;  -10.725; -283.000; -283.000
364.296;   53.875; -316.000; -177.000
364.428;   58.300;-1344.000;-1220.000
364.560;  -78.125; -679.000; -661.000
364.692;  -73.250; -738.000; -835.000
364.824;  212.775; -588.000; -456.000
364.955;  418.175; -402.000; -564.000
365.087;  942.200;-1097.000; -852.000
365.219;   15.725; -686.000; -816.000
365.351;  -86.575; -526.000; -572.000
365.482;   39.950;  300.000;  240.000
365.614;  -57.800; -402.000; -314.000
365.746; -102.000; -729.000; -752.000
365.877; -111.500; -706.000; -672.000
366.009;  259.525;  -35.000;  -62.000
366.141; -104.400;-1249.000;-1134.000
366.272; -107.825; -803.000; -719.000
366.404; -125.650;-1005.000; -874.000
366.535;  -11.800; -139.000;  -12.000
366.667; -116.450; -644.000; -649.000
366.799;   26.850;  353.000;  203.000
366.930; -123.350; -862.000; -996.000
367.062;   99.725; -639.000; -613.000
367.193;  151.475; -872.000; -842.000
367.325;  -44.225; -580.000; -684.000
367.456;   33.925; -246.000;   31.000
367.588;  159.775; -371.000; -318.000
367.719;   22.100;  -44.000;  -45.000
367.851;  -27.100; -222.000; -241.000
367.982;  -62.525; -875.000; -732.000
368.113;   69.900; -475.000; -358.000
368.245; -140.625; -960.000; -841.000
368.376;  -32.850; -254.000; -302.000
368.508;  -48.200; -188.000; -263.000
368.639; -151.875;-1166.000;-1034.000
368.770;  -37.175; -670.000; -589.000
368.902;  -73.875; -836.000; -926.000
369.033; -116.575; -906.000; -855.000
369.164;  -56.675; -720.000; -653.000
369.296; -124.200; -452.000; -601.000
369.427;   -5.150; -209.000; -144.000
369.558;  -53.700; -593.000; -377.000
369.689; -100.300; -721.000; -569.000
369.821; -141.225; -951.000; -845.000
369.952;  -21.275;   42.000; -108.000
370.083;  -54.950; -229.000; -108.000
370.214;  -96.575; -735.000; -650.000
370.345;  -15.025;   65.000;   81.000
370.477;  -88.600; -810.000; -790.000
370.608;  185.900; -328.000; -264.000
370.739;  -65.625;-1233.000;-1292.000
370.870;  -62.025;-1102.000; -923.000
371.001;   63.200; -378.000; -467.000
371.132;  -89.600; -754.000; -735.000
371.263;  -12.825;  -42.000; -148.000
371.394; -151.675; -841.000; -748.000
371.525;   35.350;  345.000;  225.000
371.657;  -98.750; -808.000; -670.000
371.788;   78.225;  103.000;  199.000
371.919;  142.825; -384.000; -304.000
372.050; 3279.350;  -91.000; -156.000
372.181;  952.050; -188.000; -294.000
372.311;  320.775;   42.000; -127.000
372.442;   19.450; -457.000; -451.000
372.573;  -25.600; -444.000; -340.000
372.704; -118.000;-1008.000; -980.000
372.835;   41.175; -228.000; -289.000
372.966;  -60.775; -646.000; -554.000
373.097;  -79.950; -575.000; -711.000
373.228;  -44.575; -717.000; -542.000
373.359;   82.100; -824.000; -536.000
373.490;  826.150; -881.000; -727.000
373.620; 1012.600;-1001.000; -803.000
373.751; 1579.050; -332.000; -396.000
373.882;  675.350; -663.000; -733.000
374.013;   45.300; -449.000; -262.000
374.143;  -47.650; -581.000; -659.000
374.274; -119.250; -987.000; -908.000
374.405;  148.250; -388.000; -276.000
374.536;  387.650; -526.000; -387.000
374.666;  965.100; -759.000; -807.000
374.797;  159.900; -817.000; -868.000
374.928;  770.350; -710.000; -560.000
375.058;  759.050; -535.000; -500.000
375.189;   54.000;  -59.000;  -93.000
375.320; -119.075; -928.000;-1034.000
375.450;  -47.600; -625.000; -616.000
375.581;  -55.800; -526.000; -436.000
375.712;  -29.875; -574.000; -250.000
375.842;  248.850; -438.000; -415.000
375.973;  163.550; -554.000; -513.000
376.103;  -72.575; -665.000; -648.000
376.234;  -93.875; -531.000; -552.000
376.364;  -46.425; -944.000; -867.000
376.495;  288.225;  925.000;  529.000
376.625;  -17.025; -472.000; -485.000
376.756;   41.800; -709.000; -678.000
376.886;  -94.775;-1178.000;-1026.000
377.017;   42.450;-1048.000;-1061.000
377.147;  362.625; -786.000; -782.000
377.278;   63.050;  174.000;  228.000
377.408; -130.325; -801.000; -815.000
377.538; -101.300; -707.000; -693.000
377.669;  -95.425; -537.000; -613.000
377.799;  -99.650; -645.000; -635.000
377.929;  -77.875; -610.000; -428.000
378.060; -143.000; -781.000; -847.000
378.190;  -70.200; -726.000; -531.000
378.320;  -52.900; -401.000; -406.000
378.451;  -16.875; -131.000;  -22.000
378.581;  -20.700;  -67.000; -110.000
378.711;  134.425; 1035.000;  866.000
378.841;  -28.150; -533.000; -675.000
378.972;  -93.725; -871.000; -751.000
379.102;  -26.475; -652.000; -579.000
379.232;  -30.100; -126.000;  -73.000
379.362; -106.100;-1001.000; -885.000
379.492;  -19.275; -373.000; -424.000
379.623;   82.775;    0.000;  111.000
379.753;  -99.675;-1107.000; -974.000
379.883;  176.725;   59.000;  156.000
380.013;  -20.300;-1081.000;-1017.000
380.143; -109.975;-1097.000;-1056.000
380.273; -108.950; -985.000; -861.000
380.403;  -11.325; -344.000; -257.000
380.533;  -44.400; -651.000; -664.000
380.663;   52.825;  173.000;  128.000
380.793; -115.300;-1027.000;-1074.000
380.923;  -28.225; -103.000;  -34.000
381.053; -105.125; -613.000; -623.000
381.183;  -36.725; -106.000; -248.000
381.313;    5.500; -656.000; -470.000
381.443;   30.750; -692.000; -473.000
381.573;  151.000; -402.000; -409.000
381.703;  223.175;-1249.000;-1095.000
381.833; -154.000;-1454.000;-1336.000
381.963;  111.300; -134.000;  -87.000
382.093; 1253.675; -925.000; -909.000
382.223;  359.375; -713.000; -602.000
382.353;  -44.375; -801.000; -608.000
382.482;  318.325;-1091.000; -964.000
382.612;  682.800; -872.000; -644.000
382.742;  389.350; -695.000; -622.000
382.872;  214.100; -565.000; -551.000
383.002;   45.900;  347.000; -132.000
383.131;  -30.200; -226.000; -160.000
383.261;  -58.625; -706.000; -768.000
383.391;  272.300; -552.000; -377.000
383.521; 3228.125;  451.000;  263.000
383.650;  745.250; -947.000; -904.000
383.780;  -15.925; -783.000; -656.000
383.910;  101.775;  880.000;  802.000
384.039;   -2.525; -794.000; -656.000
384.169;  158.900;-1205.000;-1017.000
384.299;  -29.975; -650.000; -662.000
384.428; -103.300; -764.000; -680.000
384.558;  -41.625; -308.000; -275.000
384.687;  -47.075; -414.000; -334.000
384.817;   -6.100;   75.000;   -2.000
384.947;   -2.575; -234.000; -141.000
385.076;  267.025;  982.000;  912.000
385.206;   94.300;  369.000;  480.000
385.335;  -42.300; -549.000; -417.000
385.465;  -87.000; -655.000; -663.000
385.594;  108.225;  -53.000;  -44.000
385.724;  357.100; -868.000; -838.000
385.853;  100.100; -296.000; -270.000
385.982; 1189.525; -743.000; -787.000
386.112; 1887.425;-1052.000; -871.000
386.241;  116.825; -307.000; -312.000
386.371;   12.825; -174.000;  -87.000
386.500;  -23.200; -825.000; -789.000
386.629;   18.625; -874.000; -817.000
386.759;   65.625;  -43.000;   68.000
386.888;  -17.175; -170.000; -250.000
387.017;  -90.400; -648.000; -620.000
387.147;  -92.600; -771.000; -798.000
387.276;  -12.750; -410.000; -397.000
387.405;    0.775; -398.000; -342.000
387.535;  -46.225; -452.000; -361.000
387.664;  -63.900; -692.000; -620.000
387.793;   44.475; -198.000; -113.000
387.922;  458.800;  255.000;  200.000
388.052;   -7.025; -576.000; -423.000
388.181;    6.475; -342.000; -472.000
388.310;  -34.000; -889.000; -710.000
388.439;  -60.425; -749.000; -742.000
388.568;  164.275;  365.000;  244.000
388.697;  916.200; -756.000; -653.000
388.826;  159.125; -768.000; -666.000
388.956;   30.625; -285.000; -307.000
389.085;  -49.450; -347.000; -287.000
389.214; -113.850; -842.000; -872.000
389.343;  -73.750; -645.000; -413.000
389.472;  403.200;  126.000;  149.000
389.601;  488.575;   91.000;    0.000
389.730;    4.675; -568.000; -687.000
389.859;   50.350;  226.000;   46.000
389.988;  154.625; -423.000; -408.000
390.117;  102.550; -168.000; -146.000
390.246;  -22.675; -331.000; -320.000
390.375;   60.050; -673.000; -626.000
390.504;  -86.100; -703.000; -621.000
390.633; -114.725; -672.000; -726.000
390.761;  -78.425; -732.000; -645.000
390.890;   18.150;   -4.000; -130.000
391.019;  -39.450; -421.000; -441.000
391.148; -148.675; -826.000; -855.000
391.277;  -66.500; -576.000; -493.000
391.406;  -94.425; -821.000; -805.000
391.534;   10.900;  574.000; -301.000
391.663;  -73.975; -583.000; -645.000
391.792;  -87.550; -673.000; -701.000
391.921;   71.225;   -3.000;   15.000
392.050;  139.225; -287.000; -228.000
392.178;  -67.950;-1206.000;-1061.000
392.307;  116.650; -758.000; -712.000
392.436;   36.750; -427.000; -641.000
392.564;    5.325;  166.000;   -6.000
392.693;  -98.825; -860.000; -682.000
392.822;  160.700; -529.000; -534.000
392.950;   52.000; -880.000; -714.000
393.079;  288.875; -188.000; -328.000
393.208;    1.350; -488.000; -511.000
393.336;  -21.750; -170.000; -145.000
393.465;  -65.275; -317.000; -199.000
393.593;   -7.225;   62.000;   79.000
393.722; -145.825;-1121.000; -916.000
393.850;  -23.425; -188.000;  -61.000
393.979; -148.725; -926.000; -805.000
394.107;  -78.700; -517.000; -537.000
394.236;  -38.650; -570.000; -507.000
394.364;  159.775;  383.000;  206.000
394.493;  220.450; -911.000; -767.000
394.621;  -21.075; -955.000; -916.000
394.750;  708.500; -873.000; -923.000
394.878; 2985.000; -247.000; -149.000
395.007; 3976.775; -721.000; -807.000
395.135;  297.775; -790.000; -721.000
395.263;  -87.750;-1038.000;-1040.000
395.392;   -9.225;  -25.000; -107.000
395.520; -157.250; -818.000; -679.000
395.648; -109.200; -865.000; -915.000
395.777;  -17.300; -366.000; -405.000
395.905;  -55.550; -449.000; -564.000
396.033;   -4.225;  217.000;  172.000
396.162;  398.000; -399.000; -453.000
396.290;  351.775;  -17.000;   -2.000
396.418;   76.125; -555.000; -514.000
396.546;  -94.700; -571.000; -466.000
396.674; -123.900; -850.000; -878.000
396.803;   -4.175;  -72.000;  -23.000
396.931;   70.125; -179.000; -199.000
397.059;    1.050;-1026.000; -989.000
397.187; -125.400;-1026.000; -975.000
397.315; -146.175; -884.000; -649.000
397.443;  -94.625; -592.000; -443.000
397.572; -102.650; -578.000; -424.000
397.700;  -34.350; -607.000; -614.000
397.828;    5.675;  120.000;  -90.000
397.956;  -48.825; -508.000; -478.000
398.084;  -75.925; -767.000; -626.000
398.212;   33.750;  137.000;  124.000
398.340;  -15.500;  -56.000;  159.000
398.468;    2.900; -390.000; -169.000
398.596; -156.650; -993.000; -953.000
398.724; -132.350; -762.000; -767.000
398.852; -174.250;-1024.000; -976.000
398.980;  -80.200; -560.000; -560.000
399.108;  -76.250; -982.000; -735.000
399.236;   31.250;   13.000;    8.000
399.363;    3.575;  222.000;  196.000
399.491;  -69.725; -404.000; -398.000
399.619; -127.825; -829.000; -800.000
399.747; -106.825; -859.000; -771.000
399.875;   66.225;  220.000;  234.000
400.003;  -55.025; -359.000; -284.000
400.130; -101.675; -421.000; -341.000
400.258;  -22.825;  -83.000;   38.000
400.386;  -61.225; -352.000; -168.000
400.514;  -65.775; -526.000; -587.000
400.641; -103.375; -928.000; -802.000
400.769; -142.725; -979.000; -888.000
400.897; -126.700; -838.000; -793.000
401.025;  -24.775; -166.000; -152.000
401.152;  -19.250;  220.000;   38.000
401.280;  -90.475; -430.000; -429.000
401.408; -127.425; -712.000; -576.000
401.535; -107.850; -735.000; -758.000
401.663; -193.775;-1134.000;-1054.000
401.790;  -93.150; -514.000; -525.000
401.918;   27.575;  436.000;  405.000
402.046;  -24.800;  134.000;  122.000
402.173;  -35.250;  -18.000;    7.000
402.301;  -75.575; -519.000; -397.000
402.428;   28.950;  528.000;  383.000
402.556; -156.500;-1188.000; -913.000
402.683;  -39.475;  -20.000;   -1.000
402.811;  -29.250;  -37.000; -206.000
402.938;  -18.975;   20.000;   27.000
403.066;  179.150; -574.000; -558.000
403.193;  302.975;  299.000;  239.000
403.321;  232.100; -396.000; -574.000
403.448;  290.475;   83.000;   27.000
403.575;  135.400;  -90.000;  -46.000
403.703; -115.550; -732.000; -557.000
403.830;  -92.800; -531.000; -496.000
403.957; -170.150;-1117.000;-1023.000
404.085;    8.425;  -61.000; -172.000
404.212;   79.325;  -50.000;   63.000
404.339;  265.000; -566.000; -306.000
404.467; 5893.925; -612.000; -524.000
404.594; 3729.225; -287.000; -227.000
404.721;  823.550; -869.000; -764.000
404.848;   64.925; -113.000; -202.000
404.976; -107.875; -856.000; -783.000
405.103;   -9.950;  -14.000;  -82.000
405.230;  -13.475;  190.000;  226.000
405.357;   16.000;  117.000;   44.000
405.484;  249.175;  -49.000;    5.000
405.612;   29.400; -548.000; -563.000
405.739;  -76.650; -488.000; -243.000
405.866;   87.525;  669.000;  385.000
405.993;  -58.700; -398.000; -102.000
406.120; -148.725; -801.000; -887.000
406.247;  -75.850; -323.000; -342.000
406.374;  387.225;  540.000;  629.000
406.501;   64.975; -632.000; -702.000
406.628;  -85.675; -621.000; -589.000
406.755; -115.775; -803.000; -620.000
406.882;  -53.225; -228.000; -277.000
407.009; -126.950; -719.000; -628.000
407.136;   14.750; -480.000; -401.000
407.263;   70.525; -939.000; -829.000
407.390;  -87.700; -692.000; -614.000
407.517; -189.025;-1139.000;-1187.000
407.644;  -80.150; -332.000; -256.000
407.771;  -86.225; -249.000; -287.000
407.898;   -2.650;  168.000;  328.000
408.025;  -75.325; -421.000; -313.000
408.151;  -16.025;   82.000;  153.000
408.278;  -76.650; -267.000; -216.000
408.405; -133.425; -931.000; -899.000
408.532;  -73.475; -549.000; -542.000
408.659; -113.050; -677.000; -648.000
408.785; -208.675;-1298.000;-1170.000
408.912;  -64.075; -412.000; -296.000
409.039; -110.350; -610.000; -686.000
409.166; -117.175; -591.000; -555.000
409.292; -121.175; -571.000; -534.000
409.419; -121.775; -665.000; -649.000
409.546;  -95.975; -431.000; -192.000
409.672; -102.650; -713.000; -545.000
409.799;  -50.050;  -36.000;   34.000
409.926;  -47.225; -180.000; -179.000
410.052; -188.275;-1127.000;-1091.000
410.179;  -74.250; -368.000; -392.000
410.305; -106.900; -375.000; -493.000
410.432;  -42.875; -220.000; -333.000
410.558; -100.950; -305.000; -380.000
410.685; -109.925; -688.000; -431.000
410.812;  -92.800; -409.000; -588.000
410.938; -143.200; -964.000; -808.000
411.065; -117.175; -671.000; -645.000
411.191;  -25.950; -189.000; -174.000
411.317; -139.775; -823.000; -742.000
411.444;  -68.250; -317.000; -246.000
411.570;  -72.725; -339.000; -294.000
411.697; -136.450; -758.000; -752.000
411.823; -191.975; -989.000; -999.000
411.949;  -38.450;  -56.000;   17.000
412.076; -119.525; -539.000; -519.000
412.202; -114.925; -758.000; -757.000
412.329; -146.675; -798.000; -752.000
412.455; -109.875; -821.000; -657.000
412.581;  -19.500;  -15.000;  172.000
412.707;  -87.750; -540.000; -457.000
412.834;    2.900;  156.000;  219.000
412.960;  -95.900; -785.000; -784.000
413.086; -108.850; -743.000; -701.000
413.212;  123.600;  604.000;  578.000
413.339;  -76.675; -685.000; -701.000
413.465;  -19.075; -364.000; -310.000
413.591; -110.100; -757.000; -474.000
413.717;  -45.600; -358.000; -366.000
413.843; -158.725; -839.000; -861.000
413.969;  -74.950;  -47.000; -292.000
414.096; -120.550; -679.000; -679.000
414.222;  -15.325;  -33.000;   85.000
414.348;  -47.750; -652.000; -385.000
414.474;   76.425;   38.000;  -52.000
414.600;  -36.000; -126.000; -144.000
414.726;  -34.125;  -96.000;  -55.000
414.852;  -85.150; -365.000; -342.000
414.978;   33.700;  104.000;  -18.000
415.104;   31.750;   38.000;   80.000
415.230;    5.950; -329.000; -330.000
415.356;   11.800; -409.000; -514.000
415.482;  195.025;   13.000;  -35.000
415.608;  262.550; -247.000; -323.000
415.734;  950.500;   67.000;   38.000
415.860;20258.275; -875.000; -767.000
415.986;14392.750; -685.000; -607.000
416.111; 1207.250; -798.000; -652.000
416.237;  253.625; -424.000; -571.000
416.363; 1157.025; -765.000; -733.000
416.489; 4231.625; -324.000; -251.000
416.615;  428.425; -707.000; -742.000
416.741;  -37.550; -677.000; -784.000
416.866; -101.775; -673.000; -736.000
416.992; -136.350; -801.000; -818.000
417.118;  -32.725;  -41.000;  -80.000
417.244;  -89.925; -798.000; -531.000
417.369; -100.500; -801.000; -612.000
417.495;  -25.725; -325.000; -254.000
417.621;  -89.850;-1015.000; -803.000
417.746;   -0.550; -579.000; -572.000
417.872;   37.300; -254.000; -144.000
417.998;   37.600; -515.000; -530.000
418.123; 1076.375;-1073.000; -845.000
418.249; 5415.175; -512.000; -601.000
418.374;  748.975; -916.000; -824.000
418.500;  103.600; -383.000; -482.000
418.626;  101.925;   70.000;  -59.000
418.751;   90.200; -549.000; -448.000
418.877;  186.225; -637.000; -643.000
419.002; 1851.000; -688.000; -560.000
419.128;12826.000; -930.000; -721.000
419.253; 3065.325; -967.000; -837.000
419.379;  393.575; -391.000; -338.000
419.504;  391.675;  325.000;  415.000
419.629;  520.375; -393.000; -212.000
419.755; 3700.525; -317.000; -254.000
419.880;21688.450;  -98.000;   67.000
420.006;11614.000; -280.000; -221.000
420.131;29794.375; -662.000; -775.000
420.256; 4206.200; -315.000; -316.000
420.382;  544.950; -665.000; -687.000
420.507;   57.000; -649.000; -778.000
420.632;  105.250; -337.000; -339.000
420.758;  195.500; -251.000; -425.000
420.883;  -98.800; -876.000; -672.000
421.008; -107.925; -775.000; -619.000
421.133; -104.200; -509.000; -467.000
421.259;  -62.425; -325.000; -259.000
421.384; -132.625; -834.000; -693.000
421.509;  -61.675;-1052.000; -862.000
421.634; 1002.350; -936.000; -820.000
421.759;  406.975; -359.000; -327.000
421.885;  -79.675; -717.000; -656.000
422.010;  -86.300; -673.000; -542.000
422.135; -146.050; -695.000; -727.000
422.260;   31.625;  340.000;  280.000
422.385;  -52.225;   12.000;  -98.000
422.510;   -1.750;  151.000;  -26.000
422.635;   -1.050;  -87.000;  -43.000
422.760;   64.625; -766.000; -791.000
422.885;   51.275;  -57.000;  -80.000
423.010;  -33.350; -112.000; -169.000
423.135; -104.725; -481.000; -561.000
423.260;  -28.775; -150.000; -245.000
423.385;   54.975;  476.000;  222.000
423.510;   28.150;   71.000;  -22.000
423.635;   54.175;  133.000;   45.000
423.760;   40.475;  383.000;  328.000
423.885;   39.975;  336.000;  391.000
424.010;    1.325;  -68.000;  -13.000
424.135;  -26.475;    5.000;  -33.000
424.259;  -98.875; -654.000; -457.000
424.384;  -77.850; -279.000; -272.000
424.509;  -37.650; -260.000; -186.000
424.634; -113.625; -761.000; -623.000
424.759;  -24.750; -688.000; -544.000
424.883;  -35.500; -506.000; -527.000
425.008;  161.500; -502.000; -410.000
425.133; 2031.500; -679.000; -653.000
425.258;  912.900; -517.000; -381.000
425.382;  924.150; -867.000; -774.000
425.507; 2365.250; -487.000; -543.000
425.632;  391.000; -802.000; -663.000
425.756;  454.050; -256.000; -146.000
425.881; 6813.775; -831.000; -857.000
426.006;18209.250; -604.000; -355.000
426.130; 2783.500; -696.000; -508.000
426.255;  357.275; -611.000; -491.000
426.379;  158.775; -189.000; -577.000
426.504;  379.700;  660.000;  544.000
426.629; 4096.650; -519.000; -466.000
426.753; 2770.450;   64.000;  -46.000
426.878;  324.525; -252.000; -288.000
427.002;  125.150; -651.000; -668.000
427.127; 1626.450;  -35.000; -158.000
427.251;11583.025;  372.000;  401.000
427.375; 3202.925; -191.000; -173.000
427.500; 2079.600; -616.000; -610.000
427.624;  687.425; -234.000; -400.000
427.749;   74.625; -216.000; -225.000
427.873;  -49.575; -499.000; -412.000
427.997;  -46.400; -222.000; -230.000
428.122;   54.075;  795.000;  703.000
428.246;   49.400;  433.000;  434.000
428.371; -146.225; -869.000; -773.000
428.495; -117.650; -624.000; -646.000
428.619;  -51.900; -186.000; -117.000
428.743;    6.150;   65.000;  132.000
428.868;    0.125; -732.000; -643.000
428.992; 1265.750; -219.000; -326.000
429.116;  487.000; -329.000; -357.000
429.240;  236.550;  419.000;  426.000
429.365;  -30.500; -454.000; -574.000
429.489;  -56.475; -638.000; -647.000
429.613;    3.550; -236.000; -177.000
429.737;   18.400; -563.000; -432.000
429.861;  271.125; -247.000; -133.000
429.985; 5631.700; -425.000; -305.000
430.109; 6148.500; -770.000; -908.000
430.234;  692.400;   76.000;  -50.000
430.358;   56.075; -250.000; -160.000
430.482;  -77.450; -672.000; -564.000
430.606;  -57.700; -655.000; -375.000
430.730;   -6.725; -437.000; -388.000
430.854;   81.375; -909.000; -835.000
430.978;  -91.525; -795.000; -764.000
431.102; -106.000; -499.000; -422.000
431.226; -124.275; -874.000; -815.000
431.350;   18.525;  345.000;  422.000
431.474;  -82.575; -661.000; -373.000
431.597; -150.600;-1060.000; -848.000
431.721;  -86.200; -276.000; -267.000
431.845; -130.425; -704.000; -472.000
431.969;  -98.475; -304.000; -349.000
432.093; -101.325; -395.000; -317.000
432.217;  -15.525;   32.000;   82.000
432.341; -112.275; -523.000; -518.000
432.464;   -0.650;   96.000;   40.000
432.588;  158.375; -401.000; -329.000
432.712;   79.650;  -52.000;  -52.000
432.836;   41.725;  213.000;  263.000
432.959;  -32.925; -372.000; -311.000
433.083;   91.200;   11.000;    2.000
433.207;  370.450;  285.000;  930.000
433.330; 5186.575; -391.000; -200.000
433.454; 6297.900; -654.000; -638.000
433.578; 3615.150;  583.000;  278.000
433.701;  654.125; -623.000; -675.000
433.825;  118.600; -292.000; -299.000
433.949;  142.200;   28.000;  -72.000
434.072;    8.925; -410.000; -323.000
434.196;  -27.025; -309.000; -117.000
434.319; 3772.850;25482.000;25124.000
434.443;  713.125; -656.000; -603.000
434.566; 2670.475;  281.000;   62.000
434.690;  434.075; -637.000; -383.000
434.813;   30.300; -251.000; -173.000
434.937;  -85.650; -569.000; -696.000
435.060;  -62.225; -423.000; -332.000
435.184;  225.125; -492.000; -217.000
435.307;  125.975;  159.000;  102.000
435.431;  -10.425;  -40.000;   24.000
435.554;  -92.650; -399.000; -240.000
435.677;  -94.600; -350.000; -258.000
435.801;  -48.525;  -25.000;   49.000
435.924;  -21.425;    1.000;  -67.000
436.048; -135.575;-1019.000; -732.000
436.171;  -84.900; -240.000;  -66.000
436.294;  -37.225; -248.000; -229.000
436.417;   98.650; -963.000; -849.000
436.541;  -94.125; -814.000; -840.000
436.664;  -60.450; -242.000; -316.000
436.787;  -41.175;   13.000;  113.000
436.910; -132.125; -792.000; -422.000
437.034;  -10.025;  142.000;  143.000
437.157;   29.500;  -11.000;    0.000
437.280;  -70.975; -392.000; -292.000
437.403; -104.525; -982.000; -869.000
437.526;  525.750; -903.000; -865.000
437.649; 1929.125; -505.000; -332.000
437.772;  238.925; -692.000; -540.000
437.896;   98.925;  700.000;  544.000
438.019; -116.700; -758.000; -503.000
438.142; -111.350; -596.000; -506.000
438.265;  -28.450; -639.000; -670.000
438.388;  466.325; -520.000; -410.000
438.511;   48.425; -597.000; -394.000
438.634;  -76.225; -247.000; -125.000
438.757; -155.600; -693.000; -619.000
438.880;  -32.025;  -34.000;  -57.000
439.003; -101.175; -417.000; -437.000
439.126;  -77.725; -287.000; -167.000
439.248;  -68.750;  -98.000; -139.000
439.371;  -56.075;    9.000;  -53.000
439.494;    1.050;  510.000;  439.000
439.617;  -73.100;   65.000;  -88.000
439.740; -184.200; -968.000; -816.000
439.863; -137.775; -755.000; -595.000
439.986; -134.225; -476.000; -431.000
440.108;  -63.000; -161.000; -112.000
440.231; -176.975; -950.000; -836.000
440.354;  -49.350;  -64.000; -150.000
440.477;   -2.825; -566.000; -542.000
440.599;  -17.325; -200.000; -225.000
440.722; -130.550; -709.000; -586.000
440.845;   74.425;  751.000;  928.000
440.968; -125.000; -415.000; -311.000
441.090;  -75.525; -199.000;  -33.000
441.213; -179.250;-1021.000; -825.000
441.336;  -42.575; -159.000;   -5.000
441.458;  -78.550; -549.000; -396.000
441.581;  -99.700; -628.000; -629.000
441.703;  -84.825; -152.000;   13.000
441.826; -114.875; -557.000; -400.000
441.948;  -55.800;   56.000;   51.000
442.071;   20.750;  555.000;  424.000
442.193; -123.600; -531.000; -485.000
442.316;   12.000;  152.000;   97.000
442.438;   24.250; -233.000;  -10.000
442.561;   54.525;  272.000;  262.000
442.683;  423.100; -809.000; -522.000
442.806;  982.300;   -8.000;   74.000
442.928;  -13.675; -859.000; -604.000
443.051;  -84.525; -577.000; -373.000
443.173; -103.350; -341.000; -339.000
443.295; -102.050; -263.000; -371.000
443.418;  -87.275; -321.000;  -29.000
443.540;  -26.900; -106.000;   -4.000
443.662; -139.750; -563.000; -465.000
443.785;  -29.075;  335.000;  199.000
443.907;  -88.400; -362.000; -208.000
444.029; -134.425; -767.000; -494.000
444.152; -151.850; -644.000; -554.000
444.274;  -49.250;  -18.000;  -24.000
444.396; -121.375; -461.000; -221.000
444.518; -129.875; -691.000; -454.000
444.640; -116.075; -268.000; -111.000
444.763;  -36.675;  388.000;  249.000
444.885; -129.200; -432.000; -392.000
445.007;  -42.950;   35.000;   86.000
445.129; -123.725; -610.000; -515.000
445.251; -111.825; -372.000; -439.000
445.373; -155.025; -537.000; -386.000
445.495;    3.700;  242.000;  350.000
445.617;   45.175;  853.000;  753.000
445.739;  -76.275; -215.000;  -97.000
445.861;  -50.525; -245.000; -112.000
445.984;  -45.575; -267.000; -101.000
446.105;  162.925; -418.000; -251.000
446.227;  501.500; -176.000;  -19.000
446.349;  -25.425; -358.000; -249.000
446.471; -105.200; -615.000; -448.000
446.593;  -86.225; -316.000;   19.000
446.715;  -28.825;  -67.000;   41.000
446.837;   53.950;  697.000;  832.000
446.959;  -95.650; -457.000; -478.000
447.081; -137.575; -628.000; -518.000
447.203;   44.775;  862.000;  834.000
447.325;  -90.050; -270.000;   42.000
447.446;  -26.150;  286.000;  530.000
447.568; -163.100; -921.000; -803.000
447.690;  -90.025; -236.000; -245.000
447.812; -151.925; -798.000; -519.000
447.933;  -43.425;  155.000;  127.000
448.055;  -81.150; -306.000; -261.000
448.177;  121.075;   31.000;   79.000
448.299;   33.875; -935.000; -727.000
448.420;    6.950;  -25.000;  159.000
448.542;  -44.800;   -3.000;   33.000
448.664;  -28.900;  109.000;  322.000
448.785;  -35.725;  265.000;   83.000
448.907;  -90.675; -614.000; -353.000
449.028;  -58.225; -771.000; -471.000
449.150;   48.175;  492.000;  589.000
449.272; -175.550;-1044.000; -913.000
449.393;   25.600;  612.000;  694.000
449.515; -152.475; -634.000; -581.000
449.636;  -64.075; -264.000; -155.000
449.758;   54.025;  763.000;  622.000
449.879; -107.175; -498.000; -396.000
450.001;  -90.875; -149.000;  -49.000
450.122;  -41.225;  -95.000;  162.000
450.244;  -27.800;   37.000;  364.000
450.365; -109.975; -495.000; -301.000
450.486;  -33.150;   80.000;  268.000
450.608;    1.075;  393.000;  326.000
450.729;   63.300;  578.000;  645.000
450.850;    4.400; -574.000; -466.000
450.972;  783.275; -552.000; -389.000
451.093; 5061.600;  190.000;  588.000
451.214; 2134.750; -516.000; -337.000
451.336;  368.175;  773.000;  579.000
451.457;   42.500;  264.000;  393.000
451.578;  -51.625; -118.000;  -74.000
451.699; -125.850; -546.000; -540.000
451.821;  -71.650; -284.000;  -50.000
451.942;   -4.950;  278.000;  285.000
452.063;   27.075;  228.000;  419.000
452.184;  552.875;  -54.000;  -49.000
452.305; 1100.925;  103.000;  170.000
452.427;  110.250; -549.000; -301.000
452.548;  -24.150;   23.000;   79.000
452.669;  -66.875; -257.000;  -89.000
452.790;  -56.350;    3.000;  -18.000
452.911;  -18.350;  195.000;  259.000
453.032;  -72.500; -289.000;  -60.000
453.153;  -41.300;  -29.000;   81.000
453.274;   56.675;  737.000;  868.000
453.395;  -53.850;  -51.000;  175.000
453.516;  114.750; 1317.000; 1388.000
453.637;  -88.325; -205.000; -150.000
453.758;  -69.900;   15.000;   69.000
453.879; -125.425; -462.000; -250.000
454.000;   75.250; 1086.000;  948.000
454.121; -132.525; -554.000; -326.000
454.242; -129.375; -599.000; -383.000
454.362;  -68.550;  -99.000;  114.000
454.483;  -54.350; -309.000; -229.000
454.604;   50.300;  512.000;  580.000
454.725; -137.225; -627.000; -555.000
454.846; -131.900; -474.000; -406.000
454.967;  -34.425;  230.000;  539.000
455.087;  -49.300;  179.000;  153.000
455.208;    9.825;  554.000;  856.000
455.329;  -64.275;  -22.000;   82.000
455.450;   28.850;  473.000;  633.000
455.570;  -98.875; -234.000; -211.000
455.691;  -54.575;  201.000;  407.000
455.812; -125.025; -270.000;  -92.000
455.932;  -78.925;  107.000;  -97.000
456.053;  -78.175;   36.000;   24.000
456.173; -121.250; -433.000; -355.000
456.294; -140.725; -476.000; -303.000
456.415;  -74.550;  -73.000;   70.000
456.535;  -42.800;  297.000;  273.000
456.656;  -44.625;  132.000;  240.000
456.776;  -82.000;    3.000;  298.000
456.897;  -10.150;  308.000;  513.000
457.017;  -84.925; -153.000;   -3.000
457.138; -112.325; -402.000; -249.000
457.258;  -53.750;  263.000;  224.000
457.379;  -21.925;  509.000;  521.000
457.499;  -37.625;  443.000;  432.000
457.620; -142.325; -407.000; -231.000
457.740; -104.500; -132.000;  -11.000
457.860;  -69.125;   87.000;   44.000
457.981;  -63.925;  132.000;  124.000
458.101;  -76.400;  -89.000;   40.000
458.221;  -28.275;  336.000;  402.000
458.342;  -64.900;   -4.000;  -37.000
458.462;    8.600;  617.000;  352.000
458.582;  -49.150; -302.000; -294.000
458.703;    9.025;  303.000;  154.000
458.823;  -47.175;   22.000;  163.000
458.943;   12.225;  341.000;  467.000
459.063;  -28.425; 1124.000;  192.000
459.183;  -40.775;  328.000;  313.000
459.304;   12.250;  315.000;  517.000
459.424;  -72.025; -246.000;  -89.000
459.544;  336.550;  388.000;  764.000
459.664;  859.575;  499.000;  506.000
459.784;  308.925; 1004.000; 1175.000
459.904;   50.825;  867.000;  744.000
460.024;   48.900;  867.000;  684.000
460.144;   -6.275;  449.000;  554.000
460.264;   -9.875;  515.000;  327.000
460.385; -113.100; -145.000; -119.000
460.505;   48.900;  905.000;  858.000
460.625;  -86.125;  -17.000;  -68.000
460.745;  -39.100;  396.000;  541.000
460.864;  -56.675;  153.000;  469.000
460.984;    6.075;  499.000;  573.000
461.104;  115.925; 1656.000; 1775.000
461.224;   23.825;  657.000;  650.000
461.344;  -44.200;  431.000;  360.000
461.464;  -45.325;  258.000;  513.000
461.584;  -35.900;  283.000;  466.000
461.704;  -72.450;   58.000;  108.000
461.824;  -62.925;  238.000;  259.000
461.943;  -39.075;  191.000;  130.000
462.063;  -84.125;    2.000;  324.000
462.183;   29.225;  639.000;  717.000
462.303;   93.150; 1678.000; 1230.000
462.422;   34.400;  781.000;  840.000
462.542;  -48.950;  271.000;  391.000
462.662;   22.775;  353.000;  380.000
462.782;  241.475;  833.000;  572.000
462.901;  479.850;  545.000;  717.000
463.021;  274.925; 1702.000; 1638.000
463.141;  -19.275;  337.000;  770.000
463.260;  -31.075;  614.000;  474.000
463.380;    6.750;  902.000;  884.000
463.499;  -35.950;  342.000;  332.000
463.619;  -35.400;  581.000;  559.000
463.738;  104.700; 1644.000;  903.000
463.858;   10.250;  657.000;  811.000
463.978;  -49.450;  542.000;  396.000
464.097;   31.750;  921.000; 1114.000
464.217;  118.000; 1196.000; 1143.000
464.336;  111.450; 1068.000; 1130.000
464.455;  -40.025;  328.000;  659.000
464.575;   30.975;  597.000;  602.000
464.694;  145.550; 1204.000; 1179.000
464.814;  115.600; 1190.000; 1138.000
464.933;   70.950; 1095.000; 1027.000
465.052;   77.325; 1412.000; 1054.000
465.172;   63.150;  922.000;  799.000
465.291;  137.175; 1376.000; 1320.000
465.410;   -8.800;  462.000;  735.000
465.530;   88.550; 1355.000; 1310.000
465.649;   65.075; 1209.000; 1273.000
465.768;  132.400; 1673.000; 1508.000
465.888;   36.800;  941.000; 1174.000
466.007;  106.675; 1335.000; 1440.000
466.126;    1.600;  721.000;  641.000
466.245;   23.725; 1176.000; 1187.000
466.364;   26.275;  950.000; 1060.000
466.484;   58.850; 1024.000; 1213.000
466.603;   25.075; 1101.000; 1222.000
466.722;   96.150; 1490.000; 1769.000
466.841;   76.875; 1151.000; 1401.000
466.960;   36.900; 1069.000;  972.000
467.079;  116.500; 1971.000; 1786.000
467.198;   43.725; 1238.000; 1181.000
467.317;   77.425; 1768.000; 1162.000
467.436;   71.175; 1709.000; 1261.000
467.555;  106.850; 1796.000; 1746.000
467.674;   55.225; 1227.000; 1329.000
467.793;   47.775; 1376.000; 1374.000
467.912;   88.975; 1658.000; 1539.000
468.031;  118.100; 2038.000; 1930.000
468.150;  125.500; 1842.000; 1837.000
468.269;  183.475; 2313.000; 2090.000
468.388;  182.400; 2168.000; 2339.000
468.507;  232.325; 2884.000; 2903.000
468.626;  236.100; 2555.000; 2541.000
468.744;  126.975; 2018.000; 2174.000
468.863;  203.975; 2312.000; 2523.000
468.982;   93.625; 1503.000; 1555.000
469.101;  216.150; 2788.000; 2692.000
469.220;  134.925; 2333.000; 2176.000
469.338;  259.525; 2935.000; 3051.000
469.457;  195.100; 2719.000; 2545.000
469.576;  339.075; 3953.000; 3784.000
469.695;  234.525; 2877.000; 3066.000
469.813;  423.450; 4148.000; 4192.000
469.932;  391.900; 4255.000; 4485.000
470.051;  411.125; 4075.000; 4161.000
470.169;  865.000; 4470.000; 4338.000
470.288; 1486.050; 4700.000; 4809.000
470.406;  862.875; 5059.000; 5194.000
470.525;  635.925; 6101.000; 5787.000
470.644;  639.550; 6847.000; 6794.000
470.762;  821.375; 8397.000; 7873.000
470.881;  938.325; 8651.000; 8464.000
470.999; 1036.050; 9685.000; 9151.000
471.118; 1123.750;11174.000;10711.000

