
Integration time [ms]: 100.000
Averaging Nr. [scans]: 40
Smoothing Nr. [pixels]: 0
Data measured with spectrometer [name]: 2101012U2
Wave   ;Sample   ;Dark     ;Reference
[nm]   ;[counts] ;[counts] ;[counts] 

197.733;   50.050;  516.000;  404.000
197.879;  -87.600; -610.000; -634.000
198.025;  -63.100; -475.000; -420.000
198.171;  -72.250; -602.000; -612.000
198.317;  -25.975; -401.000; -316.000
198.463;  -58.150; -655.000; -404.000
198.609;   20.100;  181.000; -137.000
198.755;  -72.875; -644.000; -410.000
198.901;  -69.600; -505.000; -424.000
199.047;  -56.000; -615.000; -488.000
199.193;  -29.525; -230.000; -468.000
199.339;  -40.900; -222.000; -369.000
199.485;   43.825;  330.000;  271.000
199.631;   19.925;  227.000;  310.000
199.777;  -34.375; -466.000; -398.000
199.923;  -66.625; -610.000; -424.000
200.069;    5.400; -141.000;  -58.000
200.215;   64.700;  128.000;  453.000
200.361;   42.400;  243.000;  477.000
200.507;  -65.125; -600.000; -373.000
200.653;  -13.350; -371.000; -194.000
200.798;  -28.575; -215.000; -125.000
200.944;   -1.100; -146.000;  -41.000
201.090;   31.700;   61.000;  222.000
201.236;   14.750; -116.000; -158.000
201.382;  118.400;  874.000;  903.000
201.528;    0.925;  -58.000;  -48.000
201.674;  -31.900; -386.000; -293.000
201.819;  -55.950; -540.000; -439.000
201.965;  -77.050; -699.000; -447.000
202.111;  -15.550; -273.000; -226.000
202.257;  -34.000; -250.000; -238.000
202.402;   16.850;   13.000;  -36.000
202.548;  -31.250; -169.000; -116.000
202.694;   83.575;  410.000; -183.000
202.840;  -80.950; -603.000; -531.000
202.985;  -71.525; -681.000; -639.000
203.131; -108.150; -832.000; -666.000
203.277;  -24.775; -199.000; -262.000
203.423;  -55.425; -434.000; -520.000
203.568;  -38.675; -462.000; -237.000
203.714;  -54.325; -535.000; -542.000
203.860;  -91.150; -682.000; -641.000
204.005;   18.225;  112.000;  167.000
204.151;   87.575;  561.000;  556.000
204.296;  -27.800; -354.000; -221.000
204.442;  -63.925; -600.000; -547.000
204.588;  -70.250; -592.000; -579.000
204.733;   17.875;  178.000;  168.000
204.879; -125.250;-1018.000; -822.000
205.025;    7.550;  -99.000;  126.000
205.170;   -0.175;  -17.000;   94.000
205.316;   79.400;  438.000;  661.000
205.461;  -94.000; -698.000; -554.000
205.607;   95.150;  609.000;  665.000
205.752;  -80.300; -626.000; -551.000
205.898;  -45.525; -501.000; -391.000
206.043;  -47.400; -578.000; -506.000
206.189;  -42.075; -243.000; -285.000
206.334;   80.575;  554.000;  606.000
206.480;   89.025;  409.000;  239.000
206.625;  -81.600; -529.000; -552.000
206.771;  -52.375; -451.000; -373.000
206.916;  -22.500; -210.000; -537.000
207.062;  -71.475; -545.000; -591.000
207.207;  -55.250; -546.000; -443.000
207.353;   54.900;  185.000;  460.000
207.498;    6.700;  196.000;   85.000
207.643;  -44.600; -501.000; -370.000
207.789; -131.325;-1069.000; -910.000
207.934;  -85.725; -665.000; -713.000
208.080;   -5.675; -154.000;   66.000
208.225;  -13.500;  -22.000;  -57.000
208.370;  -85.000; -727.000; -619.000
208.516;  -68.650; -741.000; -487.000
208.661;  -23.800; -127.000;  -69.000
208.806;  -10.025; -165.000; -171.000
208.952; -119.800;-1044.000; -731.000
209.097;   77.075;  378.000;  349.000
209.242;  -50.750; -307.000; -382.000
209.387;   64.275;  392.000;  350.000
209.533;  -45.250; -321.000; -350.000
209.678;   72.475;  472.000;  543.000
209.823;  -52.825; -408.000; -310.000
209.969;  -97.000; -860.000; -757.000
210.114;  -96.125; -907.000; -719.000
210.259; -111.475; -939.000; -889.000
210.404;  -10.225; -171.000;  103.000
210.549;   25.900;  108.000;    3.000
210.695;  -19.625;   -3.000;  -95.000
210.840;   24.250;   94.000;   67.000
210.985;  -53.225; -484.000; -303.000
211.130;   68.225;  268.000;  406.000
211.275;   10.325;  207.000;  199.000
211.420;  -45.525; -300.000; -289.000
211.566;  -71.625; -536.000; -489.000
211.711;   26.275;  218.000;  157.000
211.856;  -60.250; -545.000; -519.000
212.001;   23.125;  151.000;   44.000
212.146;   42.950;  153.000;   49.000
212.291;  -24.775; -210.000; -186.000
212.436;  -26.725; -280.000;   -6.000
212.581;  -79.125; -685.000; -653.000
212.726;  -72.225; -487.000; -538.000
212.871;  -51.625; -552.000; -217.000
213.016; -137.550;-1172.000;-1029.000
213.161;   66.550;  406.000;  291.000
213.306;  -75.000; -435.000; -577.000
213.451;  -81.250; -778.000; -689.000
213.596;  -41.775; -455.000; -347.000
213.741;  -48.825; -448.000; -538.000
213.886;  -70.300; -498.000; -517.000
214.031;  -34.775; -294.000; -124.000
214.176;  -62.275; -408.000; -341.000
214.321;  -27.150; -296.000; -157.000
214.466;  -28.225; -163.000;  -43.000
214.611;  -13.100;  -61.000;  -10.000
214.756; -116.800; -948.000; -858.000
214.901;  -32.450; -388.000; -226.000
215.046; -124.125; -797.000; -825.000
215.191;   16.250;  128.000;   35.000
215.336;  -11.075; -157.000;  -19.000
215.480;  -53.925; -684.000; -505.000
215.625;  -19.050; -175.000;  -19.000
215.770;  -67.975; -757.000; -662.000
215.915;   -6.850;   -5.000;  -97.000
216.060;   -9.450; -113.000;  -21.000
216.205; -110.875; -731.000; -779.000
216.349;  -73.725; -470.000; -533.000
216.494; -121.575; -939.000; -867.000
216.639; -114.000; -823.000; -888.000
216.784;  -74.025; -577.000; -525.000
216.929;   57.475;  392.000;  281.000
217.073;  -14.850; -244.000;  -31.000
217.218;   15.350;   78.000;  -47.000
217.363;  -77.750; -656.000; -618.000
217.507;  -77.700; -623.000; -588.000
217.652; -122.100; -845.000; -874.000
217.797;  -79.175; -708.000; -659.000
217.942; -101.950; -856.000; -720.000
218.086;   57.575;  608.000;  539.000
218.231;  -28.075; -174.000;  -26.000
218.376;  -42.800; -337.000; -229.000
218.520;   -0.775;  -41.000;   96.000
218.665;  -25.050; -338.000; -204.000
218.810;  -50.650; -275.000; -233.000
218.954;   13.450;  201.000;   35.000
219.099; -102.725; -713.000; -963.000
219.243;  -67.850; -589.000; -554.000
219.388;  -24.550; -264.000; -136.000
219.532;  -19.225; -116.000; -116.000
219.677;  -71.525; -564.000; -521.000
219.822;    8.825;   33.000;   89.000
219.966;   21.600;   17.000;  -99.000
220.111;  -32.800; -328.000;  -40.000
220.255;  -95.650; -797.000; -750.000
220.400;   -8.625; -180.000; -146.000
220.544;  -75.325; -516.000; -450.000
220.689;  -55.850; -422.000; -451.000
220.833;  -20.200; -123.000;  -58.000
220.978;  -39.675; -393.000; -563.000
221.122;   22.800;  319.000;  307.000
221.267; -106.425; -906.000; -837.000
221.411;  -65.000; -478.000; -394.000
221.555;  -15.800; -104.000;  -23.000
221.700;  -57.750; -329.000; -222.000
221.844;   46.475;  255.000;  272.000
221.989;  -40.400; -328.000; -311.000
222.133;  -40.225; -289.000; -307.000
222.277;   -0.725;    5.000;   78.000
222.422;   11.050;  227.000;  113.000
222.566;  -26.050; -381.000; -214.000
222.711;  -59.750; -414.000; -479.000
222.855;  -90.575; -643.000; -586.000
222.999;  -84.025; -642.000; -717.000
223.144;  -24.275; -195.000; -194.000
223.288;   55.775;  423.000;  251.000
223.432;   19.875;  184.000;  230.000
223.576;   18.275;  152.000;  -21.000
223.721;   54.325;  364.000;  273.000
223.865;  -53.400; -472.000; -475.000
224.009;  261.825; 1673.000; 1631.000
224.153;  -73.950; -660.000; -671.000
224.298;  -71.950; -531.000; -489.000
224.442;  -13.775;  -74.000;  -33.000
224.586;  -12.025; -169.000; -106.000
224.730;  -96.150; -858.000; -670.000
224.875; -100.725; -739.000; -688.000
225.019;    4.825;  102.000;  188.000
225.163;   48.900;  208.000;  341.000
225.307;   21.675;   97.000;  -91.000
225.451;   49.800;  360.000;  481.000
225.595;   26.100;  264.000;  176.000
225.739;  -17.175; -170.000;  -94.000
225.884;    1.375;   86.000;    5.000
226.028; -100.075; -760.000; -626.000
226.172;  -41.825; -260.000; -273.000
226.316; -116.675; -941.000; -902.000
226.460;  -67.250; -645.000; -493.000
226.604;  -38.650; -406.000; -400.000
226.748; -105.200; -836.000; -733.000
226.892;  -25.250; -227.000; -181.000
227.036;  -43.925; -537.000; -447.000
227.180;  -60.300; -551.000; -375.000
227.324;  -67.525; -561.000; -580.000
227.468; -104.550; -819.000; -717.000
227.612;   10.400;  242.000;  -28.000
227.756; -102.875; -845.000; -698.000
227.900;   56.400;  342.000;  441.000
228.044;  -45.800; -509.000; -290.000
228.188;   54.900;  448.000;  568.000
228.332;  -86.000; -546.000; -472.000
228.476;  -14.900; -223.000; -149.000
228.620;  -25.525; -210.000; -150.000
228.764;   58.050;  431.000;  349.000
228.908;  -13.350; -155.000;   30.000
229.052;  -65.475; -615.000; -528.000
229.195;  -15.125; -172.000;   13.000
229.339;  -19.150; -235.000; -305.000
229.483;  -20.900;    5.000; -162.000
229.627;   -0.625; -156.000;  139.000
229.771;  -42.275; -218.000; -294.000
229.915;   12.075;  230.000;   79.000
230.059;  -72.750; -648.000; -663.000
230.202;  -50.225; -370.000; -317.000
230.346;  -11.150; -107.000;  107.000
230.490;  -59.275; -489.000; -521.000
230.634; -107.325; -736.000; -553.000
230.777;   75.450;  478.000;  509.000
230.921;  -66.200; -450.000; -359.000
231.065;  -40.800; -246.000; -286.000
231.209;   20.400;  261.000;  265.000
231.352;   25.575;   54.000;   40.000
231.496;    8.900;  568.000;  188.000
231.640;  -87.000; -693.000; -621.000
231.783;   73.775;  546.000;  525.000
231.927;  -42.200; -294.000; -365.000
232.071; -111.500; -962.000; -736.000
232.214; -104.650; -980.000; -764.000
232.358;  -90.275; -683.000; -599.000
232.502;   12.200;  -19.000;    7.000
232.645; -131.775;-1090.000; -927.000
232.789;  -18.300; -257.000; -218.000
232.933;  -49.075; -407.000; -224.000
233.076; -120.875;-1038.000; -897.000
233.220; -100.975; -752.000; -777.000
233.363;  -74.400; -669.000; -477.000
233.507;   48.425;  371.000;  129.000
233.650;  -94.475; -764.000; -834.000
233.794;   44.400;  438.000;  461.000
233.938;  -57.650; -530.000; -362.000
234.081;   -7.025;  -93.000;   31.000
234.225;  -64.975; -631.000; -539.000
234.368; -101.750; -773.000; -723.000
234.512;  -23.875; -385.000; -299.000
234.655;  -76.300; -582.000; -555.000
234.798;  -73.450; -493.000; -466.000
234.942; -129.550; -884.000;-1002.000
235.085;  -67.300; -651.000; -443.000
235.229;  -71.650; -405.000; -410.000
235.372;  -40.975; -247.000; -191.000
235.516;  -54.425; -397.000; -321.000
235.659;   21.300;   92.000;  121.000
235.802;    0.125;  -38.000;  -22.000
235.946;   32.725;  335.000;  215.000
236.089;   23.175;  126.000;  250.000
236.233;   63.100;  275.000;  298.000
236.376;  -57.875; -235.000; -378.000
236.519;  -40.275; -297.000; -319.000
236.663;  -34.750; -215.000; -117.000
236.806; -132.050;-1029.000; -999.000
236.949;   56.750;  543.000;  431.000
237.092;   58.575;  412.000;  391.000
237.236;  -84.000; -589.000; -502.000
237.379;   70.875;  352.000;  428.000
237.522; -122.550; -879.000; -768.000
237.666;   -7.600; -271.000;   18.000
237.809; -118.425; -851.000; -823.000
237.952;   39.200;  469.000;  271.000
238.095;  -67.125; -447.000; -442.000
238.238;   86.150;  688.000;  700.000
238.382;   -2.500;  166.000;  103.000
238.525;  -67.675; -598.000; -511.000
238.668; -135.175;-1060.000; -985.000
238.811;  -66.250; -638.000; -643.000
238.954;  -57.450; -483.000; -334.000
239.097;   91.050;  617.000;  664.000
239.241;   17.375;  394.000;  326.000
239.384;  -31.675; -254.000; -214.000
239.527;  -66.900; -424.000; -224.000
239.670; -140.600; -994.000;-1091.000
239.813; -101.750; -696.000; -658.000
239.956;   73.325;  579.000;  473.000
240.099; -107.625; -778.000; -725.000
240.242;   70.925;  428.000;  432.000
240.385;   47.250;  466.000;  450.000
240.528;  -65.675; -706.000; -473.000
240.671;   12.825;  189.000;  134.000
240.814;  -41.300; -441.000; -158.000
240.957; -108.250; -767.000; -578.000
241.100;  -89.350; -779.000; -755.000
241.243; -138.675;-1234.000; -893.000
241.386;  -63.125; -508.000; -379.000
241.529;  -93.350; -735.000; -547.000
241.672;  -67.650; -566.000; -495.000
241.815; -122.075; -832.000; -808.000
241.958;  -24.250; -125.000; -182.000
242.101;  -83.875; -545.000; -390.000
242.244;  -37.125; -270.000; -325.000
242.387;  -47.925; -304.000; -246.000
242.530;   49.775;  470.000;  134.000
242.673;  -32.300; -381.000; -309.000
242.815; -112.175; -925.000; -899.000
242.958;  -71.725; -482.000; -381.000
243.101;   11.975;  132.000;  187.000
243.244;  -89.725; -564.000; -521.000
243.387;  -42.475; -313.000; -316.000
243.530;  -80.625; -657.000; -674.000
243.672;    8.850;   43.000;  -92.000
243.815;  -60.100; -355.000; -283.000
243.958;   -1.150;   98.000;  -26.000
244.101;   -3.575;   59.000;  -16.000
244.243;  -10.975;  -47.000;  101.000
244.386; -101.275; -761.000; -630.000
244.529;  -28.825; -132.000; -139.000
244.672; -158.050;-1154.000; -951.000
244.814; -100.575; -621.000; -794.000
244.957;  -38.350; -380.000; -304.000
245.100;  -83.400; -489.000; -489.000
245.242;  -55.875; -387.000; -374.000
245.385;    4.250;  -59.000;  -39.000
245.528; -118.625; -871.000; -705.000
245.670;   97.850;  612.000;  634.000
245.813;  -92.025; -599.000; -547.000
245.956;  -31.950; -324.000; -275.000
246.098;  -72.250; -508.000; -650.000
246.241;    5.375;  194.000;   48.000
246.383;  -22.650; -119.000;  -73.000
246.526;  -73.800; -454.000; -525.000
246.669; -122.350; -889.000; -780.000
246.811;   18.725;  172.000;   -1.000
246.954;  -62.175; -512.000; -426.000
247.096;  -26.925;  -84.000;   -6.000
247.239;  -71.925; -482.000; -445.000
247.381;  -68.725; -647.000; -488.000
247.524;   81.075;  645.000;  679.000
247.666;    3.500;   58.000;   11.000
247.809; -104.125; -887.000; -691.000
247.951;   -6.000;  -75.000;  138.000
248.094;   24.775;  432.000;  308.000
248.236; -164.350;-1262.000;-1238.000
248.378;    9.150; -356.000;  -81.000
248.521;  -10.300; -334.000; -337.000
248.663;  -34.975; -236.000; -267.000
248.806;  -22.225; -300.000; -266.000
248.948;  -87.775; -886.000; -763.000
249.090;  -57.475; -428.000; -398.000
249.233;  -59.150; -344.000; -381.000
249.375;  -67.400; -474.000; -451.000
249.518;  -31.450;  -83.000; -133.000
249.660;  -12.500; -103.000;    3.000
249.802; -164.425;-1303.000;-1189.000
249.945;  -75.275; -612.000; -540.000
250.087; -118.025; -834.000; -768.000
250.229;  -40.975; -362.000; -480.000
250.371;  -86.850; -494.000; -439.000
250.514;  -49.450; -310.000; -244.000
250.656;   -5.100;   69.000;  102.000
250.798; -120.275; -849.000; -800.000
250.940;  -60.950; -322.000; -322.000
251.083;  -33.075; -335.000; -111.000
251.225;   56.125;  338.000;  310.000
251.367;  -37.725; -274.000; -373.000
251.509;  -36.900; -265.000; -210.000
251.651;  -84.625; -731.000; -671.000
251.794;   83.125;  538.000;  632.000
251.936;  -98.075; -821.000; -747.000
252.078;  -73.075; -540.000; -461.000
252.220;  -68.200; -645.000; -477.000
252.362;   83.375;  344.000;  462.000
252.504;  -68.125; -677.000; -584.000
252.646; -122.925; -875.000; -722.000
252.788;   -4.250;   14.000; -128.000
252.931;  -37.475; -257.000; -253.000
253.073;  -31.725; -376.000; -317.000
253.215;  -11.525;  141.000;  122.000
253.357;  -13.150;   82.000; -153.000
253.499;  -57.125; -374.000; -234.000
253.641;  -78.425; -749.000; -594.000
253.783;  -89.525; -609.000; -527.000
253.925;  -77.925; -586.000; -591.000
254.067; -107.650; -744.000; -667.000
254.209;  -31.525; -391.000; -259.000
254.351; -144.150; -865.000; -883.000
254.493;  -62.725; -441.000; -417.000
254.635; -136.125; -936.000; -818.000
254.777;  -87.900; -752.000; -687.000
254.918;  -69.650; -512.000; -430.000
255.060;  -48.375; -551.000; -395.000
255.202;  -67.550; -473.000; -261.000
255.344;  -70.875; -658.000; -455.000
255.486;  -69.800; -471.000; -406.000
255.628; -119.150; -780.000; -781.000
255.770;  -85.825; -676.000; -536.000
255.912;  -64.075; -559.000; -468.000
256.053;  -90.950; -730.000; -508.000
256.195;  148.400; 1008.000;  903.000
256.337;  -99.675; -861.000; -595.000
256.479;   51.975;  532.000;  416.000
256.621;  -53.550; -394.000; -212.000
256.762;  -99.100; -789.000; -742.000
256.904;   60.675;  485.000;  487.000
257.046;  -42.100; -381.000; -271.000
257.188;  -40.825; -351.000; -264.000
257.329;  -73.450; -525.000; -464.000
257.471; -110.925; -939.000; -807.000
257.613;  -56.525; -584.000; -498.000
257.755; -130.950;-1073.000; -982.000
257.896;   39.600;  286.000;  392.000
258.038;  -66.525; -403.000; -352.000
258.180;  -30.900; -354.000; -279.000
258.321;  -88.150; -581.000; -457.000
258.463;    5.175;  -71.000;  133.000
258.605;  -89.925; -562.000; -570.000
258.746; -103.700; -886.000; -772.000
258.888; -157.600;-1026.000;-1020.000
259.029;   21.125;  121.000;   -8.000
259.171;  -95.100; -614.000; -550.000
259.313;   -2.425;  -49.000;  -47.000
259.454;  -86.650; -536.000; -414.000
259.596;  -59.325; -483.000; -390.000
259.737;  -88.350; -590.000; -474.000
259.879;   37.825;  217.000;  311.000
260.020;   85.650;  901.000;  636.000
260.162;  -24.750; -146.000; -253.000
260.303; -110.125; -768.000; -687.000
260.445;  -76.175; -609.000; -613.000
260.586;   21.425;  392.000;  157.000
260.728;  -45.050; -360.000; -248.000
260.869; -111.150; -350.000; -343.000
261.011;   74.525;  706.000;  537.000
261.152;  -67.150; -479.000; -319.000
261.293;  -87.350; -576.000; -595.000
261.435;  -27.500; -219.000; -184.000
261.576;  -61.250; -455.000; -325.000
261.718;   47.925;  420.000;  470.000
261.859; -129.600; -940.000; -949.000
262.000; -127.275; -951.000;-1016.000
262.142;  -16.400;  -52.000;  -60.000
262.283; -111.100; -808.000; -691.000
262.424;  -90.825; -666.000; -625.000
262.566; -148.675;-1161.000; -983.000
262.707; -117.625; -840.000; -830.000
262.848; -128.625; -769.000; -726.000
262.990;  -43.475; -362.000; -345.000
263.131;   81.925;  650.000;  681.000
263.272;  -14.650;  -61.000;  -41.000
263.413;  -94.000; -589.000; -561.000
263.555;  -73.025; -669.000; -143.000
263.696;  -94.875; -550.000; -641.000
263.837;  -62.025; -449.000; -551.000
263.978;   16.675;   -5.000;  -77.000
264.119;  -43.850; -283.000; -264.000
264.261; -107.250; -847.000; -630.000
264.402;   20.000;   33.000;   40.000
264.543;  -76.575; -509.000; -524.000
264.684;  -15.200;   61.000;  -50.000
264.825;  -75.725; -816.000; -538.000
264.966;   -7.950;  -84.000;  -67.000
265.107; -112.075; -646.000; -670.000
265.248; -110.475; -825.000; -812.000
265.390;   -6.750;  152.000;   -9.000
265.531;  -17.500; -238.000; -107.000
265.672; -100.725; -557.000; -630.000
265.813;   71.775;  563.000;  439.000
265.954; -149.600; -959.000; -940.000
266.095;  -24.300; -372.000; -322.000
266.236;  -98.250; -686.000; -548.000
266.377;  -43.875; -243.000; -297.000
266.518;  -75.775; -619.000; -547.000
266.659;   25.150;  170.000;  268.000
266.800;   12.475;   83.000;   85.000
266.941;  -69.175; -487.000; -478.000
267.082;    3.800;  354.000;   99.000
267.223;  -58.375; -344.000; -273.000
267.364; -119.525; -892.000; -686.000
267.504;   -1.475;    3.000;  135.000
267.645;  -25.675;  160.000;   67.000
267.786;  -34.100; -147.000;  -86.000
267.927;  -87.675; -473.000; -379.000
268.068;  -15.575; -186.000;  -61.000
268.209;  -47.025; -175.000; -413.000
268.350;  -62.850; -388.000; -532.000
268.490;  -90.750; -648.000; -521.000
268.631;   25.325;  127.000;  225.000
268.772; -125.250; -874.000; -647.000
268.913;  -59.525; -328.000; -476.000
269.054;   -9.450; -117.000;   12.000
269.194;  -42.675; -418.000; -402.000
269.335; -162.525;-1137.000;-1074.000
269.476;  -14.025;   33.000;  -35.000
269.617;  -44.875; -347.000; -392.000
269.757;  -86.200; -713.000; -646.000
269.898; -106.250; -856.000; -613.000
270.039;  -54.200; -415.000; -405.000
270.180; -131.150; -952.000; -816.000
270.320;  -28.250; -190.000; -250.000
270.461;  -52.150; -277.000; -249.000
270.602;   -6.225; -186.000; -156.000
270.742; -133.050; -868.000; -943.000
270.883;  -56.775; -442.000; -390.000
271.023;  -48.950; -358.000; -357.000
271.164;  -77.600; -607.000; -528.000
271.305; -106.375; -666.000; -654.000
271.445;  -87.625; -722.000; -683.000
271.586;  -79.175; -462.000; -283.000
271.726;  -46.900; -397.000; -322.000
271.867;  -66.250; -594.000; -534.000
272.008;  182.625; -473.000; -285.000
272.148;  137.075;  462.000;  468.000
272.289;   19.475; -113.000; -181.000
272.429;   12.050;   19.000;  185.000
272.570;  -92.625; -633.000; -737.000
272.710;  -86.850; -825.000; -775.000
272.851;  -20.825;  113.000; -130.000
272.991; -164.825;-1173.000;-1077.000
273.131;  -58.875; -419.000; -459.000
273.272;  -99.650; -683.000; -723.000
273.412;    4.900; -143.000;  -31.000
273.553;  -59.400; -488.000; -507.000
273.693;  120.475;  913.000;  858.000
273.834;  -97.500; -894.000; -692.000
273.974;  -71.125; -664.000; -615.000
274.114;  -85.275; -772.000; -560.000
274.255;   79.100;  414.000;  373.000
274.395;    6.900; -180.000; -125.000
274.535;   46.775;  199.000;  350.000
274.676;   12.675;  225.000;   94.000
274.816;    0.975;  110.000;   34.000
274.956;  -92.275; -624.000; -690.000
275.097;  -71.700;-1014.000; -922.000
275.237; -112.825; -913.000; -803.000
275.377; -105.675; -778.000; -689.000
275.517; -145.175; -878.000; -937.000
275.658;  -56.550; -590.000; -555.000
275.798;  -65.025; -606.000; -413.000
275.938;   24.625;  215.000;  323.000
276.078; -102.350; -626.000; -395.000
276.218;   13.275;   99.000;  104.000
276.359; -125.925;-1026.000;-1024.000
276.499;  -62.725; -605.000; -446.000
276.639;  -32.975; -305.000; -151.000
276.779;  -48.875; -475.000; -357.000
276.919; -110.750; -783.000; -624.000
277.059;  -28.825; -261.000; -212.000
277.199;  -45.650; -357.000; -259.000
277.340;   41.750;  287.000;  175.000
277.480; -107.475; -840.000; -693.000
277.620;   27.000;  192.000;   16.000
277.760; -203.075;-1533.000;-1294.000
277.900;   18.475;  113.000;   33.000
278.040;   15.650;  137.000;  159.000
278.180;   30.525;  270.000;  170.000
278.320;  -12.650;   21.000;   56.000
278.460;  -68.550; -443.000; -469.000
278.600;  -95.325; -708.000; -598.000
278.740;   36.425;  448.000;  224.000
278.880;  -73.300; -768.000; -791.000
279.020;   -5.200; -194.000; -144.000
279.160; -103.750; -672.000; -595.000
279.300; -116.800; -926.000; -873.000
279.440;  -87.900; -709.000; -622.000
279.579;  -21.525;-1014.000; -929.000
279.719;  -54.850; -410.000; -394.000
279.859;   67.200;   -4.000;   41.000
279.999;   22.875; -208.000;  101.000
280.139;  -20.250; -435.000; -387.000
280.279;  -79.875; -708.000; -745.000
280.419;   -6.450; -229.000; -147.000
280.559;  -38.200; -259.000; -180.000
280.698;  -87.600; -790.000; -639.000
280.838; -102.825; -778.000; -800.000
280.978;  -93.350; -846.000; -790.000
281.118; -108.450; -811.000; -704.000
281.257;    2.100;   24.000;    6.000
281.397; -123.475;-1094.000; -960.000
281.537;  -88.550; -599.000; -712.000
281.677;  -29.000; -150.000; -101.000
281.816;  -89.575; -700.000; -630.000
281.956;  -31.750; -193.000; -257.000
282.096;  -64.825; -539.000; -396.000
282.235; -105.125; -672.000; -638.000
282.375;  -16.850; -243.000;  -98.000
282.515; -107.250; -715.000; -707.000
282.654;   24.125;   29.000;  106.000
282.794;   20.050;  388.000;  244.000
282.934;  -56.950; -530.000; -491.000
283.073; -122.650;-1030.000; -857.000
283.213;  -61.150; -460.000; -467.000
283.353;  -46.275; -408.000; -349.000
283.492;  -35.775; -264.000; -296.000
283.632;  -49.050; -254.000; -168.000
283.771;  -90.775; -859.000; -730.000
283.911;  -58.325; -369.000; -260.000
284.050; -104.200; -794.000; -748.000
284.190; -151.650;-1229.000;-1096.000
284.329; -145.975;-1055.000; -964.000
284.469;  -78.325; -516.000; -591.000
284.608;  -55.900; -559.000; -598.000
284.748;  -90.850; -614.000; -570.000
284.887;  -12.550;  -87.000;  -20.000
285.027; -122.250; -844.000; -892.000
285.166;  -35.075; -192.000; -249.000
285.306;   -7.050; -116.000;  -33.000
285.445;  -37.400; -229.000; -343.000
285.584;  -77.375; -630.000; -494.000
285.724;  -38.400; -282.000; -322.000
285.863; -115.600; -857.000; -507.000
286.002;  -42.300; -366.000; -276.000
286.142; -118.625; -715.000; -622.000
286.281;  -76.550; -525.000; -493.000
286.420;  -70.775; -554.000; -417.000
286.560;   96.175;  653.000;  623.000
286.699; -143.450; -958.000; -912.000
286.838;  -81.100; -590.000; -591.000
286.978;  -91.550; -533.000; -537.000
287.117; -136.100;-1085.000; -950.000
287.256;  -29.575; -228.000; -211.000
287.395;  -65.950; -197.000; -378.000
287.535;  -58.525; -370.000; -298.000
287.674;  -84.400; -509.000; -484.000
287.813;   57.125;  661.000;  533.000
287.952; -130.975;-1010.000; -871.000
288.091; -144.150;-1049.000; -915.000
288.231;   17.175;   13.000;   15.000
288.370; -171.400;-1217.000;-1200.000
288.509; -102.650; -728.000; -645.000
288.648;  -95.000; -770.000; -548.000
288.787;  -30.650; -243.000;  -87.000
288.926;  -69.000; -454.000; -475.000
289.065;  121.575;  859.000;  672.000
289.204;  -58.025; -377.000; -217.000
289.344;  -98.450; -791.000; -690.000
289.483;   11.425;  416.000;  304.000
289.622;  -31.300; -291.000; -149.000
289.761;  -20.800; -309.000; -166.000
289.900; -115.925; -785.000; -626.000
290.039;   -9.175;  -12.000;  -95.000
290.178;  -29.950; -274.000; -180.000
290.317;  -92.075; -618.000; -479.000
290.456;  -63.700; -463.000; -451.000
290.595; -125.675; -961.000; -833.000
290.734; -137.375; -904.000; -891.000
290.873;  -67.175; -456.000; -420.000
291.011; -111.500; -833.000; -843.000
291.150; -112.500; -770.000; -682.000
291.289;  -30.150; -343.000; -110.000
291.428;  -95.225; -599.000; -480.000
291.567;  -51.900; -370.000; -442.000
291.706;  -15.225;  109.000;  154.000
291.845;  -96.700; -597.000; -505.000
291.984; -151.850;-1234.000;-1061.000
292.122;   77.525;  602.000;  582.000
292.261;   54.375;  620.000;  463.000
292.400;   -8.800; -144.000;  211.000
292.539; -123.050; -959.000; -813.000
292.678;  -46.875; -325.000; -300.000
292.816; -167.750;-1136.000; -965.000
292.955;  -92.000; -844.000; -684.000
293.094;  -36.325; -173.000; -337.000
293.233;  -62.100; -556.000; -400.000
293.371;  -34.000; -225.000;  -84.000
293.510; -113.275; -866.000; -780.000
293.649; -128.875; -959.000; -924.000
293.787;  -74.650;-1083.000;-1012.000
293.926;    5.025; -113.000;  -32.000
294.065;  -35.525; -379.000; -290.000
294.203;   44.075;  298.000;  406.000
294.342;   17.425;   74.000;  156.000
294.481; 6126.725;51180.000; -836.000
294.619;  -37.150; -425.000; -582.000
294.758; -150.225;-1230.000;-1137.000
294.896;   45.725; -125.000;    5.000
295.035; -117.300;-1040.000;-1006.000
295.174; -115.750;-1082.000; -954.000
295.312;  -39.375; -323.000; -203.000
295.451;   -8.600; -307.000; -428.000
295.589;  -58.675; -389.000; -518.000
295.728;   15.300; -292.000; -165.000
295.866;  -13.150;  -36.000;  -51.000
296.005;  -72.600; -584.000; -341.000
296.143;  -73.600; -558.000; -596.000
296.282; -109.850; -957.000; -881.000
296.420;  -84.000; -657.000; -557.000
296.559;  -89.100; -892.000; -633.000
296.697;    0.175; -847.000; -665.000
296.835;   20.100;-1141.000;-1002.000
296.974;   44.850;  -23.000;   39.000
297.112;    9.550; -443.000; -504.000
297.251;  -87.225; -815.000; -755.000
297.389;   79.100; -576.000; -438.000
297.527;   31.850; -145.000;  -83.000
297.666;  -62.725; -486.000; -438.000
297.804;  -51.900; -404.000; -264.000
297.942;   -8.400; -136.000; -161.000
298.081;   -7.550; -183.000;   63.000
298.219;   48.375;  -17.000;  -19.000
298.357;   46.400; -144.000;  -71.000
298.495;   28.150; -810.000; -812.000
298.634;   69.125;  245.000;  219.000
298.772;   27.625; -220.000; -338.000
298.910;  -33.650; -309.000; -182.000
299.048;  -21.025; -130.000; -153.000
299.187;  -38.200; -350.000; -250.000
299.325;   16.550;   52.000;  122.000
299.463;   46.150; -389.000; -299.000
299.601;   61.900; -327.000; -271.000
299.739; -103.575; -908.000; -883.000
299.877;  -83.000; -791.000; -703.000
300.016;  -33.400;-1095.000; -935.000
300.154;  140.875;  -19.000; -161.000
300.292;   37.275; -428.000; -348.000
300.430;    7.350; -408.000; -291.000
300.568; -121.050; -940.000; -874.000
300.706;  -52.650; -366.000; -469.000
300.844;  -72.950;-1108.000; -979.000
300.982;  107.700;  246.000;  282.000
301.120; -111.825; -965.000; -866.000
301.258;  -68.975; -812.000; -705.000
301.396;   21.000;  104.000;  -41.000
301.534;   49.200; -218.000; -293.000
301.672;  -30.000; -664.000; -521.000
301.810;   13.275; -613.000; -545.000
301.948;   91.400;   53.000;  149.000
302.086;  557.400; -250.000;  -32.000
302.224;  847.575; -610.000; -585.000
302.362;   23.350; -558.000; -622.000
302.500;  -42.025; -923.000; -893.000
302.638;   94.250;  128.000;  245.000
302.776;  -14.125; -352.000; -408.000
302.913;   31.850;  447.000;  236.000
303.051;   -8.100;  -86.000;  -23.000
303.189;   50.400;   90.000;  118.000
303.327;  -41.475; -341.000; -256.000
303.465;  -96.150; -832.000; -588.000
303.603;  -98.025; -805.000; -604.000
303.740;   82.175;  417.000;  241.000
303.878;   -2.850; -800.000; -759.000
304.016;  -98.850; -915.000; -790.000
304.154; -116.525;-1123.000;-1152.000
304.291;  -39.575; -505.000; -554.000
304.429;   16.700;  102.000;   74.000
304.567; -113.725; -908.000; -893.000
304.705;  -54.825; -408.000; -515.000
304.842;   73.475; -616.000; -540.000
304.980;   59.150;  215.000;   35.000
305.118;   25.100; -367.000; -365.000
305.255;  -85.750; -945.000; -927.000
305.393;   47.150;  178.000;  239.000
305.531; -106.425;-1173.000; -956.000
305.668;  -61.325; -663.000; -582.000
305.806;   88.775; -358.000; -439.000
305.943;   87.025; -629.000; -637.000
306.081;   40.650; -378.000; -267.000
306.219; -102.775; -863.000; -748.000
306.356;   -5.025;  158.000;   27.000
306.494;  109.300;  981.000;  761.000
306.631;   -5.725;  -11.000;  -55.000
306.769;   -5.650; -613.000; -485.000
306.906;  -25.300; -284.000; -258.000
307.044;  -77.075; -473.000; -488.000
307.181;  -54.650; -410.000; -332.000
307.319;    7.225;  112.000;   87.000
307.456; -166.300;-1191.000;-1153.000
307.594; -113.450; -980.000; -727.000
307.731;  -20.500; -371.000; -164.000
307.868;  -15.325;  -15.000;   20.000
308.006; -135.675; -961.000; -847.000
308.143;  -80.625; -618.000; -330.000
308.281;  152.975;  -37.000; -254.000
308.418;  -12.400; -748.000; -640.000
308.555;  -75.375; -400.000; -250.000
308.693;  -69.125; -577.000; -573.000
308.830; -112.225; -712.000; -657.000
308.967;  -28.700; -215.000;  -95.000
309.105;  -45.725; -507.000; -396.000
309.242;   29.100; -468.000; -367.000
309.379;  284.000; -577.000; -655.000
309.517;  -68.800; -936.000; -948.000
309.654; -121.850; -910.000; -734.000
309.791;  -70.975; -662.000; -580.000
309.928; -114.900; -977.000; -914.000
310.065;  164.650;  819.000;  697.000
310.203;  -21.300; -825.000; -850.000
310.340;  -31.725; -465.000; -321.000
310.477;  -87.875; -412.000; -516.000
310.614;  -75.250; -383.000; -473.000
310.751;  -78.475; -427.000; -518.000
310.889;  -21.925;    1.000;   11.000
311.026; -147.975;-1161.000; -939.000
311.163;  -57.825; -386.000; -380.000
311.300;  -84.700; -512.000; -479.000
311.437;  -82.475; -658.000; -619.000
311.574; -153.800;-1226.000; -985.000
311.711;  -61.650; -595.000; -433.000
311.848;  -46.875; -380.000; -388.000
311.985;    5.125;  270.000;   93.000
312.122; -135.850; -932.000; -762.000
312.259; -126.375; -941.000; -994.000
312.396;  -90.300; -508.000; -551.000
312.533;  -87.075; -812.000; -790.000
312.670; -131.200;-1070.000; -898.000
312.807;  -34.775; -352.000; -367.000
312.944; -106.100; -513.000; -611.000
313.081;  -36.000; -150.000; -415.000
313.218; -107.475;-1111.000; -867.000
313.355;    2.325; -531.000; -449.000
313.492;  -12.075; -455.000; -292.000
313.629;  124.150;  815.000;  735.000
313.766; -167.750;-1176.000;-1008.000
313.902;   -5.950; -186.000;   21.000
314.039;  -58.675; -372.000; -289.000
314.176;   18.050;  286.000;  192.000
314.313;  -85.625; -569.000; -473.000
314.450;  -82.500; -788.000; -684.000
314.587;  -61.375; -468.000; -480.000
314.723;  -22.100;  -78.000;  130.000
314.860;   20.550;  318.000;  332.000
314.997;   25.525;  223.000;  142.000
315.134;  -47.800; -385.000; -368.000
315.270;  -51.950; -480.000; -496.000
315.407; -128.525;-1094.000; -967.000
315.544;  -61.375; -657.000; -538.000
315.681;  -77.975; -681.000; -565.000
315.817;   14.725; -133.000; -176.000
315.954;    7.325; -613.000; -392.000
316.091; -131.100;-1045.000;-1023.000
316.227;  -32.800;  -71.000; -179.000
316.364;  -11.875;   23.000;    6.000
316.500;  -40.575; -113.000; -300.000
316.637;  -42.925; -181.000; -302.000
316.774;  -84.775; -625.000; -358.000
316.910;  -93.475; -598.000; -629.000
317.047;  -75.075; -487.000; -351.000
317.183;  -58.000; -435.000; -566.000
317.320;    8.625; -367.000; -321.000
317.456;  -63.575; -733.000; -805.000
317.593; -100.175; -598.000; -641.000
317.729;    6.525;  168.000;  -67.000
317.866; -200.850;-1434.000;-1285.000
318.002;  -79.850; -708.000; -948.000
318.139;  -94.500; -883.000; -867.000
318.275; -122.200;-1003.000; -738.000
318.412;  -66.250; -517.000; -336.000
318.548;  -34.525; -751.000; -720.000
318.685;  -99.025; -985.000; -888.000
318.821;  -91.900; -762.000; -735.000
318.957;  -22.250;   34.000;  -23.000
319.094;   27.975;  297.000;  154.000
319.230;  -81.825; -756.000; -742.000
319.367;   99.500; -471.000; -520.000
319.503;   35.025; -538.000; -436.000
319.639;  -95.725; -877.000; -793.000
319.775;  -69.250; -750.000; -685.000
319.912;  -53.800; -424.000; -519.000
320.048;  -80.800;-1184.000;-1184.000
320.184;   92.575;   59.000;   70.000
320.321;  -58.800; -497.000; -467.000
320.457;   78.650;  475.000;  662.000
320.593;  -74.375; -375.000; -382.000
320.729;  -90.800; -732.000; -734.000
320.866;  -76.575; -577.000; -635.000
321.002;  -86.475; -759.000; -809.000
321.138;  -13.175; -135.000; -211.000
321.274;   54.100; -148.000; -115.000
321.410;  -15.250; -585.000; -353.000
321.546;  -42.025;-1011.000; -911.000
321.683;   44.325;  400.000;  185.000
321.819;   -6.650;  -48.000; -117.000
321.955; -112.425; -743.000; -722.000
322.091;  -52.150; -585.000; -540.000
322.227;  -29.025; -382.000; -202.000
322.363;  -13.450; -320.000; -215.000
322.499;  -44.350; -343.000; -331.000
322.635;  149.250;  636.000;  443.000
322.771;   15.400; -139.000;   12.000
322.907;   70.075;  129.000;  327.000
323.043;  -22.925; -115.000; -206.000
323.179;  -38.525; -394.000; -363.000
323.315;   -8.350; -401.000; -371.000
323.451;   65.650; -328.000; -236.000
323.587;   65.900;  -60.000;  -77.000
323.723;    8.450; -682.000; -601.000
323.859;    0.525; -258.000;  -76.000
323.995;  -39.150; -467.000; -409.000
324.131; -122.675; -967.000; -892.000
324.267;  -45.925; -254.000; -276.000
324.402; -127.525; -960.000; -983.000
324.538;  -28.750; -279.000; -104.000
324.674;   23.125;  164.000;   77.000
324.810;  103.800;  226.000;  308.000
324.946;    4.900; -810.000; -658.000
325.082;  -72.875; -568.000; -475.000
325.217;  -15.325;  -62.000;   16.000
325.353;  -99.025; -764.000; -659.000
325.489;  -90.750; -540.000; -506.000
325.625;  -83.175; -579.000; -525.000
325.760;   63.300;  517.000;  376.000
325.896;  -17.275; -515.000; -702.000
326.032;  -59.825; -403.000; -352.000
326.168;  -70.425; -462.000; -369.000
326.303;  -64.225; -352.000; -461.000
326.439;  -14.525; -336.000; -276.000
326.575;    2.875; -190.000;  -29.000
326.710;  -11.200; -156.000;  -30.000
326.846;  -11.525;  146.000;  103.000
326.982;  -95.300; -530.000; -548.000
327.117;  -70.075; -481.000; -442.000
327.253;  -97.650; -745.000; -742.000
327.388; -171.525;-1137.000;-1153.000
327.524;  -69.125; -811.000; -578.000
327.659;  -27.700;  -58.000;  -22.000
327.795;  -18.525;   69.000;   45.000
327.931;  -93.150; -723.000; -499.000
328.066;  -23.800; -417.000; -276.000
328.202;  -44.425;   12.000; -129.000
328.337;   82.625;  957.000;  713.000
328.473;   37.225;  -12.000;  -74.000
328.608;  -21.650; -256.000; -267.000
328.743;  -82.825; -799.000; -664.000
328.879;   21.125;  214.000;  114.000
329.014;  -47.800; -102.000; -122.000
329.150;  -84.775; -358.000; -483.000
329.285;  -84.900; -465.000; -466.000
329.421;  -49.050; -548.000; -246.000
329.556;  -29.400;  -36.000;   85.000
329.691;  -96.025; -633.000; -615.000
329.827;  -89.150; -626.000; -480.000
329.962;  -54.675;  131.000; -301.000
330.097;  -95.025; -673.000; -585.000
330.233;  -47.525; -410.000; -223.000
330.368; -130.075; -839.000; -628.000
330.503;   -3.800;    3.000;   98.000
330.638;   -4.200;  -93.000; -125.000
330.774;  -64.350; -609.000; -530.000
330.909;  -49.975; -434.000; -244.000
331.044;  -94.000; -714.000; -708.000
331.179; -176.200;-1217.000;-1109.000
331.315;   -1.475;   77.000;   20.000
331.450;    2.575;  157.000;  285.000
331.585;  -89.525; -805.000; -706.000
331.720;  -82.100; -510.000; -460.000
331.855;   -4.850;  -35.000; -102.000
331.990;  258.200;   62.000;  138.000
332.126;  135.800; -110.000;   71.000
332.261;  -21.325; -379.000; -265.000
332.396;    2.650; -135.000; -242.000
332.531;  -96.575;-1074.000;-1031.000
332.666;   30.325; -519.000; -363.000
332.801; -105.150; -726.000; -807.000
332.936;  -19.675; -192.000; -122.000
333.071; -149.750; -870.000; -817.000
333.206;    8.525;  307.000;  379.000
333.341;   23.550;  344.000;  418.000
333.476;  -84.975; -627.000; -623.000
333.611;  -40.375; -251.000; -173.000
333.746;  -55.325; -381.000; -464.000
333.881; -121.975; -973.000; -935.000
334.016; -133.000; -936.000; -917.000
334.151; -131.600; -746.000; -702.000
334.286;   18.850;  152.000;  186.000
334.421;  -10.475; -125.000; -178.000
334.556;  -90.975; -611.000; -567.000
334.690;  -92.425; -631.000; -577.000
334.825;   57.175;  381.000;   83.000
334.960;  -68.625; -285.000; -413.000
335.095;    2.800;  135.000;  -91.000
335.230; -112.275; -722.000; -738.000
335.365; -129.800;-1084.000; -990.000
335.499; -140.925;-1108.000;-1037.000
335.634;   -6.000;    9.000;  534.000
335.769; -115.400; -755.000; -720.000
335.904;  -73.500; -603.000; -561.000
336.038;  -83.475; -735.000; -657.000
336.173; -133.325;-1206.000;-1194.000
336.308;   -1.325; -116.000; -189.000
336.443;   22.575; -544.000; -634.000
336.577;  -85.350; -936.000; -787.000
336.712;   62.625;   -4.000;  -12.000
336.847;  -51.000; -724.000; -607.000
336.981;   50.775; -272.000; -208.000
337.116;  247.625;  615.000;  501.000
337.250;  115.675; -434.000; -421.000
337.385;  280.575; -297.000; -208.000
337.520;  108.175; -632.000; -603.000
337.654;  -31.875; -215.000; -126.000
337.789; -132.200; -989.000; -933.000
337.923;  -38.950; -104.000; -205.000
338.058;  -89.275; -673.000; -738.000
338.192;  -51.000; -611.000; -488.000
338.327;  -14.525;  -18.000; -155.000
338.461;  -83.375; -299.000; -469.000
338.596;  -90.975; -780.000; -638.000
338.730; -102.350; -767.000; -803.000
338.865;   90.925;  -46.000; -140.000
338.999;  -45.325; -846.000; -702.000
339.134;  -21.625; -634.000; -536.000
339.268;   15.575; -741.000; -603.000
339.403;  386.750; -740.000; -775.000
339.537;  126.875; -894.000; -820.000
339.671; -120.350; -829.000; -813.000
339.806;  -62.825; -556.000; -512.000
339.940;   16.825; -261.000; -235.000
340.074;  -98.700; -685.000; -510.000
340.209;  -51.025; -351.000; -230.000
340.343;  -95.100; -517.000; -573.000
340.477;  136.700;  998.000; 1036.000
340.612;  -36.150;-1033.000; -900.000
340.746;  148.325; -199.000; -243.000
340.880;  -71.475; -924.000; -785.000
341.014;  -22.550;  -45.000; -154.000
341.149; -110.750; -756.000; -718.000
341.283; -106.725; -839.000; -754.000
341.417; -110.550;-1124.000; -938.000
341.551;   86.825; -768.000; -708.000
341.685;  -52.425; -633.000; -611.000
341.820;  -59.450; -562.000; -493.000
341.954;  -48.600; -218.000; -349.000
342.088; -151.975;-1102.000;-1019.000
342.222;   51.600;  565.000;  618.000
342.356;  -68.275; -395.000; -335.000
342.490; -109.100; -880.000; -841.000
342.624;  -47.575; -339.000; -242.000
342.758;  -10.975; -364.000; -312.000
342.892;  -84.600; -710.000; -585.000
343.026;  -32.750;  -58.000; -116.000
343.160;  -62.650; -426.000; -376.000
343.294;  -72.075; -474.000; -337.000
343.428;  -31.100; -488.000; -448.000
343.562;  -24.825; -172.000;  -23.000
343.696;  -28.675; -385.000; -314.000
343.830;  -34.925; -362.000; -356.000
343.964;    4.150; -231.000; -168.000
344.098;  797.475;  199.000;   70.000
344.232;  658.450; -266.000; -127.000
344.366;  102.250; -567.000; -453.000
344.500;   30.625; -665.000; -744.000
344.634;    7.700; -324.000; -164.000
344.768;  -22.200; -531.000; -341.000
344.902;   14.175;  278.000;  256.000
345.035;  -77.600; -556.000; -496.000
345.169; -125.400; -933.000; -656.000
345.303;  -50.825; -308.000; -482.000
345.437;  -89.325; -826.000; -717.000
345.571;  -66.425; -675.000; -594.000
345.704;  -78.650; -309.000; -532.000
345.838;  -16.200; -331.000; -284.000
345.972;  -39.275; -543.000; -495.000
346.106;  177.125; -179.000; -190.000
346.239;  422.275; -312.000; -243.000
346.373;    0.850; -343.000; -302.000
346.507; -142.575; -950.000; -962.000
346.640;  113.200;  -30.000;   13.000
346.774;  -52.875; -650.000; -797.000
346.908;  -32.325; -138.000;  -11.000
347.041; -104.450; -646.000; -593.000
347.175;    1.275;  259.000;   27.000
347.309;  -87.950; -698.000; -628.000
347.442; -112.450; -883.000; -732.000
347.576;  235.700;  670.000;  668.000
347.709;  158.350; -123.000;  -52.000
347.843; -111.850; -933.000; -825.000
347.976;   27.000;  235.000;  294.000
348.110; -175.400;-1268.000;-1186.000
348.243;  -97.250; -679.000; -772.000
348.377;   -2.175;  -26.000;   60.000
348.510;   48.325;  403.000;  540.000
348.644;  -39.575;  -37.000; -159.000
348.777;    1.475;  180.000;  191.000
348.911;  -58.600; -142.000; -112.000
349.044;  155.475;  471.000;  448.000
349.178;  113.075;-1069.000;-1006.000
349.311;  109.475;  141.000;  255.000
349.444;  -14.950; -927.000; -813.000
349.578;  -17.925; -347.000; -200.000
349.711;  -99.725; -959.000; -862.000
349.845;  -27.050; -661.000; -591.000
349.978; -160.550;-1224.000;-1137.000
350.111;  -79.250; -546.000; -612.000
350.244;  -82.225; -596.000; -700.000
350.378;  -10.600; -392.000; -393.000
350.511;  -57.075; -393.000; -426.000
350.644; -102.200; -808.000; -806.000
350.778;    0.150;  168.000;  104.000
350.911;    2.500;  134.000;  140.000
351.044; -101.000; -685.000; -615.000
351.177;  -23.300; -321.000; -281.000
351.310;  -33.775;    3.000; -131.000
351.444;  -76.975; -888.000; -788.000
351.577;  100.375;  140.000;   90.000
351.710;  100.700;  593.000;  417.000
351.843;  -33.625; -165.000;  -77.000
351.976;  -10.850;  149.000;  -79.000
352.109;  -94.100; -621.000; -612.000
352.242;  -15.425; -464.000; -419.000
352.376;  -66.525; -580.000; -636.000
352.509;  124.950; -437.000; -356.000
352.642;  -18.300; -654.000; -604.000
352.775;   53.750; -141.000;  -98.000
352.908; -115.675; -933.000; -904.000
353.041; -104.475; -814.000; -824.000
353.174;  -68.575; -551.000; -424.000
353.307;  -92.300; -753.000; -764.000
353.440;   53.575;  541.000;  453.000
353.573; -110.925; -957.000;-1008.000
353.706;  -66.400; -384.000; -558.000
353.839;  -25.225; -264.000; -220.000
353.971;  -99.650; -657.000; -512.000
354.104;  -97.250; -896.000; -835.000
354.237;  -42.975; -627.000; -662.000
354.370;  -94.175; -846.000; -879.000
354.503; -177.225;-1231.000;-1308.000
354.636;  -43.525; -529.000; -348.000
354.769; -126.850; -937.000; -860.000
354.902;   -4.775; -230.000; -139.000
355.034;  -22.150; -164.000; -220.000
355.167;  -26.800; -262.000; -162.000
355.300;  -95.675;-1061.000; -880.000
355.433; 1037.350;  -71.000;  -14.000
355.565; 1571.875; -402.000; -384.000
355.698;  408.925; -356.000; -296.000
355.831;  -18.175; -882.000; -801.000
355.964;   63.325; -285.000; -170.000
356.096;  -82.075; -856.000; -843.000
356.229;   -5.275; -523.000; -530.000
356.362;  325.950; -373.000; -266.000
356.494;  638.000; -229.000; -162.000
356.627;  424.500;  269.000;  377.000
356.760;  669.550;  120.000;   53.000
356.892; 1028.425; -286.000; -601.000
357.025;  596.500;  403.000;  389.000
357.157;  513.500; -167.000; -179.000
357.290;  763.725; -856.000; -713.000
357.423;  198.125; -667.000; -556.000
357.555;   96.950; -217.000; -228.000
357.688;  108.675; -483.000; -364.000
357.820;  417.800; -870.000; -877.000
357.953; 3487.375; -563.000; -589.000
358.085;  707.400; -632.000; -612.000
358.218;  895.500;-1131.000; -932.000
358.350;  156.650;  -58.000;  312.000
358.483; -137.625;-1300.000;-1187.000
358.615;  -51.450;-1182.000;-1078.000
358.747;  -83.625;-1187.000;-1058.000
358.880;    5.150; -810.000; -744.000
359.012;  -14.300; -376.000; -202.000
359.145;  -52.150; -480.000; -511.000
359.277;   51.675; -962.000; -913.000
359.409; 2853.875;  536.000;  231.000
359.542;  752.725; -738.000; -688.000
359.674;   66.500;   46.000;   13.000
359.806;  -66.825; -565.000; -438.000
359.939;  -41.000; -617.000; -516.000
360.071;   -6.200; -583.000; -579.000
360.203;   -9.450; -411.000; -364.000
360.335;   37.275;  164.000;  -16.000
360.468;  175.700; -249.000; -307.000
360.600; 2321.850; -547.000; -454.000
360.732; 3065.925; -546.000; -423.000
360.864;  430.325;-1216.000;-1044.000
360.996;  219.775; -516.000; -554.000
361.129;   20.100; -389.000; -598.000
361.261;   14.125;  110.000; -113.000
361.393;  -26.775; -252.000; -214.000
361.525;   25.750;   94.000;  244.000
361.657;  -52.525; -821.000; -703.000
361.789;   -4.225; -139.000; -155.000
361.921;  154.650; -642.000; -593.000
362.053;  216.925;  524.000;  541.000
362.185;   39.325;  288.000;   72.000
362.318;  -87.025; -709.000; -705.000
362.450;   89.575;  294.000;  444.000
362.582;   38.875; -913.000; -870.000
362.714;  -49.100; -353.000; -332.000
362.846;  -83.175; -606.000; -490.000
362.978; -158.100; -941.000; -811.000
363.109;   30.525; -161.000; -260.000
363.241;  342.525; -739.000; -749.000
363.373;  447.850; -649.000; -564.000
363.505;  719.400; -186.000;  -91.000
363.637;  162.100; -787.000; -601.000
363.769; -120.275;-1067.000;-1080.000
363.901;  -72.675; -596.000; -654.000
364.033; -124.125;-1103.000;-1062.000
364.165;  -17.050; -283.000; -283.000
364.296;   68.100; -316.000; -177.000
364.428;   70.200;-1344.000;-1220.000
364.560;  -71.600; -679.000; -661.000
364.692;  -71.050; -738.000; -835.000
364.824;  190.100; -588.000; -456.000
364.955;  445.350; -402.000; -564.000
365.087; 1055.450;-1097.000; -852.000
365.219;   38.575; -686.000; -816.000
365.351;  -71.750; -526.000; -572.000
365.482;   36.650;  300.000;  240.000
365.614;  -46.175; -402.000; -314.000
365.746; -117.300; -729.000; -752.000
365.877;  -90.075; -706.000; -672.000
366.009;  269.225;  -35.000;  -62.000
366.141;  -69.350;-1249.000;-1134.000
366.272; -116.450; -803.000; -719.000
366.404; -128.475;-1005.000; -874.000
366.535;  -19.425; -139.000;  -12.000
366.667;  -95.175; -644.000; -649.000
366.799;   28.525;  353.000;  203.000
366.930; -126.475; -862.000; -996.000
367.062;  119.275; -639.000; -613.000
367.193;  165.475; -872.000; -842.000
367.325;  -57.125; -580.000; -684.000
367.456;   23.900; -246.000;   31.000
367.588;  179.700; -371.000; -318.000
367.719;   28.950;  -44.000;  -45.000
367.851;  -33.900; -222.000; -241.000
367.982;  -59.900; -875.000; -732.000
368.113;   81.375; -475.000; -358.000
368.245; -135.400; -960.000; -841.000
368.376;  -23.500; -254.000; -302.000
368.508;  -55.350; -188.000; -263.000
368.639; -146.850;-1166.000;-1034.000
368.770;  -43.925; -670.000; -589.000
368.902;  -68.950; -836.000; -926.000
369.033; -122.400; -906.000; -855.000
369.164;  -45.725; -720.000; -653.000
369.296; -103.300; -452.000; -601.000
369.427;  -12.175; -209.000; -144.000
369.558;  -66.025; -593.000; -377.000
369.689;  -78.400; -721.000; -569.000
369.821; -140.750; -951.000; -845.000
369.952;  -12.750;   42.000; -108.000
370.083;  -59.500; -229.000; -108.000
370.214;  -85.150; -735.000; -650.000
370.345;  -16.225;   65.000;   81.000
370.477;  -84.025; -810.000; -790.000
370.608;  171.725; -328.000; -264.000
370.739;  -64.750;-1233.000;-1292.000
370.870;  -57.150;-1102.000; -923.000
371.001;   78.675; -378.000; -467.000
371.132;  -87.350; -754.000; -735.000
371.263;  -29.100;  -42.000; -148.000
371.394; -133.325; -841.000; -748.000
371.525;   27.600;  345.000;  225.000
371.657;  -94.175; -808.000; -670.000
371.788;   65.950;  103.000;  199.000
371.919;  137.450; -384.000; -304.000
372.050; 3246.750;  -91.000; -156.000
372.181;  981.950; -188.000; -294.000
372.311;  318.675;   42.000; -127.000
372.442;   37.050; -457.000; -451.000
372.573;  -23.950; -444.000; -340.000
372.704; -144.975;-1008.000; -980.000
372.835;   60.675; -228.000; -289.000
372.966;  -75.500; -646.000; -554.000
373.097;  -63.150; -575.000; -711.000
373.228;  -54.575; -717.000; -542.000
373.359;   97.525; -824.000; -536.000
373.490;  760.525; -881.000; -727.000
373.620; 1005.875;-1001.000; -803.000
373.751; 1516.875; -332.000; -396.000
373.882;  683.650; -663.000; -733.000
374.013;   55.050; -449.000; -262.000
374.143;  -48.950; -581.000; -659.000
374.274; -112.650; -987.000; -908.000
374.405;  136.850; -388.000; -276.000
374.536;  366.625; -526.000; -387.000
374.666;  931.375; -759.000; -807.000
374.797;  163.650; -817.000; -868.000
374.928;  696.575; -710.000; -560.000
375.058;  756.300; -535.000; -500.000
375.189;   76.125;  -59.000;  -93.000
375.320; -104.900; -928.000;-1034.000
375.450;  -38.400; -625.000; -616.000
375.581;  -53.000; -526.000; -436.000
375.712;  -40.275; -574.000; -250.000
375.842;  244.050; -438.000; -415.000
375.973;  177.625; -554.000; -513.000
376.103;  -67.000; -665.000; -648.000
376.234;  -80.725; -531.000; -552.000
376.364;  -49.425; -944.000; -867.000
376.495;  286.750;  925.000;  529.000
376.625;  -27.850; -472.000; -485.000
376.756;   34.825; -709.000; -678.000
376.886;  -89.775;-1178.000;-1026.000
377.017;   53.825;-1048.000;-1061.000
377.147;  387.350; -786.000; -782.000
377.278;   54.800;  174.000;  228.000
377.408; -137.325; -801.000; -815.000
377.538; -103.525; -707.000; -693.000
377.669;  -86.900; -537.000; -613.000
377.799;  -94.750; -645.000; -635.000
377.929;  -58.425; -610.000; -428.000
378.060; -132.725; -781.000; -847.000
378.190;  -54.475; -726.000; -531.000
378.320;  -48.500; -401.000; -406.000
378.451;  -22.075; -131.000;  -22.000
378.581;  -20.425;  -67.000; -110.000
378.711;  127.950; 1035.000;  866.000
378.841;  -26.475; -533.000; -675.000
378.972;  -86.675; -871.000; -751.000
379.102;  -12.625; -652.000; -579.000
379.232;  -26.750; -126.000;  -73.000
379.362; -118.750;-1001.000; -885.000
379.492;  -22.575; -373.000; -424.000
379.623;   85.850;    0.000;  111.000
379.753; -127.375;-1107.000; -974.000
379.883;  156.275;   59.000;  156.000
380.013;  -17.875;-1081.000;-1017.000
380.143; -122.725;-1097.000;-1056.000
380.273; -103.250; -985.000; -861.000
380.403;   -5.325; -344.000; -257.000
380.533;  -47.900; -651.000; -664.000
380.663;   59.075;  173.000;  128.000
380.793; -108.600;-1027.000;-1074.000
380.923;  -23.175; -103.000;  -34.000
381.053;  -93.175; -613.000; -623.000
381.183;  -43.025; -106.000; -248.000
381.313;    5.200; -656.000; -470.000
381.443;   31.050; -692.000; -473.000
381.573;  114.650; -402.000; -409.000
381.703;  197.350;-1249.000;-1095.000
381.833; -122.150;-1454.000;-1336.000
381.963;   89.225; -134.000;  -87.000
382.093; 1265.225; -925.000; -909.000
382.223;  399.075; -713.000; -602.000
382.353;  -36.300; -801.000; -608.000
382.482;  274.300;-1091.000; -964.000
382.612;  677.525; -872.000; -644.000
382.742;  380.100; -695.000; -622.000
382.872;  193.925; -565.000; -551.000
383.002;   54.150;  347.000; -132.000
383.131;  -21.425; -226.000; -160.000
383.261;  -45.300; -706.000; -768.000
383.391;  278.075; -552.000; -377.000
383.521; 3491.725;  451.000;  263.000
383.650;  889.125; -947.000; -904.000
383.780;  -16.275; -783.000; -656.000
383.910;   97.700;  880.000;  802.000
384.039;   -1.675; -794.000; -656.000
384.169;  137.725;-1205.000;-1017.000
384.299;  -35.525; -650.000; -662.000
384.428;  -99.375; -764.000; -680.000
384.558;  -39.250; -308.000; -275.000
384.687;  -51.100; -414.000; -334.000
384.817;   -6.325;   75.000;   -2.000
384.947;   -8.275; -234.000; -141.000
385.076;  245.275;  982.000;  912.000
385.206;   80.575;  369.000;  480.000
385.335;  -46.725; -549.000; -417.000
385.465;  -82.550; -655.000; -663.000
385.594;  108.100;  -53.000;  -44.000
385.724;  330.825; -868.000; -838.000
385.853;   94.475; -296.000; -270.000
385.982; 1160.275; -743.000; -787.000
386.112; 1871.825;-1052.000; -871.000
386.241;  124.775; -307.000; -312.000
386.371;   19.200; -174.000;  -87.000
386.500;  -21.625; -825.000; -789.000
386.629;   21.850; -874.000; -817.000
386.759;   63.475;  -43.000;   68.000
386.888;  -17.750; -170.000; -250.000
387.017;  -91.250; -648.000; -620.000
387.147; -100.425; -771.000; -798.000
387.276;  -15.550; -410.000; -397.000
387.405;    0.975; -398.000; -342.000
387.535;  -51.225; -452.000; -361.000
387.664;  -57.450; -692.000; -620.000
387.793;   50.575; -198.000; -113.000
387.922;  422.775;  255.000;  200.000
388.052;  -10.950; -576.000; -423.000
388.181;  -16.550; -342.000; -472.000
388.310;  -41.525; -889.000; -710.000
388.439;  -55.825; -749.000; -742.000
388.568;  137.250;  365.000;  244.000
388.697;  897.525; -756.000; -653.000
388.826;  173.775; -768.000; -666.000
388.956;   38.850; -285.000; -307.000
389.085;  -54.000; -347.000; -287.000
389.214; -123.175; -842.000; -872.000
389.343;  -72.700; -645.000; -413.000
389.472;  402.725;  126.000;  149.000
389.601;  521.575;   91.000;    0.000
389.730;    2.725; -568.000; -687.000
389.859;   40.350;  226.000;   46.000
389.988;  144.650; -423.000; -408.000
390.117;  123.450; -168.000; -146.000
390.246;  -24.975; -331.000; -320.000
390.375;   52.600; -673.000; -626.000
390.504;  -84.550; -703.000; -621.000
390.633; -102.000; -672.000; -726.000
390.761;  -85.300; -732.000; -645.000
390.890;    3.850;   -4.000; -130.000
391.019;  -48.475; -421.000; -441.000
391.148; -118.550; -826.000; -855.000
391.277;  -81.575; -576.000; -493.000
391.406;  -92.200; -821.000; -805.000
391.534;   11.050;  574.000; -301.000
391.663;  -67.200; -583.000; -645.000
391.792;  -93.700; -673.000; -701.000
391.921;   62.175;   -3.000;   15.000
392.050;  126.300; -287.000; -228.000
392.178;  -77.050;-1206.000;-1061.000
392.307;  107.875; -758.000; -712.000
392.436;   54.150; -427.000; -641.000
392.564;   13.275;  166.000;   -6.000
392.693; -100.425; -860.000; -682.000
392.822;  144.875; -529.000; -534.000
392.950;   46.525; -880.000; -714.000
393.079;  262.125; -188.000; -328.000
393.208;    4.300; -488.000; -511.000
393.336;  -17.500; -170.000; -145.000
393.465;  -45.725; -317.000; -199.000
393.593;    2.050;   62.000;   79.000
393.722; -157.400;-1121.000; -916.000
393.850;  -29.475; -188.000;  -61.000
393.979; -150.800; -926.000; -805.000
394.107;  -80.175; -517.000; -537.000
394.236;  -36.175; -570.000; -507.000
394.364;  199.200;  383.000;  206.000
394.493;  299.175; -911.000; -767.000
394.621;   -6.200; -955.000; -916.000
394.750;  751.875; -873.000; -923.000
394.878; 3079.900; -247.000; -149.000
395.007; 4338.250; -721.000; -807.000
395.135;  326.600; -790.000; -721.000
395.263;  -90.450;-1038.000;-1040.000
395.392;   10.975;  -25.000; -107.000
395.520; -148.850; -818.000; -679.000
395.648; -102.825; -865.000; -915.000
395.777;  -25.850; -366.000; -405.000
395.905;  -55.550; -449.000; -564.000
396.033;    9.025;  217.000;  172.000
396.162;  493.775; -399.000; -453.000
396.290;  467.050;  -17.000;   -2.000
396.418;   70.800; -555.000; -514.000
396.546;  -72.350; -571.000; -466.000
396.674;  -98.000; -850.000; -878.000
396.803;   -2.100;  -72.000;  -23.000
396.931;   58.825; -179.000; -199.000
397.059;   14.550;-1026.000; -989.000
397.187; -122.850;-1026.000; -975.000
397.315; -137.650; -884.000; -649.000
397.443;  -83.575; -592.000; -443.000
397.572; -104.075; -578.000; -424.000
397.700;  -26.325; -607.000; -614.000
397.828;   -6.850;  120.000;  -90.000
397.956;  -48.525; -508.000; -478.000
398.084;  -73.050; -767.000; -626.000
398.212;   29.625;  137.000;  124.000
398.340;    1.400;  -56.000;  159.000
398.468;    9.875; -390.000; -169.000
398.596; -146.625; -993.000; -953.000
398.724; -122.900; -762.000; -767.000
398.852; -164.350;-1024.000; -976.000
398.980;  -65.975; -560.000; -560.000
399.108;  -78.750; -982.000; -735.000
399.236;   25.575;   13.000;    8.000
399.363;    9.725;  222.000;  196.000
399.491;  -59.900; -404.000; -398.000
399.619; -130.450; -829.000; -800.000
399.747; -102.125; -859.000; -771.000
399.875;   57.300;  220.000;  234.000
400.003;  -64.150; -359.000; -284.000
400.130; -102.025; -421.000; -341.000
400.258;  -35.725;  -83.000;   38.000
400.386;  -70.525; -352.000; -168.000
400.514;  -64.225; -526.000; -587.000
400.641; -100.375; -928.000; -802.000
400.769; -137.800; -979.000; -888.000
400.897; -126.925; -838.000; -793.000
401.025;  -25.025; -166.000; -152.000
401.152;    1.725;  220.000;   38.000
401.280;  -85.325; -430.000; -429.000
401.408; -116.300; -712.000; -576.000
401.535; -116.500; -735.000; -758.000
401.663; -184.925;-1134.000;-1054.000
401.790;  -99.500; -514.000; -525.000
401.918;   35.450;  436.000;  405.000
402.046;  -14.525;  134.000;  122.000
402.173;  -53.350;  -18.000;    7.000
402.301;  -81.850; -519.000; -397.000
402.428;   29.325;  528.000;  383.000
402.556; -128.650;-1188.000; -913.000
402.683;  -41.950;  -20.000;   -1.000
402.811;  -21.950;  -37.000; -206.000
402.938;  -23.300;   20.000;   27.000
403.066;  159.075; -574.000; -558.000
403.193;  289.825;  299.000;  239.000
403.321;  204.850; -396.000; -574.000
403.448;  269.100;   83.000;   27.000
403.575;  103.675;  -90.000;  -46.000
403.703; -101.950; -732.000; -557.000
403.830;  -58.900; -531.000; -496.000
403.957; -143.475;-1117.000;-1023.000
404.085;   -4.650;  -61.000; -172.000
404.212;   88.025;  -50.000;   63.000
404.339;  271.125; -566.000; -306.000
404.467; 6062.850; -612.000; -524.000
404.594; 3972.700; -287.000; -227.000
404.721;  894.650; -869.000; -764.000
404.848;   73.750; -113.000; -202.000
404.976; -119.400; -856.000; -783.000
405.103;  -10.000;  -14.000;  -82.000
405.230;   -5.050;  190.000;  226.000
405.357;   18.800;  117.000;   44.000
405.484;  282.700;  -49.000;    5.000
405.612;   62.525; -548.000; -563.000
405.739;  -73.700; -488.000; -243.000
405.866;   81.025;  669.000;  385.000
405.993;  -53.225; -398.000; -102.000
406.120; -141.300; -801.000; -887.000
406.247;  -74.875; -323.000; -342.000
406.374;  355.100;  540.000;  629.000
406.501;   66.600; -632.000; -702.000
406.628;  -79.400; -621.000; -589.000
406.755;  -99.450; -803.000; -620.000
406.882;  -40.350; -228.000; -277.000
407.009; -109.275; -719.000; -628.000
407.136;   28.350; -480.000; -401.000
407.263;   77.850; -939.000; -829.000
407.390;  -91.975; -692.000; -614.000
407.517; -171.225;-1139.000;-1187.000
407.644;  -64.700; -332.000; -256.000
407.771;  -72.700; -249.000; -287.000
407.898;  -18.000;  168.000;  328.000
408.025;  -74.950; -421.000; -313.000
408.151;  -13.850;   82.000;  153.000
408.278;  -85.050; -267.000; -216.000
408.405; -119.375; -931.000; -899.000
408.532;  -79.750; -549.000; -542.000
408.659; -113.275; -677.000; -648.000
408.785; -199.050;-1298.000;-1170.000
408.912;  -79.350; -412.000; -296.000
409.039; -116.200; -610.000; -686.000
409.166; -106.425; -591.000; -555.000
409.292; -111.950; -571.000; -534.000
409.419; -114.075; -665.000; -649.000
409.546;  -96.250; -431.000; -192.000
409.672; -115.400; -713.000; -545.000
409.799;  -24.625;  -36.000;   34.000
409.926;  -59.600; -180.000; -179.000
410.052; -178.350;-1127.000;-1091.000
410.179;  -66.900; -368.000; -392.000
410.305;  -83.225; -375.000; -493.000
410.432;  -53.550; -220.000; -333.000
410.558;  -89.375; -305.000; -380.000
410.685; -107.625; -688.000; -431.000
410.812;  -99.500; -409.000; -588.000
410.938; -139.800; -964.000; -808.000
411.065; -104.050; -671.000; -645.000
411.191;  -26.175; -189.000; -174.000
411.317; -127.300; -823.000; -742.000
411.444;  -60.025; -317.000; -246.000
411.570;  -73.625; -339.000; -294.000
411.697; -130.150; -758.000; -752.000
411.823; -179.475; -989.000; -999.000
411.949;  -31.525;  -56.000;   17.000
412.076; -122.550; -539.000; -519.000
412.202; -131.825; -758.000; -757.000
412.329; -127.575; -798.000; -752.000
412.455; -122.050; -821.000; -657.000
412.581;  -32.400;  -15.000;  172.000
412.707;  -57.750; -540.000; -457.000
412.834;   11.150;  156.000;  219.000
412.960; -100.575; -785.000; -784.000
413.086; -109.175; -743.000; -701.000
413.212;  131.900;  604.000;  578.000
413.339;  -82.175; -685.000; -701.000
413.465;  -17.700; -364.000; -310.000
413.591;  -87.700; -757.000; -474.000
413.717;  -63.825; -358.000; -366.000
413.843; -142.075; -839.000; -861.000
413.969;  -53.025;  -47.000; -292.000
414.096; -105.800; -679.000; -679.000
414.222;  -16.525;  -33.000;   85.000
414.348;  -35.900; -652.000; -385.000
414.474;   78.750;   38.000;  -52.000
414.600;   -7.450; -126.000; -144.000
414.726;  -11.850;  -96.000;  -55.000
414.852;  -56.750; -365.000; -342.000
414.978;   18.700;  104.000;  -18.000
415.104;   40.000;   38.000;   80.000
415.230;   19.150; -329.000; -330.000
415.356;   37.525; -409.000; -514.000
415.482;  186.225;   13.000;  -35.000
415.608;  280.650; -247.000; -323.000
415.734;  977.925;   67.000;   38.000
415.860;20328.525; -875.000; -767.000
415.986;15665.750; -685.000; -607.000
416.111; 1377.600; -798.000; -652.000
416.237;  281.525; -424.000; -571.000
416.363; 1146.700; -765.000; -733.000
416.489; 4539.000; -324.000; -251.000
416.615;  533.425; -707.000; -742.000
416.741;  -20.075; -677.000; -784.000
416.866;  -96.375; -673.000; -736.000
416.992; -114.850; -801.000; -818.000
417.118;  -33.575;  -41.000;  -80.000
417.244;  -85.300; -798.000; -531.000
417.369;  -86.475; -801.000; -612.000
417.495;  -23.250; -325.000; -254.000
417.621;  -84.750;-1015.000; -803.000
417.746;  -10.850; -579.000; -572.000
417.872;   42.600; -254.000; -144.000
417.998;   53.350; -515.000; -530.000
418.123; 1059.925;-1073.000; -845.000
418.249; 5799.225; -512.000; -601.000
418.374;  881.650; -916.000; -824.000
418.500;  124.900; -383.000; -482.000
418.626;  131.600;   70.000;  -59.000
418.751;  129.550; -549.000; -448.000
418.877;  207.075; -637.000; -643.000
419.002; 1835.600; -688.000; -560.000
419.128;13391.600; -930.000; -721.000
419.253; 3463.950; -967.000; -837.000
419.379;  454.400; -391.000; -338.000
419.504;  418.975;  325.000;  415.000
419.629;  551.475; -393.000; -212.000
419.755; 3699.375; -317.000; -254.000
419.880;23063.100;  -98.000;   67.000
420.006;12197.225; -280.000; -221.000
420.131;31448.125; -662.000; -775.000
420.256; 4762.975; -315.000; -316.000
420.382;  616.350; -665.000; -687.000
420.507;   93.975; -649.000; -778.000
420.632;   81.350; -337.000; -339.000
420.758;  181.550; -251.000; -425.000
420.883;  -84.325; -876.000; -672.000
421.008; -100.025; -775.000; -619.000
421.133;  -78.400; -509.000; -467.000
421.259;  -51.175; -325.000; -259.000
421.384; -125.325; -834.000; -693.000
421.509;  -66.250;-1052.000; -862.000
421.634;  873.025; -936.000; -820.000
421.759;  394.900; -359.000; -327.000
421.885;  -63.250; -717.000; -656.000
422.010;  -76.925; -673.000; -542.000
422.135; -139.450; -695.000; -727.000
422.260;   19.425;  340.000;  280.000
422.385;  -36.825;   12.000;  -98.000
422.510;    7.925;  151.000;  -26.000
422.635;   -5.725;  -87.000;  -43.000
422.760;   95.200; -766.000; -791.000
422.885;   61.850;  -57.000;  -80.000
423.010;  -38.725; -112.000; -169.000
423.135; -106.575; -481.000; -561.000
423.260;  -27.400; -150.000; -245.000
423.385;   57.775;  476.000;  222.000
423.510;   21.100;   71.000;  -22.000
423.635;   55.500;  133.000;   45.000
423.760;   52.025;  383.000;  328.000
423.885;   54.300;  336.000;  391.000
424.010;   -4.000;  -68.000;  -13.000
424.135;  -28.050;    5.000;  -33.000
424.259;  -91.700; -654.000; -457.000
424.384;  -63.150; -279.000; -272.000
424.509;  -25.175; -260.000; -186.000
424.634;  -91.500; -761.000; -623.000
424.759;  -31.950; -688.000; -544.000
424.883;   -3.850; -506.000; -527.000
425.008;  155.525; -502.000; -410.000
425.133; 2103.600; -679.000; -653.000
425.258; 1032.325; -517.000; -381.000
425.382;  913.250; -867.000; -774.000
425.507; 2430.475; -487.000; -543.000
425.632;  430.425; -802.000; -663.000
425.756;  495.400; -256.000; -146.000
425.881; 6949.375; -831.000; -857.000
426.006;19968.200; -604.000; -355.000
426.130; 3242.100; -696.000; -508.000
426.255;  433.325; -611.000; -491.000
426.379;  166.350; -189.000; -577.000
426.504;  384.050;  660.000;  544.000
426.629; 4104.300; -519.000; -466.000
426.753; 3018.650;   64.000;  -46.000
426.878;  354.025; -252.000; -288.000
427.002;  149.800; -651.000; -668.000
427.127; 1574.700;  -35.000; -158.000
427.251;12108.425;  372.000;  401.000
427.375; 3687.450; -191.000; -173.000
427.500; 2128.050; -616.000; -610.000
427.624;  744.825; -234.000; -400.000
427.749;   81.725; -216.000; -225.000
427.873;  -44.450; -499.000; -412.000
427.997;  -42.725; -222.000; -230.000
428.122;   56.975;  795.000;  703.000
428.246;   47.175;  433.000;  434.000
428.371; -129.650; -869.000; -773.000
428.495; -103.450; -624.000; -646.000
428.619;  -56.700; -186.000; -117.000
428.743;    5.075;   65.000;  132.000
428.868;  -10.300; -732.000; -643.000
428.992; 1244.150; -219.000; -326.000
429.116;  506.450; -329.000; -357.000
429.240;  228.700;  419.000;  426.000
429.365;  -26.225; -454.000; -574.000
429.489;  -61.800; -638.000; -647.000
429.613;    4.375; -236.000; -177.000
429.737;   32.700; -563.000; -432.000
429.861;  256.600; -247.000; -133.000
429.985; 5738.450; -425.000; -305.000
430.109; 6690.850; -770.000; -908.000
430.234;  786.650;   76.000;  -50.000
430.358;   73.900; -250.000; -160.000
430.482;  -59.375; -672.000; -564.000
430.606;  -75.150; -655.000; -375.000
430.730;  -11.250; -437.000; -388.000
430.854;   48.100; -909.000; -835.000
430.978;  -72.125; -795.000; -764.000
431.102; -101.525; -499.000; -422.000
431.226; -133.525; -874.000; -815.000
431.350;    5.925;  345.000;  422.000
431.474;  -84.225; -661.000; -373.000
431.597; -161.500;-1060.000; -848.000
431.721;  -80.550; -276.000; -267.000
431.845; -140.925; -704.000; -472.000
431.969;  -77.650; -304.000; -349.000
432.093;  -96.325; -395.000; -317.000
432.217;   -5.200;   32.000;   82.000
432.341;  -90.875; -523.000; -518.000
432.464;   -2.125;   96.000;   40.000
432.588;  137.550; -401.000; -329.000
432.712;   74.275;  -52.000;  -52.000
432.836;   42.150;  213.000;  263.000
432.959;  -18.350; -372.000; -311.000
433.083;   97.250;   11.000;    2.000
433.207;  396.475;  285.000;  930.000
433.330; 5205.500; -391.000; -200.000
433.454; 6861.300; -654.000; -638.000
433.578; 3835.825;  583.000;  278.000
433.701;  749.275; -623.000; -675.000
433.825;  134.525; -292.000; -299.000
433.949;  123.275;   28.000;  -72.000
434.072;   18.850; -410.000; -323.000
434.196;  -15.750; -309.000; -117.000
434.319; 3616.375;25482.000;25124.000
434.443;  698.125; -656.000; -603.000
434.566; 2893.550;  281.000;   62.000
434.690;  528.450; -637.000; -383.000
434.813;   55.825; -251.000; -173.000
434.937;  -71.825; -569.000; -696.000
435.060;  -62.125; -423.000; -332.000
435.184;  181.900; -492.000; -217.000
435.307;  113.650;  159.000;  102.000
435.431;  -29.250;  -40.000;   24.000
435.554;  -89.575; -399.000; -240.000
435.677;  -82.050; -350.000; -258.000
435.801;  -50.775;  -25.000;   49.000
435.924;  -23.975;    1.000;  -67.000
436.048; -123.900;-1019.000; -732.000
436.171;  -71.100; -240.000;  -66.000
436.294;  -33.400; -248.000; -229.000
436.417;   99.975; -963.000; -849.000
436.541;  -70.025; -814.000; -840.000
436.664;  -63.900; -242.000; -316.000
436.787;  -33.425;   13.000;  113.000
436.910; -116.675; -792.000; -422.000
437.034;   -0.150;  142.000;  143.000
437.157;   35.325;  -11.000;    0.000
437.280;  -65.950; -392.000; -292.000
437.403;  -97.525; -982.000; -869.000
437.526;  401.900; -903.000; -865.000
437.649; 1715.625; -505.000; -332.000
437.772;  218.975; -692.000; -540.000
437.896;   87.125;  700.000;  544.000
438.019; -108.125; -758.000; -503.000
438.142;  -97.175; -596.000; -506.000
438.265;  -55.125; -639.000; -670.000
438.388;  418.350; -520.000; -410.000
438.511;   68.375; -597.000; -394.000
438.634;  -49.200; -247.000; -125.000
438.757; -140.050; -693.000; -619.000
438.880;  -38.725;  -34.000;  -57.000
439.003;  -73.875; -417.000; -437.000
439.126;  -58.275; -287.000; -167.000
439.248;  -67.425;  -98.000; -139.000
439.371;  -46.550;    9.000;  -53.000
439.494;   20.650;  510.000;  439.000
439.617;  -40.000;   65.000;  -88.000
439.740; -176.350; -968.000; -816.000
439.863; -140.000; -755.000; -595.000
439.986; -116.025; -476.000; -431.000
440.108;  -39.875; -161.000; -112.000
440.231; -164.875; -950.000; -836.000
440.354;  -44.275;  -64.000; -150.000
440.477;  -11.100; -566.000; -542.000
440.599;  -33.775; -200.000; -225.000
440.722; -141.900; -709.000; -586.000
440.845;   47.100;  751.000;  928.000
440.968; -113.850; -415.000; -311.000
441.090;  -74.625; -199.000;  -33.000
441.213; -166.250;-1021.000; -825.000
441.336;  -55.125; -159.000;   -5.000
441.458;  -83.050; -549.000; -396.000
441.581;  -86.600; -628.000; -629.000
441.703;  -53.975; -152.000;   13.000
441.826; -108.725; -557.000; -400.000
441.948;  -54.200;   56.000;   51.000
442.071;   15.325;  555.000;  424.000
442.193; -125.325; -531.000; -485.000
442.316;    4.875;  152.000;   97.000
442.438;   35.950; -233.000;  -10.000
442.561;   48.600;  272.000;  262.000
442.683;  344.725; -809.000; -522.000
442.806;  894.075;   -8.000;   74.000
442.928;  -20.925; -859.000; -604.000
443.051;  -83.250; -577.000; -373.000
443.173;  -93.225; -341.000; -339.000
443.295;  -94.800; -263.000; -371.000
443.418;  -68.975; -321.000;  -29.000
443.540;  -25.600; -106.000;   -4.000
443.662; -106.425; -563.000; -465.000
443.785;  -24.375;  335.000;  199.000
443.907; -101.750; -362.000; -208.000
444.029; -118.025; -767.000; -494.000
444.152; -146.475; -644.000; -554.000
444.274;  -21.150;  -18.000;  -24.000
444.396; -103.350; -461.000; -221.000
444.518; -130.625; -691.000; -454.000
444.640; -107.050; -268.000; -111.000
444.763;  -19.050;  388.000;  249.000
444.885; -121.000; -432.000; -392.000
445.007;  -40.125;   35.000;   86.000
445.129; -135.975; -610.000; -515.000
445.251; -111.525; -372.000; -439.000
445.373; -139.350; -537.000; -386.000
445.495;   -6.325;  242.000;  350.000
445.617;   53.875;  853.000;  753.000
445.739;  -92.025; -215.000;  -97.000
445.861;  -55.900; -245.000; -112.000
445.984;  -38.425; -267.000; -101.000
446.105;  130.775; -418.000; -251.000
446.227;  470.875; -176.000;  -19.000
446.349;  -10.025; -358.000; -249.000
446.471; -109.600; -615.000; -448.000
446.593;  -77.300; -316.000;   19.000
446.715;   -1.450;  -67.000;   41.000
446.837;   48.100;  697.000;  832.000
446.959; -101.750; -457.000; -478.000
447.081; -127.075; -628.000; -518.000
447.203;   46.200;  862.000;  834.000
447.325;  -96.050; -270.000;   42.000
447.446;   -6.050;  286.000;  530.000
447.568; -156.175; -921.000; -803.000
447.690;  -73.475; -236.000; -245.000
447.812; -145.975; -798.000; -519.000
447.933;  -35.025;  155.000;  127.000
448.055;  -68.325; -306.000; -261.000
448.177;   99.300;   31.000;   79.000
448.299;   41.500; -935.000; -727.000
448.420;   30.925;  -25.000;  159.000
448.542;  -43.675;   -3.000;   33.000
448.664;  -32.100;  109.000;  322.000
448.785;  -35.450;  265.000;   83.000
448.907;  -87.925; -614.000; -353.000
449.028;  -49.450; -771.000; -471.000
449.150;   61.875;  492.000;  589.000
449.272; -173.475;-1044.000; -913.000
449.393;   26.525;  612.000;  694.000
449.515; -149.000; -634.000; -581.000
449.636;  -56.400; -264.000; -155.000
449.758;   63.625;  763.000;  622.000
449.879;  -87.200; -498.000; -396.000
450.001;  -82.750; -149.000;  -49.000
450.122;  -29.325;  -95.000;  162.000
450.244;  -19.525;   37.000;  364.000
450.365;  -85.475; -495.000; -301.000
450.486;  -35.025;   80.000;  268.000
450.608;   35.600;  393.000;  326.000
450.729;   80.800;  578.000;  645.000
450.850;   12.525; -574.000; -466.000
450.972;  783.225; -552.000; -389.000
451.093; 5291.350;  190.000;  588.000
451.214; 2488.425; -516.000; -337.000
451.336;  449.600;  773.000;  579.000
451.457;   69.675;  264.000;  393.000
451.578;  -38.900; -118.000;  -74.000
451.699; -121.500; -546.000; -540.000
451.821;  -67.425; -284.000;  -50.000
451.942;   -7.150;  278.000;  285.000
452.063;   38.625;  228.000;  419.000
452.184;  558.975;  -54.000;  -49.000
452.305; 1168.175;  103.000;  170.000
452.427;  156.750; -549.000; -301.000
452.548;  -14.800;   23.000;   79.000
452.669;  -66.050; -257.000;  -89.000
452.790;  -37.000;    3.000;  -18.000
452.911;  -12.975;  195.000;  259.000
453.032;  -65.575; -289.000;  -60.000
453.153;  -51.450;  -29.000;   81.000
453.274;   62.775;  737.000;  868.000
453.395;  -52.375;  -51.000;  175.000
453.516;  115.100; 1317.000; 1388.000
453.637;  -72.925; -205.000; -150.000
453.758;  -62.400;   15.000;   69.000
453.879; -119.950; -462.000; -250.000
454.000;   86.025; 1086.000;  948.000
454.121; -131.575; -554.000; -326.000
454.242; -113.875; -599.000; -383.000
454.362;  -62.100;  -99.000;  114.000
454.483;  -39.950; -309.000; -229.000
454.604;   36.900;  512.000;  580.000
454.725; -134.025; -627.000; -555.000
454.846; -129.450; -474.000; -406.000
454.967;  -21.925;  230.000;  539.000
455.087;  -56.925;  179.000;  153.000
455.208;   20.475;  554.000;  856.000
455.329;  -60.975;  -22.000;   82.000
455.450;   36.100;  473.000;  633.000
455.570;  -79.625; -234.000; -211.000
455.691;  -42.825;  201.000;  407.000
455.812; -109.300; -270.000;  -92.000
455.932;  -68.050;  107.000;  -97.000
456.053;  -85.350;   36.000;   24.000
456.173; -103.900; -433.000; -355.000
456.294; -122.650; -476.000; -303.000
456.415;  -80.925;  -73.000;   70.000
456.535;  -35.400;  297.000;  273.000
456.656;  -45.500;  132.000;  240.000
456.776;  -78.625;    3.000;  298.000
456.897;  -11.075;  308.000;  513.000
457.017;  -62.125; -153.000;   -3.000
457.138; -104.525; -402.000; -249.000
457.258;  -33.775;  263.000;  224.000
457.379;   -4.375;  509.000;  521.000
457.499;  -36.700;  443.000;  432.000
457.620; -120.275; -407.000; -231.000
457.740; -101.150; -132.000;  -11.000
457.860;  -60.775;   87.000;   44.000
457.981;  -40.250;  132.000;  124.000
458.101;  -68.875;  -89.000;   40.000
458.221;  -18.300;  336.000;  402.000
458.342;  -54.100;   -4.000;  -37.000
458.462;   14.000;  617.000;  352.000
458.582;  -18.275; -302.000; -294.000
458.703;   18.825;  303.000;  154.000
458.823;  -18.550;   22.000;  163.000
458.943;   34.300;  341.000;  467.000
459.063;  -14.625; 1124.000;  192.000
459.183;  -26.750;  328.000;  313.000
459.304;    4.250;  315.000;  517.000
459.424;  -65.300; -246.000;  -89.000
459.544;  340.425;  388.000;  764.000
459.664;  910.575;  499.000;  506.000
459.784;  350.450; 1004.000; 1175.000
459.904;   61.350;  867.000;  744.000
460.024;   57.050;  867.000;  684.000
460.144;   -1.675;  449.000;  554.000
460.264;   -2.800;  515.000;  327.000
460.385; -100.525; -145.000; -119.000
460.505;   44.725;  905.000;  858.000
460.625;  -99.425;  -17.000;  -68.000
460.745;  -18.275;  396.000;  541.000
460.864;  -61.825;  153.000;  469.000
460.984;   11.050;  499.000;  573.000
461.104;  129.825; 1656.000; 1775.000
461.224;    7.475;  657.000;  650.000
461.344;  -31.175;  431.000;  360.000
461.464;  -32.300;  258.000;  513.000
461.584;  -18.175;  283.000;  466.000
461.704;  -60.300;   58.000;  108.000
461.824;  -68.650;  238.000;  259.000
461.943;  -36.900;  191.000;  130.000
462.063;  -73.625;    2.000;  324.000
462.183;   34.075;  639.000;  717.000
462.303;   93.575; 1678.000; 1230.000
462.422;   30.800;  781.000;  840.000
462.542;  -35.075;  271.000;  391.000
462.662;   28.125;  353.000;  380.000
462.782;  240.275;  833.000;  572.000
462.901;  512.600;  545.000;  717.000
463.021;  287.275; 1702.000; 1638.000
463.141;   -4.800;  337.000;  770.000
463.260;  -20.275;  614.000;  474.000
463.380;   20.050;  902.000;  884.000
463.499;  -47.550;  342.000;  332.000
463.619;  -35.825;  581.000;  559.000
463.738;  112.850; 1644.000;  903.000
463.858;   16.500;  657.000;  811.000
463.978;  -26.625;  542.000;  396.000
464.097;   41.525;  921.000; 1114.000
464.217;  115.200; 1196.000; 1143.000
464.336;  132.875; 1068.000; 1130.000
464.455;  -25.100;  328.000;  659.000
464.575;   47.875;  597.000;  602.000
464.694;  164.925; 1204.000; 1179.000
464.814;  124.425; 1190.000; 1138.000
464.933;   85.375; 1095.000; 1027.000
465.052;  106.125; 1412.000; 1054.000
465.172;   59.850;  922.000;  799.000
465.291;  130.550; 1376.000; 1320.000
465.410;    8.175;  462.000;  735.000
465.530;   89.875; 1355.000; 1310.000
465.649;   59.350; 1209.000; 1273.000
465.768;  131.675; 1673.000; 1508.000
465.888;   50.325;  941.000; 1174.000
466.007;  111.325; 1335.000; 1440.000
466.126;   -5.000;  721.000;  641.000
466.245;   47.950; 1176.000; 1187.000
466.364;   21.050;  950.000; 1060.000
466.484;   56.400; 1024.000; 1213.000
466.603;   30.900; 1101.000; 1222.000
466.722;  106.475; 1490.000; 1769.000
466.841;   67.450; 1151.000; 1401.000
466.960;   35.300; 1069.000;  972.000
467.079;  116.825; 1971.000; 1786.000
467.198;   47.525; 1238.000; 1181.000
467.317;   87.250; 1768.000; 1162.000
467.436;   77.325; 1709.000; 1261.000
467.555;  124.000; 1796.000; 1746.000
467.674;   71.450; 1227.000; 1329.000
467.793;   52.725; 1376.000; 1374.000
467.912;   94.175; 1658.000; 1539.000
468.031;  131.250; 2038.000; 1930.000
468.150;  133.125; 1842.000; 1837.000
468.269;  196.700; 2313.000; 2090.000
468.388;  172.900; 2168.000; 2339.000
468.507;  258.400; 2884.000; 2903.000
468.626;  249.975; 2555.000; 2541.000
468.744;  132.425; 2018.000; 2174.000
468.863;  210.975; 2312.000; 2523.000
468.982;   93.325; 1503.000; 1555.000
469.101;  220.750; 2788.000; 2692.000
469.220;  154.450; 2333.000; 2176.000
469.338;  252.125; 2935.000; 3051.000
469.457;  199.650; 2719.000; 2545.000
469.576;  345.300; 3953.000; 3784.000
469.695;  232.700; 2877.000; 3066.000
469.813;  425.025; 4148.000; 4192.000
469.932;  402.950; 4255.000; 4485.000
470.051;  430.850; 4075.000; 4161.000
470.169;  857.875; 4470.000; 4338.000
470.288; 1543.300; 4700.000; 4809.000
470.406;  912.750; 5059.000; 5194.000
470.525;  640.825; 6101.000; 5787.000
470.644;  646.000; 6847.000; 6794.000
470.762;  817.250; 8397.000; 7873.000
470.881;  899.425; 8651.000; 8464.000
470.999; 1034.850; 9685.000; 9151.000
471.118; 1111.025;11174.000;10711.000

