
Integration time [ms]: 200.000
Averaging Nr. [scans]: 10
Smoothing Nr. [pixels]: 0
Data measured with spectrometer [name]: 2101012U2
Wave   ;Sample   ;Dark     ;Reference
[nm]   ;[counts] ;[counts] ;[counts] 

197.733;  144.400;  516.000;  404.000
197.879; -153.100; -610.000; -634.000
198.025;  -80.000; -475.000; -420.000
198.171; -149.100; -602.000; -612.000
198.317;  -61.800; -401.000; -316.000
198.463; -113.000; -655.000; -404.000
198.609;   58.100;  181.000; -137.000
198.755; -165.900; -644.000; -410.000
198.901; -128.100; -505.000; -424.000
199.047; -151.500; -615.000; -488.000
199.193;  -90.200; -230.000; -468.000
199.339;  -55.100; -222.000; -369.000
199.485;   74.200;  330.000;  271.000
199.631;   38.300;  227.000;  310.000
199.777;  -97.500; -466.000; -398.000
199.923; -131.300; -610.000; -424.000
200.069;   16.400; -141.000;  -58.000
200.215;  107.300;  128.000;  453.000
200.361;   81.600;  243.000;  477.000
200.507; -128.300; -600.000; -373.000
200.653;  -44.300; -371.000; -194.000
200.798;  -65.500; -215.000; -125.000
200.944;   11.300; -146.000;  -41.000
201.090;   66.400;   61.000;  222.000
201.236;   -6.400; -116.000; -158.000
201.382;  322.100;  874.000;  903.000
201.528;   31.100;  -58.000;  -48.000
201.674; -141.400; -386.000; -293.000
201.819; -119.200; -540.000; -439.000
201.965; -148.100; -699.000; -447.000
202.111;  -40.100; -273.000; -226.000
202.257;  -66.600; -250.000; -238.000
202.402;   34.700;   13.000;  -36.000
202.548;  -44.400; -169.000; -116.000
202.694;  188.900;  410.000; -183.000
202.840; -172.100; -603.000; -531.000
202.985; -145.000; -681.000; -639.000
203.131; -210.700; -832.000; -666.000
203.277;  -83.100; -199.000; -262.000
203.423; -103.800; -434.000; -520.000
203.568;  -66.900; -462.000; -237.000
203.714; -116.100; -535.000; -542.000
203.860; -140.200; -682.000; -641.000
204.005;   45.700;  112.000;  167.000
204.151;  172.800;  561.000;  556.000
204.296;  -72.100; -354.000; -221.000
204.442; -141.700; -600.000; -547.000
204.588; -168.800; -592.000; -579.000
204.733;   51.500;  178.000;  168.000
204.879; -279.600;-1018.000; -822.000
205.025;   25.700;  -99.000;  126.000
205.170;   -9.000;  -17.000;   94.000
205.316;  165.100;  438.000;  661.000
205.461; -182.200; -698.000; -554.000
205.607;  163.200;  609.000;  665.000
205.752; -130.500; -626.000; -551.000
205.898; -107.500; -501.000; -391.000
206.043; -112.600; -578.000; -506.000
206.189;  -85.200; -243.000; -285.000
206.334;  160.200;  554.000;  606.000
206.480;  179.400;  409.000;  239.000
206.625; -167.400; -529.000; -552.000
206.771;  -79.600; -451.000; -373.000
206.916;  -54.600; -210.000; -537.000
207.062; -137.600; -545.000; -591.000
207.207; -128.400; -546.000; -443.000
207.353;  116.900;  185.000;  460.000
207.498;   56.500;  196.000;   85.000
207.643; -105.200; -501.000; -370.000
207.789; -256.400;-1069.000; -910.000
207.934; -208.000; -665.000; -713.000
208.080;  -62.900; -154.000;   66.000
208.225;   -8.100;  -22.000;  -57.000
208.370; -181.700; -727.000; -619.000
208.516; -165.100; -741.000; -487.000
208.661;  -53.300; -127.000;  -69.000
208.806;  -45.800; -165.000; -171.000
208.952; -224.800;-1044.000; -731.000
209.097;  124.100;  378.000;  349.000
209.242;  -86.600; -307.000; -382.000
209.387;  119.100;  392.000;  350.000
209.533;  -81.500; -321.000; -350.000
209.678;  194.400;  472.000;  543.000
209.823; -101.800; -408.000; -310.000
209.969; -196.600; -860.000; -757.000
210.114; -214.800; -907.000; -719.000
210.259; -235.600; -939.000; -889.000
210.404;    3.400; -171.000;  103.000
210.549;   44.900;  108.000;    3.000
210.695;  -29.300;   -3.000;  -95.000
210.840;   63.200;   94.000;   67.000
210.985; -152.700; -484.000; -303.000
211.130;  162.900;  268.000;  406.000
211.275;   54.700;  207.000;  199.000
211.420;  -87.700; -300.000; -289.000
211.566; -122.700; -536.000; -489.000
211.711;   65.000;  218.000;  157.000
211.856; -130.600; -545.000; -519.000
212.001;   28.100;  151.000;   44.000
212.146;   31.100;  153.000;   49.000
212.291;  -27.600; -210.000; -186.000
212.436;  -60.800; -280.000;   -6.000
212.581; -174.100; -685.000; -653.000
212.726; -143.400; -487.000; -538.000
212.871;  -78.200; -552.000; -217.000
213.016; -318.300;-1172.000;-1029.000
213.161;  113.500;  406.000;  291.000
213.306; -131.800; -435.000; -577.000
213.451; -218.600; -778.000; -689.000
213.596;  -88.600; -455.000; -347.000
213.741; -121.300; -448.000; -538.000
213.886; -144.900; -498.000; -517.000
214.031;  -41.800; -294.000; -124.000
214.176; -107.000; -408.000; -341.000
214.321;  -35.800; -296.000; -157.000
214.466;  -50.700; -163.000;  -43.000
214.611;    0.800;  -61.000;  -10.000
214.756; -243.600; -948.000; -858.000
214.901;  -49.300; -388.000; -226.000
215.046; -245.900; -797.000; -825.000
215.191;   45.200;  128.000;   35.000
215.336;    8.300; -157.000;  -19.000
215.480; -161.400; -684.000; -505.000
215.625;   -3.100; -175.000;  -19.000
215.770; -161.600; -757.000; -662.000
215.915;  -11.200;   -5.000;  -97.000
216.060;  -23.400; -113.000;  -21.000
216.205; -211.200; -731.000; -779.000
216.349; -113.900; -470.000; -533.000
216.494; -245.200; -939.000; -867.000
216.639; -217.100; -823.000; -888.000
216.784; -167.700; -577.000; -525.000
216.929;  121.500;  392.000;  281.000
217.073;  -40.100; -244.000;  -31.000
217.218;   27.800;   78.000;  -47.000
217.363; -153.700; -656.000; -618.000
217.507; -161.500; -623.000; -588.000
217.652; -267.700; -845.000; -874.000
217.797; -182.600; -708.000; -659.000
217.942; -230.400; -856.000; -720.000
218.086;  141.200;  608.000;  539.000
218.231;  -28.700; -174.000;  -26.000
218.376;  -73.000; -337.000; -229.000
218.520;   25.000;  -41.000;   96.000
218.665;  -55.300; -338.000; -204.000
218.810;  -79.900; -275.000; -233.000
218.954;   35.900;  201.000;   35.000
219.099; -227.200; -713.000; -963.000
219.243; -113.900; -589.000; -554.000
219.388;  -77.800; -264.000; -136.000
219.532;   15.900; -116.000; -116.000
219.677; -113.600; -564.000; -521.000
219.822;   34.500;   33.000;   89.000
219.966;   20.600;   17.000;  -99.000
220.111;  -54.700; -328.000;  -40.000
220.255; -177.000; -797.000; -750.000
220.400;  -39.100; -180.000; -146.000
220.544; -135.400; -516.000; -450.000
220.689;  -59.600; -422.000; -451.000
220.833;  -35.100; -123.000;  -58.000
220.978; -106.900; -393.000; -563.000
221.122;   77.300;  319.000;  307.000
221.267; -237.500; -906.000; -837.000
221.411; -114.900; -478.000; -394.000
221.555;    2.400; -104.000;  -23.000
221.700;  -67.000; -329.000; -222.000
221.844;   62.800;  255.000;  272.000
221.989;  -89.300; -328.000; -311.000
222.133;  -53.700; -289.000; -307.000
222.277;  -15.700;    5.000;   78.000
222.422;   47.800;  227.000;  113.000
222.566;  -81.300; -381.000; -214.000
222.711; -118.900; -414.000; -479.000
222.855; -183.500; -643.000; -586.000
222.999; -182.700; -642.000; -717.000
223.144;  -45.500; -195.000; -194.000
223.288;   97.900;  423.000;  251.000
223.432;   30.100;  184.000;  230.000
223.576;   49.500;  152.000;  -21.000
223.721;   76.100;  364.000;  273.000
223.865; -106.200; -472.000; -475.000
224.009;  514.000; 1673.000; 1631.000
224.153; -144.500; -660.000; -671.000
224.298; -119.500; -531.000; -489.000
224.442;   -7.000;  -74.000;  -33.000
224.586;   -9.400; -169.000; -106.000
224.730; -195.900; -858.000; -670.000
224.875; -222.500; -739.000; -688.000
225.019;   30.100;  102.000;  188.000
225.163;  146.900;  208.000;  341.000
225.307;   35.700;   97.000;  -91.000
225.451;  125.900;  360.000;  481.000
225.595;   72.500;  264.000;  176.000
225.739;  -12.600; -170.000;  -94.000
225.884;   43.200;   86.000;    5.000
226.028; -168.300; -760.000; -626.000
226.172;  -68.000; -260.000; -273.000
226.316; -226.800; -941.000; -902.000
226.460; -126.600; -645.000; -493.000
226.604;  -93.200; -406.000; -400.000
226.748; -189.200; -836.000; -733.000
226.892;  -48.200; -227.000; -181.000
227.036;  -90.700; -537.000; -447.000
227.180;  -95.700; -551.000; -375.000
227.324; -123.600; -561.000; -580.000
227.468; -244.100; -819.000; -717.000
227.612;   48.800;  242.000;  -28.000
227.756; -233.900; -845.000; -698.000
227.900;  141.400;  342.000;  441.000
228.044; -123.900; -509.000; -290.000
228.188;  138.900;  448.000;  568.000
228.332; -158.600; -546.000; -472.000
228.476;  -21.200; -223.000; -149.000
228.620;  -68.000; -210.000; -150.000
228.764;  136.800;  431.000;  349.000
228.908;  -59.500; -155.000;   30.000
229.052; -112.500; -615.000; -528.000
229.195;  -34.600; -172.000;   13.000
229.339;  -44.000; -235.000; -305.000
229.483;  -22.800;    5.000; -162.000
229.627;   21.900; -156.000;  139.000
229.771;  -70.600; -218.000; -294.000
229.915;   31.600;  230.000;   79.000
230.059; -189.400; -648.000; -663.000
230.202;  -72.500; -370.000; -317.000
230.346;   12.500; -107.000;  107.000
230.490; -126.400; -489.000; -521.000
230.634; -222.000; -736.000; -553.000
230.777;  143.900;  478.000;  509.000
230.921; -106.900; -450.000; -359.000
231.065;  -41.900; -246.000; -286.000
231.209;   82.100;  261.000;  265.000
231.352;   52.800;   54.000;   40.000
231.496;   41.000;  568.000;  188.000
231.640; -142.100; -693.000; -621.000
231.783;  123.500;  546.000;  525.000
231.927;  -64.600; -294.000; -365.000
232.071; -248.300; -962.000; -736.000
232.214; -217.300; -980.000; -764.000
232.358; -197.600; -683.000; -599.000
232.502;   25.300;  -19.000;    7.000
232.645; -239.300;-1090.000; -927.000
232.789;  -42.500; -257.000; -218.000
232.933;  -65.000; -407.000; -224.000
233.076; -236.800;-1038.000; -897.000
233.220; -210.300; -752.000; -777.000
233.363; -142.500; -669.000; -477.000
233.507;  115.300;  371.000;  129.000
233.650; -184.800; -764.000; -834.000
233.794;  107.900;  438.000;  461.000
233.938; -119.600; -530.000; -362.000
234.081;  -15.700;  -93.000;   31.000
234.225; -127.300; -631.000; -539.000
234.368; -195.200; -773.000; -723.000
234.512;  -86.500; -385.000; -299.000
234.655; -170.900; -582.000; -555.000
234.798; -151.600; -493.000; -466.000
234.942; -277.500; -884.000;-1002.000
235.085; -140.600; -651.000; -443.000
235.229; -117.200; -405.000; -410.000
235.372;  -58.200; -247.000; -191.000
235.516; -104.800; -397.000; -321.000
235.659;   57.800;   92.000;  121.000
235.802;  -30.600;  -38.000;  -22.000
235.946;   42.300;  335.000;  215.000
236.089;   76.500;  126.000;  250.000
236.233;  147.700;  275.000;  298.000
236.376;  -85.600; -235.000; -378.000
236.519;  -67.500; -297.000; -319.000
236.663;  -73.500; -215.000; -117.000
236.806; -290.300;-1029.000; -999.000
236.949;  146.400;  543.000;  431.000
237.092;  121.500;  412.000;  391.000
237.236; -157.900; -589.000; -502.000
237.379;  145.800;  352.000;  428.000
237.522; -210.200; -879.000; -768.000
237.666;  -36.000; -271.000;   18.000
237.809; -238.000; -851.000; -823.000
237.952;   85.800;  469.000;  271.000
238.095; -127.000; -447.000; -442.000
238.238;  196.300;  688.000;  700.000
238.382;   37.200;  166.000;  103.000
238.525; -149.700; -598.000; -511.000
238.668; -267.200;-1060.000; -985.000
238.811; -123.600; -638.000; -643.000
238.954;  -94.800; -483.000; -334.000
239.097;  213.900;  617.000;  664.000
239.241;   66.100;  394.000;  326.000
239.384;  -45.700; -254.000; -214.000
239.527; -135.500; -424.000; -224.000
239.670; -288.000; -994.000;-1091.000
239.813; -201.000; -696.000; -658.000
239.956;  178.300;  579.000;  473.000
240.099; -206.300; -778.000; -725.000
240.242;  147.800;  428.000;  432.000
240.385;  118.800;  466.000;  450.000
240.528; -143.600; -706.000; -473.000
240.671;   53.300;  189.000;  134.000
240.814;  -87.700; -441.000; -158.000
240.957; -188.600; -767.000; -578.000
241.100; -176.400; -779.000; -755.000
241.243; -295.800;-1234.000; -893.000
241.386;  -99.300; -508.000; -379.000
241.529; -166.200; -735.000; -547.000
241.672; -125.900; -566.000; -495.000
241.815; -225.500; -832.000; -808.000
241.958;  -68.800; -125.000; -182.000
242.101; -137.500; -545.000; -390.000
242.244;  -40.300; -270.000; -325.000
242.387;  -66.900; -304.000; -246.000
242.530;  140.900;  470.000;  134.000
242.673;  -69.200; -381.000; -309.000
242.815; -242.300; -925.000; -899.000
242.958; -127.700; -482.000; -381.000
243.101;   29.600;  132.000;  187.000
243.244; -131.100; -564.000; -521.000
243.387;  -92.600; -313.000; -316.000
243.530; -188.300; -657.000; -674.000
243.672;   29.300;   43.000;  -92.000
243.815; -100.700; -355.000; -283.000
243.958;   14.900;   98.000;  -26.000
244.101;    2.000;   59.000;  -16.000
244.243;    3.900;  -47.000;  101.000
244.386; -201.100; -761.000; -630.000
244.529;  -53.100; -132.000; -139.000
244.672; -295.400;-1154.000; -951.000
244.814; -208.500; -621.000; -794.000
244.957;  -86.600; -380.000; -304.000
245.100; -128.000; -489.000; -489.000
245.242; -117.800; -387.000; -374.000
245.385;   13.400;  -59.000;  -39.000
245.528; -226.700; -871.000; -705.000
245.670;  222.400;  612.000;  634.000
245.813; -146.900; -599.000; -547.000
245.956;  -41.600; -324.000; -275.000
246.098; -116.600; -508.000; -650.000
246.241;   -1.600;  194.000;   48.000
246.383;   -4.200; -119.000;  -73.000
246.526; -140.700; -454.000; -525.000
246.669; -205.500; -889.000; -780.000
246.811;   16.000;  172.000;   -1.000
246.954; -129.300; -512.000; -426.000
247.096;  -46.600;  -84.000;   -6.000
247.239; -100.100; -482.000; -445.000
247.381; -131.000; -647.000; -488.000
247.524;  195.000;  645.000;  679.000
247.666;   10.300;   58.000;   11.000
247.809; -233.300; -887.000; -691.000
247.951;    2.800;  -75.000;  138.000
248.094;   72.300;  432.000;  308.000
248.236; -301.200;-1262.000;-1238.000
248.378;  -10.900; -356.000;  -81.000
248.521;  -24.800; -334.000; -337.000
248.663;  -86.500; -236.000; -267.000
248.806;  -51.200; -300.000; -266.000
248.948; -204.900; -886.000; -763.000
249.090;  -86.100; -428.000; -398.000
249.233;  -72.200; -344.000; -381.000
249.375; -111.300; -474.000; -451.000
249.518;  -29.400;  -83.000; -133.000
249.660;    3.700; -103.000;    3.000
249.802; -350.100;-1303.000;-1189.000
249.945; -119.000; -612.000; -540.000
250.087; -190.200; -834.000; -768.000
250.229;  -72.700; -362.000; -480.000
250.371; -148.300; -494.000; -439.000
250.514;  -77.300; -310.000; -244.000
250.656; -105.600;   69.000;  102.000
250.798; -226.600; -849.000; -800.000
250.940; -121.900; -322.000; -322.000
251.083;  -40.800; -335.000; -111.000
251.225;  151.800;  338.000;  310.000
251.367;  -88.300; -274.000; -373.000
251.509;  -46.500; -265.000; -210.000
251.651; -173.700; -731.000; -671.000
251.794;  101.500;  538.000;  632.000
251.936; -194.700; -821.000; -747.000
252.078; -137.300; -540.000; -461.000
252.220; -106.400; -645.000; -477.000
252.362;  138.400;  344.000;  462.000
252.504; -141.600; -677.000; -584.000
252.646; -228.700; -875.000; -722.000
252.788;    7.900;   14.000; -128.000
252.931;  -56.000; -257.000; -253.000
253.073;  -74.800; -376.000; -317.000
253.215;   20.500;  141.000;  122.000
253.357;  -15.000;   82.000; -153.000
253.499; -101.700; -374.000; -234.000
253.641; -166.300; -749.000; -594.000
253.783; -152.100; -609.000; -527.000
253.925; -166.500; -586.000; -591.000
254.067; -181.200; -744.000; -667.000
254.209;  -57.400; -391.000; -259.000
254.351; -267.000; -865.000; -883.000
254.493; -110.000; -441.000; -417.000
254.635; -212.500; -936.000; -818.000
254.777; -195.500; -752.000; -687.000
254.918; -162.000; -512.000; -430.000
255.060; -111.400; -551.000; -395.000
255.202;  -99.600; -473.000; -261.000
255.344; -139.100; -658.000; -455.000
255.486; -149.300; -471.000; -406.000
255.628; -182.700; -780.000; -781.000
255.770; -177.700; -676.000; -536.000
255.912; -112.300; -559.000; -468.000
256.053; -167.600; -730.000; -508.000
256.195;  311.100; 1008.000;  903.000
256.337; -208.400; -861.000; -595.000
256.479;  134.200;  532.000;  416.000
256.621;  -77.300; -394.000; -212.000
256.762; -207.200; -789.000; -742.000
256.904;  111.300;  485.000;  487.000
257.046;  -39.000; -381.000; -271.000
257.188;  -67.300; -351.000; -264.000
257.329; -137.100; -525.000; -464.000
257.471; -223.300; -939.000; -807.000
257.613; -115.600; -584.000; -498.000
257.755; -257.300;-1073.000; -982.000
257.896;  116.300;  286.000;  392.000
258.038; -144.000; -403.000; -352.000
258.180;  -74.500; -354.000; -279.000
258.321; -142.300; -581.000; -457.000
258.463;   41.900;  -71.000;  133.000
258.605; -210.500; -562.000; -570.000
258.746; -206.300; -886.000; -772.000
258.888; -327.400;-1026.000;-1020.000
259.029;  104.000;  121.000;   -8.000
259.171; -144.300; -614.000; -550.000
259.313;    5.000;  -49.000;  -47.000
259.454; -129.900; -536.000; -414.000
259.596; -104.800; -483.000; -390.000
259.737;  -98.200; -590.000; -474.000
259.879;   94.200;  217.000;  311.000
260.020;  186.100;  901.000;  636.000
260.162;  -41.300; -146.000; -253.000
260.303; -233.700; -768.000; -687.000
260.445; -162.600; -609.000; -613.000
260.586;   85.700;  392.000;  157.000
260.728;  -83.900; -360.000; -248.000
260.869; -134.200; -350.000; -343.000
261.011;  189.400;  706.000;  537.000
261.152; -129.600; -479.000; -319.000
261.293; -156.400; -576.000; -595.000
261.435;  -24.800; -219.000; -184.000
261.576;  -82.900; -455.000; -325.000
261.718;  130.200;  420.000;  470.000
261.859; -227.600; -940.000; -949.000
262.000; -229.100; -951.000;-1016.000
262.142;  -14.700;  -52.000;  -60.000
262.283; -241.600; -808.000; -691.000
262.424; -170.400; -666.000; -625.000
262.566; -303.900;-1161.000; -983.000
262.707; -208.500; -840.000; -830.000
262.848; -197.400; -769.000; -726.000
262.990;  -68.500; -362.000; -345.000
263.131;  192.900;  650.000;  681.000
263.272;   12.500;  -61.000;  -41.000
263.413; -162.100; -589.000; -561.000
263.555; -119.500; -669.000; -143.000
263.696; -164.600; -550.000; -641.000
263.837; -113.800; -449.000; -551.000
263.978;    1.800;   -5.000;  -77.000
264.119;  -57.900; -283.000; -264.000
264.261; -166.700; -847.000; -630.000
264.402;   27.600;   33.000;   40.000
264.543; -131.000; -509.000; -524.000
264.684;    2.700;   61.000;  -50.000
264.825; -127.000; -816.000; -538.000
264.966;   -0.400;  -84.000;  -67.000
265.107; -206.600; -646.000; -670.000
265.248; -215.100; -825.000; -812.000
265.390;  -11.000;  152.000;   -9.000
265.531;  -34.900; -238.000; -107.000
265.672; -152.800; -557.000; -630.000
265.813;  146.700;  563.000;  439.000
265.954; -280.200; -959.000; -940.000
266.095;  -26.600; -372.000; -322.000
266.236; -188.600; -686.000; -548.000
266.377;  -72.500; -243.000; -297.000
266.518;  -91.000; -619.000; -547.000
266.659;  101.200;  170.000;  268.000
266.800;   28.300;   83.000;   85.000
266.941; -154.500; -487.000; -478.000
267.082;   34.300;  354.000;   99.000
267.223;  -84.100; -344.000; -273.000
267.364; -225.100; -892.000; -686.000
267.504;    0.800;    3.000;  135.000
267.645;   11.900;  160.000;   67.000
267.786;   -5.200; -147.000;  -86.000
267.927; -131.200; -473.000; -379.000
268.068;  -16.200; -186.000;  -61.000
268.209;  -85.900; -175.000; -413.000
268.350; -111.100; -388.000; -532.000
268.490; -148.200; -648.000; -521.000
268.631;   91.100;  127.000;  225.000
268.772; -210.700; -874.000; -647.000
268.913; -139.100; -328.000; -476.000
269.054;  -14.700; -117.000;   12.000
269.194;  -92.000; -418.000; -402.000
269.335; -283.700;-1137.000;-1074.000
269.476;  -14.900;   33.000;  -35.000
269.617;  -73.200; -347.000; -392.000
269.757; -177.800; -713.000; -646.000
269.898; -216.800; -856.000; -613.000
270.039; -107.300; -415.000; -405.000
270.180; -240.900; -952.000; -816.000
270.320;  -40.400; -190.000; -250.000
270.461;  -71.600; -277.000; -249.000
270.602;  -24.900; -186.000; -156.000
270.742; -267.800; -868.000; -943.000
270.883; -111.700; -442.000; -390.000
271.023;  -96.000; -358.000; -357.000
271.164; -135.500; -607.000; -528.000
271.305; -192.500; -666.000; -654.000
271.445; -162.900; -722.000; -683.000
271.586; -142.800; -462.000; -283.000
271.726; -101.400; -397.000; -322.000
271.867; -125.200; -594.000; -534.000
272.008;  224.700; -473.000; -285.000
272.148;  208.400;  462.000;  468.000
272.289;   54.900; -113.000; -181.000
272.429;   54.000;   19.000;  185.000
272.570; -161.800; -633.000; -737.000
272.710; -181.800; -825.000; -775.000
272.851;  -67.900;  113.000; -130.000
272.991; -322.900;-1173.000;-1077.000
273.131; -100.900; -419.000; -459.000
273.272; -166.100; -683.000; -723.000
273.412;    5.800; -143.000;  -31.000
273.553; -111.700; -488.000; -507.000
273.693;  274.400;  913.000;  858.000
273.834; -241.600; -894.000; -692.000
273.974; -121.500; -664.000; -615.000
274.114; -191.300; -772.000; -560.000
274.255;  137.300;  414.000;  373.000
274.395;   -1.600; -180.000; -125.000
274.535;   96.900;  199.000;  350.000
274.676;   95.300;  225.000;   94.000
274.816;   29.700;  110.000;   34.000
274.956; -184.900; -624.000; -690.000
275.097; -188.500;-1014.000; -922.000
275.237; -210.800; -913.000; -803.000
275.377; -191.700; -778.000; -689.000
275.517; -299.900; -878.000; -937.000
275.658; -104.000; -590.000; -555.000
275.798; -151.300; -606.000; -413.000
275.938;   88.500;  215.000;  323.000
276.078; -193.300; -626.000; -395.000
276.218;   27.500;   99.000;  104.000
276.359; -241.200;-1026.000;-1024.000
276.499; -117.300; -605.000; -446.000
276.639;  -58.400; -305.000; -151.000
276.779;  -86.100; -475.000; -357.000
276.919; -191.400; -783.000; -624.000
277.059;  -31.200; -261.000; -212.000
277.199;  -69.300; -357.000; -259.000
277.340;   94.700;  287.000;  175.000
277.480; -189.700; -840.000; -693.000
277.620;   63.400;  192.000;   16.000
277.760; -404.600;-1533.000;-1294.000
277.900;   51.700;  113.000;   33.000
278.040;   33.200;  137.000;  159.000
278.180;  101.600;  270.000;  170.000
278.320;   18.300;   21.000;   56.000
278.460; -137.400; -443.000; -469.000
278.600; -142.200; -708.000; -598.000
278.740;  145.000;  448.000;  224.000
278.880; -133.600; -768.000; -791.000
279.020;   34.000; -194.000; -144.000
279.160; -166.100; -672.000; -595.000
279.300; -226.000; -926.000; -873.000
279.440; -175.500; -709.000; -622.000
279.579; -141.200;-1014.000; -929.000
279.719;  -83.300; -410.000; -394.000
279.859;  147.300;   -4.000;   41.000
279.999;   17.900; -208.000;  101.000
280.139;  -47.400; -435.000; -387.000
280.279; -169.000; -708.000; -745.000
280.419;   -3.900; -229.000; -147.000
280.559;  -36.100; -259.000; -180.000
280.698; -149.900; -790.000; -639.000
280.838; -152.700; -778.000; -800.000
280.978; -171.200; -846.000; -790.000
281.118; -214.800; -811.000; -704.000
281.257;   59.800;   24.000;    6.000
281.397; -234.800;-1094.000; -960.000
281.537; -163.400; -599.000; -712.000
281.677;  -40.000; -150.000; -101.000
281.816; -141.500; -700.000; -630.000
281.956;  -69.000; -193.000; -257.000
282.096; -114.600; -539.000; -396.000
282.235; -183.100; -672.000; -638.000
282.375;  -19.600; -243.000;  -98.000
282.515; -177.900; -715.000; -707.000
282.654;   87.700;   29.000;  106.000
282.794;   83.500;  388.000;  244.000
282.934;  -80.400; -530.000; -491.000
283.073; -241.700;-1030.000; -857.000
283.213;  -87.900; -460.000; -467.000
283.353;  -64.500; -408.000; -349.000
283.492;  -55.000; -264.000; -296.000
283.632;  -74.900; -254.000; -168.000
283.771; -164.300; -859.000; -730.000
283.911;  -80.800; -369.000; -260.000
284.050; -215.100; -794.000; -748.000
284.190; -306.500;-1229.000;-1096.000
284.329; -297.700;-1055.000; -964.000
284.469; -116.800; -516.000; -591.000
284.608;  -93.400; -559.000; -598.000
284.748; -140.600; -614.000; -570.000
284.887;    4.500;  -87.000;  -20.000
285.027; -212.000; -844.000; -892.000
285.166;  -55.000; -192.000; -249.000
285.306;   35.800; -116.000;  -33.000
285.445;  -52.200; -229.000; -343.000
285.584; -149.700; -630.000; -494.000
285.724;  -68.800; -282.000; -322.000
285.863; -196.900; -857.000; -507.000
286.002;  -76.900; -366.000; -276.000
286.142; -209.400; -715.000; -622.000
286.281;  -93.000; -525.000; -493.000
286.420; -161.700; -554.000; -417.000
286.560;  249.100;  653.000;  623.000
286.699; -246.800; -958.000; -912.000
286.838; -142.600; -590.000; -591.000
286.978; -159.200; -533.000; -537.000
287.117; -243.000;-1085.000; -950.000
287.256;  -25.200; -228.000; -211.000
287.395;  -72.900; -197.000; -378.000
287.535;  -89.500; -370.000; -298.000
287.674; -124.700; -509.000; -484.000
287.813;  156.500;  661.000;  533.000
287.952; -240.900;-1010.000; -871.000
288.091; -287.200;-1049.000; -915.000
288.231;   48.400;   13.000;   15.000
288.370; -349.300;-1217.000;-1200.000
288.509; -161.000; -728.000; -645.000
288.648; -168.700; -770.000; -548.000
288.787;  -33.800; -243.000;  -87.000
288.926;  -98.900; -454.000; -475.000
289.065;  266.400;  859.000;  672.000
289.204;  -91.400; -377.000; -217.000
289.344; -175.300; -791.000; -690.000
289.483;   63.400;  416.000;  304.000
289.622;  -14.100; -291.000; -149.000
289.761;  -12.800; -309.000; -166.000
289.900; -180.500; -785.000; -626.000
290.039;  -16.100;  -12.000;  -95.000
290.178;  -48.800; -274.000; -180.000
290.317; -157.600; -618.000; -479.000
290.456; -123.900; -463.000; -451.000
290.595; -268.100; -961.000; -833.000
290.734; -234.700; -904.000; -891.000
290.873; -111.800; -456.000; -420.000
291.011; -211.000; -833.000; -843.000
291.150; -173.500; -770.000; -682.000
291.289;  -18.900; -343.000; -110.000
291.428; -172.600; -599.000; -480.000
291.567;  -70.600; -370.000; -442.000
291.706;   43.300;  109.000;  154.000
291.845; -163.500; -597.000; -505.000
291.984; -310.700;-1234.000;-1061.000
292.122;  187.700;  602.000;  582.000
292.261;  117.600;  620.000;  463.000
292.400;   55.200; -144.000;  211.000
292.539; -224.800; -959.000; -813.000
292.678;  -17.500; -325.000; -300.000
292.816; -278.100;-1136.000; -965.000
292.955; -164.300; -844.000; -684.000
293.094;  -20.400; -173.000; -337.000
293.233;  -93.600; -556.000; -400.000
293.371;  -59.500; -225.000;  -84.000
293.510; -168.400; -866.000; -780.000
293.649; -264.500; -959.000; -924.000
293.787; -149.900;-1083.000;-1012.000
293.926;   25.500; -113.000;  -32.000
294.065;  -97.900; -379.000; -290.000
294.203;  125.800;  298.000;  406.000
294.342;   58.900;   74.000;  156.000
294.481;11139.800;51180.000; -836.000
294.619;  -35.300; -425.000; -582.000
294.758; -271.600;-1230.000;-1137.000
294.896;   90.500; -125.000;    5.000
295.035; -244.900;-1040.000;-1006.000
295.174; -241.800;-1082.000; -954.000
295.312;  -58.700; -323.000; -203.000
295.451;  -43.700; -307.000; -428.000
295.589;  -97.500; -389.000; -518.000
295.728;   53.100; -292.000; -165.000
295.866;    9.300;  -36.000;  -51.000
296.005; -110.900; -584.000; -341.000
296.143; -155.500; -558.000; -596.000
296.282; -186.900; -957.000; -881.000
296.420; -162.800; -657.000; -557.000
296.559; -134.200; -892.000; -633.000
296.697;  -24.500; -847.000; -665.000
296.835;   16.200;-1141.000;-1002.000
296.974;   90.500;  -23.000;   39.000
297.112;   -8.200; -443.000; -504.000
297.251; -150.700; -815.000; -755.000
297.389;   98.400; -576.000; -438.000
297.527;   54.900; -145.000;  -83.000
297.666; -120.900; -486.000; -438.000
297.804; -101.500; -404.000; -264.000
297.942;   10.700; -136.000; -161.000
298.081;   28.200; -183.000;   63.000
298.219;  107.000;  -17.000;  -19.000
298.357;   39.400; -144.000;  -71.000
298.495;  -19.400; -810.000; -812.000
298.634;  159.300;  245.000;  219.000
298.772;   61.000; -220.000; -338.000
298.910;  -56.800; -309.000; -182.000
299.048;   12.800; -130.000; -153.000
299.187;  -30.000; -350.000; -250.000
299.325;   71.200;   52.000;  122.000
299.463;   27.100; -389.000; -299.000
299.601;  166.700; -327.000; -271.000
299.739; -218.200; -908.000; -883.000
299.877; -153.600; -791.000; -703.000
300.016; -169.100;-1095.000; -935.000
300.154;  228.100;  -19.000; -161.000
300.292;   43.300; -428.000; -348.000
300.430;   58.900; -408.000; -291.000
300.568; -186.700; -940.000; -874.000
300.706;  -87.800; -366.000; -469.000
300.844; -200.700;-1108.000; -979.000
300.982;  214.400;  246.000;  282.000
301.120; -232.100; -965.000; -866.000
301.258; -135.900; -812.000; -705.000
301.396;   98.100;  104.000;  -41.000
301.534;   93.000; -218.000; -293.000
301.672;  -42.900; -664.000; -521.000
301.810;   -1.800; -613.000; -545.000
301.948;  228.200;   53.000;  149.000
302.086;  782.300; -250.000;  -32.000
302.224; 1201.400; -610.000; -585.000
302.362;   16.000; -558.000; -622.000
302.500;  -89.900; -923.000; -893.000
302.638;  174.300;  128.000;  245.000
302.776;  -20.200; -352.000; -408.000
302.913;  123.900;  447.000;  236.000
303.051;   -2.800;  -86.000;  -23.000
303.189;  103.900;   90.000;  118.000
303.327;  -53.700; -341.000; -256.000
303.465; -125.800; -832.000; -588.000
303.603; -133.800; -805.000; -604.000
303.740;  185.300;  417.000;  241.000
303.878;  -49.200; -800.000; -759.000
304.016; -186.900; -915.000; -790.000
304.154; -251.900;-1123.000;-1152.000
304.291;  -59.600; -505.000; -554.000
304.429;   55.700;  102.000;   74.000
304.567; -229.900; -908.000; -893.000
304.705;  -97.400; -408.000; -515.000
304.842;   74.100; -616.000; -540.000
304.980;  122.600;  215.000;   35.000
305.118;   67.600; -367.000; -365.000
305.255; -150.200; -945.000; -927.000
305.393;  125.200;  178.000;  239.000
305.531; -211.800;-1173.000; -956.000
305.668; -126.100; -663.000; -582.000
305.806;  120.800; -358.000; -439.000
305.943;   91.400; -629.000; -637.000
306.081;   92.900; -378.000; -267.000
306.219; -187.100; -863.000; -748.000
306.356;   34.400;  158.000;   27.000
306.494;  289.800;  981.000;  761.000
306.631;   38.100;  -11.000;  -55.000
306.769;    8.400; -613.000; -485.000
306.906;   26.600; -284.000; -258.000
307.044;  -51.100; -473.000; -488.000
307.181;  -77.600; -410.000; -332.000
307.319;  103.600;  112.000;   87.000
307.456; -306.800;-1191.000;-1153.000
307.594; -177.600; -980.000; -727.000
307.731;  -12.200; -371.000; -164.000
307.868;   42.800;  -15.000;   20.000
308.006; -227.100; -961.000; -847.000
308.143;  -97.200; -618.000; -330.000
308.281;  327.900;  -37.000; -254.000
308.418;  -10.800; -748.000; -640.000
308.555; -110.000; -400.000; -250.000
308.693; -103.500; -577.000; -573.000
308.830; -159.800; -712.000; -657.000
308.967;   43.800; -215.000;  -95.000
309.105;   -8.400; -507.000; -396.000
309.242;   72.100; -468.000; -367.000
309.379;  562.600; -577.000; -655.000
309.517; -136.300; -936.000; -948.000
309.654; -160.400; -910.000; -734.000
309.791;  -92.200; -662.000; -580.000
309.928; -165.000; -977.000; -914.000
310.065;  356.200;  819.000;  697.000
310.203;  -55.800; -825.000; -850.000
310.340;   -7.400; -465.000; -321.000
310.477; -127.100; -412.000; -516.000
310.614;  -97.000; -383.000; -473.000
310.751; -113.800; -427.000; -518.000
310.889;    7.800;    1.000;   11.000
311.026; -258.500;-1161.000; -939.000
311.163;  -47.800; -386.000; -380.000
311.300;  -86.100; -512.000; -479.000
311.437; -122.100; -658.000; -619.000
311.574; -307.200;-1226.000; -985.000
311.711; -122.600; -595.000; -433.000
311.848;  -29.600; -380.000; -388.000
311.985;   73.400;  270.000;   93.000
312.122; -197.900; -932.000; -762.000
312.259; -198.300; -941.000; -994.000
312.396; -102.200; -508.000; -551.000
312.533; -136.700; -812.000; -790.000
312.670; -227.900;-1070.000; -898.000
312.807;  -24.400; -352.000; -367.000
312.944; -105.100; -513.000; -611.000
313.081;  -23.400; -150.000; -415.000
313.218; -201.600;-1111.000; -867.000
313.355;   19.400; -531.000; -449.000
313.492;   40.900; -455.000; -292.000
313.629;  262.000;  815.000;  735.000
313.766; -304.200;-1176.000;-1008.000
313.902;   23.500; -186.000;   21.000
314.039;  -64.900; -372.000; -289.000
314.176;  119.400;  286.000;  192.000
314.313; -112.700; -569.000; -473.000
314.450; -115.800; -788.000; -684.000
314.587;  -40.400; -468.000; -480.000
314.723;   46.700;  -78.000;  130.000
314.860;  113.700;  318.000;  332.000
314.997;  100.600;  223.000;  142.000
315.134;  -86.900; -385.000; -368.000
315.270;  -23.100; -480.000; -496.000
315.407; -240.400;-1094.000; -967.000
315.544;  -75.800; -657.000; -538.000
315.681; -124.200; -681.000; -565.000
315.817;   41.200; -133.000; -176.000
315.954;  -18.800; -613.000; -392.000
316.091; -237.700;-1045.000;-1023.000
316.227;  -25.600;  -71.000; -179.000
316.364;   53.900;   23.000;    6.000
316.500;  -57.300; -113.000; -300.000
316.637;  -56.200; -181.000; -302.000
316.774; -141.400; -625.000; -358.000
316.910; -134.000; -598.000; -629.000
317.047;  -73.900; -487.000; -351.000
317.183;  -91.200; -435.000; -566.000
317.320;  -50.400; -367.000; -321.000
317.456; -172.700; -733.000; -805.000
317.593; -131.600; -598.000; -641.000
317.729;   53.800;  168.000;  -67.000
317.866; -352.100;-1434.000;-1285.000
318.002; -161.000; -708.000; -948.000
318.139; -169.000; -883.000; -867.000
318.275; -190.600;-1003.000; -738.000
318.412; -102.600; -517.000; -336.000
318.548;  -71.300; -751.000; -720.000
318.685; -212.100; -985.000; -888.000
318.821; -166.400; -762.000; -735.000
318.957;   11.000;   34.000;  -23.000
319.094;  111.900;  297.000;  154.000
319.230; -141.200; -756.000; -742.000
319.367;  185.900; -471.000; -520.000
319.503;  103.400; -538.000; -436.000
319.639; -159.800; -877.000; -793.000
319.775; -114.300; -750.000; -685.000
319.912; -100.500; -424.000; -519.000
320.048; -196.500;-1184.000;-1184.000
320.184;  135.200;   59.000;   70.000
320.321;  -91.400; -497.000; -467.000
320.457;  144.400;  475.000;  662.000
320.593;  -90.000; -375.000; -382.000
320.729; -158.000; -732.000; -734.000
320.866; -115.400; -577.000; -635.000
321.002; -141.600; -759.000; -809.000
321.138;  -26.600; -135.000; -211.000
321.274;  108.300; -148.000; -115.000
321.410;  -54.200; -585.000; -353.000
321.546;  -87.100;-1011.000; -911.000
321.683;  128.500;  400.000;  185.000
321.819;   21.400;  -48.000; -117.000
321.955; -215.500; -743.000; -722.000
322.091;  -98.000; -585.000; -540.000
322.227;   -7.600; -382.000; -202.000
322.363;  -16.900; -320.000; -215.000
322.499;  -81.100; -343.000; -331.000
322.635;  288.600;  636.000;  443.000
322.771;   41.200; -139.000;   12.000
322.907;  191.300;  129.000;  327.000
323.043;  -40.500; -115.000; -206.000
323.179;  -43.300; -394.000; -363.000
323.315;   39.500; -401.000; -371.000
323.451;  154.300; -328.000; -236.000
323.587;   93.400;  -60.000;  -77.000
323.723;    5.400; -682.000; -601.000
323.859;  -24.200; -258.000;  -76.000
323.995;  -82.600; -467.000; -409.000
324.131; -232.400; -967.000; -892.000
324.267;  -55.900; -254.000; -276.000
324.402; -232.400; -960.000; -983.000
324.538;   -3.500; -279.000; -104.000
324.674;   75.400;  164.000;   77.000
324.810;  275.000;  226.000;  308.000
324.946;   28.000; -810.000; -658.000
325.082; -104.700; -568.000; -475.000
325.217;   -7.400;  -62.000;   16.000
325.353; -160.800; -764.000; -659.000
325.489; -153.900; -540.000; -506.000
325.625; -116.000; -579.000; -525.000
325.760;  134.700;  517.000;  376.000
325.896;  -60.000; -515.000; -702.000
326.032;  -85.100; -403.000; -352.000
326.168;  -96.100; -462.000; -369.000
326.303; -103.000; -352.000; -461.000
326.439;  -35.600; -336.000; -276.000
326.575;   10.700; -190.000;  -29.000
326.710;   16.100; -156.000;  -30.000
326.846;  -11.300;  146.000;  103.000
326.982; -155.600; -530.000; -548.000
327.117; -121.800; -481.000; -442.000
327.253; -152.300; -745.000; -742.000
327.388; -298.200;-1137.000;-1153.000
327.524;  -29.900; -811.000; -578.000
327.659;  -28.100;  -58.000;  -22.000
327.795;   -1.400;   69.000;   45.000
327.931; -172.300; -723.000; -499.000
328.066;  -46.500; -417.000; -276.000
328.202;   27.600;   12.000; -129.000
328.337;  260.400;  957.000;  713.000
328.473;   14.800;  -12.000;  -74.000
328.608;  -29.600; -256.000; -267.000
328.743; -162.900; -799.000; -664.000
328.879;   69.100;  214.000;  114.000
329.014; -102.900; -102.000; -122.000
329.150; -116.200; -358.000; -483.000
329.285; -122.800; -465.000; -466.000
329.421;  -72.900; -548.000; -246.000
329.556;    1.600;  -36.000;   85.000
329.691; -147.700; -633.000; -615.000
329.827; -142.700; -626.000; -480.000
329.962;  -77.500;  131.000; -301.000
330.097; -168.700; -673.000; -585.000
330.233;  -71.200; -410.000; -223.000
330.368; -208.000; -839.000; -628.000
330.503;   17.300;    3.000;   98.000
330.638;   11.400;  -93.000; -125.000
330.774;  -88.600; -609.000; -530.000
330.909;  -58.200; -434.000; -244.000
331.044; -159.200; -714.000; -708.000
331.179; -338.200;-1217.000;-1109.000
331.315;   91.300;   77.000;   20.000
331.450;   60.300;  157.000;  285.000
331.585; -131.800; -805.000; -706.000
331.720; -164.300; -510.000; -460.000
331.855;   10.700;  -35.000; -102.000
331.990;  225.700;   62.000;  138.000
332.126;  166.300; -110.000;   71.000
332.261;  -45.900; -379.000; -265.000
332.396;  -49.000; -135.000; -242.000
332.531; -217.200;-1074.000;-1031.000
332.666;   -1.500; -519.000; -363.000
332.801; -173.600; -726.000; -807.000
332.936;  -45.100; -192.000; -122.000
333.071; -258.000; -870.000; -817.000
333.206;   60.500;  307.000;  379.000
333.341;  114.100;  344.000;  418.000
333.476; -144.600; -627.000; -623.000
333.611;  -46.400; -251.000; -173.000
333.746;  -87.000; -381.000; -464.000
333.881; -216.300; -973.000; -935.000
334.016; -233.600; -936.000; -917.000
334.151; -235.400; -746.000; -702.000
334.286;   82.700;  152.000;  186.000
334.421;   -2.900; -125.000; -178.000
334.556; -133.200; -611.000; -567.000
334.690; -137.800; -631.000; -577.000
334.825;  130.200;  381.000;   83.000
334.960; -108.300; -285.000; -413.000
335.095;   25.400;  135.000;  -91.000
335.230; -180.200; -722.000; -738.000
335.365; -260.700;-1084.000; -990.000
335.499; -265.700;-1108.000;-1037.000
335.634;   64.000;    9.000;  534.000
335.769; -197.800; -755.000; -720.000
335.904; -136.100; -603.000; -561.000
336.038; -132.900; -735.000; -657.000
336.173; -287.500;-1206.000;-1194.000
336.308;    5.600; -116.000; -189.000
336.443;   -0.400; -544.000; -634.000
336.577; -185.900; -936.000; -787.000
336.712;   93.900;   -4.000;  -12.000
336.847; -111.900; -724.000; -607.000
336.981;   31.800; -272.000; -208.000
337.116;  411.400;  615.000;  501.000
337.250;  174.600; -434.000; -421.000
337.385;  207.300; -297.000; -208.000
337.520;    6.800; -632.000; -603.000
337.654;  -53.100; -215.000; -126.000
337.789; -246.900; -989.000; -933.000
337.923;  -30.700; -104.000; -205.000
338.058; -167.800; -673.000; -738.000
338.192;  -55.800; -611.000; -488.000
338.327;    8.800;  -18.000; -155.000
338.461; -128.500; -299.000; -469.000
338.596; -170.600; -780.000; -638.000
338.730; -217.500; -767.000; -803.000
338.865;  108.600;  -46.000; -140.000
338.999; -189.500; -846.000; -702.000
339.134;  -78.300; -634.000; -536.000
339.268;  -57.700; -741.000; -603.000
339.403;  197.900; -740.000; -775.000
339.537;  -54.000; -894.000; -820.000
339.671; -223.300; -829.000; -813.000
339.806; -139.700; -556.000; -512.000
339.940;    9.900; -261.000; -235.000
340.074; -175.300; -685.000; -510.000
340.209;  -94.500; -351.000; -230.000
340.343; -156.500; -517.000; -573.000
340.477;  340.400;  998.000; 1036.000
340.612; -156.700;-1033.000; -900.000
340.746;  122.000; -199.000; -243.000
340.880; -137.300; -924.000; -785.000
341.014;    7.100;  -45.000; -154.000
341.149; -202.700; -756.000; -718.000
341.283; -202.500; -839.000; -754.000
341.417; -183.500;-1124.000; -938.000
341.551;  125.000; -768.000; -708.000
341.685; -106.900; -633.000; -611.000
341.820; -100.500; -562.000; -493.000
341.954; -126.100; -218.000; -349.000
342.088; -266.000;-1102.000;-1019.000
342.222;  133.500;  565.000;  618.000
342.356;  -83.200; -395.000; -335.000
342.490; -149.700; -880.000; -841.000
342.624;  -51.600; -339.000; -242.000
342.758;  -16.400; -364.000; -312.000
342.892; -107.300; -710.000; -585.000
343.026;  -32.400;  -58.000; -116.000
343.160;  -70.400; -426.000; -376.000
343.294; -123.000; -474.000; -337.000
343.428;  -16.500; -488.000; -448.000
343.562;  -18.800; -172.000;  -23.000
343.696;  -35.100; -385.000; -314.000
343.830;  -52.500; -362.000; -356.000
343.964;   54.200; -231.000; -168.000
344.098; 1335.500;  199.000;   70.000
344.232; 1113.800; -266.000; -127.000
344.366;   77.600; -567.000; -453.000
344.500;   77.700; -665.000; -744.000
344.634;   59.200; -324.000; -164.000
344.768;  -10.600; -531.000; -341.000
344.902;   71.700;  278.000;  256.000
345.035; -105.300; -556.000; -496.000
345.169; -251.800; -933.000; -656.000
345.303;  -31.700; -308.000; -482.000
345.437; -157.100; -826.000; -717.000
345.571; -126.900; -675.000; -594.000
345.704;  -77.200; -309.000; -532.000
345.838;  -35.800; -331.000; -284.000
345.972;  -59.400; -543.000; -495.000
346.106;  158.800; -179.000; -190.000
346.239;  427.100; -312.000; -243.000
346.373;    3.900; -343.000; -302.000
346.507; -248.600; -950.000; -962.000
346.640;  228.100;  -30.000;   13.000
346.774;  -73.600; -650.000; -797.000
346.908;    7.800; -138.000;  -11.000
347.041; -149.600; -646.000; -593.000
347.175;   62.500;  259.000;   27.000
347.309; -120.800; -698.000; -628.000
347.442; -198.200; -883.000; -732.000
347.576;  491.000;  670.000;  668.000
347.709;  306.800; -123.000;  -52.000
347.843; -174.000; -933.000; -825.000
347.976;  122.300;  235.000;  294.000
348.110; -345.400;-1268.000;-1186.000
348.243; -174.800; -679.000; -772.000
348.377;   38.400;  -26.000;   60.000
348.510;  170.700;  403.000;  540.000
348.644;  -68.500;  -37.000; -159.000
348.777;   35.900;  180.000;  191.000
348.911;  -49.500; -142.000; -112.000
349.044;  303.600;  471.000;  448.000
349.178;  160.100;-1069.000;-1006.000
349.311;  181.300;  141.000;  255.000
349.444; -141.800; -927.000; -813.000
349.578;   15.200; -347.000; -200.000
349.711; -194.900; -959.000; -862.000
349.845;  -32.400; -661.000; -591.000
349.978; -290.900;-1224.000;-1137.000
350.111; -151.900; -546.000; -612.000
350.244; -125.800; -596.000; -700.000
350.378;   -2.200; -392.000; -393.000
350.511;  -83.300; -393.000; -426.000
350.644; -179.200; -808.000; -806.000
350.778;   35.200;  168.000;  104.000
350.911;   57.500;  134.000;  140.000
351.044; -173.000; -685.000; -615.000
351.177;  -45.800; -321.000; -281.000
351.310;   10.100;    3.000; -131.000
351.444; -142.300; -888.000; -788.000
351.577;  192.900;  140.000;   90.000
351.710;  202.500;  593.000;  417.000
351.843;  -36.600; -165.000;  -77.000
351.976;   31.100;  149.000;  -79.000
352.109; -157.800; -621.000; -612.000
352.242;  -64.800; -464.000; -419.000
352.376; -112.600; -580.000; -636.000
352.509;  217.500; -437.000; -356.000
352.642;  -60.800; -654.000; -604.000
352.775;  115.200; -141.000;  -98.000
352.908; -247.500; -933.000; -904.000
353.041; -191.000; -814.000; -824.000
353.174; -111.800; -551.000; -424.000
353.307; -181.500; -753.000; -764.000
353.440;  164.600;  541.000;  453.000
353.573; -223.600; -957.000;-1008.000
353.706;  -66.600; -384.000; -558.000
353.839;  -37.200; -264.000; -220.000
353.971; -144.000; -657.000; -512.000
354.104; -148.200; -896.000; -835.000
354.237;  -92.400; -627.000; -662.000
354.370; -164.100; -846.000; -879.000
354.503; -377.700;-1231.000;-1308.000
354.636;  -51.800; -529.000; -348.000
354.769; -247.500; -937.000; -860.000
354.902;   -0.200; -230.000; -139.000
355.034;  -20.700; -164.000; -220.000
355.167;  -26.800; -262.000; -162.000
355.300; -229.300;-1061.000; -880.000
355.433;  787.300;  -71.000;  -14.000
355.565; 1153.600; -402.000; -384.000
355.698;  255.600; -356.000; -296.000
355.831; -119.200; -882.000; -801.000
355.964;  113.600; -285.000; -170.000
356.096; -164.200; -856.000; -843.000
356.229;  -44.000; -523.000; -530.000
356.362;  230.200; -373.000; -266.000
356.494;  469.600; -229.000; -162.000
356.627;  577.700;  269.000;  377.000
356.760;  608.000;  120.000;   53.000
356.892;  695.400; -286.000; -601.000
357.025;  878.400;  403.000;  389.000
357.157;  809.400; -167.000; -179.000
357.290;  428.500; -856.000; -713.000
357.423;  113.500; -667.000; -556.000
357.555;  131.200; -217.000; -228.000
357.688;  103.600; -483.000; -364.000
357.820;  514.700; -870.000; -877.000
357.953; 4766.100; -563.000; -589.000
358.085;  992.500; -632.000; -612.000
358.218; 1467.700;-1131.000; -932.000
358.350;  338.000;  -58.000;  312.000
358.483; -278.800;-1300.000;-1187.000
358.615; -109.500;-1182.000;-1078.000
358.747; -144.300;-1187.000;-1058.000
358.880;   24.200; -810.000; -744.000
359.012;  -27.200; -376.000; -202.000
359.145;  -67.800; -480.000; -511.000
359.277;   -3.000; -962.000; -913.000
359.409; 4060.000;  536.000;  231.000
359.542;  946.100; -738.000; -688.000
359.674;  105.400;   46.000;   13.000
359.806;  -95.400; -565.000; -438.000
359.939; -104.700; -617.000; -516.000
360.071; -104.000; -583.000; -579.000
360.203;  -24.500; -411.000; -364.000
360.335;   91.900;  164.000;  -16.000
360.468;  222.600; -249.000; -307.000
360.600; 2969.300; -547.000; -454.000
360.732; 2253.400; -546.000; -423.000
360.864;  174.100;-1216.000;-1044.000
360.996;  353.300; -516.000; -554.000
361.129;   18.000; -389.000; -598.000
361.261;   85.100;  110.000; -113.000
361.393;  -47.700; -252.000; -214.000
361.525;   81.000;   94.000;  244.000
361.657;  -71.700; -821.000; -703.000
361.789;   71.200; -139.000; -155.000
361.921;  243.500; -642.000; -593.000
362.053;  434.100;  524.000;  541.000
362.185;  122.400;  288.000;   72.000
362.318; -153.000; -709.000; -705.000
362.450;  257.300;  294.000;  444.000
362.582;  150.400; -913.000; -870.000
362.714;  -12.800; -353.000; -332.000
362.846; -154.400; -606.000; -490.000
362.978; -268.200; -941.000; -811.000
363.109;  102.500; -161.000; -260.000
363.241;  453.000; -739.000; -749.000
363.373;  278.000; -649.000; -564.000
363.505;  563.200; -186.000;  -91.000
363.637;   91.700; -787.000; -601.000
363.769; -264.300;-1067.000;-1080.000
363.901; -100.400; -596.000; -654.000
364.033; -252.000;-1103.000;-1062.000
364.165;  -12.400; -283.000; -283.000
364.296;   72.600; -316.000; -177.000
364.428; -117.000;-1344.000;-1220.000
364.560; -123.000; -679.000; -661.000
364.692; -105.100; -738.000; -835.000
364.824;  297.700; -588.000; -456.000
364.955;  388.400; -402.000; -564.000
365.087;  507.200;-1097.000; -852.000
365.219;  -89.900; -686.000; -816.000
365.351;  -98.200; -526.000; -572.000
365.482;  130.400;  300.000;  240.000
365.614;  -72.800; -402.000; -314.000
365.746; -181.700; -729.000; -752.000
365.877; -162.800; -706.000; -672.000
366.009;  240.700;  -35.000;  -62.000
366.141; -252.600;-1249.000;-1134.000
366.272; -192.200; -803.000; -719.000
366.404; -218.900;-1005.000; -874.000
366.535;   38.500; -139.000;  -12.000
366.667; -180.500; -644.000; -649.000
366.799;  100.200;  353.000;  203.000
366.930; -206.300; -862.000; -996.000
367.062;   67.700; -639.000; -613.000
367.193;  -13.400; -872.000; -842.000
367.325; -132.200; -580.000; -684.000
367.456;  114.400; -246.000;   31.000
367.588;  112.900; -371.000; -318.000
367.719;   44.100;  -44.000;  -45.000
367.851;  -20.800; -222.000; -241.000
367.982; -118.300; -875.000; -732.000
368.113;  150.800; -475.000; -358.000
368.245; -225.200; -960.000; -841.000
368.376;   19.000; -254.000; -302.000
368.508;  -23.300; -188.000; -263.000
368.639; -253.700;-1166.000;-1034.000
368.770;  -68.800; -670.000; -589.000
368.902; -136.500; -836.000; -926.000
369.033; -183.500; -906.000; -855.000
369.164; -142.400; -720.000; -653.000
369.296; -163.000; -452.000; -601.000
369.427;   25.500; -209.000; -144.000
369.558; -101.300; -593.000; -377.000
369.689; -165.900; -721.000; -569.000
369.821; -243.400; -951.000; -845.000
369.952;   30.200;   42.000; -108.000
370.083;  -52.600; -229.000; -108.000
370.214; -154.300; -735.000; -650.000
370.345;   49.700;   65.000;   81.000
370.477; -147.100; -810.000; -790.000
370.608;  363.300; -328.000; -264.000
370.739; -112.800;-1233.000;-1292.000
370.870; -131.600;-1102.000; -923.000
371.001;  124.500; -378.000; -467.000
371.132; -119.600; -754.000; -735.000
371.263;   -3.500;  -42.000; -148.000
371.394; -200.500; -841.000; -748.000
371.525;  119.700;  345.000;  225.000
371.657; -180.400; -808.000; -670.000
371.788;  161.000;  103.000;  199.000
371.919;  220.200; -384.000; -304.000
372.050; 5347.800;  -91.000; -156.000
372.181; 1506.900; -188.000; -294.000
372.311;  638.800;   42.000; -127.000
372.442;   20.900; -457.000; -451.000
372.573;   18.300; -444.000; -340.000
372.704; -225.700;-1008.000; -980.000
372.835;  114.300; -228.000; -289.000
372.966;  -74.900; -646.000; -554.000
373.097; -122.100; -575.000; -711.000
373.228;  -69.100; -717.000; -542.000
373.359;  164.900; -824.000; -536.000
373.490; 1211.000; -881.000; -727.000
373.620; 1445.700;-1001.000; -803.000
373.751; 2566.700; -332.000; -396.000
373.882; 1139.800; -663.000; -733.000
374.013;   90.800; -449.000; -262.000
374.143;  -66.700; -581.000; -659.000
374.274; -199.400; -987.000; -908.000
374.405;  220.900; -388.000; -276.000
374.536;  604.100; -526.000; -387.000
374.666; 1622.300; -759.000; -807.000
374.797;  288.700; -817.000; -868.000
374.928; 1258.000; -710.000; -560.000
375.058; 1163.500; -535.000; -500.000
375.189;  130.400;  -59.000;  -93.000
375.320; -179.900; -928.000;-1034.000
375.450; -105.400; -625.000; -616.000
375.581;  -97.300; -526.000; -436.000
375.712;  -11.400; -574.000; -250.000
375.842;  365.200; -438.000; -415.000
375.973;  257.200; -554.000; -513.000
376.103;  -67.800; -665.000; -648.000
376.234; -139.400; -531.000; -552.000
376.364;  -93.500; -944.000; -867.000
376.495;  494.200;  925.000;  529.000
376.625;  -31.000; -472.000; -485.000
376.756;   53.400; -709.000; -678.000
376.886; -183.900;-1178.000;-1026.000
377.017; -132.800;-1048.000;-1061.000
377.147;  150.200; -786.000; -782.000
377.278;  145.500;  174.000;  228.000
377.408; -204.400; -801.000; -815.000
377.538; -174.900; -707.000; -693.000
377.669; -125.600; -537.000; -613.000
377.799; -127.900; -645.000; -635.000
377.929;  -75.400; -610.000; -428.000
378.060; -226.100; -781.000; -847.000
378.190; -109.500; -726.000; -531.000
378.320;  -49.700; -401.000; -406.000
378.451;   31.900; -131.000;  -22.000
378.581;    4.100;  -67.000; -110.000
378.711;  363.200; 1035.000;  866.000
378.841;  -38.500; -533.000; -675.000
378.972; -141.600; -871.000; -751.000
379.102;   -1.600; -652.000; -579.000
379.232;  -24.100; -126.000;  -73.000
379.362; -199.800;-1001.000; -885.000
379.492;   24.000; -373.000; -424.000
379.623;  184.100;    0.000;  111.000
379.753; -188.900;-1107.000; -974.000
379.883;  374.600;   59.000;  156.000
380.013;  -41.600;-1081.000;-1017.000
380.143; -204.400;-1097.000;-1056.000
380.273; -172.200; -985.000; -861.000
380.403;  -21.500; -344.000; -257.000
380.533;  -99.500; -651.000; -664.000
380.663;  124.300;  173.000;  128.000
380.793; -217.700;-1027.000;-1074.000
380.923;  -10.500; -103.000;  -34.000
381.053; -178.600; -613.000; -623.000
381.183;   23.700; -106.000; -248.000
381.313;   57.200; -656.000; -470.000
381.443;   61.200; -692.000; -473.000
381.573;  244.100; -402.000; -409.000
381.703;  264.600;-1249.000;-1095.000
381.833; -251.700;-1454.000;-1336.000
381.963;  192.400; -134.000;  -87.000
382.093; 1716.200; -925.000; -909.000
382.223;  508.000; -713.000; -602.000
382.353;  -68.000; -801.000; -608.000
382.482;  528.800;-1091.000; -964.000
382.612;  991.500; -872.000; -644.000
382.742;  535.600; -695.000; -622.000
382.872;  341.900; -565.000; -551.000
383.002;  132.500;  347.000; -132.000
383.131;  -13.200; -226.000; -160.000
383.261;  -85.700; -706.000; -768.000
383.391;  224.300; -552.000; -377.000
383.521; 2583.900;  451.000;  263.000
383.650;  390.000; -947.000; -904.000
383.780; -120.400; -783.000; -656.000
383.910;  255.100;  880.000;  802.000
384.039;  -28.600; -794.000; -656.000
384.169;  180.900;-1205.000;-1017.000
384.299;  -58.400; -650.000; -662.000
384.428; -125.000; -764.000; -680.000
384.558;  -72.200; -308.000; -275.000
384.687;  -51.900; -414.000; -334.000
384.817;   61.700;   75.000;   -2.000
384.947;   40.000; -234.000; -141.000
385.076;  510.300;  982.000;  912.000
385.206;  190.000;  369.000;  480.000
385.335;  -32.000; -549.000; -417.000
385.465; -133.500; -655.000; -663.000
385.594;  233.200;  -53.000;  -44.000
385.724;  620.900; -868.000; -838.000
385.853;  205.600; -296.000; -270.000
385.982; 2070.200; -743.000; -787.000
386.112; 3083.000;-1052.000; -871.000
386.241;  212.000; -307.000; -312.000
386.371;   71.100; -174.000;  -87.000
386.500;   -5.100; -825.000; -789.000
386.629;  -14.500; -874.000; -817.000
386.759;  100.200;  -43.000;   68.000
386.888;   30.800; -170.000; -250.000
387.017; -126.300; -648.000; -620.000
387.147; -170.700; -771.000; -798.000
387.276;   22.200; -410.000; -397.000
387.405;   27.700; -398.000; -342.000
387.535;  -76.700; -452.000; -361.000
387.664; -134.700; -692.000; -620.000
387.793;  104.600; -198.000; -113.000
387.922;  830.400;  255.000;  200.000
388.052;   18.300; -576.000; -423.000
388.181;   42.400; -342.000; -472.000
388.310;  -24.800; -889.000; -710.000
388.439; -117.200; -749.000; -742.000
388.568;  361.100;  365.000;  244.000
388.697; 1598.300; -756.000; -653.000
388.826;  259.600; -768.000; -666.000
388.956;  103.500; -285.000; -307.000
389.085;  -28.200; -347.000; -287.000
389.214; -190.700; -842.000; -872.000
389.343;  -89.500; -645.000; -413.000
389.472;  427.500;  126.000;  149.000
389.601;  556.500;   91.000;    0.000
389.730;   26.900; -568.000; -687.000
389.859;  145.400;  226.000;   46.000
389.988;  296.700; -423.000; -408.000
390.117;  202.200; -168.000; -146.000
390.246;   38.400; -331.000; -320.000
390.375;  176.200; -673.000; -626.000
390.504;  -65.300; -703.000; -621.000
390.633; -159.100; -672.000; -726.000
390.761; -111.700; -732.000; -645.000
390.890;   88.800;   -4.000; -130.000
391.019;  -43.800; -421.000; -441.000
391.148; -216.400; -826.000; -855.000
391.277; -124.500; -576.000; -493.000
391.406; -164.100; -821.000; -805.000
391.534;  105.700;  574.000; -301.000
391.663;  -96.800; -583.000; -645.000
391.792; -148.600; -673.000; -701.000
391.921;  205.100;   -3.000;   15.000
392.050;  348.700; -287.000; -228.000
392.178; -114.200;-1206.000;-1061.000
392.307;  195.100; -758.000; -712.000
392.436;  105.000; -427.000; -641.000
392.564;   86.800;  166.000;   -6.000
392.693; -164.100; -860.000; -682.000
392.822;  352.600; -529.000; -534.000
392.950;   96.300; -880.000; -714.000
393.079;  524.600; -188.000; -328.000
393.208;   18.100; -488.000; -511.000
393.336;   -9.700; -170.000; -145.000
393.465;  -16.100; -317.000; -199.000
393.593;   57.300;   62.000;   79.000
393.722; -248.100;-1121.000; -916.000
393.850;   -2.100; -188.000;  -61.000
393.979; -264.300; -926.000; -805.000
394.107; -112.900; -517.000; -537.000
394.236;  -73.500; -570.000; -507.000
394.364;  408.500;  383.000;  206.000
394.493;  588.300; -911.000; -767.000
394.621;  -80.900; -955.000; -916.000
394.750;  404.000; -873.000; -923.000
394.878; 2294.700; -247.000; -149.000
395.007; 2766.200; -721.000; -807.000
395.135;   86.600; -790.000; -721.000
395.263; -227.700;-1038.000;-1040.000
395.392;   14.000;  -25.000; -107.000
395.520; -105.000; -818.000; -679.000
395.648; -168.200; -865.000; -915.000
395.777;  -47.300; -366.000; -405.000
395.905;  -50.700; -449.000; -564.000
396.033;   60.900;  217.000;  172.000
396.162; 1043.400; -399.000; -453.000
396.290;  925.900;  -17.000;   -2.000
396.418;  138.800; -555.000; -514.000
396.546; -144.600; -571.000; -466.000
396.674; -196.600; -850.000; -878.000
396.803;   46.000;  -72.000;  -23.000
396.931;  123.000; -179.000; -199.000
397.059;   -8.800;-1026.000; -989.000
397.187; -180.600;-1026.000; -975.000
397.315; -200.600; -884.000; -649.000
397.443; -126.200; -592.000; -443.000
397.572; -134.100; -578.000; -424.000
397.700;    0.200; -607.000; -614.000
397.828;   15.900;  120.000;  -90.000
397.956; -104.800; -508.000; -478.000
398.084; -171.000; -767.000; -626.000
398.212;  100.800;  137.000;  124.000
398.340;   80.600;  -56.000;  159.000
398.468;   64.900; -390.000; -169.000
398.596; -247.500; -993.000; -953.000
398.724; -209.700; -762.000; -767.000
398.852; -280.900;-1024.000; -976.000
398.980;  -93.100; -560.000; -560.000
399.108; -120.400; -982.000; -735.000
399.236;   75.500;   13.000;    8.000
399.363;   75.600;  222.000;  196.000
399.491;  -92.100; -404.000; -398.000
399.619; -210.200; -829.000; -800.000
399.747; -180.800; -859.000; -771.000
399.875;  176.200;  220.000;  234.000
400.003;  -49.000; -359.000; -284.000
400.130; -151.400; -421.000; -341.000
400.258;  -19.200;  -83.000;   38.000
400.386;  -68.700; -352.000; -168.000
400.514;  -60.000; -526.000; -587.000
400.641; -174.300; -928.000; -802.000
400.769; -213.100; -979.000; -888.000
400.897; -163.800; -838.000; -793.000
401.025;    0.700; -166.000; -152.000
401.152;   48.800;  220.000;   38.000
401.280; -106.300; -430.000; -429.000
401.408; -139.500; -712.000; -576.000
401.535; -173.500; -735.000; -758.000
401.663; -319.000;-1134.000;-1054.000
401.790; -116.200; -514.000; -525.000
401.918;  153.300;  436.000;  405.000
402.046;  -17.200;  134.000;  122.000
402.173;  -13.700;  -18.000;    7.000
402.301; -110.300; -519.000; -397.000
402.428;  160.700;  528.000;  383.000
402.556; -230.600;-1188.000; -913.000
402.683;  -17.300;  -20.000;   -1.000
402.811;   -5.200;  -37.000; -206.000
402.938;   32.400;   20.000;   27.000
403.066;  249.400; -574.000; -558.000
403.193;  462.500;  299.000;  239.000
403.321;  298.400; -396.000; -574.000
403.448;  456.900;   83.000;   27.000
403.575;  213.400;  -90.000;  -46.000
403.703; -152.600; -732.000; -557.000
403.830; -105.200; -531.000; -496.000
403.957; -265.100;-1117.000;-1023.000
404.085;   11.900;  -61.000; -172.000
404.212;   94.600;  -50.000;   63.000
404.339;  192.300; -566.000; -306.000
404.467; 4378.100; -612.000; -524.000
404.594; 3190.300; -287.000; -227.000
404.721;  758.600; -869.000; -764.000
404.848;   66.000; -113.000; -202.000
404.976; -213.900; -856.000; -783.000
405.103;   13.800;  -14.000;  -82.000
405.230;   51.100;  190.000;  226.000
405.357;   51.300;  117.000;   44.000
405.484;  202.200;  -49.000;    5.000
405.612;   -1.900; -548.000; -563.000
405.739; -100.800; -488.000; -243.000
405.866;  211.700;  669.000;  385.000
405.993;  -35.700; -398.000; -102.000
406.120; -225.400; -801.000; -887.000
406.247;  -77.100; -323.000; -342.000
406.374;  672.100;  540.000;  629.000
406.501;  102.600; -632.000; -702.000
406.628; -145.100; -621.000; -589.000
406.755; -179.700; -803.000; -620.000
406.882;  -41.500; -228.000; -277.000
407.009; -158.600; -719.000; -628.000
407.136;   55.800; -480.000; -401.000
407.263;  142.600; -939.000; -829.000
407.390; -136.900; -692.000; -614.000
407.517; -300.900;-1139.000;-1187.000
407.644;  -59.500; -332.000; -256.000
407.771;  -77.800; -249.000; -287.000
407.898;   66.200;  168.000;  328.000
408.025;  -98.700; -421.000; -313.000
408.151;   29.800;   82.000;  153.000
408.278;  -65.400; -267.000; -216.000
408.405; -204.600; -931.000; -899.000
408.532; -108.900; -549.000; -542.000
408.659; -193.700; -677.000; -648.000
408.785; -378.200;-1298.000;-1170.000
408.912;  -80.600; -412.000; -296.000
409.039; -179.400; -610.000; -686.000
409.166; -131.200; -591.000; -555.000
409.292; -186.200; -571.000; -534.000
409.419; -196.400; -665.000; -649.000
409.546;  -95.800; -431.000; -192.000
409.672; -197.100; -713.000; -545.000
409.799;  -10.500;  -36.000;   34.000
409.926;   -2.500; -180.000; -179.000
410.052; -292.700;-1127.000;-1091.000
410.179;  -65.100; -368.000; -392.000
410.305;  -85.700; -375.000; -493.000
410.432;  -65.900; -220.000; -333.000
410.558; -145.900; -305.000; -380.000
410.685; -142.100; -688.000; -431.000
410.812; -149.000; -409.000; -588.000
410.938; -238.800; -964.000; -808.000
411.065; -145.200; -671.000; -645.000
411.191;  -14.300; -189.000; -174.000
411.317; -209.500; -823.000; -742.000
411.444;  -96.500; -317.000; -246.000
411.570; -115.800; -339.000; -294.000
411.697; -236.900; -758.000; -752.000
411.823; -285.300; -989.000; -999.000
411.949;  -21.600;  -56.000;   17.000
412.076; -188.200; -539.000; -519.000
412.202; -197.200; -758.000; -757.000
412.329; -201.800; -798.000; -752.000
412.455; -178.700; -821.000; -657.000
412.581;    1.500;  -15.000;  172.000
412.707;  -96.100; -540.000; -457.000
412.834;   63.200;  156.000;  219.000
412.960; -151.000; -785.000; -784.000
413.086; -181.400; -743.000; -701.000
413.212;  283.200;  604.000;  578.000
413.339; -137.800; -685.000; -701.000
413.465;  -23.400; -364.000; -310.000
413.591; -197.100; -757.000; -474.000
413.717;  -57.300; -358.000; -366.000
413.843; -236.300; -839.000; -861.000
413.969;  -75.300;  -47.000; -292.000
414.096; -172.500; -679.000; -679.000
414.222;   16.900;  -33.000;   85.000
414.348;  -49.700; -652.000; -385.000
414.474;  152.800;   38.000;  -52.000
414.600;   39.600; -126.000; -144.000
414.726;  -11.200;  -96.000;  -55.000
414.852;  -90.500; -365.000; -342.000
414.978;   55.900;  104.000;  -18.000
415.104;   76.800;   38.000;   80.000
415.230;   -6.100; -329.000; -330.000
415.356;  -25.700; -409.000; -514.000
415.482;  228.300;   13.000;  -35.000
415.608;  173.700; -247.000; -323.000
415.734;  846.100;   67.000;   38.000
415.860;16830.500; -875.000; -767.000
415.986;10996.800; -685.000; -607.000
416.111;  846.800; -798.000; -652.000
416.237;  125.800; -424.000; -571.000
416.363;  852.500; -765.000; -733.000
416.489; 3105.900; -324.000; -251.000
416.615;  165.300; -707.000; -742.000
416.741;  -97.200; -677.000; -784.000
416.866; -181.200; -673.000; -736.000
416.992; -209.400; -801.000; -818.000
417.118;  -36.600;  -41.000;  -80.000
417.244;  -96.700; -798.000; -531.000
417.369; -147.500; -801.000; -612.000
417.495;  -10.700; -325.000; -254.000
417.621; -206.300;-1015.000; -803.000
417.746;  -10.700; -579.000; -572.000
417.872;   41.200; -254.000; -144.000
417.998;  -40.800; -515.000; -530.000
418.123;  707.600;-1073.000; -845.000
418.249; 3999.700; -512.000; -601.000
418.374;  382.400; -916.000; -824.000
418.500;   19.600; -383.000; -482.000
418.626;  115.600;   70.000;  -59.000
418.751;   58.900; -549.000; -448.000
418.877;   94.500; -637.000; -643.000
419.002; 1452.700; -688.000; -560.000
419.128; 9468.700; -930.000; -721.000
419.253; 2014.500; -967.000; -837.000
419.379;  241.300; -391.000; -338.000
419.504;  394.300;  325.000;  415.000
419.629;  369.700; -393.000; -212.000
419.755; 2758.500; -317.000; -254.000
419.880;15134.400;  -98.000;   67.000
420.006; 9023.700; -280.000; -221.000
420.131;23105.700; -662.000; -775.000
420.256; 3029.900; -315.000; -316.000
420.382;  315.800; -665.000; -687.000
420.507;  -25.000; -649.000; -778.000
420.632;  197.100; -337.000; -339.000
420.758;  462.700; -251.000; -425.000
420.883; -150.900; -876.000; -672.000
421.008; -161.100; -775.000; -619.000
421.133;  -95.600; -509.000; -467.000
421.259;  -39.200; -325.000; -259.000
421.384; -205.700; -834.000; -693.000
421.509;  -80.900;-1052.000; -862.000
421.634; 1991.700; -936.000; -820.000
421.759;  784.700; -359.000; -327.000
421.885;  -96.800; -717.000; -656.000
422.010;  -77.000; -673.000; -542.000
422.135; -256.600; -695.000; -727.000
422.260;  111.400;  340.000;  280.000
422.385;  -23.400;   12.000;  -98.000
422.510;   76.200;  151.000;  -26.000
422.635;   74.300;  -87.000;  -43.000
422.760;   79.600; -766.000; -791.000
422.885;  120.000;  -57.000;  -80.000
423.010;  -14.100; -112.000; -169.000
423.135; -132.700; -481.000; -561.000
423.260;   26.500; -150.000; -245.000
423.385;  167.200;  476.000;  222.000
423.510;  101.100;   71.000;  -22.000
423.635;   81.900;  133.000;   45.000
423.760;  148.600;  383.000;  328.000
423.885;  108.900;  336.000;  391.000
424.010;   52.700;  -68.000;  -13.000
424.135;    3.000;    5.000;  -33.000
424.259; -146.500; -654.000; -457.000
424.384;  -58.100; -279.000; -272.000
424.509;   -9.400; -260.000; -186.000
424.634; -172.500; -761.000; -623.000
424.759;  -76.700; -688.000; -544.000
424.883;  -69.100; -506.000; -527.000
425.008;  111.200; -502.000; -410.000
425.133; 1562.800; -679.000; -653.000
425.258;  614.800; -517.000; -381.000
425.382; 1401.300; -867.000; -774.000
425.507; 3511.800; -487.000; -543.000
425.632;  399.600; -802.000; -663.000
425.756;  390.000; -256.000; -146.000
425.881; 4854.300; -831.000; -857.000
426.006;11885.300; -604.000; -355.000
426.130; 1810.900; -696.000; -508.000
426.255;  192.200; -611.000; -491.000
426.379;  126.400; -189.000; -577.000
426.504;  462.800;  660.000;  544.000
426.629; 3255.400; -519.000; -466.000
426.753; 2069.200;   64.000;  -46.000
426.878;  257.000; -252.000; -288.000
427.002;   42.000; -651.000; -668.000
427.127; 1458.200;  -35.000; -158.000
427.251; 9281.800;  372.000;  401.000
427.375; 2425.000; -191.000; -173.000
427.500; 2998.000; -616.000; -610.000
427.624;  930.900; -234.000; -400.000
427.749;  143.100; -216.000; -225.000
427.873; -108.100; -499.000; -412.000
427.997;  -10.100; -222.000; -230.000
428.122;  198.700;  795.000;  703.000
428.246;  181.800;  433.000;  434.000
428.371; -191.400; -869.000; -773.000
428.495; -151.900; -624.000; -646.000
428.619;  -27.300; -186.000; -117.000
428.743;  120.300;   65.000;  132.000
428.868;    0.100; -732.000; -643.000
428.992; 1970.500; -219.000; -326.000
429.116;  834.900; -329.000; -357.000
429.240;  501.100;  419.000;  426.000
429.365;  -34.800; -454.000; -574.000
429.489;  -79.800; -638.000; -647.000
429.613;   31.800; -236.000; -177.000
429.737;   10.400; -563.000; -432.000
429.861;  275.800; -247.000; -133.000
429.985; 4591.200; -425.000; -305.000
430.109; 4423.200; -770.000; -908.000
430.234;  577.000;   76.000;  -50.000
430.358;   42.100; -250.000; -160.000
430.482; -121.900; -672.000; -564.000
430.606;  -86.100; -655.000; -375.000
430.730;   41.600; -437.000; -388.000
430.854;  121.600; -909.000; -835.000
430.978; -112.300; -795.000; -764.000
431.102; -103.700; -499.000; -422.000
431.226; -132.600; -874.000; -815.000
431.350;  119.500;  345.000;  422.000
431.474;  -85.100; -661.000; -373.000
431.597; -254.400;-1060.000; -848.000
431.721; -121.200; -276.000; -267.000
431.845; -220.400; -704.000; -472.000
431.969; -105.400; -304.000; -349.000
432.093; -136.700; -395.000; -317.000
432.217;   23.900;   32.000;   82.000
432.341; -144.100; -523.000; -518.000
432.464;   67.800;   96.000;   40.000
432.588;  256.800; -401.000; -329.000
432.712;  128.800;  -52.000;  -52.000
432.836;  109.600;  213.000;  263.000
432.959;  -36.200; -372.000; -311.000
433.083;   79.100;   11.000;    2.000
433.207;  418.300;  285.000;  930.000
433.330; 3942.700; -391.000; -200.000
433.454; 4380.500; -654.000; -638.000
433.578; 2692.700;  583.000;  278.000
433.701;  370.000; -623.000; -675.000
433.825;  125.700; -292.000; -299.000
433.949;  308.400;   28.000;  -72.000
434.072;   99.600; -410.000; -323.000
434.196;    7.600; -309.000; -117.000
434.319; 7654.000;25482.000;25124.000
434.443;  687.300; -656.000; -603.000
434.566; 2091.500;  281.000;   62.000
434.690;  229.000; -637.000; -383.000
434.813;   36.900; -251.000; -173.000
434.937; -103.100; -569.000; -696.000
435.060;  -58.100; -423.000; -332.000
435.184;  556.900; -492.000; -217.000
435.307;  323.100;  159.000;  102.000
435.431;   16.300;  -40.000;   24.000
435.554;  -97.400; -399.000; -240.000
435.677; -122.800; -350.000; -258.000
435.801;    7.100;  -25.000;   49.000
435.924;   17.300;    1.000;  -67.000
436.048; -198.500;-1019.000; -732.000
436.171;  -42.800; -240.000;  -66.000
436.294;  -24.400; -248.000; -229.000
436.417;  -80.700; -963.000; -849.000
436.541; -203.600; -814.000; -840.000
436.664;  -38.300; -242.000; -316.000
436.787;   15.000;   13.000;  113.000
436.910; -192.300; -792.000; -422.000
437.034;   47.600;  142.000;  143.000
437.157;  150.500;  -11.000;    0.000
437.280;  -20.700; -392.000; -292.000
437.403; -107.000; -982.000; -869.000
437.526; 1196.800; -903.000; -865.000
437.649; 3885.400; -505.000; -332.000
437.772;  516.100; -692.000; -540.000
437.896;  303.400;  700.000;  544.000
438.019; -142.000; -758.000; -503.000
438.142; -102.600; -596.000; -506.000
438.265;  -20.900; -639.000; -670.000
438.388;  789.900; -520.000; -410.000
438.511;  117.600; -597.000; -394.000
438.634;  -59.500; -247.000; -125.000
438.757; -193.500; -693.000; -619.000
438.880;   19.900;  -34.000;  -57.000
439.003; -103.100; -417.000; -437.000
439.126;  -70.000; -287.000; -167.000
439.248;  -58.600;  -98.000; -139.000
439.371;  -35.900;    9.000;  -53.000
439.494;  122.500;  510.000;  439.000
439.617;  -54.900;   65.000;  -88.000
439.740; -278.500; -968.000; -816.000
439.863; -221.300; -755.000; -595.000
439.986; -187.600; -476.000; -431.000
440.108;  -45.600; -161.000; -112.000
440.231; -298.700; -950.000; -836.000
440.354;  -35.100;  -64.000; -150.000
440.477;   57.700; -566.000; -542.000
440.599;   20.200; -200.000; -225.000
440.722; -175.200; -709.000; -586.000
440.845;  208.500;  751.000;  928.000
440.968; -144.700; -415.000; -311.000
441.090;  -69.500; -199.000;  -33.000
441.213; -265.200;-1021.000; -825.000
441.336;  -26.600; -159.000;   -5.000
441.458; -106.600; -549.000; -396.000
441.581; -162.900; -628.000; -629.000
441.703; -105.800; -152.000;   13.000
441.826; -155.700; -557.000; -400.000
441.948;  -24.700;   56.000;   51.000
442.071;  137.400;  555.000;  424.000
442.193; -168.900; -531.000; -485.000
442.316;   69.300;  152.000;   97.000
442.438;    4.600; -233.000;  -10.000
442.561;  173.400;  272.000;  262.000
442.683;  993.100; -809.000; -522.000
442.806; 1924.900;   -8.000;   74.000
442.928;   24.800; -859.000; -604.000
443.051;  -84.300; -577.000; -373.000
443.173; -125.500; -341.000; -339.000
443.295; -103.100; -263.000; -371.000
443.418;  -70.700; -321.000;  -29.000
443.540;   23.600; -106.000;   -4.000
443.662; -175.500; -563.000; -465.000
443.785;   24.100;  335.000;  199.000
443.907; -151.700; -362.000; -208.000
444.029; -208.900; -767.000; -494.000
444.152; -232.300; -644.000; -554.000
444.274;    2.100;  -18.000;  -24.000
444.396; -175.400; -461.000; -221.000
444.518; -209.900; -691.000; -454.000
444.640; -166.600; -268.000; -111.000
444.763;   25.400;  388.000;  249.000
444.885; -175.200; -432.000; -392.000
445.007;   24.600;   35.000;   86.000
445.129; -201.600; -610.000; -515.000
445.251; -169.900; -372.000; -439.000
445.373; -233.200; -537.000; -386.000
445.495;   48.100;  242.000;  350.000
445.617;  164.600;  853.000;  753.000
445.739;  -66.800; -215.000;  -97.000
445.861;  -15.200; -245.000; -112.000
445.984;  -37.500; -267.000; -101.000
446.105;  374.800; -418.000; -251.000
446.227;  995.900; -176.000;  -19.000
446.349;  -23.600; -358.000; -249.000
446.471; -159.800; -615.000; -448.000
446.593;  -84.700; -316.000;   19.000
446.715;   42.800;  -67.000;   41.000
446.837;  193.000;  697.000;  832.000
446.959; -139.600; -457.000; -478.000
447.081; -223.500; -628.000; -518.000
447.203;  189.200;  862.000;  834.000
447.325; -111.900; -270.000;   42.000
447.446;   65.000;  286.000;  530.000
447.568; -273.900; -921.000; -803.000
447.690;  -93.200; -236.000; -245.000
447.812; -239.200; -798.000; -519.000
447.933;   -8.900;  155.000;  127.000
448.055;  -58.800; -306.000; -261.000
448.177;  257.100;   31.000;   79.000
448.299;   87.300; -935.000; -727.000
448.420;   83.400;  -25.000;  159.000
448.542;  -23.700;   -3.000;   33.000
448.664;   23.100;  109.000;  322.000
448.785;    0.200;  265.000;   83.000
448.907; -100.900; -614.000; -353.000
449.028;  -69.100; -771.000; -471.000
449.150;  153.600;  492.000;  589.000
449.272; -274.200;-1044.000; -913.000
449.393;  143.400;  612.000;  694.000
449.515; -234.400; -634.000; -581.000
449.636;  -63.100; -264.000; -155.000
449.758;  176.700;  763.000;  622.000
449.879; -141.600; -498.000; -396.000
450.001;  -86.900; -149.000;  -49.000
450.122;  -14.100;  -95.000;  162.000
450.244;   -1.700;   37.000;  364.000
450.365; -147.700; -495.000; -301.000
450.486;  -10.400;   80.000;  268.000
450.608;   50.000;  393.000;  326.000
450.729;  153.200;  578.000;  645.000
450.850;  -87.500; -574.000; -466.000
450.972;  464.000; -552.000; -389.000
451.093; 3720.600;  190.000;  588.000
451.214; 1297.800; -516.000; -337.000
451.336;  363.800;  773.000;  579.000
451.457;   91.800;  264.000;  393.000
451.578;  -45.000; -118.000;  -74.000
451.699; -185.200; -546.000; -540.000
451.821;  -75.600; -284.000;  -50.000
451.942;   36.300;  278.000;  285.000
452.063;   62.100;  228.000;  419.000
452.184;  436.000;  -54.000;  -49.000
452.305;  851.300;  103.000;  170.000
452.427;   14.500; -549.000; -301.000
452.548;  -34.400;   23.000;   79.000
452.669;  -85.600; -257.000;  -89.000
452.790;  -29.800;    3.000;  -18.000
452.911;   21.300;  195.000;  259.000
453.032;  -71.600; -289.000;  -60.000
453.153;  -10.300;  -29.000;   81.000
453.274;  227.900;  737.000;  868.000
453.395;  -37.300;  -51.000;  175.000
453.516;  314.700; 1317.000; 1388.000
453.637; -101.400; -205.000; -150.000
453.758;  -46.000;   15.000;   69.000
453.879; -175.100; -462.000; -250.000
454.000;  245.600; 1086.000;  948.000
454.121; -178.200; -554.000; -326.000
454.242; -169.800; -599.000; -383.000
454.362;  -27.200;  -99.000;  114.000
454.483;  -45.600; -309.000; -229.000
454.604;  145.100;  512.000;  580.000
454.725; -215.900; -627.000; -555.000
454.846; -187.800; -474.000; -406.000
454.967;    7.000;  230.000;  539.000
455.087;   -5.800;  179.000;  153.000
455.208;  129.200;  554.000;  856.000
455.329;  -53.500;  -22.000;   82.000
455.450;  123.900;  473.000;  633.000
455.570; -109.900; -234.000; -211.000
455.691;  -24.600;  201.000;  407.000
455.812; -124.900; -270.000;  -92.000
455.932;  -59.600;  107.000;  -97.000
456.053; -106.700;   36.000;   24.000
456.173; -152.800; -433.000; -355.000
456.294; -170.100; -476.000; -303.000
456.415;  -73.100;  -73.000;   70.000
456.535;    3.800;  297.000;  273.000
456.656;  -26.000;  132.000;  240.000
456.776;  -77.200;    3.000;  298.000
456.897;   66.100;  308.000;  513.000
457.017;  -95.800; -153.000;   -3.000
457.138; -162.000; -402.000; -249.000
457.258;   46.500;  263.000;  224.000
457.379;   24.100;  509.000;  521.000
457.499;   34.000;  443.000;  432.000
457.620; -196.300; -407.000; -231.000
457.740; -112.900; -132.000;  -11.000
457.860;   -7.600;   87.000;   44.000
457.981;  -65.700;  132.000;  124.000
458.101;  -72.500;  -89.000;   40.000
458.221;   60.900;  336.000;  402.000
458.342;  -57.500;   -4.000;  -37.000
458.462;   63.600;  617.000;  352.000
458.582;  -90.500; -302.000; -294.000
458.703;   31.500;  303.000;  154.000
458.823;  -47.700;   22.000;  163.000
458.943;   80.700;  341.000;  467.000
459.063;   -2.800; 1124.000;  192.000
459.183;  -14.400;  328.000;  313.000
459.304;   80.300;  315.000;  517.000
459.424;  -96.300; -246.000;  -89.000
459.544;  366.900;  388.000;  764.000
459.664;  723.600;  499.000;  506.000
459.784;  379.000; 1004.000; 1175.000
459.904;  165.800;  867.000;  744.000
460.024;  219.100;  867.000;  684.000
460.144;  121.200;  449.000;  554.000
460.264;   48.400;  515.000;  327.000
460.385; -125.400; -145.000; -119.000
460.505;  148.600;  905.000;  858.000
460.625; -114.000;  -17.000;  -68.000
460.745;   37.400;  396.000;  541.000
460.864;  -52.700;  153.000;  469.000
460.984;   55.200;  499.000;  573.000
461.104;  344.500; 1656.000; 1775.000
461.224;   93.400;  657.000;  650.000
461.344;   14.000;  431.000;  360.000
461.464;   22.300;  258.000;  513.000
461.584;   44.600;  283.000;  466.000
461.704;  -64.500;   58.000;  108.000
461.824;  -48.500;  238.000;  259.000
461.943;  -42.600;  191.000;  130.000
462.063; -115.500;    2.000;  324.000
462.183;  123.100;  639.000;  717.000
462.303;  270.700; 1678.000; 1230.000
462.422;  138.100;  781.000;  840.000
462.542;   -0.100;  271.000;  391.000
462.662;  109.100;  353.000;  380.000
462.782;  264.600;  833.000;  572.000
462.901;  466.000;  545.000;  717.000
463.021;  429.100; 1702.000; 1638.000
463.141;   56.600;  337.000;  770.000
463.260;   35.600;  614.000;  474.000
463.380;   49.800;  902.000;  884.000
463.499;  -16.700;  342.000;  332.000
463.619;   -3.800;  581.000;  559.000
463.738;  314.900; 1644.000;  903.000
463.858;  103.700;  657.000;  811.000
463.978;   35.000;  542.000;  396.000
464.097;  145.200;  921.000; 1114.000
464.217;  253.600; 1196.000; 1143.000
464.336;  253.300; 1068.000; 1130.000
464.455;  -38.200;  328.000;  659.000
464.575;  139.800;  597.000;  602.000
464.694;  318.600; 1204.000; 1179.000
464.814;  229.800; 1190.000; 1138.000
464.933;  219.700; 1095.000; 1027.000
465.052;  243.200; 1412.000; 1054.000
465.172;  185.400;  922.000;  799.000
465.291;  324.600; 1376.000; 1320.000
465.410;   90.900;  462.000;  735.000
465.530;  208.700; 1355.000; 1310.000
465.649;  203.000; 1209.000; 1273.000
465.768;  310.800; 1673.000; 1508.000
465.888;  171.200;  941.000; 1174.000
466.007;  256.300; 1335.000; 1440.000
466.126;   57.900;  721.000;  641.000
466.245;  171.800; 1176.000; 1187.000
466.364;  127.900;  950.000; 1060.000
466.484;  213.000; 1024.000; 1213.000
466.603;  157.400; 1101.000; 1222.000
466.722;  307.700; 1490.000; 1769.000
466.841;  218.100; 1151.000; 1401.000
466.960;  165.500; 1069.000;  972.000
467.079;  325.200; 1971.000; 1786.000
467.198;  149.000; 1238.000; 1181.000
467.317;  249.700; 1768.000; 1162.000
467.436;  249.000; 1709.000; 1261.000
467.555;  342.300; 1796.000; 1746.000
467.674;  227.400; 1227.000; 1329.000
467.793;  178.600; 1376.000; 1374.000
467.912;  228.500; 1658.000; 1539.000
468.031;  377.900; 2038.000; 1930.000
468.150;  398.700; 1842.000; 1837.000
468.269;  487.000; 2313.000; 2090.000
468.388;  471.900; 2168.000; 2339.000
468.507;  568.700; 2884.000; 2903.000
468.626;  626.500; 2555.000; 2541.000
468.744;  396.500; 2018.000; 2174.000
468.863;  494.200; 2312.000; 2523.000
468.982;  249.600; 1503.000; 1555.000
469.101;  532.700; 2788.000; 2692.000
469.220;  358.800; 2333.000; 2176.000
469.338;  567.000; 2935.000; 3051.000
469.457;  469.300; 2719.000; 2545.000
469.576;  768.300; 3953.000; 3784.000
469.695;  530.100; 2877.000; 3066.000
469.813;  924.300; 4148.000; 4192.000
469.932;  854.600; 4255.000; 4485.000
470.051;  833.800; 4075.000; 4161.000
470.169; 1292.700; 4470.000; 4338.000
470.288; 1734.900; 4700.000; 4809.000
470.406; 1327.400; 5059.000; 5194.000
470.525; 1280.800; 6101.000; 5787.000
470.644; 1336.300; 6847.000; 6794.000
470.762; 1748.900; 8397.000; 7873.000
470.881; 1871.300; 8651.000; 8464.000
470.999; 2090.000; 9685.000; 9151.000
471.118; 2277.200;11174.000;10711.000

