
Integration time [ms]: 100.000
Averaging Nr. [scans]: 40
Smoothing Nr. [pixels]: 0
Data measured with spectrometer [name]: 2101012U2
Wave   ;Sample   ;Dark     ;Reference
[nm]   ;[counts] ;[counts] ;[counts] 

197.733;   57.650;  516.000;  404.000
197.879;  -92.850; -610.000; -634.000
198.025;  -62.425; -475.000; -420.000
198.171;  -79.475; -602.000; -612.000
198.317;  -41.000; -401.000; -316.000
198.463;  -58.275; -655.000; -404.000
198.609;   20.525;  181.000; -137.000
198.755;  -85.825; -644.000; -410.000
198.901;  -60.075; -505.000; -424.000
199.047;  -58.725; -615.000; -488.000
199.193;  -51.925; -230.000; -468.000
199.339;  -49.525; -222.000; -369.000
199.485;   33.925;  330.000;  271.000
199.631;   28.725;  227.000;  310.000
199.777;  -45.200; -466.000; -398.000
199.923;  -67.900; -610.000; -424.000
200.069;   -5.900; -141.000;  -58.000
200.215;   73.200;  128.000;  453.000
200.361;   49.725;  243.000;  477.000
200.507;  -62.125; -600.000; -373.000
200.653;  -21.200; -371.000; -194.000
200.798;  -37.125; -215.000; -125.000
200.944;    3.625; -146.000;  -41.000
201.090;   31.125;   61.000;  222.000
201.236;    0.800; -116.000; -158.000
201.382;  141.125;  874.000;  903.000
201.528;    6.400;  -58.000;  -48.000
201.674;  -53.550; -386.000; -293.000
201.819;  -54.350; -540.000; -439.000
201.965;  -91.525; -699.000; -447.000
202.111;  -31.850; -273.000; -226.000
202.257;  -41.800; -250.000; -238.000
202.402;    3.700;   13.000;  -36.000
202.548;  -22.150; -169.000; -116.000
202.694;   83.500;  410.000; -183.000
202.840;  -81.250; -603.000; -531.000
202.985;  -65.275; -681.000; -639.000
203.131; -111.325; -832.000; -666.000
203.277;  -16.375; -199.000; -262.000
203.423;  -51.050; -434.000; -520.000
203.568;  -37.325; -462.000; -237.000
203.714;  -66.075; -535.000; -542.000
203.860;  -97.550; -682.000; -641.000
204.005;   26.800;  112.000;  167.000
204.151;   79.250;  561.000;  556.000
204.296;  -43.175; -354.000; -221.000
204.442;  -73.225; -600.000; -547.000
204.588;  -76.000; -592.000; -579.000
204.733;   28.125;  178.000;  168.000
204.879; -138.650;-1018.000; -822.000
205.025;    9.275;  -99.000;  126.000
205.170;    2.375;  -17.000;   94.000
205.316;  106.250;  438.000;  661.000
205.461;  -80.000; -698.000; -554.000
205.607;   90.625;  609.000;  665.000
205.752;  -80.400; -626.000; -551.000
205.898;  -57.450; -501.000; -391.000
206.043;  -55.100; -578.000; -506.000
206.189;  -54.875; -243.000; -285.000
206.334;   85.575;  554.000;  606.000
206.480;   85.775;  409.000;  239.000
206.625;  -86.075; -529.000; -552.000
206.771;  -38.950; -451.000; -373.000
206.916;  -38.050; -210.000; -537.000
207.062;  -75.400; -545.000; -591.000
207.207;  -70.325; -546.000; -443.000
207.353;   47.975;  185.000;  460.000
207.498;    5.025;  196.000;   85.000
207.643;  -49.925; -501.000; -370.000
207.789; -128.850;-1069.000; -910.000
207.934; -115.250; -665.000; -713.000
208.080;  -25.725; -154.000;   66.000
208.225;  -15.575;  -22.000;  -57.000
208.370;  -87.500; -727.000; -619.000
208.516;  -59.200; -741.000; -487.000
208.661;  -28.025; -127.000;  -69.000
208.806;  -22.350; -165.000; -171.000
208.952; -127.000;-1044.000; -731.000
209.097;   71.650;  378.000;  349.000
209.242;  -53.675; -307.000; -382.000
209.387;   76.925;  392.000;  350.000
209.533;  -53.975; -321.000; -350.000
209.678;   68.825;  472.000;  543.000
209.823;  -64.450; -408.000; -310.000
209.969; -105.325; -860.000; -757.000
210.114; -115.425; -907.000; -719.000
210.259; -118.075; -939.000; -889.000
210.404;  -15.175; -171.000;  103.000
210.549;   12.025;  108.000;    3.000
210.695;   -9.525;   -3.000;  -95.000
210.840;   36.000;   94.000;   67.000
210.985;  -67.625; -484.000; -303.000
211.130;   67.025;  268.000;  406.000
211.275;   20.000;  207.000;  199.000
211.420;  -56.875; -300.000; -289.000
211.566;  -75.500; -536.000; -489.000
211.711;   19.975;  218.000;  157.000
211.856;  -70.850; -545.000; -519.000
212.001;   12.850;  151.000;   44.000
212.146;   23.950;  153.000;   49.000
212.291;  -24.175; -210.000; -186.000
212.436;  -29.125; -280.000;   -6.000
212.581; -100.175; -685.000; -653.000
212.726;  -67.025; -487.000; -538.000
212.871;  -48.400; -552.000; -217.000
213.016; -162.025;-1172.000;-1029.000
213.161;   68.100;  406.000;  291.000
213.306;  -75.250; -435.000; -577.000
213.451; -101.175; -778.000; -689.000
213.596;  -52.500; -455.000; -347.000
213.741;  -61.650; -448.000; -538.000
213.886;  -82.600; -498.000; -517.000
214.031;  -32.325; -294.000; -124.000
214.176;  -58.900; -408.000; -341.000
214.321;  -31.550; -296.000; -157.000
214.466;  -22.250; -163.000;  -43.000
214.611;    0.750;  -61.000;  -10.000
214.756; -123.825; -948.000; -858.000
214.901;  -22.425; -388.000; -226.000
215.046; -113.325; -797.000; -825.000
215.191;   16.100;  128.000;   35.000
215.336;  -11.275; -157.000;  -19.000
215.480;  -63.775; -684.000; -505.000
215.625;   -9.675; -175.000;  -19.000
215.770;  -86.625; -757.000; -662.000
215.915;   -7.150;   -5.000;  -97.000
216.060;    9.575; -113.000;  -21.000
216.205; -121.750; -731.000; -779.000
216.349;  -73.375; -470.000; -533.000
216.494; -143.050; -939.000; -867.000
216.639; -127.400; -823.000; -888.000
216.784;  -82.800; -577.000; -525.000
216.929;   51.200;  392.000;  281.000
217.073;  -21.325; -244.000;  -31.000
217.218;   14.925;   78.000;  -47.000
217.363;  -90.100; -656.000; -618.000
217.507;  -77.550; -623.000; -588.000
217.652; -138.225; -845.000; -874.000
217.797;  -77.400; -708.000; -659.000
217.942; -115.575; -856.000; -720.000
218.086;   68.375;  608.000;  539.000
218.231;  -25.425; -174.000;  -26.000
218.376;  -44.475; -337.000; -229.000
218.520;    0.350;  -41.000;   96.000
218.665;  -36.000; -338.000; -204.000
218.810;  -54.925; -275.000; -233.000
218.954;   12.300;  201.000;   35.000
219.099; -117.325; -713.000; -963.000
219.243;  -70.750; -589.000; -554.000
219.388;  -34.625; -264.000; -136.000
219.532;  -10.375; -116.000; -116.000
219.677;  -72.725; -564.000; -521.000
219.822;    6.650;   33.000;   89.000
219.966;   -4.875;   17.000;  -99.000
220.111;  -34.200; -328.000;  -40.000
220.255; -101.175; -797.000; -750.000
220.400;  -14.225; -180.000; -146.000
220.544;  -65.000; -516.000; -450.000
220.689;  -60.875; -422.000; -451.000
220.833;  -19.900; -123.000;  -58.000
220.978;  -54.000; -393.000; -563.000
221.122;   31.675;  319.000;  307.000
221.267; -126.600; -906.000; -837.000
221.411;  -67.725; -478.000; -394.000
221.555;   -4.550; -104.000;  -23.000
221.700;  -58.325; -329.000; -222.000
221.844;   32.525;  255.000;  272.000
221.989;  -53.150; -328.000; -311.000
222.133;  -43.050; -289.000; -307.000
222.277;  -27.975;    5.000;   78.000
222.422;   18.175;  227.000;  113.000
222.566;  -49.475; -381.000; -214.000
222.711;  -55.450; -414.000; -479.000
222.855;  -81.075; -643.000; -586.000
222.999;  -93.875; -642.000; -717.000
223.144;  -26.100; -195.000; -194.000
223.288;   57.025;  423.000;  251.000
223.432;   24.175;  184.000;  230.000
223.576;   17.600;  152.000;  -21.000
223.721;   47.000;  364.000;  273.000
223.865;  -64.300; -472.000; -475.000
224.009;  249.975; 1673.000; 1631.000
224.153;  -79.950; -660.000; -671.000
224.298;  -60.950; -531.000; -489.000
224.442;  -19.650;  -74.000;  -33.000
224.586;  -12.275; -169.000; -106.000
224.730; -100.725; -858.000; -670.000
224.875; -110.375; -739.000; -688.000
225.019;    4.300;  102.000;  188.000
225.163;   61.400;  208.000;  341.000
225.307;   19.125;   97.000;  -91.000
225.451;   48.700;  360.000;  481.000
225.595;   33.525;  264.000;  176.000
225.739;  -23.725; -170.000;  -94.000
225.884;    3.575;   86.000;    5.000
226.028;  -87.850; -760.000; -626.000
226.172;  -48.600; -260.000; -273.000
226.316; -113.750; -941.000; -902.000
226.460;  -72.950; -645.000; -493.000
226.604;  -47.900; -406.000; -400.000
226.748; -101.300; -836.000; -733.000
226.892;  -25.925; -227.000; -181.000
227.036;  -42.325; -537.000; -447.000
227.180;  -56.025; -551.000; -375.000
227.324;  -68.450; -561.000; -580.000
227.468; -107.100; -819.000; -717.000
227.612;   10.275;  242.000;  -28.000
227.756; -103.275; -845.000; -698.000
227.900;   44.875;  342.000;  441.000
228.044;  -63.875; -509.000; -290.000
228.188;   58.525;  448.000;  568.000
228.332;  -95.125; -546.000; -472.000
228.476;  -24.050; -223.000; -149.000
228.620;  -40.300; -210.000; -150.000
228.764;   74.275;  431.000;  349.000
228.908;  -18.750; -155.000;   30.000
229.052;  -76.325; -615.000; -528.000
229.195;  -20.025; -172.000;   13.000
229.339;  -33.325; -235.000; -305.000
229.483;  -30.625;    5.000; -162.000
229.627;   -0.500; -156.000;  139.000
229.771;  -49.200; -218.000; -294.000
229.915;   20.450;  230.000;   79.000
230.059; -103.425; -648.000; -663.000
230.202;  -34.675; -370.000; -317.000
230.346;  -14.725; -107.000;  107.000
230.490;  -57.475; -489.000; -521.000
230.634;  -95.025; -736.000; -553.000
230.777;   77.000;  478.000;  509.000
230.921;  -69.525; -450.000; -359.000
231.065;  -42.425; -246.000; -286.000
231.209;   28.950;  261.000;  265.000
231.352;   24.950;   54.000;   40.000
231.496;   10.100;  568.000;  188.000
231.640;  -76.775; -693.000; -621.000
231.783;   51.875;  546.000;  525.000
231.927;  -49.400; -294.000; -365.000
232.071; -130.950; -962.000; -736.000
232.214; -110.575; -980.000; -764.000
232.358; -108.500; -683.000; -599.000
232.502;    5.275;  -19.000;    7.000
232.645; -129.400;-1090.000; -927.000
232.789;  -26.025; -257.000; -218.000
232.933;  -45.275; -407.000; -224.000
233.076; -119.275;-1038.000; -897.000
233.220; -104.375; -752.000; -777.000
233.363;  -90.975; -669.000; -477.000
233.507;   69.575;  371.000;  129.000
233.650;  -97.700; -764.000; -834.000
233.794;   50.600;  438.000;  461.000
233.938;  -74.625; -530.000; -362.000
234.081;  -19.750;  -93.000;   31.000
234.225;  -70.550; -631.000; -539.000
234.368; -104.500; -773.000; -723.000
234.512;  -51.125; -385.000; -299.000
234.655;  -92.425; -582.000; -555.000
234.798;  -72.225; -493.000; -466.000
234.942; -137.525; -884.000;-1002.000
235.085;  -79.800; -651.000; -443.000
235.229;  -73.825; -405.000; -410.000
235.372;  -49.950; -247.000; -191.000
235.516;  -66.350; -397.000; -321.000
235.659;    1.475;   92.000;  121.000
235.802;   -1.725;  -38.000;  -22.000
235.946;   31.025;  335.000;  215.000
236.089;   13.900;  126.000;  250.000
236.233;   49.025;  275.000;  298.000
236.376;  -37.450; -235.000; -378.000
236.519;  -63.800; -297.000; -319.000
236.663;  -12.950; -215.000; -117.000
236.806; -131.575;-1029.000; -999.000
236.949;   44.775;  543.000;  431.000
237.092;   56.000;  412.000;  391.000
237.236;  -94.800; -589.000; -502.000
237.379;   64.800;  352.000;  428.000
237.522; -113.775; -879.000; -768.000
237.666;   -8.925; -271.000;   18.000
237.809; -109.975; -851.000; -823.000
237.952;   50.025;  469.000;  271.000
238.095;  -61.600; -447.000; -442.000
238.238;   90.575;  688.000;  700.000
238.382;    2.950;  166.000;  103.000
238.525;  -72.425; -598.000; -511.000
238.668; -136.800;-1060.000; -985.000
238.811;  -96.700; -638.000; -643.000
238.954;  -67.875; -483.000; -334.000
239.097;   86.025;  617.000;  664.000
239.241;    6.525;  394.000;  326.000
239.384;  -25.000; -254.000; -214.000
239.527;  -79.675; -424.000; -224.000
239.670; -149.950; -994.000;-1091.000
239.813; -111.325; -696.000; -658.000
239.956;   81.875;  579.000;  473.000
240.099; -114.825; -778.000; -725.000
240.242;   65.000;  428.000;  432.000
240.385;   32.475;  466.000;  450.000
240.528;  -63.575; -706.000; -473.000
240.671;   21.475;  189.000;  134.000
240.814;  -33.775; -441.000; -158.000
240.957; -100.375; -767.000; -578.000
241.100;  -91.750; -779.000; -755.000
241.243; -158.925;-1234.000; -893.000
241.386;  -58.150; -508.000; -379.000
241.529; -107.575; -735.000; -547.000
241.672;  -64.425; -566.000; -495.000
241.815; -123.475; -832.000; -808.000
241.958;  -18.850; -125.000; -182.000
242.101;  -75.650; -545.000; -390.000
242.244;  -36.775; -270.000; -325.000
242.387;  -49.275; -304.000; -246.000
242.530;   49.425;  470.000;  134.000
242.673;  -51.600; -381.000; -309.000
242.815; -129.475; -925.000; -899.000
242.958;  -69.825; -482.000; -381.000
243.101;   10.550;  132.000;  187.000
243.244;  -91.575; -564.000; -521.000
243.387;  -55.075; -313.000; -316.000
243.530; -104.200; -657.000; -674.000
243.672;    3.300;   43.000;  -92.000
243.815;  -50.625; -355.000; -283.000
243.958;   -2.500;   98.000;  -26.000
244.101;   12.300;   59.000;  -16.000
244.243;  -21.425;  -47.000;  101.000
244.386; -137.750; -761.000; -630.000
244.529;  -26.375; -132.000; -139.000
244.672; -156.525;-1154.000; -951.000
244.814; -105.050; -621.000; -794.000
244.957;  -46.975; -380.000; -304.000
245.100;  -71.425; -489.000; -489.000
245.242;  -68.625; -387.000; -374.000
245.385;   -9.500;  -59.000;  -39.000
245.528; -119.225; -871.000; -705.000
245.670;   94.975;  612.000;  634.000
245.813;  -88.025; -599.000; -547.000
245.956;  -36.200; -324.000; -275.000
246.098;  -77.200; -508.000; -650.000
246.241;    9.750;  194.000;   48.000
246.383;  -15.400; -119.000;  -73.000
246.526;  -74.950; -454.000; -525.000
246.669; -119.050; -889.000; -780.000
246.811;   30.825;  172.000;   -1.000
246.954;  -73.550; -512.000; -426.000
247.096;  -27.900;  -84.000;   -6.000
247.239;  -76.100; -482.000; -445.000
247.381;  -76.600; -647.000; -488.000
247.524;   86.300;  645.000;  679.000
247.666;  -23.375;   58.000;   11.000
247.809; -126.100; -887.000; -691.000
247.951;   -9.550;  -75.000;  138.000
248.094;   28.800;  432.000;  308.000
248.236; -168.650;-1262.000;-1238.000
248.378;  -11.525; -356.000;  -81.000
248.521;  -21.725; -334.000; -337.000
248.663;  -42.700; -236.000; -267.000
248.806;  -28.200; -300.000; -266.000
248.948; -100.425; -886.000; -763.000
249.090;  -41.725; -428.000; -398.000
249.233;  -52.475; -344.000; -381.000
249.375;  -53.925; -474.000; -451.000
249.518;  -29.600;  -83.000; -133.000
249.660;  -19.650; -103.000;    3.000
249.802; -167.900;-1303.000;-1189.000
249.945;  -74.675; -612.000; -540.000
250.087; -114.950; -834.000; -768.000
250.229;  -49.700; -362.000; -480.000
250.371;  -84.225; -494.000; -439.000
250.514;  -55.600; -310.000; -244.000
250.656;  -49.100;   69.000;  102.000
250.798; -131.925; -849.000; -800.000
250.940;  -66.100; -322.000; -322.000
251.083;  -35.300; -335.000; -111.000
251.225;   62.225;  338.000;  310.000
251.367;  -42.850; -274.000; -373.000
251.509;  -34.725; -265.000; -210.000
251.651; -112.975; -731.000; -671.000
251.794;   42.850;  538.000;  632.000
251.936; -110.225; -821.000; -747.000
252.078;  -88.650; -540.000; -461.000
252.220;  -89.175; -645.000; -477.000
252.362;   95.325;  344.000;  462.000
252.504;  -55.350; -677.000; -584.000
252.646; -122.525; -875.000; -722.000
252.788;    3.925;   14.000; -128.000
252.931;  -45.275; -257.000; -253.000
253.073;  -41.975; -376.000; -317.000
253.215;   -8.750;  141.000;  122.000
253.357;  -10.100;   82.000; -153.000
253.499;  -52.900; -374.000; -234.000
253.641;  -97.500; -749.000; -594.000
253.783;  -92.050; -609.000; -527.000
253.925;  -83.400; -586.000; -591.000
254.067; -116.000; -744.000; -667.000
254.209;  -41.600; -391.000; -259.000
254.351; -138.200; -865.000; -883.000
254.493;  -72.350; -441.000; -417.000
254.635; -134.425; -936.000; -818.000
254.777;  -88.350; -752.000; -687.000
254.918;  -78.800; -512.000; -430.000
255.060;  -60.750; -551.000; -395.000
255.202;  -75.925; -473.000; -261.000
255.344;  -69.875; -658.000; -455.000
255.486;  -79.650; -471.000; -406.000
255.628; -118.750; -780.000; -781.000
255.770;  -97.650; -676.000; -536.000
255.912;  -64.900; -559.000; -468.000
256.053;  -80.475; -730.000; -508.000
256.195;  155.700; 1008.000;  903.000
256.337; -108.325; -861.000; -595.000
256.479;   69.225;  532.000;  416.000
256.621;  -57.625; -394.000; -212.000
256.762; -105.000; -789.000; -742.000
256.904;   41.900;  485.000;  487.000
257.046;  -48.900; -381.000; -271.000
257.188;  -53.700; -351.000; -264.000
257.329;  -76.400; -525.000; -464.000
257.471; -130.650; -939.000; -807.000
257.613;  -70.950; -584.000; -498.000
257.755; -149.075;-1073.000; -982.000
257.896;   26.950;  286.000;  392.000
258.038;  -68.650; -403.000; -352.000
258.180;  -48.275; -354.000; -279.000
258.321;  -88.325; -581.000; -457.000
258.463;  -16.975;  -71.000;  133.000
258.605; -104.150; -562.000; -570.000
258.746;  -99.425; -886.000; -772.000
258.888; -162.125;-1026.000;-1020.000
259.029;   22.650;  121.000;   -8.000
259.171;  -98.525; -614.000; -550.000
259.313;   -1.200;  -49.000;  -47.000
259.454;  -78.025; -536.000; -414.000
259.596;  -63.100; -483.000; -390.000
259.737;  -73.075; -590.000; -474.000
259.879;   39.075;  217.000;  311.000
260.020;   98.575;  901.000;  636.000
260.162;  -25.575; -146.000; -253.000
260.303; -115.300; -768.000; -687.000
260.445;  -94.950; -609.000; -613.000
260.586;   29.650;  392.000;  157.000
260.728;  -44.050; -360.000; -248.000
260.869; -120.925; -350.000; -343.000
261.011;   81.300;  706.000;  537.000
261.152;  -64.200; -479.000; -319.000
261.293;  -83.850; -576.000; -595.000
261.435;  -38.975; -219.000; -184.000
261.576;  -42.375; -455.000; -325.000
261.718;   51.275;  420.000;  470.000
261.859; -134.800; -940.000; -949.000
262.000; -131.350; -951.000;-1016.000
262.142;  -22.750;  -52.000;  -60.000
262.283; -122.900; -808.000; -691.000
262.424;  -90.925; -666.000; -625.000
262.566; -166.525;-1161.000; -983.000
262.707; -115.475; -840.000; -830.000
262.848; -123.225; -769.000; -726.000
262.990;  -51.600; -362.000; -345.000
263.131;   92.475;  650.000;  681.000
263.272;  -12.000;  -61.000;  -41.000
263.413;  -86.325; -589.000; -561.000
263.555;  -66.225; -669.000; -143.000
263.696;  -88.475; -550.000; -641.000
263.837;  -61.150; -449.000; -551.000
263.978;   -3.875;   -5.000;  -77.000
264.119;  -58.650; -283.000; -264.000
264.261; -125.500; -847.000; -630.000
264.402;   -8.125;   33.000;   40.000
264.543;  -79.575; -509.000; -524.000
264.684;   -7.125;   61.000;  -50.000
264.825;  -83.175; -816.000; -538.000
264.966;   -1.525;  -84.000;  -67.000
265.107; -123.825; -646.000; -670.000
265.248; -118.125; -825.000; -812.000
265.390;  -17.300;  152.000;   -9.000
265.531;  -24.625; -238.000; -107.000
265.672; -109.625; -557.000; -630.000
265.813;   62.625;  563.000;  439.000
265.954; -145.100; -959.000; -940.000
266.095;  -21.175; -372.000; -322.000
266.236;  -99.850; -686.000; -548.000
266.377;  -36.525; -243.000; -297.000
266.518;  -72.725; -619.000; -547.000
266.659;   17.200;  170.000;  268.000
266.800;   -6.175;   83.000;   85.000
266.941;  -74.475; -487.000; -478.000
267.082;   27.250;  354.000;   99.000
267.223;  -57.375; -344.000; -273.000
267.364; -118.050; -892.000; -686.000
267.504;  -17.300;    3.000;  135.000
267.645;    7.825;  160.000;   67.000
267.786;  -26.575; -147.000;  -86.000
267.927;  -90.150; -473.000; -379.000
268.068;  -22.900; -186.000;  -61.000
268.209;  -41.900; -175.000; -413.000
268.350;  -64.100; -388.000; -532.000
268.490;  -92.175; -648.000; -521.000
268.631;   25.250;  127.000;  225.000
268.772; -125.300; -874.000; -647.000
268.913;  -52.575; -328.000; -476.000
269.054;  -12.525; -117.000;   12.000
269.194;  -43.900; -418.000; -402.000
269.335; -165.775;-1137.000;-1074.000
269.476;  -31.025;   33.000;  -35.000
269.617;  -59.500; -347.000; -392.000
269.757;  -96.450; -713.000; -646.000
269.898; -112.050; -856.000; -613.000
270.039;  -64.350; -415.000; -405.000
270.180; -142.550; -952.000; -816.000
270.320;  -27.950; -190.000; -250.000
270.461;  -28.525; -277.000; -249.000
270.602;  -14.250; -186.000; -156.000
270.742; -121.950; -868.000; -943.000
270.883;  -62.475; -442.000; -390.000
271.023;  -56.050; -358.000; -357.000
271.164;  -66.225; -607.000; -528.000
271.305; -104.375; -666.000; -654.000
271.445;  -91.350; -722.000; -683.000
271.586;  -75.825; -462.000; -283.000
271.726;  -45.300; -397.000; -322.000
271.867;  -62.750; -594.000; -534.000
272.008;  212.300; -473.000; -285.000
272.148;  129.025;  462.000;  468.000
272.289;   20.100; -113.000; -181.000
272.429;   19.350;   19.000;  185.000
272.570;  -88.450; -633.000; -737.000
272.710; -101.550; -825.000; -775.000
272.851;  -22.325;  113.000; -130.000
272.991; -164.675;-1173.000;-1077.000
273.131;  -91.450; -419.000; -459.000
273.272; -116.100; -683.000; -723.000
273.412;    5.050; -143.000;  -31.000
273.553;  -47.525; -488.000; -507.000
273.693;  147.100;  913.000;  858.000
273.834;  -85.600; -894.000; -692.000
273.974;  -75.600; -664.000; -615.000
274.114; -102.850; -772.000; -560.000
274.255;   71.675;  414.000;  373.000
274.395;   14.800; -180.000; -125.000
274.535;   43.050;  199.000;  350.000
274.676;   22.900;  225.000;   94.000
274.816;   -2.875;  110.000;   34.000
274.956;  -86.750; -624.000; -690.000
275.097;  -54.125;-1014.000; -922.000
275.237; -110.625; -913.000; -803.000
275.377; -100.900; -778.000; -689.000
275.517; -151.400; -878.000; -937.000
275.658;  -55.375; -590.000; -555.000
275.798;  -65.900; -606.000; -413.000
275.938;   26.475;  215.000;  323.000
276.078; -103.025; -626.000; -395.000
276.218;    0.000;   99.000;  104.000
276.359; -128.325;-1026.000;-1024.000
276.499;  -71.875; -605.000; -446.000
276.639;  -36.425; -305.000; -151.000
276.779;  -52.300; -475.000; -357.000
276.919; -114.300; -783.000; -624.000
277.059;  -30.325; -261.000; -212.000
277.199;  -48.750; -357.000; -259.000
277.340;   61.425;  287.000;  175.000
277.480; -122.450; -840.000; -693.000
277.620;   38.650;  192.000;   16.000
277.760; -213.675;-1533.000;-1294.000
277.900;   18.675;  113.000;   33.000
278.040;   22.050;  137.000;  159.000
278.180;   47.825;  270.000;  170.000
278.320;   -8.100;   21.000;   56.000
278.460;  -70.900; -443.000; -469.000
278.600; -104.125; -708.000; -598.000
278.740;   45.100;  448.000;  224.000
278.880;  -65.650; -768.000; -791.000
279.020;    0.025; -194.000; -144.000
279.160;  -95.500; -672.000; -595.000
279.300; -111.150; -926.000; -873.000
279.440;  -90.100; -709.000; -622.000
279.579;   -4.800;-1014.000; -929.000
279.719;  -53.525; -410.000; -394.000
279.859;   66.225;   -4.000;   41.000
279.999;   35.475; -208.000;  101.000
280.139;  -17.150; -435.000; -387.000
280.279;  -85.450; -708.000; -745.000
280.419;   -9.725; -229.000; -147.000
280.559;  -40.275; -259.000; -180.000
280.698;  -92.250; -790.000; -639.000
280.838;  -79.900; -778.000; -800.000
280.978;  -93.025; -846.000; -790.000
281.118; -111.900; -811.000; -704.000
281.257;    2.450;   24.000;    6.000
281.397; -116.625;-1094.000; -960.000
281.537;  -88.200; -599.000; -712.000
281.677;  -35.150; -150.000; -101.000
281.816;  -91.300; -700.000; -630.000
281.956;  -39.650; -193.000; -257.000
282.096;  -60.850; -539.000; -396.000
282.235; -120.300; -672.000; -638.000
282.375;  -22.700; -243.000;  -98.000
282.515; -109.325; -715.000; -707.000
282.654;   35.650;   29.000;  106.000
282.794;   21.225;  388.000;  244.000
282.934;  -48.475; -530.000; -491.000
283.073; -136.325;-1030.000; -857.000
283.213;  -42.125; -460.000; -467.000
283.353;  -28.475; -408.000; -349.000
283.492;  -39.350; -264.000; -296.000
283.632;  -39.425; -254.000; -168.000
283.771;  -97.000; -859.000; -730.000
283.911;  -55.025; -369.000; -260.000
284.050; -114.850; -794.000; -748.000
284.190; -153.600;-1229.000;-1096.000
284.329; -140.650;-1055.000; -964.000
284.469;  -77.950; -516.000; -591.000
284.608;  -57.850; -559.000; -598.000
284.748;  -90.000; -614.000; -570.000
284.887;    0.175;  -87.000;  -20.000
285.027; -121.050; -844.000; -892.000
285.166;  -40.650; -192.000; -249.000
285.306;    2.400; -116.000;  -33.000
285.445;  -43.750; -229.000; -343.000
285.584;  -91.375; -630.000; -494.000
285.724;  -48.450; -282.000; -322.000
285.863; -119.475; -857.000; -507.000
286.002;  -38.050; -366.000; -276.000
286.142; -116.975; -715.000; -622.000
286.281;  -77.400; -525.000; -493.000
286.420;  -74.300; -554.000; -417.000
286.560;  102.125;  653.000;  623.000
286.699; -143.400; -958.000; -912.000
286.838;  -84.175; -590.000; -591.000
286.978;  -78.675; -533.000; -537.000
287.117; -136.025;-1085.000; -950.000
287.256;  -32.350; -228.000; -211.000
287.395;  -46.275; -197.000; -378.000
287.535;  -40.700; -370.000; -298.000
287.674;  -78.650; -509.000; -484.000
287.813;   55.050;  661.000;  533.000
287.952; -145.675;-1010.000; -871.000
288.091; -155.500;-1049.000; -915.000
288.231;    7.750;   13.000;   15.000
288.370; -188.525;-1217.000;-1200.000
288.509;  -91.600; -728.000; -645.000
288.648;  -75.775; -770.000; -548.000
288.787;  -29.000; -243.000;  -87.000
288.926;  -70.575; -454.000; -475.000
289.065;  126.775;  859.000;  672.000
289.204;  -53.275; -377.000; -217.000
289.344; -101.275; -791.000; -690.000
289.483;   17.000;  416.000;  304.000
289.622;  -31.100; -291.000; -149.000
289.761;  -25.700; -309.000; -166.000
289.900; -115.325; -785.000; -626.000
290.039;  -12.950;  -12.000;  -95.000
290.178;  -40.225; -274.000; -180.000
290.317;  -75.375; -618.000; -479.000
290.456;  -63.100; -463.000; -451.000
290.595; -148.175; -961.000; -833.000
290.734; -138.450; -904.000; -891.000
290.873;  -75.675; -456.000; -420.000
291.011; -108.825; -833.000; -843.000
291.150; -113.100; -770.000; -682.000
291.289;  -32.900; -343.000; -110.000
291.428;  -94.150; -599.000; -480.000
291.567;  -61.500; -370.000; -442.000
291.706;   -4.425;  109.000;  154.000
291.845;  -81.375; -597.000; -505.000
291.984; -175.875;-1234.000;-1061.000
292.122;   77.450;  602.000;  582.000
292.261;   44.175;  620.000;  463.000
292.400;   -1.550; -144.000;  211.000
292.539; -137.225; -959.000; -813.000
292.678;  -34.325; -325.000; -300.000
292.816; -149.525;-1136.000; -965.000
292.955;  -83.475; -844.000; -684.000
293.094;  -22.700; -173.000; -337.000
293.233;  -58.125; -556.000; -400.000
293.371;  -29.000; -225.000;  -84.000
293.510; -112.450; -866.000; -780.000
293.649; -134.950; -959.000; -924.000
293.787;  -55.125;-1083.000;-1012.000
293.926;  -15.825; -113.000;  -32.000
294.065;  -32.750; -379.000; -290.000
294.203;   47.650;  298.000;  406.000
294.342;   21.075;   74.000;  156.000
294.481; 6444.675;51180.000; -836.000
294.619;  -22.350; -425.000; -582.000
294.758; -144.475;-1230.000;-1137.000
294.896;   74.075; -125.000;    5.000
295.035; -123.825;-1040.000;-1006.000
295.174; -133.325;-1082.000; -954.000
295.312;  -39.300; -323.000; -203.000
295.451;  -15.125; -307.000; -428.000
295.589;  -47.175; -389.000; -518.000
295.728;   17.050; -292.000; -165.000
295.866;   10.925;  -36.000;  -51.000
296.005;  -70.300; -584.000; -341.000
296.143;  -72.525; -558.000; -596.000
296.282; -107.200; -957.000; -881.000
296.420;  -91.125; -657.000; -557.000
296.559;  -87.550; -892.000; -633.000
296.697;   14.775; -847.000; -665.000
296.835;   75.275;-1141.000;-1002.000
296.974;   53.625;  -23.000;   39.000
297.112;    6.150; -443.000; -504.000
297.251;  -78.375; -815.000; -755.000
297.389;   98.600; -576.000; -438.000
297.527;   33.625; -145.000;  -83.000
297.666;  -48.500; -486.000; -438.000
297.804;  -63.450; -404.000; -264.000
297.942;  -16.600; -136.000; -161.000
298.081;  -16.925; -183.000;   63.000
298.219;   76.350;  -17.000;  -19.000
298.357;   44.325; -144.000;  -71.000
298.495;   36.300; -810.000; -812.000
298.634;   87.900;  245.000;  219.000
298.772;   64.150; -220.000; -338.000
298.910;  -39.650; -309.000; -182.000
299.048;  -11.775; -130.000; -153.000
299.187;  -41.625; -350.000; -250.000
299.325;   38.975;   52.000;  122.000
299.463;   57.175; -389.000; -299.000
299.601;  127.475; -327.000; -271.000
299.739; -108.175; -908.000; -883.000
299.877;  -93.150; -791.000; -703.000
300.016;  -34.175;-1095.000; -935.000
300.154;  184.475;  -19.000; -161.000
300.292;   63.200; -428.000; -348.000
300.430;   34.925; -408.000; -291.000
300.568; -105.875; -940.000; -874.000
300.706;  -50.625; -366.000; -469.000
300.844;  -73.450;-1108.000; -979.000
300.982;  117.275;  246.000;  282.000
301.120; -106.475; -965.000; -866.000
301.258;  -72.650; -812.000; -705.000
301.396;   34.225;  104.000;  -41.000
301.534;   95.625; -218.000; -293.000
301.672;    8.450; -664.000; -521.000
301.810;   44.825; -613.000; -545.000
301.948;  135.000;   53.000;  149.000
302.086;  681.625; -250.000;  -32.000
302.224; 1051.475; -610.000; -585.000
302.362;   72.325; -558.000; -622.000
302.500;   -8.900; -923.000; -893.000
302.638;  126.750;  128.000;  245.000
302.776;   -1.300; -352.000; -408.000
302.913;   58.475;  447.000;  236.000
303.051;   -2.050;  -86.000;  -23.000
303.189;   40.850;   90.000;  118.000
303.327;  -27.250; -341.000; -256.000
303.465;  -77.250; -832.000; -588.000
303.603;  -89.800; -805.000; -604.000
303.740;  120.325;  417.000;  241.000
303.878;   30.475; -800.000; -759.000
304.016;  -94.250; -915.000; -790.000
304.154; -128.700;-1123.000;-1152.000
304.291;  -47.000; -505.000; -554.000
304.429;   16.400;  102.000;   74.000
304.567; -134.600; -908.000; -893.000
304.705;  -55.500; -408.000; -515.000
304.842;  105.750; -616.000; -540.000
304.980;   60.375;  215.000;   35.000
305.118;   52.375; -367.000; -365.000
305.255;  -68.250; -945.000; -927.000
305.393;   62.725;  178.000;  239.000
305.531; -111.875;-1173.000; -956.000
305.668;  -74.075; -663.000; -582.000
305.806;  102.275; -358.000; -439.000
305.943;  116.725; -629.000; -637.000
306.081;   58.250; -378.000; -267.000
306.219; -100.850; -863.000; -748.000
306.356;   -3.525;  158.000;   27.000
306.494;  109.400;  981.000;  761.000
306.631;  -10.150;  -11.000;  -55.000
306.769;   11.725; -613.000; -485.000
306.906;  -18.575; -284.000; -258.000
307.044;  -77.350; -473.000; -488.000
307.181;  -62.125; -410.000; -332.000
307.319;    9.375;  112.000;   87.000
307.456; -179.900;-1191.000;-1153.000
307.594; -112.050; -980.000; -727.000
307.731;  -19.650; -371.000; -164.000
307.868;    6.750;  -15.000;   20.000
308.006; -135.575; -961.000; -847.000
308.143;  -59.425; -618.000; -330.000
308.281;  125.800;  -37.000; -254.000
308.418;  -22.050; -748.000; -640.000
308.555;  -72.100; -400.000; -250.000
308.693;  -85.125; -577.000; -573.000
308.830; -114.750; -712.000; -657.000
308.967;   -2.000; -215.000;  -95.000
309.105;  -56.525; -507.000; -396.000
309.242;   19.125; -468.000; -367.000
309.379;  244.650; -577.000; -655.000
309.517;  -80.300; -936.000; -948.000
309.654; -112.600; -910.000; -734.000
309.791;  -81.500; -662.000; -580.000
309.928; -112.275; -977.000; -914.000
310.065;  184.850;  819.000;  697.000
310.203;    2.450; -825.000; -850.000
310.340;   -3.700; -465.000; -321.000
310.477;  -80.400; -412.000; -516.000
310.614;  -66.275; -383.000; -473.000
310.751;  -75.625; -427.000; -518.000
310.889;  -29.200;    1.000;   11.000
311.026; -159.725;-1161.000; -939.000
311.163;  -49.925; -386.000; -380.000
311.300;  -73.750; -512.000; -479.000
311.437;  -83.625; -658.000; -619.000
311.574; -172.725;-1226.000; -985.000
311.711;  -71.225; -595.000; -433.000
311.848;  -51.000; -380.000; -388.000
311.985;    7.900;  270.000;   93.000
312.122; -114.000; -932.000; -762.000
312.259; -123.375; -941.000; -994.000
312.396;  -77.750; -508.000; -551.000
312.533;  -97.675; -812.000; -790.000
312.670; -132.975;-1070.000; -898.000
312.807;  -37.050; -352.000; -367.000
312.944;  -89.025; -513.000; -611.000
313.081;  -41.750; -150.000; -415.000
313.218; -106.800;-1111.000; -867.000
313.355;   14.425; -531.000; -449.000
313.492;   10.400; -455.000; -292.000
313.629;  138.475;  815.000;  735.000
313.766; -176.075;-1176.000;-1008.000
313.902;  -11.650; -186.000;   21.000
314.039;  -49.650; -372.000; -289.000
314.176;   32.750;  286.000;  192.000
314.313;  -68.150; -569.000; -473.000
314.450;  -67.000; -788.000; -684.000
314.587;  -62.050; -468.000; -480.000
314.723;    2.725;  -78.000;  130.000
314.860;   30.775;  318.000;  332.000
314.997;   29.275;  223.000;  142.000
315.134;  -38.975; -385.000; -368.000
315.270;  -40.075; -480.000; -496.000
315.407; -119.400;-1094.000; -967.000
315.544;  -50.225; -657.000; -538.000
315.681;  -60.350; -681.000; -565.000
315.817;   16.000; -133.000; -176.000
315.954;   13.750; -613.000; -392.000
316.091; -132.875;-1045.000;-1023.000
316.227;  -26.350;  -71.000; -179.000
316.364;   -5.400;   23.000;    6.000
316.500;  -45.100; -113.000; -300.000
316.637;  -46.375; -181.000; -302.000
316.774;  -80.000; -625.000; -358.000
316.910;  -91.700; -598.000; -629.000
317.047;  -73.225; -487.000; -351.000
317.183;  -49.475; -435.000; -566.000
317.320;  -18.100; -367.000; -321.000
317.456;  -79.400; -733.000; -805.000
317.593; -106.800; -598.000; -641.000
317.729;    1.225;  168.000;  -67.000
317.866; -206.175;-1434.000;-1285.000
318.002;  -94.675; -708.000; -948.000
318.139; -104.950; -883.000; -867.000
318.275; -108.650;-1003.000; -738.000
318.412;  -79.925; -517.000; -336.000
318.548;  -37.100; -751.000; -720.000
318.685;  -86.825; -985.000; -888.000
318.821; -100.350; -762.000; -735.000
318.957;  -14.225;   34.000;  -23.000
319.094;   46.125;  297.000;  154.000
319.230;  -59.300; -756.000; -742.000
319.367;  138.750; -471.000; -520.000
319.503;   52.625; -538.000; -436.000
319.639;  -98.775; -877.000; -793.000
319.775;  -76.050; -750.000; -685.000
319.912;  -61.300; -424.000; -519.000
320.048;  -94.650;-1184.000;-1184.000
320.184;   82.675;   59.000;   70.000
320.321;  -72.750; -497.000; -467.000
320.457;   75.825;  475.000;  662.000
320.593;  -67.375; -375.000; -382.000
320.729; -108.775; -732.000; -734.000
320.866;  -79.575; -577.000; -635.000
321.002;  -85.275; -759.000; -809.000
321.138;  -19.225; -135.000; -211.000
321.274;   74.775; -148.000; -115.000
321.410;  -17.700; -585.000; -353.000
321.546;  -21.750;-1011.000; -911.000
321.683;   64.825;  400.000;  185.000
321.819;   -8.675;  -48.000; -117.000
321.955; -105.475; -743.000; -722.000
322.091;  -35.150; -585.000; -540.000
322.227;  -18.450; -382.000; -202.000
322.363;  -15.875; -320.000; -215.000
322.499;  -43.800; -343.000; -331.000
322.635;  162.525;  636.000;  443.000
322.771;   23.200; -139.000;   12.000
322.907;   99.125;  129.000;  327.000
323.043;  -28.775; -115.000; -206.000
323.179;  -34.725; -394.000; -363.000
323.315;   30.600; -401.000; -371.000
323.451;   96.875; -328.000; -236.000
323.587;   68.000;  -60.000;  -77.000
323.723;   25.425; -682.000; -601.000
323.859;   -8.550; -258.000;  -76.000
323.995;  -42.450; -467.000; -409.000
324.131; -139.550; -967.000; -892.000
324.267;  -42.450; -254.000; -276.000
324.402; -146.225; -960.000; -983.000
324.538;  -25.975; -279.000; -104.000
324.674;   26.850;  164.000;   77.000
324.810;  126.175;  226.000;  308.000
324.946;    3.025; -810.000; -658.000
325.082;  -65.975; -568.000; -475.000
325.217;  -13.975;  -62.000;   16.000
325.353; -108.900; -764.000; -659.000
325.489;  -81.200; -540.000; -506.000
325.625;  -69.475; -579.000; -525.000
325.760;   67.775;  517.000;  376.000
325.896;  -30.525; -515.000; -702.000
326.032;  -60.000; -403.000; -352.000
326.168;  -63.225; -462.000; -369.000
326.303;  -65.775; -352.000; -461.000
326.439;  -26.350; -336.000; -276.000
326.575;    3.725; -190.000;  -29.000
326.710;  -14.425; -156.000;  -30.000
326.846;  -21.975;  146.000;  103.000
326.982;  -93.600; -530.000; -548.000
327.117;  -71.675; -481.000; -442.000
327.253;  -90.350; -745.000; -742.000
327.388; -181.925;-1137.000;-1153.000
327.524;  -61.275; -811.000; -578.000
327.659;  -29.350;  -58.000;  -22.000
327.795;  -19.300;   69.000;   45.000
327.931; -102.000; -723.000; -499.000
328.066;  -35.275; -417.000; -276.000
328.202;  -26.000;   12.000; -129.000
328.337;  113.775;  957.000;  713.000
328.473;   32.625;  -12.000;  -74.000
328.608;  -27.900; -256.000; -267.000
328.743;  -83.875; -799.000; -664.000
328.879;   16.275;  214.000;  114.000
329.014;  -41.025; -102.000; -122.000
329.150;  -81.500; -358.000; -483.000
329.285;  -72.450; -465.000; -466.000
329.421;  -51.250; -548.000; -246.000
329.556;  -38.650;  -36.000;   85.000
329.691; -105.100; -633.000; -615.000
329.827;  -80.275; -626.000; -480.000
329.962;  -49.075;  131.000; -301.000
330.097;  -85.250; -673.000; -585.000
330.233;  -47.775; -410.000; -223.000
330.368; -136.925; -839.000; -628.000
330.503;  -26.100;    3.000;   98.000
330.638;    5.200;  -93.000; -125.000
330.774;  -60.125; -609.000; -530.000
330.909;  -48.975; -434.000; -244.000
331.044; -102.375; -714.000; -708.000
331.179; -173.700;-1217.000;-1109.000
331.315;   -1.025;   77.000;   20.000
331.450;   13.150;  157.000;  285.000
331.585;  -95.850; -805.000; -706.000
331.720; -100.000; -510.000; -460.000
331.855;  -32.000;  -35.000; -102.000
331.990;  230.975;   62.000;  138.000
332.126;  121.625; -110.000;   71.000
332.261;  -23.075; -379.000; -265.000
332.396;  -11.325; -135.000; -242.000
332.531; -114.200;-1074.000;-1031.000
332.666;   28.900; -519.000; -363.000
332.801; -100.275; -726.000; -807.000
332.936;  -19.575; -192.000; -122.000
333.071; -148.900; -870.000; -817.000
333.206;    5.550;  307.000;  379.000
333.341;   27.800;  344.000;  418.000
333.476;  -89.900; -627.000; -623.000
333.611;  -31.875; -251.000; -173.000
333.746;  -42.800; -381.000; -464.000
333.881; -128.725; -973.000; -935.000
334.016; -114.075; -936.000; -917.000
334.151; -126.575; -746.000; -702.000
334.286;   26.200;  152.000;  186.000
334.421;  -26.125; -125.000; -178.000
334.556;  -85.350; -611.000; -567.000
334.690;  -84.375; -631.000; -577.000
334.825;   64.050;  381.000;   83.000
334.960;  -63.425; -285.000; -413.000
335.095;    0.075;  135.000;  -91.000
335.230; -103.325; -722.000; -738.000
335.365; -142.700;-1084.000; -990.000
335.499; -132.175;-1108.000;-1037.000
335.634;   24.125;    9.000;  534.000
335.769;  -91.700; -755.000; -720.000
335.904;  -63.825; -603.000; -561.000
336.038;  -53.850; -735.000; -657.000
336.173; -121.575;-1206.000;-1194.000
336.308;   11.475; -116.000; -189.000
336.443;   23.750; -544.000; -634.000
336.577;  -75.675; -936.000; -787.000
336.712;   74.700;   -4.000;  -12.000
336.847;  -40.075; -724.000; -607.000
336.981;   87.300; -272.000; -208.000
337.116;  312.125;  615.000;  501.000
337.250;  172.125; -434.000; -421.000
337.385;  236.200; -297.000; -208.000
337.520;   71.125; -632.000; -603.000
337.654;  -34.925; -215.000; -126.000
337.789; -125.475; -989.000; -933.000
337.923;  -39.575; -104.000; -205.000
338.058;  -97.600; -673.000; -738.000
338.192;  -35.825; -611.000; -488.000
338.327;  -14.725;  -18.000; -155.000
338.461;  -74.650; -299.000; -469.000
338.596;  -92.250; -780.000; -638.000
338.730; -100.450; -767.000; -803.000
338.865;   70.500;  -46.000; -140.000
338.999;  -63.975; -846.000; -702.000
339.134;  -29.475; -634.000; -536.000
339.268;    7.300; -741.000; -603.000
339.403;  350.600; -740.000; -775.000
339.537;  100.200; -894.000; -820.000
339.671; -127.575; -829.000; -813.000
339.806;  -77.325; -556.000; -512.000
339.940;    0.775; -261.000; -235.000
340.074; -109.275; -685.000; -510.000
340.209;  -69.300; -351.000; -230.000
340.343;  -94.200; -517.000; -573.000
340.477;  141.200;  998.000; 1036.000
340.612;  -72.250;-1033.000; -900.000
340.746;  120.875; -199.000; -243.000
340.880;  -77.250; -924.000; -785.000
341.014;  -26.875;  -45.000; -154.000
341.149; -126.700; -756.000; -718.000
341.283; -119.600; -839.000; -754.000
341.417;  -83.550;-1124.000; -938.000
341.551;  146.025; -768.000; -708.000
341.685;  -36.625; -633.000; -611.000
341.820;  -65.650; -562.000; -493.000
341.954;  -50.925; -218.000; -349.000
342.088; -154.225;-1102.000;-1019.000
342.222;   73.300;  565.000;  618.000
342.356;  -65.475; -395.000; -335.000
342.490;  -91.875; -880.000; -841.000
342.624;  -48.425; -339.000; -242.000
342.758;   -1.825; -364.000; -312.000
342.892;  -58.675; -710.000; -585.000
343.026;  -59.700;  -58.000; -116.000
343.160;  -60.525; -426.000; -376.000
343.294;  -85.325; -474.000; -337.000
343.428;  -20.925; -488.000; -448.000
343.562;  -25.900; -172.000;  -23.000
343.696;  -30.475; -385.000; -314.000
343.830;  -15.650; -362.000; -356.000
343.964;   17.675; -231.000; -168.000
344.098; 1003.925;  199.000;   70.000
344.232;  847.450; -266.000; -127.000
344.366;   77.425; -567.000; -453.000
344.500;   73.125; -665.000; -744.000
344.634;   28.475; -324.000; -164.000
344.768;   -9.550; -531.000; -341.000
344.902;   28.800;  278.000;  256.000
345.035;  -77.000; -556.000; -496.000
345.169; -143.100; -933.000; -656.000
345.303;  -33.050; -308.000; -482.000
345.437;  -73.250; -826.000; -717.000
345.571;  -80.775; -675.000; -594.000
345.704;  -72.100; -309.000; -532.000
345.838;  -19.900; -331.000; -284.000
345.972;  -35.975; -543.000; -495.000
346.106;  157.900; -179.000; -190.000
346.239;  435.400; -312.000; -243.000
346.373;    0.775; -343.000; -302.000
346.507; -153.125; -950.000; -962.000
346.640;  140.500;  -30.000;   13.000
346.774;  -48.225; -650.000; -797.000
346.908;  -21.325; -138.000;  -11.000
347.041;  -98.700; -646.000; -593.000
347.175;    7.100;  259.000;   27.000
347.309;  -89.700; -698.000; -628.000
347.442; -102.600; -883.000; -732.000
347.576;  295.925;  670.000;  668.000
347.709;  217.175; -123.000;  -52.000
347.843;  -95.525; -933.000; -825.000
347.976;   25.175;  235.000;  294.000
348.110; -183.500;-1268.000;-1186.000
348.243; -104.900; -679.000; -772.000
348.377;    7.450;  -26.000;   60.000
348.510;   57.975;  403.000;  540.000
348.644;  -38.650;  -37.000; -159.000
348.777;    4.850;  180.000;  191.000
348.911;  -71.400; -142.000; -112.000
349.044;  185.650;  471.000;  448.000
349.178;  178.650;-1069.000;-1006.000
349.311;  127.450;  141.000;  255.000
349.444;  -12.575; -927.000; -813.000
349.578;  -17.250; -347.000; -200.000
349.711; -115.400; -959.000; -862.000
349.845;   -5.650; -661.000; -591.000
349.978; -162.800;-1224.000;-1137.000
350.111;  -85.975; -546.000; -612.000
350.244;  -83.025; -596.000; -700.000
350.378;   -0.750; -392.000; -393.000
350.511;  -76.625; -393.000; -426.000
350.644; -103.325; -808.000; -806.000
350.778;    4.575;  168.000;  104.000
350.911;   11.350;  134.000;  140.000
351.044;  -92.575; -685.000; -615.000
351.177;  -41.325; -321.000; -281.000
351.310;  -22.525;    3.000; -131.000
351.444;  -83.175; -888.000; -788.000
351.577;  108.550;  140.000;   90.000
351.710;   90.850;  593.000;  417.000
351.843;  -52.225; -165.000;  -77.000
351.976;   -0.050;  149.000;  -79.000
352.109; -101.600; -621.000; -612.000
352.242;  -15.600; -464.000; -419.000
352.376;  -61.675; -580.000; -636.000
352.509;  185.600; -437.000; -356.000
352.642;   26.950; -654.000; -604.000
352.775;   71.925; -141.000;  -98.000
352.908; -114.000; -933.000; -904.000
353.041; -111.575; -814.000; -824.000
353.174;  -66.825; -551.000; -424.000
353.307;  -84.050; -753.000; -764.000
353.440;   64.650;  541.000;  453.000
353.573; -120.350; -957.000;-1008.000
353.706;  -46.175; -384.000; -558.000
353.839;  -21.525; -264.000; -220.000
353.971;  -80.700; -657.000; -512.000
354.104;  -82.000; -896.000; -835.000
354.237;  -43.925; -627.000; -662.000
354.370;  -93.250; -846.000; -879.000
354.503; -185.375;-1231.000;-1308.000
354.636;  -41.375; -529.000; -348.000
354.769; -138.250; -937.000; -860.000
354.902;  -16.850; -230.000; -139.000
355.034;  -29.050; -164.000; -220.000
355.167;  -23.025; -262.000; -162.000
355.300;  -91.625;-1061.000; -880.000
355.433;  955.450;  -71.000;  -14.000
355.565; 1463.650; -402.000; -384.000
355.698;  372.550; -356.000; -296.000
355.831;   -4.500; -882.000; -801.000
355.964;   83.925; -285.000; -170.000
356.096;  -78.500; -856.000; -843.000
356.229;   12.950; -523.000; -530.000
356.362;  311.325; -373.000; -266.000
356.494;  590.275; -229.000; -162.000
356.627;  508.375;  269.000;  377.000
356.760;  643.675;  120.000;   53.000
356.892;  928.750; -286.000; -601.000
357.025;  711.625;  403.000;  389.000
357.157;  663.700; -167.000; -179.000
357.290;  621.800; -856.000; -713.000
357.423;  198.525; -667.000; -556.000
357.555;  117.350; -217.000; -228.000
357.688;  149.700; -483.000; -364.000
357.820;  483.975; -870.000; -877.000
357.953; 4050.425; -563.000; -589.000
358.085;  907.875; -632.000; -612.000
358.218; 1298.825;-1131.000; -932.000
358.350;  238.400;  -58.000;  312.000
358.483; -135.375;-1300.000;-1187.000
358.615;   -2.125;-1182.000;-1078.000
358.747;  -47.600;-1187.000;-1058.000
358.880;   39.875; -810.000; -744.000
359.012;   -4.550; -376.000; -202.000
359.145;  -51.100; -480.000; -511.000
359.277;   66.450; -962.000; -913.000
359.409; 3368.475;  536.000;  231.000
359.542;  873.875; -738.000; -688.000
359.674;   76.400;   46.000;   13.000
359.806;  -71.025; -565.000; -438.000
359.939;  -47.350; -617.000; -516.000
360.071;  -28.125; -583.000; -579.000
360.203;  -25.450; -411.000; -364.000
360.335;   61.900;  164.000;  -16.000
360.468;  196.100; -249.000; -307.000
360.600; 2690.950; -547.000; -454.000
360.732; 2766.300; -546.000; -423.000
360.864;  359.475;-1216.000;-1044.000
360.996;  321.975; -516.000; -554.000
361.129;   50.150; -389.000; -598.000
361.261;   21.375;  110.000; -113.000
361.393;  -18.250; -252.000; -214.000
361.525;   30.900;   94.000;  244.000
361.657;  -39.250; -821.000; -703.000
361.789;    9.700; -139.000; -155.000
361.921;  259.025; -642.000; -593.000
362.053;  274.150;  524.000;  541.000
362.185;   44.825;  288.000;   72.000
362.318;  -67.875; -709.000; -705.000
362.450;  144.425;  294.000;  444.000
362.582;  134.900; -913.000; -870.000
362.714;  -35.350; -353.000; -332.000
362.846;  -99.225; -606.000; -490.000
362.978; -141.825; -941.000; -811.000
363.109;   46.325; -161.000; -260.000
363.241;  478.700; -739.000; -749.000
363.373;  415.775; -649.000; -564.000
363.505;  627.900; -186.000;  -91.000
363.637;  138.400; -787.000; -601.000
363.769; -129.475;-1067.000;-1080.000
363.901;  -76.525; -596.000; -654.000
364.033; -121.350;-1103.000;-1062.000
364.165;   -1.400; -283.000; -283.000
364.296;   69.725; -316.000; -177.000
364.428;   62.900;-1344.000;-1220.000
364.560;  -84.075; -679.000; -661.000
364.692;  -62.250; -738.000; -835.000
364.824;  281.825; -588.000; -456.000
364.955;  429.800; -402.000; -564.000
365.087;  873.775;-1097.000; -852.000
365.219;   17.050; -686.000; -816.000
365.351;  -72.375; -526.000; -572.000
365.482;   42.425;  300.000;  240.000
365.614;  -57.875; -402.000; -314.000
365.746;  -96.000; -729.000; -752.000
365.877;  -98.425; -706.000; -672.000
366.009;  229.975;  -35.000;  -62.000
366.141;  -87.825;-1249.000;-1134.000
366.272; -114.800; -803.000; -719.000
366.404; -132.825;-1005.000; -874.000
366.535;  -19.600; -139.000;  -12.000
366.667; -106.050; -644.000; -649.000
366.799;   39.575;  353.000;  203.000
366.930; -137.150; -862.000; -996.000
367.062;  116.625; -639.000; -613.000
367.193;  140.550; -872.000; -842.000
367.325;  -68.650; -580.000; -684.000
367.456;   54.375; -246.000;   31.000
367.588;  142.225; -371.000; -318.000
367.719;   22.575;  -44.000;  -45.000
367.851;  -11.975; -222.000; -241.000
367.982;  -49.425; -875.000; -732.000
368.113;  110.625; -475.000; -358.000
368.245; -123.175; -960.000; -841.000
368.376;  -21.450; -254.000; -302.000
368.508;  -30.875; -188.000; -263.000
368.639; -134.275;-1166.000;-1034.000
368.770;  -20.200; -670.000; -589.000
368.902;  -55.050; -836.000; -926.000
369.033; -109.725; -906.000; -855.000
369.164;  -44.075; -720.000; -653.000
369.296; -116.250; -452.000; -601.000
369.427;    0.575; -209.000; -144.000
369.558;  -51.300; -593.000; -377.000
369.689;  -81.900; -721.000; -569.000
369.821; -133.750; -951.000; -845.000
369.952;  -14.025;   42.000; -108.000
370.083;  -56.475; -229.000; -108.000
370.214;  -79.450; -735.000; -650.000
370.345;  -14.950;   65.000;   81.000
370.477;  -95.125; -810.000; -790.000
370.608;  270.975; -328.000; -264.000
370.739;  -47.350;-1233.000;-1292.000
370.870;  -30.750;-1102.000; -923.000
371.001;  102.750; -378.000; -467.000
371.132;  -70.500; -754.000; -735.000
371.263;  -21.975;  -42.000; -148.000
371.394; -150.650; -841.000; -748.000
371.525;   34.200;  345.000;  225.000
371.657; -100.900; -808.000; -670.000
371.788;   76.625;  103.000;  199.000
371.919;  186.300; -384.000; -304.000
372.050; 4039.275;  -91.000; -156.000
372.181; 1183.850; -188.000; -294.000
372.311;  407.000;   42.000; -127.000
372.442;   29.375; -457.000; -451.000
372.573;  -35.300; -444.000; -340.000
372.704; -129.225;-1008.000; -980.000
372.835;   99.275; -228.000; -289.000
372.966;  -63.375; -646.000; -554.000
373.097;  -76.850; -575.000; -711.000
373.228;  -30.475; -717.000; -542.000
373.359;  148.650; -824.000; -536.000
373.490; 1055.225; -881.000; -727.000
373.620; 1314.700;-1001.000; -803.000
373.751; 2000.575; -332.000; -396.000
373.882;  869.725; -663.000; -733.000
374.013;   89.300; -449.000; -262.000
374.143;  -32.675; -581.000; -659.000
374.274; -105.900; -987.000; -908.000
374.405;  190.750; -388.000; -276.000
374.536;  488.975; -526.000; -387.000
374.666; 1265.475; -759.000; -807.000
374.797;  255.950; -817.000; -868.000
374.928;  959.525; -710.000; -560.000
375.058;  991.775; -535.000; -500.000
375.189;   82.450;  -59.000;  -93.000
375.320;  -97.000; -928.000;-1034.000
375.450;  -35.300; -625.000; -616.000
375.581;  -70.325; -526.000; -436.000
375.712;  -35.850; -574.000; -250.000
375.842;  329.875; -438.000; -415.000
375.973;  251.225; -554.000; -513.000
376.103;  -49.250; -665.000; -648.000
376.234;  -94.325; -531.000; -552.000
376.364;  -29.875; -944.000; -867.000
376.495;  347.625;  925.000;  529.000
376.625;    3.775; -472.000; -485.000
376.756;   78.800; -709.000; -678.000
376.886;  -70.400;-1178.000;-1026.000
377.017;   41.550;-1048.000;-1061.000
377.147;  339.225; -786.000; -782.000
377.278;   44.300;  174.000;  228.000
377.408; -135.900; -801.000; -815.000
377.538; -106.375; -707.000; -693.000
377.669;  -80.500; -537.000; -613.000
377.799;  -86.400; -645.000; -635.000
377.929;  -63.250; -610.000; -428.000
378.060; -130.200; -781.000; -847.000
378.190;  -55.025; -726.000; -531.000
378.320;  -55.825; -401.000; -406.000
378.451;  -25.925; -131.000;  -22.000
378.581;  -14.450;  -67.000; -110.000
378.711;  154.125; 1035.000;  866.000
378.841;  -16.350; -533.000; -675.000
378.972;  -70.300; -871.000; -751.000
379.102;  -11.900; -652.000; -579.000
379.232;  -25.400; -126.000;  -73.000
379.362; -107.325;-1001.000; -885.000
379.492;   16.650; -373.000; -424.000
379.623;  130.175;    0.000;  111.000
379.753;  -99.775;-1107.000; -974.000
379.883;  219.575;   59.000;  156.000
380.013;    1.125;-1081.000;-1017.000
380.143;  -87.300;-1097.000;-1056.000
380.273;  -99.550; -985.000; -861.000
380.403;   -6.250; -344.000; -257.000
380.533;  -32.250; -651.000; -664.000
380.663;   66.250;  173.000;  128.000
380.793;  -97.575;-1027.000;-1074.000
380.923;  -11.600; -103.000;  -34.000
381.053; -105.725; -613.000; -623.000
381.183;  -36.825; -106.000; -248.000
381.313;   40.075; -656.000; -470.000
381.443;   55.625; -692.000; -473.000
381.573;  219.800; -402.000; -409.000
381.703;  322.175;-1249.000;-1095.000
381.833; -123.150;-1454.000;-1336.000
381.963;  122.425; -134.000;  -87.000
382.093; 1544.350; -925.000; -909.000
382.223;  458.775; -713.000; -602.000
382.353;  -12.700; -801.000; -608.000
382.482;  427.275;-1091.000; -964.000
382.612;  855.050; -872.000; -644.000
382.742;  482.275; -695.000; -622.000
382.872;  299.450; -565.000; -551.000
383.002;   79.225;  347.000; -132.000
383.131;  -23.675; -226.000; -160.000
383.261;  -50.875; -706.000; -768.000
383.391;  284.000; -552.000; -377.000
383.521; 3121.050;  451.000;  263.000
383.650;  698.475; -947.000; -904.000
383.780;  -13.200; -783.000; -656.000
383.910;  109.675;  880.000;  802.000
384.039;   26.550; -794.000; -656.000
384.169;  259.225;-1205.000;-1017.000
384.299;  -22.350; -650.000; -662.000
384.428;  -90.725; -764.000; -680.000
384.558;  -56.500; -308.000; -275.000
384.687;  -46.225; -414.000; -334.000
384.817;   17.625;   75.000;   -2.000
384.947;   14.725; -234.000; -141.000
385.076;  306.525;  982.000;  912.000
385.206;  114.775;  369.000;  480.000
385.335;  -29.325; -549.000; -417.000
385.465;  -76.475; -655.000; -663.000
385.594;  146.875;  -53.000;  -44.000
385.724;  472.225; -868.000; -838.000
385.853;  130.925; -296.000; -270.000
385.982; 1546.850; -743.000; -787.000
386.112; 2372.125;-1052.000; -871.000
386.241;  159.775; -307.000; -312.000
386.371;   29.375; -174.000;  -87.000
386.500;    7.850; -825.000; -789.000
386.629;   38.600; -874.000; -817.000
386.759;   60.575;  -43.000;   68.000
386.888;  -15.475; -170.000; -250.000
387.017;  -78.225; -648.000; -620.000
387.147;  -85.575; -771.000; -798.000
387.276;   -4.275; -410.000; -397.000
387.405;   22.125; -398.000; -342.000
387.535;  -42.475; -452.000; -361.000
387.664;  -68.350; -692.000; -620.000
387.793;   69.475; -198.000; -113.000
387.922;  566.300;  255.000;  200.000
388.052;   31.400; -576.000; -423.000
388.181;   11.000; -342.000; -472.000
388.310;   -5.100; -889.000; -710.000
388.439;  -38.700; -749.000; -742.000
388.568;  207.200;  365.000;  244.000
388.697; 1164.700; -756.000; -653.000
388.826;  235.225; -768.000; -666.000
388.956;   62.100; -285.000; -307.000
389.085;  -41.450; -347.000; -287.000
389.214; -110.525; -842.000; -872.000
389.343;  -80.875; -645.000; -413.000
389.472;  391.025;  126.000;  149.000
389.601;  515.300;   91.000;    0.000
389.730;   11.175; -568.000; -687.000
389.859;   68.725;  226.000;   46.000
389.988;  216.000; -423.000; -408.000
390.117;  135.900; -168.000; -146.000
390.246;    0.600; -331.000; -320.000
390.375;  106.550; -673.000; -626.000
390.504;  -71.575; -703.000; -621.000
390.633;  -98.700; -672.000; -726.000
390.761;  -83.725; -732.000; -645.000
390.890;   24.900;   -4.000; -130.000
391.019;  -22.075; -421.000; -441.000
391.148; -141.150; -826.000; -855.000
391.277;  -58.100; -576.000; -493.000
391.406;  -77.250; -821.000; -805.000
391.534;    9.200;  574.000; -301.000
391.663;  -67.475; -583.000; -645.000
391.792;  -68.600; -673.000; -701.000
391.921;  114.400;   -3.000;   15.000
392.050;  210.750; -287.000; -228.000
392.178;  -40.025;-1206.000;-1061.000
392.307;  170.775; -758.000; -712.000
392.436;   60.425; -427.000; -641.000
392.564;   27.200;  166.000;   -6.000
392.693; -101.700; -860.000; -682.000
392.822;  231.800; -529.000; -534.000
392.950;   94.375; -880.000; -714.000
393.079;  361.825; -188.000; -328.000
393.208;   17.700; -488.000; -511.000
393.336;  -22.425; -170.000; -145.000
393.465;  -62.150; -317.000; -199.000
393.593;   -3.425;   62.000;   79.000
393.722; -157.975;-1121.000; -916.000
393.850;  -36.025; -188.000;  -61.000
393.979; -171.725; -926.000; -805.000
394.107;  -64.200; -517.000; -537.000
394.236;  -14.125; -570.000; -507.000
394.364;  195.500;  383.000;  206.000
394.493;  261.475; -911.000; -767.000
394.621;  -33.100; -955.000; -916.000
394.750;  679.750; -873.000; -923.000
394.878; 2921.525; -247.000; -149.000
395.007; 3881.175; -721.000; -807.000
395.135;  273.125; -790.000; -721.000
395.263;  -98.525;-1038.000;-1040.000
395.392;    6.525;  -25.000; -107.000
395.520; -142.225; -818.000; -679.000
395.648;  -90.075; -865.000; -915.000
395.777;  -17.175; -366.000; -405.000
395.905;  -47.725; -449.000; -564.000
396.033;    3.850;  217.000;  172.000
396.162;  489.900; -399.000; -453.000
396.290;  410.775;  -17.000;   -2.000
396.418;  110.575; -555.000; -514.000
396.546;  -83.250; -571.000; -466.000
396.674; -101.525; -850.000; -878.000
396.803;   -0.750;  -72.000;  -23.000
396.931;  105.275; -179.000; -199.000
397.059;   69.850;-1026.000; -989.000
397.187; -105.375;-1026.000; -975.000
397.315; -137.775; -884.000; -649.000
397.443; -108.275; -592.000; -443.000
397.572; -109.000; -578.000; -424.000
397.700;   -8.050; -607.000; -614.000
397.828;   32.975;  120.000;  -90.000
397.956;  -54.325; -508.000; -478.000
398.084;  -73.650; -767.000; -626.000
398.212;   38.150;  137.000;  124.000
398.340;    3.100;  -56.000;  159.000
398.468;   33.400; -390.000; -169.000
398.596; -142.050; -993.000; -953.000
398.724; -133.850; -762.000; -767.000
398.852; -179.575;-1024.000; -976.000
398.980;  -76.675; -560.000; -560.000
399.108;  -44.700; -982.000; -735.000
399.236;   34.175;   13.000;    8.000
399.363;   13.400;  222.000;  196.000
399.491;  -75.000; -404.000; -398.000
399.619; -132.275; -829.000; -800.000
399.747; -104.175; -859.000; -771.000
399.875;   73.175;  220.000;  234.000
400.003;  -48.575; -359.000; -284.000
400.130; -107.900; -421.000; -341.000
400.258;  -39.025;  -83.000;   38.000
400.386;  -65.975; -352.000; -168.000
400.514;  -39.775; -526.000; -587.000
400.641;  -86.000; -928.000; -802.000
400.769; -152.375; -979.000; -888.000
400.897; -126.450; -838.000; -793.000
401.025;  -30.875; -166.000; -152.000
401.152;  -10.925;  220.000;   38.000
401.280;  -98.700; -430.000; -429.000
401.408; -123.950; -712.000; -576.000
401.535; -117.600; -735.000; -758.000
401.663; -188.425;-1134.000;-1054.000
401.790;  -94.125; -514.000; -525.000
401.918;   33.550;  436.000;  405.000
402.046;  -30.750;  134.000;  122.000
402.173;  -44.625;  -18.000;    7.000
402.301;  -85.950; -519.000; -397.000
402.428;   37.050;  528.000;  383.000
402.556; -143.275;-1188.000; -913.000
402.683;  -31.275;  -20.000;   -1.000
402.811;  -21.450;  -37.000; -206.000
402.938;  -13.175;   20.000;   27.000
403.066;  238.300; -574.000; -558.000
403.193;  347.750;  299.000;  239.000
403.321;  289.725; -396.000; -574.000
403.448;  357.425;   83.000;   27.000
403.575;  167.250;  -90.000;  -46.000
403.703;  -99.875; -732.000; -557.000
403.830;  -72.625; -531.000; -496.000
403.957; -152.000;-1117.000;-1023.000
404.085;    0.100;  -61.000; -172.000
404.212;   92.275;  -50.000;   63.000
404.339;  266.025; -566.000; -306.000
404.467; 5707.075; -612.000; -524.000
404.594; 3778.225; -287.000; -227.000
404.721;  932.700; -869.000; -764.000
404.848;   72.825; -113.000; -202.000
404.976; -102.400; -856.000; -783.000
405.103;  -17.950;  -14.000;  -82.000
405.230;   -0.500;  190.000;  226.000
405.357;   14.350;  117.000;   44.000
405.484;  272.825;  -49.000;    5.000
405.612;   48.000; -548.000; -563.000
405.739;  -58.950; -488.000; -243.000
405.866;   88.725;  669.000;  385.000
405.993;  -47.500; -398.000; -102.000
406.120; -147.150; -801.000; -887.000
406.247;  -63.775; -323.000; -342.000
406.374;  491.800;  540.000;  629.000
406.501;  124.000; -632.000; -702.000
406.628;  -69.900; -621.000; -589.000
406.755; -103.500; -803.000; -620.000
406.882;  -32.125; -228.000; -277.000
407.009; -119.050; -719.000; -628.000
407.136;   62.575; -480.000; -401.000
407.263;  161.625; -939.000; -829.000
407.390;  -81.800; -692.000; -614.000
407.517; -177.025;-1139.000;-1187.000
407.644;  -79.950; -332.000; -256.000
407.771; -134.925; -249.000; -287.000
407.898;    6.000;  168.000;  328.000
408.025;  -78.875; -421.000; -313.000
408.151;  -17.100;   82.000;  153.000
408.278;  -68.425; -267.000; -216.000
408.405; -119.800; -931.000; -899.000
408.532;  -77.550; -549.000; -542.000
408.659; -108.250; -677.000; -648.000
408.785; -201.300;-1298.000;-1170.000
408.912;  -75.250; -412.000; -296.000
409.039; -113.700; -610.000; -686.000
409.166; -101.300; -591.000; -555.000
409.292; -113.800; -571.000; -534.000
409.419; -123.775; -665.000; -649.000
409.546; -104.900; -431.000; -192.000
409.672; -127.275; -713.000; -545.000
409.799;  -26.600;  -36.000;   34.000
409.926;  -50.325; -180.000; -179.000
410.052; -195.250;-1127.000;-1091.000
410.179;  -59.950; -368.000; -392.000
410.305;  -90.350; -375.000; -493.000
410.432;  -46.525; -220.000; -333.000
410.558;  -93.075; -305.000; -380.000
410.685; -110.825; -688.000; -431.000
410.812; -116.775; -409.000; -588.000
410.938; -142.375; -964.000; -808.000
411.065; -115.075; -671.000; -645.000
411.191;  -22.725; -189.000; -174.000
411.317; -124.950; -823.000; -742.000
411.444;  -73.725; -317.000; -246.000
411.570;  -69.500; -339.000; -294.000
411.697; -144.850; -758.000; -752.000
411.823; -193.700; -989.000; -999.000
411.949;  -42.900;  -56.000;   17.000
412.076; -118.450; -539.000; -519.000
412.202; -129.975; -758.000; -757.000
412.329; -137.200; -798.000; -752.000
412.455; -121.175; -821.000; -657.000
412.581;  -23.075;  -15.000;  172.000
412.707;  -74.275; -540.000; -457.000
412.834;   11.975;  156.000;  219.000
412.960;  -99.850; -785.000; -784.000
413.086; -108.725; -743.000; -701.000
413.212;  142.425;  604.000;  578.000
413.339;  -74.625; -685.000; -701.000
413.465;   -3.175; -364.000; -310.000
413.591;  -89.450; -757.000; -474.000
413.717;  -58.950; -358.000; -366.000
413.843; -142.250; -839.000; -861.000
413.969;  -69.650;  -47.000; -292.000
414.096; -113.375; -679.000; -679.000
414.222;  -14.550;  -33.000;   85.000
414.348;  -27.525; -652.000; -385.000
414.474;   98.850;   38.000;  -52.000
414.600;  -15.975; -126.000; -144.000
414.726;  -26.400;  -96.000;  -55.000
414.852;  -73.750; -365.000; -342.000
414.978;   30.125;  104.000;  -18.000
415.104;   35.700;   38.000;   80.000
415.230;   27.425; -329.000; -330.000
415.356;   31.700; -409.000; -514.000
415.482;  199.225;   13.000;  -35.000
415.608;  249.850; -247.000; -323.000
415.734;  961.725;   67.000;   38.000
415.860;20032.100; -875.000; -767.000
415.986;14045.550; -685.000; -607.000
416.111; 1161.525; -798.000; -652.000
416.237;  231.750; -424.000; -571.000
416.363; 1129.625; -765.000; -733.000
416.489; 4089.075; -324.000; -251.000
416.615;  394.325; -707.000; -742.000
416.741;  -34.350; -677.000; -784.000
416.866;  -99.925; -673.000; -736.000
416.992; -126.050; -801.000; -818.000
417.118;  -40.025;  -41.000;  -80.000
417.244;  -67.575; -798.000; -531.000
417.369;  -83.825; -801.000; -612.000
417.495;   -9.125; -325.000; -254.000
417.621;  -96.550;-1015.000; -803.000
417.746;   -5.550; -579.000; -572.000
417.872;   44.750; -254.000; -144.000
417.998;   31.925; -515.000; -530.000
418.123; 1050.775;-1073.000; -845.000
418.249; 5271.575; -512.000; -601.000
418.374;  694.425; -916.000; -824.000
418.500;   85.075; -383.000; -482.000
418.626;   93.925;   70.000;  -59.000
418.751;  117.750; -549.000; -448.000
418.877;  182.450; -637.000; -643.000
419.002; 1823.750; -688.000; -560.000
419.128;12336.075; -930.000; -721.000
419.253; 2865.900; -967.000; -837.000
419.379;  358.975; -391.000; -338.000
419.504;  373.975;  325.000;  415.000
419.629;  483.950; -393.000; -212.000
419.755; 3551.225; -317.000; -254.000
419.880;20587.425;  -98.000;   67.000
420.006;11293.950; -280.000; -221.000
420.131;28844.325; -662.000; -775.000
420.256; 3995.100; -315.000; -316.000
420.382;  513.725; -665.000; -687.000
420.507;   37.875; -649.000; -778.000
420.632;  152.775; -337.000; -339.000
420.758;  280.325; -251.000; -425.000
420.883;  -94.225; -876.000; -672.000
421.008; -106.375; -775.000; -619.000
421.133;  -86.200; -509.000; -467.000
421.259;  -57.500; -325.000; -259.000
421.384; -118.650; -834.000; -693.000
421.509;  -45.775;-1052.000; -862.000
421.634; 1340.075; -936.000; -820.000
421.759;  566.725; -359.000; -327.000
421.885;  -54.875; -717.000; -656.000
422.010;  -75.550; -673.000; -542.000
422.135; -143.175; -695.000; -727.000
422.260;   26.750;  340.000;  280.000
422.385;  -33.300;   12.000;  -98.000
422.510;   15.500;  151.000;  -26.000
422.635;    6.250;  -87.000;  -43.000
422.760;   95.800; -766.000; -791.000
422.885;   50.200;  -57.000;  -80.000
423.010;  -38.075; -112.000; -169.000
423.135; -104.125; -481.000; -561.000
423.260;  -30.250; -150.000; -245.000
423.385;   64.075;  476.000;  222.000
423.510;   37.400;   71.000;  -22.000
423.635;   71.800;  133.000;   45.000
423.760;   55.900;  383.000;  328.000
423.885;   49.625;  336.000;  391.000
424.010;   17.575;  -68.000;  -13.000
424.135;  -12.725;    5.000;  -33.000
424.259;  -99.025; -654.000; -457.000
424.384;  -83.475; -279.000; -272.000
424.509;  -39.875; -260.000; -186.000
424.634; -110.050; -761.000; -623.000
424.759;  -19.675; -688.000; -544.000
424.883;  -19.800; -506.000; -527.000
425.008;  165.275; -502.000; -410.000
425.133; 2003.750; -679.000; -653.000
425.258;  876.425; -517.000; -381.000
425.382; 1167.150; -867.000; -774.000
425.507; 2852.300; -487.000; -543.000
425.632;  435.500; -802.000; -663.000
425.756;  446.375; -256.000; -146.000
425.881; 6506.675; -831.000; -857.000
426.006;16927.500; -604.000; -355.000
426.130; 2614.000; -696.000; -508.000
426.255;  333.675; -611.000; -491.000
426.379;  143.050; -189.000; -577.000
426.504;  353.375;  660.000;  544.000
426.629; 4018.425; -519.000; -466.000
426.753; 2683.525;   64.000;  -46.000
426.878;  273.675; -252.000; -288.000
427.002;  170.250; -651.000; -668.000
427.127; 1624.200;  -35.000; -158.000
427.251;11247.500;  372.000;  401.000
427.375; 3094.275; -191.000; -173.000
427.500; 2507.300; -616.000; -610.000
427.624;  836.075; -234.000; -400.000
427.749;   89.775; -216.000; -225.000
427.873;  -43.875; -499.000; -412.000
427.997;  -52.225; -222.000; -230.000
428.122;   63.525;  795.000;  703.000
428.246;   85.950;  433.000;  434.000
428.371; -132.625; -869.000; -773.000
428.495; -100.325; -624.000; -646.000
428.619;  -22.825; -186.000; -117.000
428.743;    9.950;   65.000;  132.000
428.868;   45.525; -732.000; -643.000
428.992; 1560.150; -219.000; -326.000
429.116;  604.900; -329.000; -357.000
429.240;  299.525;  419.000;  426.000
429.365;  -28.550; -454.000; -574.000
429.489;  -51.425; -638.000; -647.000
429.613;   10.900; -236.000; -177.000
429.737;   31.575; -563.000; -432.000
429.861;  259.925; -247.000; -133.000
429.985; 5599.325; -425.000; -305.000
430.109; 5920.275; -770.000; -908.000
430.234;  657.250;   76.000;  -50.000
430.358;   53.775; -250.000; -160.000
430.482;  -87.150; -672.000; -564.000
430.606;  -76.575; -655.000; -375.000
430.730;    8.850; -437.000; -388.000
430.854;  140.700; -909.000; -835.000
430.978;  -84.175; -795.000; -764.000
431.102;  -97.550; -499.000; -422.000
431.226; -130.800; -874.000; -815.000
431.350;   33.875;  345.000;  422.000
431.474;  -80.325; -661.000; -373.000
431.597; -161.650;-1060.000; -848.000
431.721;  -82.975; -276.000; -267.000
431.845; -144.700; -704.000; -472.000
431.969;  -89.150; -304.000; -349.000
432.093; -108.800; -395.000; -317.000
432.217;  -33.125;   32.000;   82.000
432.341;  -95.075; -523.000; -518.000
432.464;    8.575;   96.000;   40.000
432.588;  221.150; -401.000; -329.000
432.712;  111.875;  -52.000;  -52.000
432.836;   57.400;  213.000;  263.000
432.959;  -13.475; -372.000; -311.000
433.083;   73.400;   11.000;    2.000
433.207;  354.925;  285.000;  930.000
433.330; 5057.575; -391.000; -200.000
433.454; 5979.625; -654.000; -638.000
433.578; 3489.900;  583.000;  278.000
433.701;  609.900; -623.000; -675.000
433.825;  141.650; -292.000; -299.000
433.949;  209.050;   28.000;  -72.000
434.072;   54.700; -410.000; -323.000
434.196;  -18.575; -309.000; -117.000
434.319; 3812.350;25482.000;25124.000
434.443;  774.850; -656.000; -603.000
434.566; 2599.225;  281.000;   62.000
434.690;  404.200; -637.000; -383.000
434.813;   43.925; -251.000; -173.000
434.937;  -77.525; -569.000; -696.000
435.060;  -42.675; -423.000; -332.000
435.184;  376.775; -492.000; -217.000
435.307;  185.925;  159.000;  102.000
435.431;  -21.600;  -40.000;   24.000
435.554;  -75.325; -399.000; -240.000
435.677;  -90.475; -350.000; -258.000
435.801;  -39.975;  -25.000;   49.000
435.924;  -18.125;    1.000;  -67.000
436.048; -119.250;-1019.000; -732.000
436.171;  -77.925; -240.000;  -66.000
436.294;  -45.875; -248.000; -229.000
436.417;   86.825; -963.000; -849.000
436.541;  -93.425; -814.000; -840.000
436.664;  -65.300; -242.000; -316.000
436.787;  -35.700;   13.000;  113.000
436.910; -123.025; -792.000; -422.000
437.034;   19.000;  142.000;  143.000
437.157;   69.700;  -11.000;    0.000
437.280;  -57.350; -392.000; -292.000
437.403;  -81.900; -982.000; -869.000
437.526;  740.225; -903.000; -865.000
437.649; 2584.150; -505.000; -332.000
437.772;  360.525; -692.000; -540.000
437.896;  115.350;  700.000;  544.000
438.019; -107.850; -758.000; -503.000
438.142;  -88.575; -596.000; -506.000
438.265;  -11.450; -639.000; -670.000
438.388;  629.650; -520.000; -410.000
438.511;  110.025; -597.000; -394.000
438.634;  -57.700; -247.000; -125.000
438.757; -154.075; -693.000; -619.000
438.880;  -22.250;  -34.000;  -57.000
439.003;  -74.050; -417.000; -437.000
439.126;  -74.725; -287.000; -167.000
439.248;  -71.200;  -98.000; -139.000
439.371;  -44.725;    9.000;  -53.000
439.494;   16.175;  510.000;  439.000
439.617;  -69.450;   65.000;  -88.000
439.740; -180.300; -968.000; -816.000
439.863; -147.800; -755.000; -595.000
439.986; -131.575; -476.000; -431.000
440.108;  -47.650; -161.000; -112.000
440.231; -159.125; -950.000; -836.000
440.354;  -48.300;  -64.000; -150.000
440.477;   49.375; -566.000; -542.000
440.599;    7.475; -200.000; -225.000
440.722; -142.600; -709.000; -586.000
440.845;   71.050;  751.000;  928.000
440.968; -122.950; -415.000; -311.000
441.090;  -82.500; -199.000;  -33.000
441.213; -178.200;-1021.000; -825.000
441.336;  -58.450; -159.000;   -5.000
441.458;  -83.375; -549.000; -396.000
441.581;  -98.225; -628.000; -629.000
441.703;  -83.250; -152.000;   13.000
441.826; -114.850; -557.000; -400.000
441.948;  -61.650;   56.000;   51.000
442.071;   24.825;  555.000;  424.000
442.193; -122.250; -531.000; -485.000
442.316;   11.200;  152.000;   97.000
442.438;   31.375; -233.000;  -10.000
442.561;   78.525;  272.000;  262.000
442.683;  618.775; -809.000; -522.000
442.806; 1323.250;   -8.000;   74.000
442.928;   30.025; -859.000; -604.000
443.051;  -77.475; -577.000; -373.000
443.173;  -92.825; -341.000; -339.000
443.295;  -89.600; -263.000; -371.000
443.418;  -85.450; -321.000;  -29.000
443.540;    1.075; -106.000;   -4.000
443.662; -139.925; -563.000; -465.000
443.785;   -8.000;  335.000;  199.000
443.907; -124.700; -362.000; -208.000
444.029; -141.300; -767.000; -494.000
444.152; -153.075; -644.000; -554.000
444.274;  -41.625;  -18.000;  -24.000
444.396; -120.650; -461.000; -221.000
444.518; -144.925; -691.000; -454.000
444.640; -112.875; -268.000; -111.000
444.763;  -25.025;  388.000;  249.000
444.885; -127.250; -432.000; -392.000
445.007;  -34.350;   35.000;   86.000
445.129; -128.200; -610.000; -515.000
445.251; -108.325; -372.000; -439.000
445.373; -141.775; -537.000; -386.000
445.495;    3.175;  242.000;  350.000
445.617;   46.850;  853.000;  753.000
445.739;  -70.000; -215.000;  -97.000
445.861;  -37.325; -245.000; -112.000
445.984;  -42.725; -267.000; -101.000
446.105;  229.325; -418.000; -251.000
446.227;  678.750; -176.000;  -19.000
446.349;    7.025; -358.000; -249.000
446.471; -107.800; -615.000; -448.000
446.593;  -71.975; -316.000;   19.000
446.715;   -5.625;  -67.000;   41.000
446.837;   46.725;  697.000;  832.000
446.959; -110.125; -457.000; -478.000
447.081; -150.800; -628.000; -518.000
447.203;   47.850;  862.000;  834.000
447.325;  -90.750; -270.000;   42.000
447.446;  -12.275;  286.000;  530.000
447.568; -154.875; -921.000; -803.000
447.690;  -76.475; -236.000; -245.000
447.812; -157.675; -798.000; -519.000
447.933;  -23.775;  155.000;  127.000
448.055;  -79.675; -306.000; -261.000
448.177;  176.125;   31.000;   79.000
448.299;   96.125; -935.000; -727.000
448.420;   29.075;  -25.000;  159.000
448.542;  -48.000;   -3.000;   33.000
448.664;  -27.025;  109.000;  322.000
448.785;  -45.925;  265.000;   83.000
448.907;  -72.575; -614.000; -353.000
449.028;  -37.550; -771.000; -471.000
449.150;   61.525;  492.000;  589.000
449.272; -194.125;-1044.000; -913.000
449.393;   28.000;  612.000;  694.000
449.515; -152.375; -634.000; -581.000
449.636;  -50.950; -264.000; -155.000
449.758;   46.075;  763.000;  622.000
449.879; -106.425; -498.000; -396.000
450.001;  -84.075; -149.000;  -49.000
450.122;  -35.775;  -95.000;  162.000
450.244;  -39.125;   37.000;  364.000
450.365; -101.625; -495.000; -301.000
450.486;  -50.850;   80.000;  268.000
450.608;   -0.250;  393.000;  326.000
450.729;   60.750;  578.000;  645.000
450.850;   -5.900; -574.000; -466.000
450.972;  737.200; -552.000; -389.000
451.093; 4816.700;  190.000;  588.000
451.214; 1971.375; -516.000; -337.000
451.336;  364.750;  773.000;  579.000
451.457;   51.500;  264.000;  393.000
451.578;  -43.275; -118.000;  -74.000
451.699; -139.725; -546.000; -540.000
451.821;  -72.950; -284.000;  -50.000
451.942;  -16.100;  278.000;  285.000
452.063;   32.850;  228.000;  419.000
452.184;  521.200;  -54.000;  -49.000
452.305; 1051.825;  103.000;  170.000
452.427;  103.525; -549.000; -301.000
452.548;  -25.300;   23.000;   79.000
452.669;  -57.425; -257.000;  -89.000
452.790;  -30.850;    3.000;  -18.000
452.911;  -13.550;  195.000;  259.000
453.032;  -69.800; -289.000;  -60.000
453.153;  -59.125;  -29.000;   81.000
453.274;   55.375;  737.000;  868.000
453.395;  -78.025;  -51.000;  175.000
453.516;  119.700; 1317.000; 1388.000
453.637;  -75.750; -205.000; -150.000
453.758;  -57.300;   15.000;   69.000
453.879; -134.525; -462.000; -250.000
454.000;   81.000; 1086.000;  948.000
454.121; -122.100; -554.000; -326.000
454.242; -135.750; -599.000; -383.000
454.362;  -56.725;  -99.000;  114.000
454.483;  -52.650; -309.000; -229.000
454.604;   39.875;  512.000;  580.000
454.725; -142.025; -627.000; -555.000
454.846; -128.300; -474.000; -406.000
454.967;  -24.375;  230.000;  539.000
455.087;  -55.275;  179.000;  153.000
455.208;   11.750;  554.000;  856.000
455.329;  -66.200;  -22.000;   82.000
455.450;   30.675;  473.000;  633.000
455.570;  -84.250; -234.000; -211.000
455.691;  -41.175;  201.000;  407.000
455.812; -117.575; -270.000;  -92.000
455.932;  -79.775;  107.000;  -97.000
456.053; -105.225;   36.000;   24.000
456.173; -123.325; -433.000; -355.000
456.294; -138.875; -476.000; -303.000
456.415;  -73.775;  -73.000;   70.000
456.535;  -50.475;  297.000;  273.000
456.656;  -38.100;  132.000;  240.000
456.776;  -89.400;    3.000;  298.000
456.897;  -13.725;  308.000;  513.000
457.017;  -86.275; -153.000;   -3.000
457.138; -114.700; -402.000; -249.000
457.258;  -23.325;  263.000;  224.000
457.379;  -32.100;  509.000;  521.000
457.499;  -48.500;  443.000;  432.000
457.620; -124.600; -407.000; -231.000
457.740; -109.500; -132.000;  -11.000
457.860;  -66.850;   87.000;   44.000
457.981;  -45.725;  132.000;  124.000
458.101;  -75.550;  -89.000;   40.000
458.221;  -11.850;  336.000;  402.000
458.342;  -74.075;   -4.000;  -37.000
458.462;   12.000;  617.000;  352.000
458.582;  -45.775; -302.000; -294.000
458.703;  -13.800;  303.000;  154.000
458.823;  -27.900;   22.000;  163.000
458.943;    6.100;  341.000;  467.000
459.063;  -20.300; 1124.000;  192.000
459.183;  -24.050;  328.000;  313.000
459.304;    8.275;  315.000;  517.000
459.424;  -65.475; -246.000;  -89.000
459.544;  323.800;  388.000;  764.000
459.664;  797.425;  499.000;  506.000
459.784;  301.850; 1004.000; 1175.000
459.904;   44.300;  867.000;  744.000
460.024;   56.425;  867.000;  684.000
460.144;    2.650;  449.000;  554.000
460.264;    0.125;  515.000;  327.000
460.385; -100.950; -145.000; -119.000
460.505;   21.100;  905.000;  858.000
460.625; -101.225;  -17.000;  -68.000
460.745;  -28.450;  396.000;  541.000
460.864;  -50.900;  153.000;  469.000
460.984;    6.700;  499.000;  573.000
461.104;  113.850; 1656.000; 1775.000
461.224;    5.725;  657.000;  650.000
461.344;  -39.275;  431.000;  360.000
461.464;  -45.050;  258.000;  513.000
461.584;  -20.175;  283.000;  466.000
461.704;  -53.950;   58.000;  108.000
461.824;  -66.150;  238.000;  259.000
461.943;  -54.425;  191.000;  130.000
462.063;  -84.875;    2.000;  324.000
462.183;   29.450;  639.000;  717.000
462.303;  103.000; 1678.000; 1230.000
462.422;   24.125;  781.000;  840.000
462.542;  -63.250;  271.000;  391.000
462.662;   35.100;  353.000;  380.000
462.782;  243.600;  833.000;  572.000
462.901;  471.375;  545.000;  717.000
463.021;  262.225; 1702.000; 1638.000
463.141;  -16.550;  337.000;  770.000
463.260;  -16.000;  614.000;  474.000
463.380;   15.200;  902.000;  884.000
463.499;  -54.150;  342.000;  332.000
463.619;  -43.525;  581.000;  559.000
463.738;  115.400; 1644.000;  903.000
463.858;   11.675;  657.000;  811.000
463.978;  -37.825;  542.000;  396.000
464.097;   54.850;  921.000; 1114.000
464.217;  101.900; 1196.000; 1143.000
464.336;  105.475; 1068.000; 1130.000
464.455;  -49.200;  328.000;  659.000
464.575;   34.450;  597.000;  602.000
464.694;  180.525; 1204.000; 1179.000
464.814;  137.750; 1190.000; 1138.000
464.933;   60.325; 1095.000; 1027.000
465.052;   88.000; 1412.000; 1054.000
465.172;   86.450;  922.000;  799.000
465.291;  142.600; 1376.000; 1320.000
465.410;    4.475;  462.000;  735.000
465.530;   80.925; 1355.000; 1310.000
465.649;   75.675; 1209.000; 1273.000
465.768;  132.500; 1673.000; 1508.000
465.888;   27.775;  941.000; 1174.000
466.007;   72.325; 1335.000; 1440.000
466.126;   -4.500;  721.000;  641.000
466.245;   46.725; 1176.000; 1187.000
466.364;   19.600;  950.000; 1060.000
466.484;   58.125; 1024.000; 1213.000
466.603;   20.150; 1101.000; 1222.000
466.722;  121.300; 1490.000; 1769.000
466.841;   68.675; 1151.000; 1401.000
466.960;   29.000; 1069.000;  972.000
467.079;  121.600; 1971.000; 1786.000
467.198;   47.050; 1238.000; 1181.000
467.317;   71.600; 1768.000; 1162.000
467.436;   67.250; 1709.000; 1261.000
467.555;  121.125; 1796.000; 1746.000
467.674;   61.425; 1227.000; 1329.000
467.793;   47.550; 1376.000; 1374.000
467.912;   96.025; 1658.000; 1539.000
468.031;  143.725; 2038.000; 1930.000
468.150;  125.775; 1842.000; 1837.000
468.269;  201.725; 2313.000; 2090.000
468.388;  191.675; 2168.000; 2339.000
468.507;  233.750; 2884.000; 2903.000
468.626;  238.850; 2555.000; 2541.000
468.744;  132.700; 2018.000; 2174.000
468.863;  183.100; 2312.000; 2523.000
468.982;   80.375; 1503.000; 1555.000
469.101;  220.975; 2788.000; 2692.000
469.220;  138.225; 2333.000; 2176.000
469.338;  237.950; 2935.000; 3051.000
469.457;  163.650; 2719.000; 2545.000
469.576;  350.600; 3953.000; 3784.000
469.695;  230.250; 2877.000; 3066.000
469.813;  405.775; 4148.000; 4192.000
469.932;  413.900; 4255.000; 4485.000
470.051;  419.100; 4075.000; 4161.000
470.169;  854.075; 4470.000; 4338.000
470.288; 1446.025; 4700.000; 4809.000
470.406;  827.450; 5059.000; 5194.000
470.525;  639.950; 6101.000; 5787.000
470.644;  646.400; 6847.000; 6794.000
470.762;  805.825; 8397.000; 7873.000
470.881;  920.800; 8651.000; 8464.000
470.999; 1030.250; 9685.000; 9151.000
471.118; 1123.425;11174.000;10711.000

