
Integration time [ms]: 100.000
Averaging Nr. [scans]: 40
Smoothing Nr. [pixels]: 0
Data measured with spectrometer [name]: 2101012U2
Wave   ;Sample   ;Dark     ;Reference
[nm]   ;[counts] ;[counts] ;[counts] 

197.733;   42.675;  516.000;  404.000
197.879;  -76.250; -610.000; -634.000
198.025;  -43.325; -475.000; -420.000
198.171;  -63.350; -602.000; -612.000
198.317;  -31.100; -401.000; -316.000
198.463;  -71.900; -655.000; -404.000
198.609;   24.500;  181.000; -137.000
198.755;  -85.225; -644.000; -410.000
198.901;  -59.000; -505.000; -424.000
199.047;  -62.025; -615.000; -488.000
199.193;  -37.700; -230.000; -468.000
199.339;  -30.275; -222.000; -369.000
199.485;   43.500;  330.000;  271.000
199.631;   21.775;  227.000;  310.000
199.777;  -43.900; -466.000; -398.000
199.923;  -57.850; -610.000; -424.000
200.069;  -10.525; -141.000;  -58.000
200.215;   60.150;  128.000;  453.000
200.361;   47.750;  243.000;  477.000
200.507;  -66.200; -600.000; -373.000
200.653;  -18.250; -371.000; -194.000
200.798;  -40.325; -215.000; -125.000
200.944;    5.100; -146.000;  -41.000
201.090;   32.925;   61.000;  222.000
201.236;   11.950; -116.000; -158.000
201.382;  123.850;  874.000;  903.000
201.528;  -10.150;  -58.000;  -48.000
201.674;  -34.350; -386.000; -293.000
201.819;  -61.900; -540.000; -439.000
201.965;  -79.350; -699.000; -447.000
202.111;  -12.950; -273.000; -226.000
202.257;  -18.850; -250.000; -238.000
202.402;   17.425;   13.000;  -36.000
202.548;  -27.900; -169.000; -116.000
202.694;   84.025;  410.000; -183.000
202.840;  -68.950; -603.000; -531.000
202.985;  -70.275; -681.000; -639.000
203.131; -104.475; -832.000; -666.000
203.277;  -37.000; -199.000; -262.000
203.423;  -51.075; -434.000; -520.000
203.568;  -34.700; -462.000; -237.000
203.714;  -48.050; -535.000; -542.000
203.860;  -85.300; -682.000; -641.000
204.005;   10.000;  112.000;  167.000
204.151;   68.100;  561.000;  556.000
204.296;  -44.500; -354.000; -221.000
204.442;  -66.775; -600.000; -547.000
204.588;  -82.925; -592.000; -579.000
204.733;   19.375;  178.000;  168.000
204.879; -129.025;-1018.000; -822.000
205.025;   21.550;  -99.000;  126.000
205.170;   13.075;  -17.000;   94.000
205.316;   79.550;  438.000;  661.000
205.461;  -81.875; -698.000; -554.000
205.607;   84.325;  609.000;  665.000
205.752;  -79.125; -626.000; -551.000
205.898;  -49.875; -501.000; -391.000
206.043;  -55.450; -578.000; -506.000
206.189;  -40.075; -243.000; -285.000
206.334;   88.075;  554.000;  606.000
206.480;   76.350;  409.000;  239.000
206.625;  -95.025; -529.000; -552.000
206.771;  -51.875; -451.000; -373.000
206.916;  -28.875; -210.000; -537.000
207.062;  -59.375; -545.000; -591.000
207.207;  -51.225; -546.000; -443.000
207.353;   43.300;  185.000;  460.000
207.498;    9.675;  196.000;   85.000
207.643;  -55.175; -501.000; -370.000
207.789; -129.350;-1069.000; -910.000
207.934;  -98.575; -665.000; -713.000
208.080;  -34.625; -154.000;   66.000
208.225;   -4.025;  -22.000;  -57.000
208.370;  -77.025; -727.000; -619.000
208.516;  -84.975; -741.000; -487.000
208.661;  -22.400; -127.000;  -69.000
208.806;  -21.350; -165.000; -171.000
208.952; -130.550;-1044.000; -731.000
209.097;   71.050;  378.000;  349.000
209.242;  -35.050; -307.000; -382.000
209.387;   57.600;  392.000;  350.000
209.533;  -62.025; -321.000; -350.000
209.678;   72.350;  472.000;  543.000
209.823;  -57.425; -408.000; -310.000
209.969; -102.150; -860.000; -757.000
210.114; -111.600; -907.000; -719.000
210.259; -115.150; -939.000; -889.000
210.404;  -12.825; -171.000;  103.000
210.549;    1.525;  108.000;    3.000
210.695;  -17.025;   -3.000;  -95.000
210.840;   28.650;   94.000;   67.000
210.985;  -63.875; -484.000; -303.000
211.130;   76.300;  268.000;  406.000
211.275;   24.375;  207.000;  199.000
211.420;  -52.775; -300.000; -289.000
211.566;  -67.875; -536.000; -489.000
211.711;   41.100;  218.000;  157.000
211.856;  -73.950; -545.000; -519.000
212.001;    7.175;  151.000;   44.000
212.146;   26.700;  153.000;   49.000
212.291;  -19.900; -210.000; -186.000
212.436;  -15.925; -280.000;   -6.000
212.581;  -78.800; -685.000; -653.000
212.726;  -76.200; -487.000; -538.000
212.871;  -46.750; -552.000; -217.000
213.016; -158.250;-1172.000;-1029.000
213.161;   62.625;  406.000;  291.000
213.306;  -89.725; -435.000; -577.000
213.451;  -93.725; -778.000; -689.000
213.596;  -46.350; -455.000; -347.000
213.741;  -51.075; -448.000; -538.000
213.886;  -74.250; -498.000; -517.000
214.031;  -28.025; -294.000; -124.000
214.176;  -48.375; -408.000; -341.000
214.321;  -28.025; -296.000; -157.000
214.466;  -14.500; -163.000;  -43.000
214.611;   -8.100;  -61.000;  -10.000
214.756; -125.300; -948.000; -858.000
214.901;  -23.825; -388.000; -226.000
215.046; -113.750; -797.000; -825.000
215.191;   26.250;  128.000;   35.000
215.336;  -20.525; -157.000;  -19.000
215.480;  -69.800; -684.000; -505.000
215.625;   -6.825; -175.000;  -19.000
215.770;  -78.000; -757.000; -662.000
215.915;    0.075;   -5.000;  -97.000
216.060;  -15.375; -113.000;  -21.000
216.205; -110.125; -731.000; -779.000
216.349;  -70.275; -470.000; -533.000
216.494; -127.750; -939.000; -867.000
216.639; -109.075; -823.000; -888.000
216.784;  -77.050; -577.000; -525.000
216.929;   50.150;  392.000;  281.000
217.073;  -17.550; -244.000;  -31.000
217.218;   10.825;   78.000;  -47.000
217.363;  -91.925; -656.000; -618.000
217.507;  -81.625; -623.000; -588.000
217.652; -115.650; -845.000; -874.000
217.797;  -95.125; -708.000; -659.000
217.942; -111.950; -856.000; -720.000
218.086;   88.775;  608.000;  539.000
218.231;  -20.175; -174.000;  -26.000
218.376;  -40.050; -337.000; -229.000
218.520;    2.725;  -41.000;   96.000
218.665;  -48.800; -338.000; -204.000
218.810;  -52.250; -275.000; -233.000
218.954;   29.625;  201.000;   35.000
219.099; -112.500; -713.000; -963.000
219.243;  -72.150; -589.000; -554.000
219.388;  -28.250; -264.000; -136.000
219.532;  -10.500; -116.000; -116.000
219.677;  -89.650; -564.000; -521.000
219.822;   -3.550;   33.000;   89.000
219.966;   -4.800;   17.000;  -99.000
220.111;  -22.550; -328.000;  -40.000
220.255; -100.600; -797.000; -750.000
220.400;  -20.775; -180.000; -146.000
220.544;  -65.150; -516.000; -450.000
220.689;  -50.425; -422.000; -451.000
220.833;  -21.450; -123.000;  -58.000
220.978;  -34.850; -393.000; -563.000
221.122;   28.000;  319.000;  307.000
221.267; -107.475; -906.000; -837.000
221.411;  -66.825; -478.000; -394.000
221.555;   -3.350; -104.000;  -23.000
221.700;  -45.675; -329.000; -222.000
221.844;   27.825;  255.000;  272.000
221.989;  -30.575; -328.000; -311.000
222.133;  -31.700; -289.000; -307.000
222.277;  -16.975;    5.000;   78.000
222.422;   24.650;  227.000;  113.000
222.566;  -30.200; -381.000; -214.000
222.711;  -64.300; -414.000; -479.000
222.855;  -72.625; -643.000; -586.000
222.999;  -88.350; -642.000; -717.000
223.144;  -30.825; -195.000; -194.000
223.288;   51.400;  423.000;  251.000
223.432;   24.825;  184.000;  230.000
223.576;   15.625;  152.000;  -21.000
223.721;   38.225;  364.000;  273.000
223.865;  -64.625; -472.000; -475.000
224.009;  202.300; 1673.000; 1631.000
224.153;  -78.100; -660.000; -671.000
224.298;  -68.900; -531.000; -489.000
224.442;  -16.825;  -74.000;  -33.000
224.586;  -11.550; -169.000; -106.000
224.730;  -96.800; -858.000; -670.000
224.875; -102.725; -739.000; -688.000
225.019;    3.850;  102.000;  188.000
225.163;   48.800;  208.000;  341.000
225.307;   16.375;   97.000;  -91.000
225.451;   59.325;  360.000;  481.000
225.595;   36.075;  264.000;  176.000
225.739;  -17.925; -170.000;  -94.000
225.884;   13.575;   86.000;    5.000
226.028; -110.000; -760.000; -626.000
226.172;  -36.550; -260.000; -273.000
226.316; -120.450; -941.000; -902.000
226.460;  -54.925; -645.000; -493.000
226.604;  -52.550; -406.000; -400.000
226.748; -106.800; -836.000; -733.000
226.892;  -25.300; -227.000; -181.000
227.036;  -47.600; -537.000; -447.000
227.180;  -48.700; -551.000; -375.000
227.324;  -69.475; -561.000; -580.000
227.468; -124.000; -819.000; -717.000
227.612;   11.575;  242.000;  -28.000
227.756; -113.375; -845.000; -698.000
227.900;   50.000;  342.000;  441.000
228.044;  -69.125; -509.000; -290.000
228.188;   57.700;  448.000;  568.000
228.332;  -81.375; -546.000; -472.000
228.476;  -21.050; -223.000; -149.000
228.620;  -33.700; -210.000; -150.000
228.764;   60.275;  431.000;  349.000
228.908;  -21.525; -155.000;   30.000
229.052;  -64.600; -615.000; -528.000
229.195;   -0.850; -172.000;   13.000
229.339;  -28.625; -235.000; -305.000
229.483;  -21.800;    5.000; -162.000
229.627;    7.225; -156.000;  139.000
229.771;  -56.075; -218.000; -294.000
229.915;   17.250;  230.000;   79.000
230.059;  -97.750; -648.000; -663.000
230.202;  -32.700; -370.000; -317.000
230.346;  -17.575; -107.000;  107.000
230.490;  -70.575; -489.000; -521.000
230.634; -110.525; -736.000; -553.000
230.777;   80.825;  478.000;  509.000
230.921;  -67.925; -450.000; -359.000
231.065;  -40.450; -246.000; -286.000
231.209;   14.225;  261.000;  265.000
231.352;   19.525;   54.000;   40.000
231.496;   22.000;  568.000;  188.000
231.640;  -78.375; -693.000; -621.000
231.783;   74.575;  546.000;  525.000
231.927;  -28.850; -294.000; -365.000
232.071; -128.850; -962.000; -736.000
232.214; -122.600; -980.000; -764.000
232.358; -109.200; -683.000; -599.000
232.502;    5.150;  -19.000;    7.000
232.645; -133.675;-1090.000; -927.000
232.789;  -26.275; -257.000; -218.000
232.933;  -45.175; -407.000; -224.000
233.076; -125.300;-1038.000; -897.000
233.220; -101.600; -752.000; -777.000
233.363;  -80.575; -669.000; -477.000
233.507;   49.850;  371.000;  129.000
233.650;  -85.425; -764.000; -834.000
233.794;   42.450;  438.000;  461.000
233.938;  -43.850; -530.000; -362.000
234.081;  -24.425;  -93.000;   31.000
234.225;  -59.175; -631.000; -539.000
234.368;  -99.425; -773.000; -723.000
234.512;  -42.700; -385.000; -299.000
234.655;  -76.375; -582.000; -555.000
234.798;  -58.250; -493.000; -466.000
234.942; -133.575; -884.000;-1002.000
235.085;  -81.450; -651.000; -443.000
235.229;  -72.250; -405.000; -410.000
235.372;  -41.775; -247.000; -191.000
235.516;  -51.675; -397.000; -321.000
235.659;   27.700;   92.000;  121.000
235.802;  -10.600;  -38.000;  -22.000
235.946;   24.375;  335.000;  215.000
236.089;   20.000;  126.000;  250.000
236.233;   57.175;  275.000;  298.000
236.376;  -58.950; -235.000; -378.000
236.519;  -41.850; -297.000; -319.000
236.663;  -22.925; -215.000; -117.000
236.806; -127.375;-1029.000; -999.000
236.949;   64.650;  543.000;  431.000
237.092;   61.750;  412.000;  391.000
237.236;  -90.275; -589.000; -502.000
237.379;   76.175;  352.000;  428.000
237.522; -128.950; -879.000; -768.000
237.666;   -7.175; -271.000;   18.000
237.809; -128.725; -851.000; -823.000
237.952;   38.725;  469.000;  271.000
238.095;  -74.700; -447.000; -442.000
238.238;   76.675;  688.000;  700.000
238.382;   -6.575;  166.000;  103.000
238.525;  -57.900; -598.000; -511.000
238.668; -145.250;-1060.000; -985.000
238.811;  -82.950; -638.000; -643.000
238.954;  -73.800; -483.000; -334.000
239.097;   97.500;  617.000;  664.000
239.241;   19.275;  394.000;  326.000
239.384;  -31.775; -254.000; -214.000
239.527;  -64.850; -424.000; -224.000
239.670; -140.400; -994.000;-1091.000
239.813; -112.025; -696.000; -658.000
239.956;   85.375;  579.000;  473.000
240.099; -114.375; -778.000; -725.000
240.242;   61.925;  428.000;  432.000
240.385;   47.675;  466.000;  450.000
240.528;  -78.675; -706.000; -473.000
240.671;   22.675;  189.000;  134.000
240.814;  -46.850; -441.000; -158.000
240.957;  -93.375; -767.000; -578.000
241.100;  -92.325; -779.000; -755.000
241.243; -145.850;-1234.000; -893.000
241.386;  -66.250; -508.000; -379.000
241.529;  -83.625; -735.000; -547.000
241.672;  -62.700; -566.000; -495.000
241.815; -116.600; -832.000; -808.000
241.958;  -13.625; -125.000; -182.000
242.101;  -70.925; -545.000; -390.000
242.244;  -46.900; -270.000; -325.000
242.387;  -39.750; -304.000; -246.000
242.530;   55.375;  470.000;  134.000
242.673;  -49.175; -381.000; -309.000
242.815; -117.225; -925.000; -899.000
242.958;  -77.225; -482.000; -381.000
243.101;   13.075;  132.000;  187.000
243.244;  -80.600; -564.000; -521.000
243.387;  -53.100; -313.000; -316.000
243.530; -100.875; -657.000; -674.000
243.672;    0.500;   43.000;  -92.000
243.815;  -60.825; -355.000; -283.000
243.958;   -4.925;   98.000;  -26.000
244.101;   -8.725;   59.000;  -16.000
244.243;  -14.050;  -47.000;  101.000
244.386;  -95.375; -761.000; -630.000
244.529;  -32.025; -132.000; -139.000
244.672; -160.225;-1154.000; -951.000
244.814;  -92.550; -621.000; -794.000
244.957;  -48.775; -380.000; -304.000
245.100;  -65.900; -489.000; -489.000
245.242;  -61.500; -387.000; -374.000
245.385;   -8.800;  -59.000;  -39.000
245.528; -122.500; -871.000; -705.000
245.670;   84.650;  612.000;  634.000
245.813;  -82.750; -599.000; -547.000
245.956;  -38.425; -324.000; -275.000
246.098;  -75.825; -508.000; -650.000
246.241;    0.050;  194.000;   48.000
246.383;  -16.750; -119.000;  -73.000
246.526;  -78.725; -454.000; -525.000
246.669; -115.475; -889.000; -780.000
246.811;    8.700;  172.000;   -1.000
246.954;  -60.950; -512.000; -426.000
247.096;  -27.250;  -84.000;   -6.000
247.239;  -71.950; -482.000; -445.000
247.381;  -71.325; -647.000; -488.000
247.524;   78.525;  645.000;  679.000
247.666;   -7.100;   58.000;   11.000
247.809; -123.300; -887.000; -691.000
247.951;  -17.025;  -75.000;  138.000
248.094;   38.975;  432.000;  308.000
248.236; -163.625;-1262.000;-1238.000
248.378;    5.875; -356.000;  -81.000
248.521;  -23.275; -334.000; -337.000
248.663;  -45.675; -236.000; -267.000
248.806;  -20.450; -300.000; -266.000
248.948;  -82.325; -886.000; -763.000
249.090;  -45.875; -428.000; -398.000
249.233;  -47.350; -344.000; -381.000
249.375;  -62.100; -474.000; -451.000
249.518;  -30.700;  -83.000; -133.000
249.660;   -5.800; -103.000;    3.000
249.802; -172.100;-1303.000;-1189.000
249.945;  -73.350; -612.000; -540.000
250.087; -115.550; -834.000; -768.000
250.229;  -69.875; -362.000; -480.000
250.371;  -81.925; -494.000; -439.000
250.514;  -48.075; -310.000; -244.000
250.656;  -22.100;   69.000;  102.000
250.798; -107.400; -849.000; -800.000
250.940;  -54.350; -322.000; -322.000
251.083;  -25.400; -335.000; -111.000
251.225;   60.450;  338.000;  310.000
251.367;  -43.875; -274.000; -373.000
251.509;  -35.675; -265.000; -210.000
251.651;  -99.300; -731.000; -671.000
251.794;   56.975;  538.000;  632.000
251.936; -118.025; -821.000; -747.000
252.078;  -77.275; -540.000; -461.000
252.220;  -65.850; -645.000; -477.000
252.362;   79.975;  344.000;  462.000
252.504;  -72.525; -677.000; -584.000
252.646; -104.200; -875.000; -722.000
252.788;   -0.300;   14.000; -128.000
252.931;  -28.575; -257.000; -253.000
253.073;  -62.700; -376.000; -317.000
253.215;   -5.125;  141.000;  122.000
253.357;  -13.225;   82.000; -153.000
253.499;  -58.250; -374.000; -234.000
253.641;  -93.875; -749.000; -594.000
253.783; -110.350; -609.000; -527.000
253.925;  -79.775; -586.000; -591.000
254.067; -102.850; -744.000; -667.000
254.209;  -27.450; -391.000; -259.000
254.351; -136.025; -865.000; -883.000
254.493;  -56.925; -441.000; -417.000
254.635; -129.750; -936.000; -818.000
254.777;  -84.850; -752.000; -687.000
254.918;  -75.075; -512.000; -430.000
255.060;  -53.050; -551.000; -395.000
255.202;  -64.000; -473.000; -261.000
255.344;  -88.575; -658.000; -455.000
255.486;  -72.125; -471.000; -406.000
255.628; -105.900; -780.000; -781.000
255.770;  -94.325; -676.000; -536.000
255.912;  -76.075; -559.000; -468.000
256.053;  -98.925; -730.000; -508.000
256.195;  145.200; 1008.000;  903.000
256.337;  -99.400; -861.000; -595.000
256.479;   64.650;  532.000;  416.000
256.621;  -62.725; -394.000; -212.000
256.762;  -96.000; -789.000; -742.000
256.904;   53.750;  485.000;  487.000
257.046;  -40.825; -381.000; -271.000
257.188;  -61.600; -351.000; -264.000
257.329;  -69.000; -525.000; -464.000
257.471; -122.625; -939.000; -807.000
257.613;  -52.725; -584.000; -498.000
257.755; -154.275;-1073.000; -982.000
257.896;   23.875;  286.000;  392.000
258.038;  -68.625; -403.000; -352.000
258.180;  -38.750; -354.000; -279.000
258.321;  -89.625; -581.000; -457.000
258.463;    1.600;  -71.000;  133.000
258.605;  -79.900; -562.000; -570.000
258.746;  -91.500; -886.000; -772.000
258.888; -160.125;-1026.000;-1020.000
259.029;   20.250;  121.000;   -8.000
259.171;  -91.650; -614.000; -550.000
259.313;    1.125;  -49.000;  -47.000
259.454;  -87.350; -536.000; -414.000
259.596;  -56.025; -483.000; -390.000
259.737;  -82.850; -590.000; -474.000
259.879;   31.550;  217.000;  311.000
260.020;   78.325;  901.000;  636.000
260.162;  -24.900; -146.000; -253.000
260.303; -115.025; -768.000; -687.000
260.445;  -78.000; -609.000; -613.000
260.586;   31.375;  392.000;  157.000
260.728;  -46.825; -360.000; -248.000
260.869; -113.050; -350.000; -343.000
261.011;   74.600;  706.000;  537.000
261.152;  -63.275; -479.000; -319.000
261.293;  -74.575; -576.000; -595.000
261.435;  -38.025; -219.000; -184.000
261.576;  -49.575; -455.000; -325.000
261.718;   56.825;  420.000;  470.000
261.859; -133.975; -940.000; -949.000
262.000; -133.950; -951.000;-1016.000
262.142;  -31.650;  -52.000;  -60.000
262.283; -113.475; -808.000; -691.000
262.424;  -83.900; -666.000; -625.000
262.566; -148.625;-1161.000; -983.000
262.707; -101.725; -840.000; -830.000
262.848; -109.450; -769.000; -726.000
262.990;  -34.800; -362.000; -345.000
263.131;   73.975;  650.000;  681.000
263.272;   -9.100;  -61.000;  -41.000
263.413;  -99.500; -589.000; -561.000
263.555;  -59.575; -669.000; -143.000
263.696; -112.150; -550.000; -641.000
263.837;  -47.850; -449.000; -551.000
263.978;   -8.625;   -5.000;  -77.000
264.119;  -56.925; -283.000; -264.000
264.261; -119.325; -847.000; -630.000
264.402;   -3.925;   33.000;   40.000
264.543;  -85.800; -509.000; -524.000
264.684;   -0.250;   61.000;  -50.000
264.825;  -70.875; -816.000; -538.000
264.966;    4.050;  -84.000;  -67.000
265.107; -110.350; -646.000; -670.000
265.248; -114.075; -825.000; -812.000
265.390;  -24.625;  152.000;   -9.000
265.531;  -15.700; -238.000; -107.000
265.672;  -82.850; -557.000; -630.000
265.813;   71.250;  563.000;  439.000
265.954; -150.875; -959.000; -940.000
266.095;   -3.675; -372.000; -322.000
266.236;  -96.775; -686.000; -548.000
266.377;  -43.950; -243.000; -297.000
266.518;  -88.075; -619.000; -547.000
266.659;   17.600;  170.000;  268.000
266.800;    8.325;   83.000;   85.000
266.941;  -82.700; -487.000; -478.000
267.082;    8.225;  354.000;   99.000
267.223;  -57.725; -344.000; -273.000
267.364; -122.400; -892.000; -686.000
267.504;   -9.350;    3.000;  135.000
267.645;   -7.700;  160.000;   67.000
267.786;  -38.675; -147.000;  -86.000
267.927;  -63.575; -473.000; -379.000
268.068;  -16.850; -186.000;  -61.000
268.209;  -54.725; -175.000; -413.000
268.350;  -59.800; -388.000; -532.000
268.490;  -79.200; -648.000; -521.000
268.631;   26.800;  127.000;  225.000
268.772; -116.150; -874.000; -647.000
268.913;  -55.325; -328.000; -476.000
269.054;  -13.800; -117.000;   12.000
269.194;  -37.875; -418.000; -402.000
269.335; -161.000;-1137.000;-1074.000
269.476;  -22.075;   33.000;  -35.000
269.617;  -38.175; -347.000; -392.000
269.757; -103.325; -713.000; -646.000
269.898; -112.400; -856.000; -613.000
270.039;  -60.125; -415.000; -405.000
270.180; -152.550; -952.000; -816.000
270.320;  -29.800; -190.000; -250.000
270.461;  -38.775; -277.000; -249.000
270.602;  -12.825; -186.000; -156.000
270.742; -122.350; -868.000; -943.000
270.883;  -59.125; -442.000; -390.000
271.023;  -58.350; -358.000; -357.000
271.164;  -72.250; -607.000; -528.000
271.305;  -99.325; -666.000; -654.000
271.445;  -88.675; -722.000; -683.000
271.586;  -68.875; -462.000; -283.000
271.726;  -31.625; -397.000; -322.000
271.867;  -66.075; -594.000; -534.000
272.008;  176.425; -473.000; -285.000
272.148;  124.175;  462.000;  468.000
272.289;    6.975; -113.000; -181.000
272.429;    8.250;   19.000;  185.000
272.570; -100.725; -633.000; -737.000
272.710; -106.475; -825.000; -775.000
272.851;  -18.875;  113.000; -130.000
272.991; -166.550;-1173.000;-1077.000
273.131;  -64.850; -419.000; -459.000
273.272; -116.850; -683.000; -723.000
273.412;   11.700; -143.000;  -31.000
273.553;  -48.075; -488.000; -507.000
273.693;  134.775;  913.000;  858.000
273.834;  -95.675; -894.000; -692.000
273.974;  -78.550; -664.000; -615.000
274.114;  -96.400; -772.000; -560.000
274.255;   56.500;  414.000;  373.000
274.395;   -3.075; -180.000; -125.000
274.535;   36.675;  199.000;  350.000
274.676;   24.800;  225.000;   94.000
274.816;   -0.500;  110.000;   34.000
274.956;  -84.325; -624.000; -690.000
275.097;  -56.200;-1014.000; -922.000
275.237; -113.225; -913.000; -803.000
275.377; -116.400; -778.000; -689.000
275.517; -142.750; -878.000; -937.000
275.658;  -64.400; -590.000; -555.000
275.798;  -84.425; -606.000; -413.000
275.938;   26.275;  215.000;  323.000
276.078; -103.250; -626.000; -395.000
276.218;   16.425;   99.000;  104.000
276.359; -127.250;-1026.000;-1024.000
276.499;  -62.750; -605.000; -446.000
276.639;  -40.250; -305.000; -151.000
276.779;  -53.925; -475.000; -357.000
276.919; -100.950; -783.000; -624.000
277.059;  -27.225; -261.000; -212.000
277.199;  -45.850; -357.000; -259.000
277.340;   43.975;  287.000;  175.000
277.480; -122.100; -840.000; -693.000
277.620;   26.225;  192.000;   16.000
277.760; -199.425;-1533.000;-1294.000
277.900;   11.775;  113.000;   33.000
278.040;    2.625;  137.000;  159.000
278.180;   42.750;  270.000;  170.000
278.320;    4.550;   21.000;   56.000
278.460;  -83.875; -443.000; -469.000
278.600;  -91.625; -708.000; -598.000
278.740;   44.825;  448.000;  224.000
278.880;  -58.100; -768.000; -791.000
279.020;   -2.075; -194.000; -144.000
279.160;  -73.375; -672.000; -595.000
279.300; -115.150; -926.000; -873.000
279.440;  -80.250; -709.000; -622.000
279.579;  -28.550;-1014.000; -929.000
279.719;  -55.850; -410.000; -394.000
279.859;   58.725;   -4.000;   41.000
279.999;   21.425; -208.000;  101.000
280.139;  -24.675; -435.000; -387.000
280.279;  -84.550; -708.000; -745.000
280.419;  -30.075; -229.000; -147.000
280.559;  -41.700; -259.000; -180.000
280.698;  -79.725; -790.000; -639.000
280.838;  -96.325; -778.000; -800.000
280.978; -104.675; -846.000; -790.000
281.118; -111.475; -811.000; -704.000
281.257;    1.375;   24.000;    6.000
281.397; -127.100;-1094.000; -960.000
281.537;  -92.700; -599.000; -712.000
281.677;  -32.500; -150.000; -101.000
281.816;  -80.175; -700.000; -630.000
281.956;  -39.550; -193.000; -257.000
282.096;  -65.900; -539.000; -396.000
282.235; -117.375; -672.000; -638.000
282.375;   -7.300; -243.000;  -98.000
282.515; -104.950; -715.000; -707.000
282.654;   38.425;   29.000;  106.000
282.794;   29.125;  388.000;  244.000
282.934;  -58.025; -530.000; -491.000
283.073; -144.050;-1030.000; -857.000
283.213;  -50.825; -460.000; -467.000
283.353;  -41.850; -408.000; -349.000
283.492;  -32.950; -264.000; -296.000
283.632;  -36.950; -254.000; -168.000
283.771;  -94.625; -859.000; -730.000
283.911;  -68.675; -369.000; -260.000
284.050; -111.875; -794.000; -748.000
284.190; -148.875;-1229.000;-1096.000
284.329; -144.100;-1055.000; -964.000
284.469;  -76.600; -516.000; -591.000
284.608;  -66.125; -559.000; -598.000
284.748;  -73.950; -614.000; -570.000
284.887;  -11.325;  -87.000;  -20.000
285.027; -135.575; -844.000; -892.000
285.166;  -37.250; -192.000; -249.000
285.306;    9.375; -116.000;  -33.000
285.445;  -45.050; -229.000; -343.000
285.584;  -92.425; -630.000; -494.000
285.724;  -51.800; -282.000; -322.000
285.863; -108.600; -857.000; -507.000
286.002;  -51.175; -366.000; -276.000
286.142; -108.800; -715.000; -622.000
286.281;  -71.750; -525.000; -493.000
286.420;  -83.800; -554.000; -417.000
286.560;   91.350;  653.000;  623.000
286.699; -141.400; -958.000; -912.000
286.838;  -81.725; -590.000; -591.000
286.978; -100.100; -533.000; -537.000
287.117; -122.375;-1085.000; -950.000
287.256;  -44.075; -228.000; -211.000
287.395;  -49.775; -197.000; -378.000
287.535;  -52.700; -370.000; -298.000
287.674;  -80.600; -509.000; -484.000
287.813;   64.775;  661.000;  533.000
287.952; -127.775;-1010.000; -871.000
288.091; -149.475;-1049.000; -915.000
288.231;    6.600;   13.000;   15.000
288.370; -181.775;-1217.000;-1200.000
288.509;  -88.975; -728.000; -645.000
288.648;  -90.500; -770.000; -548.000
288.787;  -34.075; -243.000;  -87.000
288.926;  -81.375; -454.000; -475.000
289.065;  125.100;  859.000;  672.000
289.204;  -49.775; -377.000; -217.000
289.344;  -91.250; -791.000; -690.000
289.483;   33.200;  416.000;  304.000
289.622;  -32.700; -291.000; -149.000
289.761;  -20.325; -309.000; -166.000
289.900; -108.475; -785.000; -626.000
290.039;  -23.225;  -12.000;  -95.000
290.178;  -40.625; -274.000; -180.000
290.317;  -92.325; -618.000; -479.000
290.456;  -62.275; -463.000; -451.000
290.595; -144.650; -961.000; -833.000
290.734; -146.725; -904.000; -891.000
290.873;  -67.625; -456.000; -420.000
291.011; -106.825; -833.000; -843.000
291.150; -114.500; -770.000; -682.000
291.289;  -31.875; -343.000; -110.000
291.428;  -93.475; -599.000; -480.000
291.567;  -50.350; -370.000; -442.000
291.706;  -13.825;  109.000;  154.000
291.845;  -85.950; -597.000; -505.000
291.984; -160.925;-1234.000;-1061.000
292.122;   71.550;  602.000;  582.000
292.261;   46.025;  620.000;  463.000
292.400;    4.125; -144.000;  211.000
292.539; -124.375; -959.000; -813.000
292.678;  -43.925; -325.000; -300.000
292.816; -158.300;-1136.000; -965.000
292.955;  -98.975; -844.000; -684.000
293.094;  -28.800; -173.000; -337.000
293.233;  -56.500; -556.000; -400.000
293.371;  -50.875; -225.000;  -84.000
293.510;  -95.500; -866.000; -780.000
293.649; -152.700; -959.000; -924.000
293.787;  -67.950;-1083.000;-1012.000
293.926;  -21.925; -113.000;  -32.000
294.065;  -50.875; -379.000; -290.000
294.203;   47.650;  298.000;  406.000
294.342;   16.650;   74.000;  156.000
294.481; 6208.575;51180.000; -836.000
294.619;  -29.900; -425.000; -582.000
294.758; -152.075;-1230.000;-1137.000
294.896;   57.875; -125.000;    5.000
295.035; -131.600;-1040.000;-1006.000
295.174; -121.775;-1082.000; -954.000
295.312;  -49.950; -323.000; -203.000
295.451;  -10.100; -307.000; -428.000
295.589;  -58.550; -389.000; -518.000
295.728;   14.850; -292.000; -165.000
295.866;   -0.950;  -36.000;  -51.000
296.005;  -57.450; -584.000; -341.000
296.143;  -75.700; -558.000; -596.000
296.282; -106.450; -957.000; -881.000
296.420;  -85.475; -657.000; -557.000
296.559;  -95.600; -892.000; -633.000
296.697;   18.525; -847.000; -665.000
296.835;   32.975;-1141.000;-1002.000
296.974;   40.750;  -23.000;   39.000
297.112;   10.925; -443.000; -504.000
297.251;  -82.125; -815.000; -755.000
297.389;   60.625; -576.000; -438.000
297.527;   35.225; -145.000;  -83.000
297.666;  -54.650; -486.000; -438.000
297.804;  -70.400; -404.000; -264.000
297.942;  -17.550; -136.000; -161.000
298.081;   -1.375; -183.000;   63.000
298.219;   68.500;  -17.000;  -19.000
298.357;   41.550; -144.000;  -71.000
298.495;   35.350; -810.000; -812.000
298.634;   65.600;  245.000;  219.000
298.772;   49.800; -220.000; -338.000
298.910;  -37.025; -309.000; -182.000
299.048;  -15.200; -130.000; -153.000
299.187;  -34.575; -350.000; -250.000
299.325;   17.800;   52.000;  122.000
299.463;   30.150; -389.000; -299.000
299.601;   90.600; -327.000; -271.000
299.739; -120.450; -908.000; -883.000
299.877;  -76.700; -791.000; -703.000
300.016;  -54.825;-1095.000; -935.000
300.154;  155.950;  -19.000; -161.000
300.292;   45.675; -428.000; -348.000
300.430;   33.675; -408.000; -291.000
300.568; -109.075; -940.000; -874.000
300.706;  -43.025; -366.000; -469.000
300.844;  -88.700;-1108.000; -979.000
300.982;  111.075;  246.000;  282.000
301.120; -102.150; -965.000; -866.000
301.258;  -76.650; -812.000; -705.000
301.396;   13.225;  104.000;  -41.000
301.534;   62.025; -218.000; -293.000
301.672;   -5.925; -664.000; -521.000
301.810;   14.600; -613.000; -545.000
301.948;  103.500;   53.000;  149.000
302.086;  580.050; -250.000;  -32.000
302.224;  878.500; -610.000; -585.000
302.362;   20.075; -558.000; -622.000
302.500;  -45.125; -923.000; -893.000
302.638;  113.675;  128.000;  245.000
302.776;  -12.225; -352.000; -408.000
302.913;   48.350;  447.000;  236.000
303.051;  -10.150;  -86.000;  -23.000
303.189;   47.900;   90.000;  118.000
303.327;  -34.450; -341.000; -256.000
303.465;  -81.350; -832.000; -588.000
303.603;  -94.600; -805.000; -604.000
303.740;   92.200;  417.000;  241.000
303.878;    2.250; -800.000; -759.000
304.016;  -91.400; -915.000; -790.000
304.154; -128.850;-1123.000;-1152.000
304.291;  -48.200; -505.000; -554.000
304.429;   16.025;  102.000;   74.000
304.567; -126.975; -908.000; -893.000
304.705;  -50.750; -408.000; -515.000
304.842;   81.075; -616.000; -540.000
304.980;   47.000;  215.000;   35.000
305.118;   31.175; -367.000; -365.000
305.255;  -80.225; -945.000; -927.000
305.393;   46.375;  178.000;  239.000
305.531; -109.500;-1173.000; -956.000
305.668;  -68.525; -663.000; -582.000
305.806;   84.975; -358.000; -439.000
305.943;   96.075; -629.000; -637.000
306.081;   36.050; -378.000; -267.000
306.219; -105.325; -863.000; -748.000
306.356;    0.825;  158.000;   27.000
306.494;  102.550;  981.000;  761.000
306.631;   -6.575;  -11.000;  -55.000
306.769;    4.050; -613.000; -485.000
306.906;  -23.725; -284.000; -258.000
307.044;  -57.650; -473.000; -488.000
307.181;  -71.125; -410.000; -332.000
307.319;   14.100;  112.000;   87.000
307.456; -185.650;-1191.000;-1153.000
307.594;  -87.475; -980.000; -727.000
307.731;   -5.425; -371.000; -164.000
307.868;  -14.950;  -15.000;   20.000
308.006; -150.500; -961.000; -847.000
308.143;  -77.725; -618.000; -330.000
308.281;  156.175;  -37.000; -254.000
308.418;  -15.275; -748.000; -640.000
308.555;  -82.300; -400.000; -250.000
308.693;  -78.350; -577.000; -573.000
308.830; -106.425; -712.000; -657.000
308.967;  -25.225; -215.000;  -95.000
309.105;  -52.150; -507.000; -396.000
309.242;   16.600; -468.000; -367.000
309.379;  268.625; -577.000; -655.000
309.517;  -72.950; -936.000; -948.000
309.654; -128.475; -910.000; -734.000
309.791;  -76.125; -662.000; -580.000
309.928; -115.000; -977.000; -914.000
310.065;  164.325;  819.000;  697.000
310.203;   -7.950; -825.000; -850.000
310.340;  -10.525; -465.000; -321.000
310.477;  -73.575; -412.000; -516.000
310.614;  -53.600; -383.000; -473.000
310.751;  -87.450; -427.000; -518.000
310.889;  -26.250;    1.000;   11.000
311.026; -142.950;-1161.000; -939.000
311.163;  -45.750; -386.000; -380.000
311.300;  -78.950; -512.000; -479.000
311.437;  -74.475; -658.000; -619.000
311.574; -163.150;-1226.000; -985.000
311.711;  -65.175; -595.000; -433.000
311.848;  -42.075; -380.000; -388.000
311.985;   19.725;  270.000;   93.000
312.122; -122.875; -932.000; -762.000
312.259; -132.275; -941.000; -994.000
312.396; -105.175; -508.000; -551.000
312.533;  -85.400; -812.000; -790.000
312.670; -133.100;-1070.000; -898.000
312.807;  -27.400; -352.000; -367.000
312.944;  -90.275; -513.000; -611.000
313.081;  -26.650; -150.000; -415.000
313.218; -112.300;-1111.000; -867.000
313.355;   -6.825; -531.000; -449.000
313.492;    2.375; -455.000; -292.000
313.629;  123.050;  815.000;  735.000
313.766; -167.250;-1176.000;-1008.000
313.902;  -12.375; -186.000;   21.000
314.039;  -52.075; -372.000; -289.000
314.176;   28.900;  286.000;  192.000
314.313;  -64.925; -569.000; -473.000
314.450;  -83.225; -788.000; -684.000
314.587;  -55.825; -468.000; -480.000
314.723;   -0.825;  -78.000;  130.000
314.860;   18.375;  318.000;  332.000
314.997;   20.525;  223.000;  142.000
315.134;  -50.075; -385.000; -368.000
315.270;  -31.550; -480.000; -496.000
315.407; -123.825;-1094.000; -967.000
315.544;  -43.075; -657.000; -538.000
315.681;  -70.700; -681.000; -565.000
315.817;   29.225; -133.000; -176.000
315.954;    4.100; -613.000; -392.000
316.091; -127.550;-1045.000;-1023.000
316.227;  -29.775;  -71.000; -179.000
316.364;   -1.100;   23.000;    6.000
316.500;  -43.250; -113.000; -300.000
316.637;  -50.100; -181.000; -302.000
316.774;  -79.750; -625.000; -358.000
316.910;  -97.950; -598.000; -629.000
317.047;  -82.700; -487.000; -351.000
317.183;  -48.650; -435.000; -566.000
317.320;  -29.725; -367.000; -321.000
317.456;  -68.300; -733.000; -805.000
317.593; -101.800; -598.000; -641.000
317.729;   -1.800;  168.000;  -67.000
317.866; -200.975;-1434.000;-1285.000
318.002;  -86.700; -708.000; -948.000
318.139; -100.425; -883.000; -867.000
318.275;  -96.675;-1003.000; -738.000
318.412;  -63.875; -517.000; -336.000
318.548;  -28.900; -751.000; -720.000
318.685; -105.725; -985.000; -888.000
318.821; -113.500; -762.000; -735.000
318.957;  -28.250;   34.000;  -23.000
319.094;   47.150;  297.000;  154.000
319.230;  -54.825; -756.000; -742.000
319.367;  121.300; -471.000; -520.000
319.503;   34.725; -538.000; -436.000
319.639; -101.325; -877.000; -793.000
319.775;  -61.375; -750.000; -685.000
319.912;  -54.400; -424.000; -519.000
320.048;  -89.075;-1184.000;-1184.000
320.184;   76.100;   59.000;   70.000
320.321;  -62.350; -497.000; -467.000
320.457;   59.100;  475.000;  662.000
320.593;  -65.525; -375.000; -382.000
320.729; -102.425; -732.000; -734.000
320.866;  -74.800; -577.000; -635.000
321.002;  -89.300; -759.000; -809.000
321.138;  -10.750; -135.000; -211.000
321.274;   70.150; -148.000; -115.000
321.410;  -18.500; -585.000; -353.000
321.546;  -40.525;-1011.000; -911.000
321.683;   41.075;  400.000;  185.000
321.819;   -2.475;  -48.000; -117.000
321.955; -115.525; -743.000; -722.000
322.091;  -49.075; -585.000; -540.000
322.227;  -18.350; -382.000; -202.000
322.363;  -28.600; -320.000; -215.000
322.499;  -52.900; -343.000; -331.000
322.635;  158.500;  636.000;  443.000
322.771;   17.250; -139.000;   12.000
322.907;   77.475;  129.000;  327.000
323.043;  -26.975; -115.000; -206.000
323.179;  -25.325; -394.000; -363.000
323.315;    7.875; -401.000; -371.000
323.451;   76.575; -328.000; -236.000
323.587;   49.250;  -60.000;  -77.000
323.723;   19.875; -682.000; -601.000
323.859;   -2.125; -258.000;  -76.000
323.995;  -34.575; -467.000; -409.000
324.131; -125.000; -967.000; -892.000
324.267;  -46.350; -254.000; -276.000
324.402; -122.425; -960.000; -983.000
324.538;  -25.725; -279.000; -104.000
324.674;   14.350;  164.000;   77.000
324.810;  108.125;  226.000;  308.000
324.946;  -16.275; -810.000; -658.000
325.082;  -67.400; -568.000; -475.000
325.217;  -17.300;  -62.000;   16.000
325.353; -109.525; -764.000; -659.000
325.489;  -93.700; -540.000; -506.000
325.625;  -71.650; -579.000; -525.000
325.760;   59.775;  517.000;  376.000
325.896;  -18.175; -515.000; -702.000
326.032;  -55.650; -403.000; -352.000
326.168;  -76.825; -462.000; -369.000
326.303;  -66.025; -352.000; -461.000
326.439;  -31.400; -336.000; -276.000
326.575;    3.600; -190.000;  -29.000
326.710;   -9.300; -156.000;  -30.000
326.846;  -19.175;  146.000;  103.000
326.982;  -83.225; -530.000; -548.000
327.117;  -70.100; -481.000; -442.000
327.253;  -84.775; -745.000; -742.000
327.388; -124.025;-1137.000;-1153.000
327.524;  -57.025; -811.000; -578.000
327.659;  -35.775;  -58.000;  -22.000
327.795;  -14.600;   69.000;   45.000
327.931; -100.525; -723.000; -499.000
328.066;  -42.600; -417.000; -276.000
328.202;   -6.300;   12.000; -129.000
328.337;   98.400;  957.000;  713.000
328.473;   26.325;  -12.000;  -74.000
328.608;  -27.300; -256.000; -267.000
328.743;  -98.775; -799.000; -664.000
328.879;   27.875;  214.000;  114.000
329.014;  -27.925; -102.000; -122.000
329.150;  -86.450; -358.000; -483.000
329.285;  -73.425; -465.000; -466.000
329.421;  -54.150; -548.000; -246.000
329.556;  -42.250;  -36.000;   85.000
329.691;  -98.675; -633.000; -615.000
329.827;  -82.700; -626.000; -480.000
329.962;  -41.975;  131.000; -301.000
330.097;  -94.425; -673.000; -585.000
330.233;  -60.000; -410.000; -223.000
330.368; -119.125; -839.000; -628.000
330.503;   -7.225;    3.000;   98.000
330.638;    0.525;  -93.000; -125.000
330.774;  -68.425; -609.000; -530.000
330.909;  -51.375; -434.000; -244.000
331.044;  -99.425; -714.000; -708.000
331.179; -183.125;-1217.000;-1109.000
331.315;    2.375;   77.000;   20.000
331.450;   21.350;  157.000;  285.000
331.585;  -89.050; -805.000; -706.000
331.720;  -85.500; -510.000; -460.000
331.855;  -11.000;  -35.000; -102.000
331.990;  236.550;   62.000;  138.000
332.126;  124.075; -110.000;   71.000
332.261;  -24.025; -379.000; -265.000
332.396;   -2.475; -135.000; -242.000
332.531; -106.575;-1074.000;-1031.000
332.666;   40.800; -519.000; -363.000
332.801; -103.125; -726.000; -807.000
332.936;  -21.675; -192.000; -122.000
333.071; -146.925; -870.000; -817.000
333.206;   10.950;  307.000;  379.000
333.341;   26.675;  344.000;  418.000
333.476;  -91.550; -627.000; -623.000
333.611;  -50.550; -251.000; -173.000
333.746;  -54.200; -381.000; -464.000
333.881; -122.425; -973.000; -935.000
334.016; -136.950; -936.000; -917.000
334.151; -134.675; -746.000; -702.000
334.286;    4.400;  152.000;  186.000
334.421;  -28.900; -125.000; -178.000
334.556;  -75.325; -611.000; -567.000
334.690;  -95.650; -631.000; -577.000
334.825;   61.150;  381.000;   83.000
334.960;  -63.775; -285.000; -413.000
335.095;   -2.975;  135.000;  -91.000
335.230; -111.200; -722.000; -738.000
335.365; -136.475;-1084.000; -990.000
335.499; -132.625;-1108.000;-1037.000
335.634;   11.925;    9.000;  534.000
335.769; -109.975; -755.000; -720.000
335.904;  -73.400; -603.000; -561.000
336.038;  -65.300; -735.000; -657.000
336.173; -117.975;-1206.000;-1194.000
336.308;   -9.725; -116.000; -189.000
336.443;   12.725; -544.000; -634.000
336.577;  -66.925; -936.000; -787.000
336.712;   64.225;   -4.000;  -12.000
336.847;  -40.050; -724.000; -607.000
336.981;   49.250; -272.000; -208.000
337.116;  266.950;  615.000;  501.000
337.250;  123.025; -434.000; -421.000
337.385;  262.275; -297.000; -208.000
337.520;  109.850; -632.000; -603.000
337.654;  -39.125; -215.000; -126.000
337.789; -130.800; -989.000; -933.000
337.923;  -26.875; -104.000; -205.000
338.058; -100.975; -673.000; -738.000
338.192;  -38.875; -611.000; -488.000
338.327;   -8.900;  -18.000; -155.000
338.461;  -71.325; -299.000; -469.000
338.596;  -83.075; -780.000; -638.000
338.730; -101.075; -767.000; -803.000
338.865;   93.175;  -46.000; -140.000
338.999;  -45.750; -846.000; -702.000
339.134;  -34.150; -634.000; -536.000
339.268;   12.050; -741.000; -603.000
339.403;  371.925; -740.000; -775.000
339.537;  122.725; -894.000; -820.000
339.671; -108.850; -829.000; -813.000
339.806;  -61.750; -556.000; -512.000
339.940;   21.625; -261.000; -235.000
340.074; -109.350; -685.000; -510.000
340.209;  -47.825; -351.000; -230.000
340.343;  -92.000; -517.000; -573.000
340.477;  149.400;  998.000; 1036.000
340.612;  -51.625;-1033.000; -900.000
340.746;  132.625; -199.000; -243.000
340.880;  -86.650; -924.000; -785.000
341.014;  -24.450;  -45.000; -154.000
341.149; -116.000; -756.000; -718.000
341.283;  -97.775; -839.000; -754.000
341.417; -101.375;-1124.000; -938.000
341.551;  102.500; -768.000; -708.000
341.685;  -45.050; -633.000; -611.000
341.820;  -57.550; -562.000; -493.000
341.954;  -43.100; -218.000; -349.000
342.088; -157.275;-1102.000;-1019.000
342.222;   58.500;  565.000;  618.000
342.356;  -61.325; -395.000; -335.000
342.490;  -96.650; -880.000; -841.000
342.624;  -39.150; -339.000; -242.000
342.758;  -13.750; -364.000; -312.000
342.892;  -77.000; -710.000; -585.000
343.026;  -45.375;  -58.000; -116.000
343.160;  -66.375; -426.000; -376.000
343.294;  -87.650; -474.000; -337.000
343.428;  -23.250; -488.000; -448.000
343.562;   -8.925; -172.000;  -23.000
343.696;  -30.675; -385.000; -314.000
343.830;  -29.675; -362.000; -356.000
343.964;    0.875; -231.000; -168.000
344.098;  856.050;  199.000;   70.000
344.232;  704.475; -266.000; -127.000
344.366;   88.300; -567.000; -453.000
344.500;   42.850; -665.000; -744.000
344.634;   24.050; -324.000; -164.000
344.768;  -25.825; -531.000; -341.000
344.902;   13.125;  278.000;  256.000
345.035;  -80.975; -556.000; -496.000
345.169; -133.725; -933.000; -656.000
345.303;  -37.075; -308.000; -482.000
345.437;  -66.300; -826.000; -717.000
345.571;  -91.650; -675.000; -594.000
345.704;  -73.550; -309.000; -532.000
345.838;  -16.300; -331.000; -284.000
345.972;  -34.600; -543.000; -495.000
346.106;  161.475; -179.000; -190.000
346.239;  397.025; -312.000; -243.000
346.373;   -2.825; -343.000; -302.000
346.507; -135.975; -950.000; -962.000
346.640;  142.075;  -30.000;   13.000
346.774;  -43.450; -650.000; -797.000
346.908;  -17.800; -138.000;  -11.000
347.041;  -94.050; -646.000; -593.000
347.175;   -6.550;  259.000;   27.000
347.309;  -82.400; -698.000; -628.000
347.442;  -86.100; -883.000; -732.000
347.576;  272.450;  670.000;  668.000
347.709;  170.475; -123.000;  -52.000
347.843; -103.250; -933.000; -825.000
347.976;   33.075;  235.000;  294.000
348.110; -177.425;-1268.000;-1186.000
348.243;  -98.450; -679.000; -772.000
348.377;   -3.750;  -26.000;   60.000
348.510;   45.725;  403.000;  540.000
348.644;  -37.450;  -37.000; -159.000
348.777;  -13.150;  180.000;  191.000
348.911;  -59.925; -142.000; -112.000
349.044;  153.825;  471.000;  448.000
349.178;  124.750;-1069.000;-1006.000
349.311;  105.375;  141.000;  255.000
349.444;   -7.575; -927.000; -813.000
349.578;  -13.750; -347.000; -200.000
349.711; -115.650; -959.000; -862.000
349.845;   -4.975; -661.000; -591.000
349.978; -142.150;-1224.000;-1137.000
350.111;  -69.650; -546.000; -612.000
350.244;  -75.675; -596.000; -700.000
350.378;   -9.850; -392.000; -393.000
350.511;  -74.125; -393.000; -426.000
350.644; -108.625; -808.000; -806.000
350.778;   -0.025;  168.000;  104.000
350.911;  -11.825;  134.000;  140.000
351.044; -101.625; -685.000; -615.000
351.177;  -44.300; -321.000; -281.000
351.310;  -25.500;    3.000; -131.000
351.444;  -85.100; -888.000; -788.000
351.577;  109.075;  140.000;   90.000
351.710;  100.750;  593.000;  417.000
351.843;  -36.125; -165.000;  -77.000
351.976;   -7.275;  149.000;  -79.000
352.109;  -94.625; -621.000; -612.000
352.242;  -27.450; -464.000; -419.000
352.376;  -63.725; -580.000; -636.000
352.509;  155.450; -437.000; -356.000
352.642;   -5.900; -654.000; -604.000
352.775;   53.750; -141.000;  -98.000
352.908; -117.575; -933.000; -904.000
353.041; -102.950; -814.000; -824.000
353.174;  -71.875; -551.000; -424.000
353.307;  -85.200; -753.000; -764.000
353.440;   52.500;  541.000;  453.000
353.573; -105.300; -957.000;-1008.000
353.706;  -70.900; -384.000; -558.000
353.839;  -30.200; -264.000; -220.000
353.971;  -96.075; -657.000; -512.000
354.104;  -90.725; -896.000; -835.000
354.237;  -43.950; -627.000; -662.000
354.370;  -81.225; -846.000; -879.000
354.503; -186.200;-1231.000;-1308.000
354.636;  -56.000; -529.000; -348.000
354.769; -129.200; -937.000; -860.000
354.902;   -4.400; -230.000; -139.000
355.034;  -30.900; -164.000; -220.000
355.167;  -13.325; -262.000; -162.000
355.300;  -87.075;-1061.000; -880.000
355.433;  969.575;  -71.000;  -14.000
355.565; 1513.825; -402.000; -384.000
355.698;  383.925; -356.000; -296.000
355.831;    0.500; -882.000; -801.000
355.964;   56.150; -285.000; -170.000
356.096; -101.850; -856.000; -843.000
356.229;   -3.125; -523.000; -530.000
356.362;  325.775; -373.000; -266.000
356.494;  593.075; -229.000; -162.000
356.627;  447.225;  269.000;  377.000
356.760;  663.750;  120.000;   53.000
356.892;  952.250; -286.000; -601.000
357.025;  611.125;  403.000;  389.000
357.157;  545.575; -167.000; -179.000
357.290;  707.900; -856.000; -713.000
357.423;  199.350; -667.000; -556.000
357.555;  111.950; -217.000; -228.000
357.688;  101.150; -483.000; -364.000
357.820;  421.300; -870.000; -877.000
357.953; 3525.375; -563.000; -589.000
358.085;  754.125; -632.000; -612.000
358.218; 1002.450;-1131.000; -932.000
358.350;  183.325;  -58.000;  312.000
358.483; -129.875;-1300.000;-1187.000
358.615;  -43.350;-1182.000;-1078.000
358.747;  -74.100;-1187.000;-1058.000
358.880;    5.175; -810.000; -744.000
359.012;   -4.600; -376.000; -202.000
359.145;  -35.525; -480.000; -511.000
359.277;   36.750; -962.000; -913.000
359.409; 2893.975;  536.000;  231.000
359.542;  769.375; -738.000; -688.000
359.674;   68.125;   46.000;   13.000
359.806;  -62.000; -565.000; -438.000
359.939;  -50.500; -617.000; -516.000
360.071;   -0.100; -583.000; -579.000
360.203;  -24.950; -411.000; -364.000
360.335;   51.800;  164.000;  -16.000
360.468;  186.925; -249.000; -307.000
360.600; 2329.425; -547.000; -454.000
360.732; 2899.350; -546.000; -423.000
360.864;  392.050;-1216.000;-1044.000
360.996;  233.725; -516.000; -554.000
361.129;   34.475; -389.000; -598.000
361.261;   20.850;  110.000; -113.000
361.393;  -29.475; -252.000; -214.000
361.525;   30.600;   94.000;  244.000
361.657;  -45.950; -821.000; -703.000
361.789;   10.550; -139.000; -155.000
361.921;  178.925; -642.000; -593.000
362.053;  233.325;  524.000;  541.000
362.185;   39.850;  288.000;   72.000
362.318;  -85.475; -709.000; -705.000
362.450;  109.325;  294.000;  444.000
362.582;   65.325; -913.000; -870.000
362.714;  -51.500; -353.000; -332.000
362.846;  -81.775; -606.000; -490.000
362.978; -142.600; -941.000; -811.000
363.109;   38.400; -161.000; -260.000
363.241;  374.225; -739.000; -749.000
363.373;  432.775; -649.000; -564.000
363.505;  676.500; -186.000;  -91.000
363.637;  162.200; -787.000; -601.000
363.769; -124.500;-1067.000;-1080.000
363.901;  -73.500; -596.000; -654.000
364.033; -127.700;-1103.000;-1062.000
364.165;    2.400; -283.000; -283.000
364.296;   76.125; -316.000; -177.000
364.428;   64.775;-1344.000;-1220.000
364.560;  -78.275; -679.000; -661.000
364.692;  -70.925; -738.000; -835.000
364.824;  225.850; -588.000; -456.000
364.955;  428.975; -402.000; -564.000
365.087;  972.775;-1097.000; -852.000
365.219;   32.250; -686.000; -816.000
365.351;  -65.175; -526.000; -572.000
365.482;   35.025;  300.000;  240.000
365.614;  -45.200; -402.000; -314.000
365.746; -109.550; -729.000; -752.000
365.877; -105.400; -706.000; -672.000
366.009;  272.800;  -35.000;  -62.000
366.141;  -89.575;-1249.000;-1134.000
366.272; -103.025; -803.000; -719.000
366.404; -114.725;-1005.000; -874.000
366.535;  -12.325; -139.000;  -12.000
366.667; -112.000; -644.000; -649.000
366.799;   36.250;  353.000;  203.000
366.930; -129.325; -862.000; -996.000
367.062;  121.850; -639.000; -613.000
367.193;  151.850; -872.000; -842.000
367.325;  -59.825; -580.000; -684.000
367.456;   48.450; -246.000;   31.000
367.588;  168.550; -371.000; -318.000
367.719;   18.000;  -44.000;  -45.000
367.851;  -21.800; -222.000; -241.000
367.982;  -72.825; -875.000; -732.000
368.113;   89.150; -475.000; -358.000
368.245; -120.475; -960.000; -841.000
368.376;  -35.250; -254.000; -302.000
368.508;  -42.075; -188.000; -263.000
368.639; -151.775;-1166.000;-1034.000
368.770;  -34.350; -670.000; -589.000
368.902;  -67.450; -836.000; -926.000
369.033; -107.500; -906.000; -855.000
369.164;  -55.375; -720.000; -653.000
369.296; -106.950; -452.000; -601.000
369.427;  -17.700; -209.000; -144.000
369.558;  -63.700; -593.000; -377.000
369.689;  -71.925; -721.000; -569.000
369.821; -119.725; -951.000; -845.000
369.952;  -19.850;   42.000; -108.000
370.083;  -59.075; -229.000; -108.000
370.214;  -93.400; -735.000; -650.000
370.345;  -16.725;   65.000;   81.000
370.477;  -90.350; -810.000; -790.000
370.608;  209.250; -328.000; -264.000
370.739;  -62.050;-1233.000;-1292.000
370.870;  -58.950;-1102.000; -923.000
371.001;   84.500; -378.000; -467.000
371.132;  -80.600; -754.000; -735.000
371.263;  -36.475;  -42.000; -148.000
371.394; -123.550; -841.000; -748.000
371.525;   17.300;  345.000;  225.000
371.657;  -97.325; -808.000; -670.000
371.788;   80.025;  103.000;  199.000
371.919;  148.950; -384.000; -304.000
372.050; 3347.575;  -91.000; -156.000
372.181; 1034.825; -188.000; -294.000
372.311;  354.150;   42.000; -127.000
372.442;   36.000; -457.000; -451.000
372.573;  -29.025; -444.000; -340.000
372.704; -117.800;-1008.000; -980.000
372.835;   67.350; -228.000; -289.000
372.966;  -78.575; -646.000; -554.000
373.097;  -82.725; -575.000; -711.000
373.228;  -44.100; -717.000; -542.000
373.359;  113.525; -824.000; -536.000
373.490;  822.825; -881.000; -727.000
373.620; 1082.425;-1001.000; -803.000
373.751; 1633.425; -332.000; -396.000
373.882;  732.850; -663.000; -733.000
374.013;   53.675; -449.000; -262.000
374.143;  -40.375; -581.000; -659.000
374.274; -110.375; -987.000; -908.000
374.405;  153.450; -388.000; -276.000
374.536;  399.125; -526.000; -387.000
374.666;  990.575; -759.000; -807.000
374.797;  180.525; -817.000; -868.000
374.928;  779.150; -710.000; -560.000
375.058;  838.125; -535.000; -500.000
375.189;   75.850;  -59.000;  -93.000
375.320; -115.600; -928.000;-1034.000
375.450;  -44.350; -625.000; -616.000
375.581;  -61.075; -526.000; -436.000
375.712;  -38.050; -574.000; -250.000
375.842;  256.225; -438.000; -415.000
375.973;  183.325; -554.000; -513.000
376.103;  -55.825; -665.000; -648.000
376.234;  -81.050; -531.000; -552.000
376.364;  -59.975; -944.000; -867.000
376.495;  312.825;  925.000;  529.000
376.625;  -29.125; -472.000; -485.000
376.756;   47.125; -709.000; -678.000
376.886;  -81.325;-1178.000;-1026.000
377.017;   53.250;-1048.000;-1061.000
377.147;  350.950; -786.000; -782.000
377.278;   63.725;  174.000;  228.000
377.408; -129.625; -801.000; -815.000
377.538; -109.750; -707.000; -693.000
377.669;  -96.350; -537.000; -613.000
377.799;  -92.975; -645.000; -635.000
377.929;  -74.575; -610.000; -428.000
378.060; -133.875; -781.000; -847.000
378.190;  -59.175; -726.000; -531.000
378.320;  -60.275; -401.000; -406.000
378.451;  -17.050; -131.000;  -22.000
378.581;  -11.750;  -67.000; -110.000
378.711;  136.950; 1035.000;  866.000
378.841;  -38.650; -533.000; -675.000
378.972;  -81.500; -871.000; -751.000
379.102;  -24.725; -652.000; -579.000
379.232;  -16.675; -126.000;  -73.000
379.362; -110.700;-1001.000; -885.000
379.492;  -11.500; -373.000; -424.000
379.623;   88.350;    0.000;  111.000
379.753; -101.775;-1107.000; -974.000
379.883;  184.025;   59.000;  156.000
380.013;  -17.300;-1081.000;-1017.000
380.143; -110.700;-1097.000;-1056.000
380.273; -117.550; -985.000; -861.000
380.403;   -2.700; -344.000; -257.000
380.533;  -24.750; -651.000; -664.000
380.663;   58.850;  173.000;  128.000
380.793; -108.650;-1027.000;-1074.000
380.923;  -34.025; -103.000;  -34.000
381.053; -100.425; -613.000; -623.000
381.183;  -38.000; -106.000; -248.000
381.313;   18.700; -656.000; -470.000
381.443;   33.425; -692.000; -473.000
381.573;  149.500; -402.000; -409.000
381.703;  232.900;-1249.000;-1095.000
381.833; -136.825;-1454.000;-1336.000
381.963;   98.675; -134.000;  -87.000
382.093; 1297.300; -925.000; -909.000
382.223;  421.350; -713.000; -602.000
382.353;  -40.300; -801.000; -608.000
382.482;  325.725;-1091.000; -964.000
382.612;  732.750; -872.000; -644.000
382.742;  390.425; -695.000; -622.000
382.872;  243.875; -565.000; -551.000
383.002;   67.775;  347.000; -132.000
383.131;  -21.150; -226.000; -160.000
383.261;  -45.900; -706.000; -768.000
383.391;  268.725; -552.000; -377.000
383.521; 3311.950;  451.000;  263.000
383.650;  823.675; -947.000; -904.000
383.780;  -32.325; -783.000; -656.000
383.910;   89.050;  880.000;  802.000
384.039;    2.300; -794.000; -656.000
384.169;  168.850;-1205.000;-1017.000
384.299;  -41.000; -650.000; -662.000
384.428; -101.725; -764.000; -680.000
384.558;  -49.400; -308.000; -275.000
384.687;  -52.675; -414.000; -334.000
384.817;    4.275;   75.000;   -2.000
384.947;   17.375; -234.000; -141.000
385.076;  279.225;  982.000;  912.000
385.206;   84.750;  369.000;  480.000
385.335;  -43.025; -549.000; -417.000
385.465;  -85.325; -655.000; -663.000
385.594;  116.925;  -53.000;  -44.000
385.724;  365.925; -868.000; -838.000
385.853;   97.825; -296.000; -270.000
385.982; 1233.550; -743.000; -787.000
386.112; 2008.925;-1052.000; -871.000
386.241;  124.675; -307.000; -312.000
386.371;   19.600; -174.000;  -87.000
386.500;  -25.750; -825.000; -789.000
386.629;   15.950; -874.000; -817.000
386.759;   52.175;  -43.000;   68.000
386.888;  -13.275; -170.000; -250.000
387.017;  -76.450; -648.000; -620.000
387.147; -105.300; -771.000; -798.000
387.276;   -5.400; -410.000; -397.000
387.405;    5.200; -398.000; -342.000
387.535;  -55.350; -452.000; -361.000
387.664;  -63.900; -692.000; -620.000
387.793;   36.750; -198.000; -113.000
387.922;  475.650;  255.000;  200.000
388.052;    0.650; -576.000; -423.000
388.181;   -6.050; -342.000; -472.000
388.310;  -19.075; -889.000; -710.000
388.439;  -63.425; -749.000; -742.000
388.568;  148.925;  365.000;  244.000
388.697;  939.100; -756.000; -653.000
388.826;  181.750; -768.000; -666.000
388.956;   49.000; -285.000; -307.000
389.085;  -38.625; -347.000; -287.000
389.214; -112.550; -842.000; -872.000
389.343;  -75.050; -645.000; -413.000
389.472;  388.475;  126.000;  149.000
389.601;  505.600;   91.000;    0.000
389.730;   15.875; -568.000; -687.000
389.859;   59.925;  226.000;   46.000
389.988;  166.425; -423.000; -408.000
390.117;  127.250; -168.000; -146.000
390.246;  -29.400; -331.000; -320.000
390.375;   78.075; -673.000; -626.000
390.504;  -73.100; -703.000; -621.000
390.633; -100.375; -672.000; -726.000
390.761;  -73.050; -732.000; -645.000
390.890;   10.125;   -4.000; -130.000
391.019;  -39.950; -421.000; -441.000
391.148; -128.400; -826.000; -855.000
391.277;  -67.125; -576.000; -493.000
391.406;  -94.150; -821.000; -805.000
391.534;   14.125;  574.000; -301.000
391.663;  -82.300; -583.000; -645.000
391.792;  -88.425; -673.000; -701.000
391.921;   76.550;   -3.000;   15.000
392.050;  156.150; -287.000; -228.000
392.178;  -63.125;-1206.000;-1061.000
392.307;  125.800; -758.000; -712.000
392.436;   51.425; -427.000; -641.000
392.564;   14.875;  166.000;   -6.000
392.693; -108.125; -860.000; -682.000
392.822;  160.925; -529.000; -534.000
392.950;   80.500; -880.000; -714.000
393.079;  297.075; -188.000; -328.000
393.208;   19.675; -488.000; -511.000
393.336;  -23.250; -170.000; -145.000
393.465;  -56.350; -317.000; -199.000
393.593;  -20.875;   62.000;   79.000
393.722; -152.450;-1121.000; -916.000
393.850;  -43.975; -188.000;  -61.000
393.979; -155.475; -926.000; -805.000
394.107;  -75.200; -517.000; -537.000
394.236;  -29.175; -570.000; -507.000
394.364;  195.625;  383.000;  206.000
394.493;  312.250; -911.000; -767.000
394.621;  -19.225; -955.000; -916.000
394.750;  718.500; -873.000; -923.000
394.878; 2968.800; -247.000; -149.000
395.007; 4096.725; -721.000; -807.000
395.135;  304.450; -790.000; -721.000
395.263;  -73.500;-1038.000;-1040.000
395.392;   12.150;  -25.000; -107.000
395.520; -141.350; -818.000; -679.000
395.648; -105.350; -865.000; -915.000
395.777;  -24.300; -366.000; -405.000
395.905;  -59.350; -449.000; -564.000
396.033;    4.925;  217.000;  172.000
396.162;  508.350; -399.000; -453.000
396.290;  452.000;  -17.000;   -2.000
396.418;   64.950; -555.000; -514.000
396.546;  -80.975; -571.000; -466.000
396.674; -113.175; -850.000; -878.000
396.803;   -3.025;  -72.000;  -23.000
396.931;   68.050; -179.000; -199.000
397.059;   24.175;-1026.000; -989.000
397.187; -118.450;-1026.000; -975.000
397.315; -147.175; -884.000; -649.000
397.443;  -88.850; -592.000; -443.000
397.572; -103.550; -578.000; -424.000
397.700;  -16.850; -607.000; -614.000
397.828;   -4.025;  120.000;  -90.000
397.956;  -53.350; -508.000; -478.000
398.084;  -63.725; -767.000; -626.000
398.212;   26.375;  137.000;  124.000
398.340;    1.325;  -56.000;  159.000
398.468;   17.150; -390.000; -169.000
398.596; -134.925; -993.000; -953.000
398.724; -121.850; -762.000; -767.000
398.852; -171.400;-1024.000; -976.000
398.980;  -68.750; -560.000; -560.000
399.108;  -65.725; -982.000; -735.000
399.236;   34.975;   13.000;    8.000
399.363;   -4.500;  222.000;  196.000
399.491;  -78.475; -404.000; -398.000
399.619; -134.450; -829.000; -800.000
399.747; -110.675; -859.000; -771.000
399.875;   78.325;  220.000;  234.000
400.003;  -52.525; -359.000; -284.000
400.130;  -94.600; -421.000; -341.000
400.258;  -34.025;  -83.000;   38.000
400.386;  -74.275; -352.000; -168.000
400.514;  -66.725; -526.000; -587.000
400.641;  -89.050; -928.000; -802.000
400.769; -143.000; -979.000; -888.000
400.897; -113.200; -838.000; -793.000
401.025;  -26.150; -166.000; -152.000
401.152;  -16.400;  220.000;   38.000
401.280;  -74.875; -430.000; -429.000
401.408; -132.125; -712.000; -576.000
401.535; -109.325; -735.000; -758.000
401.663; -188.625;-1134.000;-1054.000
401.790;  -89.175; -514.000; -525.000
401.918;   17.600;  436.000;  405.000
402.046;  -27.175;  134.000;  122.000
402.173;  -54.225;  -18.000;    7.000
402.301;  -92.900; -519.000; -397.000
402.428;   30.100;  528.000;  383.000
402.556; -152.475;-1188.000; -913.000
402.683;  -42.225;  -20.000;   -1.000
402.811;  -21.725;  -37.000; -206.000
402.938;  -24.200;   20.000;   27.000
403.066;  167.250; -574.000; -558.000
403.193;  296.525;  299.000;  239.000
403.321;  223.625; -396.000; -574.000
403.448;  302.350;   83.000;   27.000
403.575;  122.975;  -90.000;  -46.000
403.703; -105.650; -732.000; -557.000
403.830;  -77.000; -531.000; -496.000
403.957; -141.525;-1117.000;-1023.000
404.085;    3.825;  -61.000; -172.000
404.212;   82.400;  -50.000;   63.000
404.339;  252.925; -566.000; -306.000
404.467; 5835.225; -612.000; -524.000
404.594; 3843.650; -287.000; -227.000
404.721;  862.700; -869.000; -764.000
404.848;   69.200; -113.000; -202.000
404.976; -116.775; -856.000; -783.000
405.103;  -15.000;  -14.000;  -82.000
405.230;  -13.850;  190.000;  226.000
405.357;   15.500;  117.000;   44.000
405.484;  268.400;  -49.000;    5.000
405.612;   58.625; -548.000; -563.000
405.739;  -64.050; -488.000; -243.000
405.866;   75.675;  669.000;  385.000
405.993;  -42.875; -398.000; -102.000
406.120; -134.925; -801.000; -887.000
406.247;  -51.675; -323.000; -342.000
406.374;  382.750;  540.000;  629.000
406.501;   75.600; -632.000; -702.000
406.628;  -91.600; -621.000; -589.000
406.755; -115.775; -803.000; -620.000
406.882;  -51.125; -228.000; -277.000
407.009; -108.825; -719.000; -628.000
407.136;   25.300; -480.000; -401.000
407.263;   98.375; -939.000; -829.000
407.390;  -84.750; -692.000; -614.000
407.517; -165.700;-1139.000;-1187.000
407.644;  -70.525; -332.000; -256.000
407.771;  -82.350; -249.000; -287.000
407.898;   -0.050;  168.000;  328.000
408.025;  -84.325; -421.000; -313.000
408.151;    3.075;   82.000;  153.000
408.278;  -62.725; -267.000; -216.000
408.405; -115.775; -931.000; -899.000
408.532;  -71.075; -549.000; -542.000
408.659; -109.825; -677.000; -648.000
408.785; -194.875;-1298.000;-1170.000
408.912;  -76.125; -412.000; -296.000
409.039; -124.125; -610.000; -686.000
409.166; -102.575; -591.000; -555.000
409.292; -111.850; -571.000; -534.000
409.419; -110.875; -665.000; -649.000
409.546;  -86.550; -431.000; -192.000
409.672;  -92.525; -713.000; -545.000
409.799;  -28.700;  -36.000;   34.000
409.926;  -33.275; -180.000; -179.000
410.052; -175.425;-1127.000;-1091.000
410.179;  -63.175; -368.000; -392.000
410.305;  -83.775; -375.000; -493.000
410.432;  -37.850; -220.000; -333.000
410.558;  -87.675; -305.000; -380.000
410.685;  -98.400; -688.000; -431.000
410.812; -104.925; -409.000; -588.000
410.938; -147.525; -964.000; -808.000
411.065; -102.400; -671.000; -645.000
411.191;  -26.000; -189.000; -174.000
411.317; -123.525; -823.000; -742.000
411.444;  -70.750; -317.000; -246.000
411.570;  -66.425; -339.000; -294.000
411.697; -129.500; -758.000; -752.000
411.823; -181.125; -989.000; -999.000
411.949;  -30.500;  -56.000;   17.000
412.076; -121.300; -539.000; -519.000
412.202; -128.150; -758.000; -757.000
412.329; -131.500; -798.000; -752.000
412.455; -106.125; -821.000; -657.000
412.581;  -25.250;  -15.000;  172.000
412.707;  -81.775; -540.000; -457.000
412.834;    4.975;  156.000;  219.000
412.960;  -70.075; -785.000; -784.000
413.086; -119.925; -743.000; -701.000
413.212;  131.425;  604.000;  578.000
413.339;  -67.825; -685.000; -701.000
413.465;  -12.875; -364.000; -310.000
413.591;  -95.450; -757.000; -474.000
413.717;  -51.650; -358.000; -366.000
413.843; -137.875; -839.000; -861.000
413.969;  -68.425;  -47.000; -292.000
414.096; -110.575; -679.000; -679.000
414.222;  -13.050;  -33.000;   85.000
414.348;  -49.850; -652.000; -385.000
414.474;   89.275;   38.000;  -52.000
414.600;  -22.650; -126.000; -144.000
414.726;   -4.525;  -96.000;  -55.000
414.852;  -63.325; -365.000; -342.000
414.978;   28.575;  104.000;  -18.000
415.104;   34.675;   38.000;   80.000
415.230;   14.925; -329.000; -330.000
415.356;   30.975; -409.000; -514.000
415.482;  187.075;   13.000;  -35.000
415.608;  266.025; -247.000; -323.000
415.734;  942.725;   67.000;   38.000
415.860;19909.375; -875.000; -767.000
415.986;15018.050; -685.000; -607.000
416.111; 1299.375; -798.000; -652.000
416.237;  261.650; -424.000; -571.000
416.363; 1121.750; -765.000; -733.000
416.489; 4339.425; -324.000; -251.000
416.615;  477.175; -707.000; -742.000
416.741;  -27.575; -677.000; -784.000
416.866;  -97.550; -673.000; -736.000
416.992; -117.925; -801.000; -818.000
417.118;  -31.150;  -41.000;  -80.000
417.244;  -80.000; -798.000; -531.000
417.369;  -95.325; -801.000; -612.000
417.495;  -17.125; -325.000; -254.000
417.621;  -93.675;-1015.000; -803.000
417.746;    2.575; -579.000; -572.000
417.872;   42.525; -254.000; -144.000
417.998;   41.550; -515.000; -530.000
418.123; 1049.675;-1073.000; -845.000
418.249; 5498.300; -512.000; -601.000
418.374;  798.975; -916.000; -824.000
418.500;  113.950; -383.000; -482.000
418.626;  120.875;   70.000;  -59.000
418.751;  113.925; -549.000; -448.000
418.877;  205.375; -637.000; -643.000
419.002; 1793.025; -688.000; -560.000
419.128;12880.775; -930.000; -721.000
419.253; 3255.450; -967.000; -837.000
419.379;  436.000; -391.000; -338.000
419.504;  406.075;  325.000;  415.000
419.629;  516.650; -393.000; -212.000
419.755; 3574.400; -317.000; -254.000
419.880;21887.350;  -98.000;   67.000
420.006;11630.450; -280.000; -221.000
420.131;30069.475; -662.000; -775.000
420.256; 4485.825; -315.000; -316.000
420.382;  567.250; -665.000; -687.000
420.507;   80.850; -649.000; -778.000
420.632;  105.775; -337.000; -339.000
420.758;  203.575; -251.000; -425.000
420.883;  -84.725; -876.000; -672.000
421.008; -113.325; -775.000; -619.000
421.133;  -99.850; -509.000; -467.000
421.259;  -52.275; -325.000; -259.000
421.384; -112.300; -834.000; -693.000
421.509;  -62.800;-1052.000; -862.000
421.634;  989.550; -936.000; -820.000
421.759;  433.500; -359.000; -327.000
421.885;  -67.825; -717.000; -656.000
422.010;  -79.875; -673.000; -542.000
422.135; -163.400; -695.000; -727.000
422.260;   22.000;  340.000;  280.000
422.385;  -35.625;   12.000;  -98.000
422.510;   -0.250;  151.000;  -26.000
422.635;   10.600;  -87.000;  -43.000
422.760;   85.250; -766.000; -791.000
422.885;   57.550;  -57.000;  -80.000
423.010;  -39.925; -112.000; -169.000
423.135;  -99.775; -481.000; -561.000
423.260;  -26.425; -150.000; -245.000
423.385;   40.925;  476.000;  222.000
423.510;   14.225;   71.000;  -22.000
423.635;   68.450;  133.000;   45.000
423.760;   57.050;  383.000;  328.000
423.885;   47.550;  336.000;  391.000
424.010;    7.850;  -68.000;  -13.000
424.135;  -21.350;    5.000;  -33.000
424.259;  -78.600; -654.000; -457.000
424.384;  -73.350; -279.000; -272.000
424.509;  -37.100; -260.000; -186.000
424.634;  -96.600; -761.000; -623.000
424.759;  -42.425; -688.000; -544.000
424.883;  -26.425; -506.000; -527.000
425.008;  142.525; -502.000; -410.000
425.133; 2025.625; -679.000; -653.000
425.258;  971.500; -517.000; -381.000
425.382;  981.325; -867.000; -774.000
425.507; 2477.075; -487.000; -543.000
425.632;  418.475; -802.000; -663.000
425.756;  470.825; -256.000; -146.000
425.881; 6642.250; -831.000; -857.000
426.006;18589.775; -604.000; -355.000
426.130; 2934.725; -696.000; -508.000
426.255;  394.050; -611.000; -491.000
426.379;  136.450; -189.000; -577.000
426.504;  367.275;  660.000;  544.000
426.629; 4026.700; -519.000; -466.000
426.753; 2861.400;   64.000;  -46.000
426.878;  314.125; -252.000; -288.000
427.002;  140.550; -651.000; -668.000
427.127; 1574.725;  -35.000; -158.000
427.251;11655.400;  372.000;  401.000
427.375; 3408.075; -191.000; -173.000
427.500; 2187.675; -616.000; -610.000
427.624;  756.150; -234.000; -400.000
427.749;   81.125; -216.000; -225.000
427.873;  -35.375; -499.000; -412.000
427.997;  -36.475; -222.000; -230.000
428.122;   70.975;  795.000;  703.000
428.246;   67.500;  433.000;  434.000
428.371; -140.050; -869.000; -773.000
428.495; -112.400; -624.000; -646.000
428.619;  -55.850; -186.000; -117.000
428.743;   24.100;   65.000;  132.000
428.868;    5.475; -732.000; -643.000
428.992; 1288.250; -219.000; -326.000
429.116;  521.700; -329.000; -357.000
429.240;  248.450;  419.000;  426.000
429.365;  -37.825; -454.000; -574.000
429.489;  -55.200; -638.000; -647.000
429.613;   12.725; -236.000; -177.000
429.737;   28.050; -563.000; -432.000
429.861;  256.850; -247.000; -133.000
429.985; 5583.275; -425.000; -305.000
430.109; 6341.800; -770.000; -908.000
430.234;  733.400;   76.000;  -50.000
430.358;   75.475; -250.000; -160.000
430.482;  -61.950; -672.000; -564.000
430.606;  -63.275; -655.000; -375.000
430.730;   -4.475; -437.000; -388.000
430.854;   85.925; -909.000; -835.000
430.978;  -85.425; -795.000; -764.000
431.102;  -88.900; -499.000; -422.000
431.226; -127.325; -874.000; -815.000
431.350;   20.075;  345.000;  422.000
431.474;  -88.000; -661.000; -373.000
431.597; -161.400;-1060.000; -848.000
431.721;  -74.100; -276.000; -267.000
431.845; -139.375; -704.000; -472.000
431.969;  -83.975; -304.000; -349.000
432.093;  -95.250; -395.000; -317.000
432.217;  -15.450;   32.000;   82.000
432.341;  -93.050; -523.000; -518.000
432.464;    0.625;   96.000;   40.000
432.588;  164.975; -401.000; -329.000
432.712;   76.800;  -52.000;  -52.000
432.836;   32.675;  213.000;  263.000
432.959;  -18.150; -372.000; -311.000
433.083;   83.825;   11.000;    2.000
433.207;  392.100;  285.000;  930.000
433.330; 5103.250; -391.000; -200.000
433.454; 6506.900; -654.000; -638.000
433.578; 3700.950;  583.000;  278.000
433.701;  696.800; -623.000; -675.000
433.825;  113.950; -292.000; -299.000
433.949;  138.750;   28.000;  -72.000
434.072;   46.425; -410.000; -323.000
434.196;  -15.850; -309.000; -117.000
434.319; 3730.050;25482.000;25124.000
434.443;  706.225; -656.000; -603.000
434.566; 2710.300;  281.000;   62.000
434.690;  489.175; -637.000; -383.000
434.813;   54.525; -251.000; -173.000
434.937;  -77.775; -569.000; -696.000
435.060;  -60.450; -423.000; -332.000
435.184;  230.575; -492.000; -217.000
435.307;  142.450;  159.000;  102.000
435.431;  -10.650;  -40.000;   24.000
435.554;  -76.525; -399.000; -240.000
435.677;  -82.275; -350.000; -258.000
435.801;  -51.550;  -25.000;   49.000
435.924;  -20.075;    1.000;  -67.000
436.048; -122.125;-1019.000; -732.000
436.171;  -59.075; -240.000;  -66.000
436.294;  -37.525; -248.000; -229.000
436.417;   86.950; -963.000; -849.000
436.541;  -84.075; -814.000; -840.000
436.664;  -53.650; -242.000; -316.000
436.787;  -41.350;   13.000;  113.000
436.910; -118.700; -792.000; -422.000
437.034;   -2.625;  142.000;  143.000
437.157;   13.200;  -11.000;    0.000
437.280;  -60.025; -392.000; -292.000
437.403;  -90.675; -982.000; -869.000
437.526;  509.875; -903.000; -865.000
437.649; 1985.775; -505.000; -332.000
437.772;  290.000; -692.000; -540.000
437.896;  108.050;  700.000;  544.000
438.019;  -96.550; -758.000; -503.000
438.142;  -86.400; -596.000; -506.000
438.265;  -48.925; -639.000; -670.000
438.388;  474.725; -520.000; -410.000
438.511;   79.575; -597.000; -394.000
438.634;  -48.350; -247.000; -125.000
438.757; -138.025; -693.000; -619.000
438.880;  -28.525;  -34.000;  -57.000
439.003;  -96.825; -417.000; -437.000
439.126;  -79.125; -287.000; -167.000
439.248;  -59.875;  -98.000; -139.000
439.371;  -60.525;    9.000;  -53.000
439.494;   17.325;  510.000;  439.000
439.617;  -66.175;   65.000;  -88.000
439.740; -173.550; -968.000; -816.000
439.863; -144.700; -755.000; -595.000
439.986; -116.350; -476.000; -431.000
440.108;  -49.100; -161.000; -112.000
440.231; -169.900; -950.000; -836.000
440.354;  -51.450;  -64.000; -150.000
440.477;   -2.600; -566.000; -542.000
440.599;  -19.925; -200.000; -225.000
440.722; -116.400; -709.000; -586.000
440.845;   68.750;  751.000;  928.000
440.968; -103.100; -415.000; -311.000
441.090;  -65.475; -199.000;  -33.000
441.213; -181.550;-1021.000; -825.000
441.336;  -58.975; -159.000;   -5.000
441.458;  -93.175; -549.000; -396.000
441.581;  -95.100; -628.000; -629.000
441.703;  -77.500; -152.000;   13.000
441.826; -115.350; -557.000; -400.000
441.948;  -45.575;   56.000;   51.000
442.071;   33.950;  555.000;  424.000
442.193; -111.925; -531.000; -485.000
442.316;   14.200;  152.000;   97.000
442.438;   37.200; -233.000;  -10.000
442.561;   65.375;  272.000;  262.000
442.683;  439.100; -809.000; -522.000
442.806; 1028.100;   -8.000;   74.000
442.928;    1.075; -859.000; -604.000
443.051;  -75.650; -577.000; -373.000
443.173;  -93.025; -341.000; -339.000
443.295; -101.875; -263.000; -371.000
443.418;  -63.275; -321.000;  -29.000
443.540;   -3.150; -106.000;   -4.000
443.662; -116.850; -563.000; -465.000
443.785;  -26.625;  335.000;  199.000
443.907; -102.575; -362.000; -208.000
444.029; -140.125; -767.000; -494.000
444.152; -154.975; -644.000; -554.000
444.274;  -36.950;  -18.000;  -24.000
444.396; -111.250; -461.000; -221.000
444.518; -131.425; -691.000; -454.000
444.640; -105.900; -268.000; -111.000
444.763;  -16.750;  388.000;  249.000
444.885; -123.950; -432.000; -392.000
445.007;  -38.875;   35.000;   86.000
445.129; -118.925; -610.000; -515.000
445.251; -113.100; -372.000; -439.000
445.373; -133.225; -537.000; -386.000
445.495;   -6.450;  242.000;  350.000
445.617;   49.325;  853.000;  753.000
445.739;  -75.550; -215.000;  -97.000
445.861;  -43.550; -245.000; -112.000
445.984;  -41.000; -267.000; -101.000
446.105;  148.250; -418.000; -251.000
446.227;  534.125; -176.000;  -19.000
446.349;   -8.750; -358.000; -249.000
446.471;  -95.100; -615.000; -448.000
446.593;  -70.750; -316.000;   19.000
446.715;   -0.525;  -67.000;   41.000
446.837;   49.275;  697.000;  832.000
446.959;  -95.475; -457.000; -478.000
447.081; -137.800; -628.000; -518.000
447.203;   50.300;  862.000;  834.000
447.325;  -90.175; -270.000;   42.000
447.446;   -8.750;  286.000;  530.000
447.568; -161.100; -921.000; -803.000
447.690;  -70.675; -236.000; -245.000
447.812; -157.250; -798.000; -519.000
447.933;  -35.050;  155.000;  127.000
448.055;  -70.525; -306.000; -261.000
448.177;  123.375;   31.000;   79.000
448.299;   51.550; -935.000; -727.000
448.420;   24.525;  -25.000;  159.000
448.542;  -53.825;   -3.000;   33.000
448.664;  -22.225;  109.000;  322.000
448.785;  -36.725;  265.000;   83.000
448.907;  -66.925; -614.000; -353.000
449.028;  -54.525; -771.000; -471.000
449.150;   45.250;  492.000;  589.000
449.272; -187.400;-1044.000; -913.000
449.393;   16.575;  612.000;  694.000
449.515; -155.200; -634.000; -581.000
449.636;  -69.275; -264.000; -155.000
449.758;   46.400;  763.000;  622.000
449.879;  -98.825; -498.000; -396.000
450.001;  -90.075; -149.000;  -49.000
450.122;  -38.200;  -95.000;  162.000
450.244;  -22.525;   37.000;  364.000
450.365;  -94.350; -495.000; -301.000
450.486;  -34.025;   80.000;  268.000
450.608;   15.200;  393.000;  326.000
450.729;   54.475;  578.000;  645.000
450.850;   -2.575; -574.000; -466.000
450.972;  760.625; -552.000; -389.000
451.093; 5078.400;  190.000;  588.000
451.214; 2283.425; -516.000; -337.000
451.336;  411.925;  773.000;  579.000
451.457;   69.825;  264.000;  393.000
451.578;  -38.400; -118.000;  -74.000
451.699; -120.675; -546.000; -540.000
451.821;  -62.775; -284.000;  -50.000
451.942;   -4.900;  278.000;  285.000
452.063;   13.300;  228.000;  419.000
452.184;  543.675;  -54.000;  -49.000
452.305; 1133.575;  103.000;  170.000
452.427;  145.100; -549.000; -301.000
452.548;  -24.275;   23.000;   79.000
452.669;  -70.675; -257.000;  -89.000
452.790;  -49.050;    3.000;  -18.000
452.911;   -7.525;  195.000;  259.000
453.032;  -84.275; -289.000;  -60.000
453.153;  -42.350;  -29.000;   81.000
453.274;   62.475;  737.000;  868.000
453.395;  -44.150;  -51.000;  175.000
453.516;  109.200; 1317.000; 1388.000
453.637;  -80.450; -205.000; -150.000
453.758;  -71.375;   15.000;   69.000
453.879; -118.425; -462.000; -250.000
454.000;   60.800; 1086.000;  948.000
454.121; -118.500; -554.000; -326.000
454.242; -123.875; -599.000; -383.000
454.362;  -60.975;  -99.000;  114.000
454.483;  -53.750; -309.000; -229.000
454.604;   50.625;  512.000;  580.000
454.725; -139.375; -627.000; -555.000
454.846; -122.375; -474.000; -406.000
454.967;  -28.425;  230.000;  539.000
455.087;  -48.775;  179.000;  153.000
455.208;   -2.850;  554.000;  856.000
455.329;  -66.475;  -22.000;   82.000
455.450;   35.150;  473.000;  633.000
455.570;  -87.625; -234.000; -211.000
455.691;  -44.600;  201.000;  407.000
455.812; -111.575; -270.000;  -92.000
455.932;  -69.850;  107.000;  -97.000
456.053;  -83.300;   36.000;   24.000
456.173; -115.450; -433.000; -355.000
456.294; -140.750; -476.000; -303.000
456.415;  -80.925;  -73.000;   70.000
456.535;  -32.750;  297.000;  273.000
456.656;  -54.400;  132.000;  240.000
456.776;  -83.200;    3.000;  298.000
456.897;   -9.450;  308.000;  513.000
457.017;  -84.150; -153.000;   -3.000
457.138; -121.400; -402.000; -249.000
457.258;  -38.975;  263.000;  224.000
457.379;  -20.000;  509.000;  521.000
457.499;  -36.450;  443.000;  432.000
457.620; -126.150; -407.000; -231.000
457.740; -102.775; -132.000;  -11.000
457.860;  -79.275;   87.000;   44.000
457.981;  -51.175;  132.000;  124.000
458.101;  -83.125;  -89.000;   40.000
458.221;   -5.200;  336.000;  402.000
458.342;  -61.275;   -4.000;  -37.000
458.462;   15.250;  617.000;  352.000
458.582;  -35.675; -302.000; -294.000
458.703;    6.125;  303.000;  154.000
458.823;  -32.925;   22.000;  163.000
458.943;   14.875;  341.000;  467.000
459.063;   -8.225; 1124.000;  192.000
459.183;  -38.125;  328.000;  313.000
459.304;   11.200;  315.000;  517.000
459.424;  -57.150; -246.000;  -89.000
459.544;  345.400;  388.000;  764.000
459.664;  837.625;  499.000;  506.000
459.784;  335.550; 1004.000; 1175.000
459.904;   55.350;  867.000;  744.000
460.024;   66.350;  867.000;  684.000
460.144;    8.425;  449.000;  554.000
460.264;  -11.625;  515.000;  327.000
460.385; -106.550; -145.000; -119.000
460.505;   33.375;  905.000;  858.000
460.625;  -87.450;  -17.000;  -68.000
460.745;  -24.050;  396.000;  541.000
460.864;  -56.400;  153.000;  469.000
460.984;   -0.600;  499.000;  573.000
461.104;  136.200; 1656.000; 1775.000
461.224;   23.575;  657.000;  650.000
461.344;  -48.525;  431.000;  360.000
461.464;  -27.975;  258.000;  513.000
461.584;  -16.575;  283.000;  466.000
461.704;  -54.850;   58.000;  108.000
461.824;  -62.075;  238.000;  259.000
461.943;  -37.125;  191.000;  130.000
462.063;  -69.550;    2.000;  324.000
462.183;   23.775;  639.000;  717.000
462.303;   91.600; 1678.000; 1230.000
462.422;   30.400;  781.000;  840.000
462.542;  -59.125;  271.000;  391.000
462.662;   37.975;  353.000;  380.000
462.782;  239.300;  833.000;  572.000
462.901;  493.525;  545.000;  717.000
463.021;  291.975; 1702.000; 1638.000
463.141;   -1.000;  337.000;  770.000
463.260;  -17.450;  614.000;  474.000
463.380;   -0.400;  902.000;  884.000
463.499;  -38.250;  342.000;  332.000
463.619;  -19.100;  581.000;  559.000
463.738;  109.125; 1644.000;  903.000
463.858;   -0.725;  657.000;  811.000
463.978;  -41.000;  542.000;  396.000
464.097;   35.825;  921.000; 1114.000
464.217;  112.775; 1196.000; 1143.000
464.336;  117.425; 1068.000; 1130.000
464.455;  -31.825;  328.000;  659.000
464.575;   41.000;  597.000;  602.000
464.694;  152.575; 1204.000; 1179.000
464.814;  116.250; 1190.000; 1138.000
464.933;   76.500; 1095.000; 1027.000
465.052;   83.150; 1412.000; 1054.000
465.172;   63.275;  922.000;  799.000
465.291;  134.325; 1376.000; 1320.000
465.410;   13.625;  462.000;  735.000
465.530;   91.750; 1355.000; 1310.000
465.649;   48.825; 1209.000; 1273.000
465.768;  139.550; 1673.000; 1508.000
465.888;   34.150;  941.000; 1174.000
466.007;  101.775; 1335.000; 1440.000
466.126;   -4.775;  721.000;  641.000
466.245;   52.700; 1176.000; 1187.000
466.364;   18.550;  950.000; 1060.000
466.484;   71.025; 1024.000; 1213.000
466.603;   29.825; 1101.000; 1222.000
466.722;  113.850; 1490.000; 1769.000
466.841;   70.175; 1151.000; 1401.000
466.960;   48.575; 1069.000;  972.000
467.079;  132.275; 1971.000; 1786.000
467.198;   48.775; 1238.000; 1181.000
467.317;   79.725; 1768.000; 1162.000
467.436;   52.175; 1709.000; 1261.000
467.555;  109.175; 1796.000; 1746.000
467.674;   61.675; 1227.000; 1329.000
467.793;   51.100; 1376.000; 1374.000
467.912;   86.525; 1658.000; 1539.000
468.031;  130.350; 2038.000; 1930.000
468.150;  152.375; 1842.000; 1837.000
468.269;  190.875; 2313.000; 2090.000
468.388;  176.775; 2168.000; 2339.000
468.507;  241.925; 2884.000; 2903.000
468.626;  270.300; 2555.000; 2541.000
468.744;  125.150; 2018.000; 2174.000
468.863;  196.750; 2312.000; 2523.000
468.982;   81.450; 1503.000; 1555.000
469.101;  217.800; 2788.000; 2692.000
469.220;  152.950; 2333.000; 2176.000
469.338;  237.200; 2935.000; 3051.000
469.457;  177.525; 2719.000; 2545.000
469.576;  354.450; 3953.000; 3784.000
469.695;  243.000; 2877.000; 3066.000
469.813;  412.900; 4148.000; 4192.000
469.932;  407.575; 4255.000; 4485.000
470.051;  427.850; 4075.000; 4161.000
470.169;  858.625; 4470.000; 4338.000
470.288; 1501.050; 4700.000; 4809.000
470.406;  892.550; 5059.000; 5194.000
470.525;  629.650; 6101.000; 5787.000
470.644;  638.250; 6847.000; 6794.000
470.762;  808.275; 8397.000; 7873.000
470.881;  902.725; 8651.000; 8464.000
470.999; 1049.175; 9685.000; 9151.000
471.118; 1070.625;11174.000;10711.000

