
Integration time [ms]: 200.000
Averaging Nr. [scans]: 10
Smoothing Nr. [pixels]: 0
Data measured with spectrometer [name]: 2101012U2
Wave   ;Sample   ;Dark     ;Reference
[nm]   ;[counts] ;[counts] ;[counts] 

197.733;  137.900;  516.000;  404.000
197.879; -152.400; -610.000; -634.000
198.025; -103.800; -475.000; -420.000
198.171; -158.400; -602.000; -612.000
198.317;  -36.400; -401.000; -316.000
198.463; -138.200; -655.000; -404.000
198.609;   44.100;  181.000; -137.000
198.755; -202.100; -644.000; -410.000
198.901; -120.900; -505.000; -424.000
199.047; -112.400; -615.000; -488.000
199.193;  -54.000; -230.000; -468.000
199.339; -104.300; -222.000; -369.000
199.485;   84.100;  330.000;  271.000
199.631;   36.700;  227.000;  310.000
199.777;  -64.200; -466.000; -398.000
199.923; -153.800; -610.000; -424.000
200.069;    9.400; -141.000;  -58.000
200.215;  129.800;  128.000;  453.000
200.361;  101.100;  243.000;  477.000
200.507; -164.900; -600.000; -373.000
200.653;  -81.400; -371.000; -194.000
200.798;  -68.400; -215.000; -125.000
200.944;   10.900; -146.000;  -41.000
201.090;   75.500;   61.000;  222.000
201.236;  -11.300; -116.000; -158.000
201.382;  251.400;  874.000;  903.000
201.528;   -3.400;  -58.000;  -48.000
201.674; -164.100; -386.000; -293.000
201.819;  -87.900; -540.000; -439.000
201.965; -191.000; -699.000; -447.000
202.111;  -55.500; -273.000; -226.000
202.257;  -57.600; -250.000; -238.000
202.402;   32.500;   13.000;  -36.000
202.548;  -63.300; -169.000; -116.000
202.694;  187.900;  410.000; -183.000
202.840; -155.400; -603.000; -531.000
202.985; -136.900; -681.000; -639.000
203.131; -242.200; -832.000; -666.000
203.277;  -32.300; -199.000; -262.000
203.423; -118.100; -434.000; -520.000
203.568;  -58.900; -462.000; -237.000
203.714; -115.400; -535.000; -542.000
203.860; -128.000; -682.000; -641.000
204.005;   25.200;  112.000;  167.000
204.151;  188.000;  561.000;  556.000
204.296;  -89.000; -354.000; -221.000
204.442; -134.100; -600.000; -547.000
204.588; -150.200; -592.000; -579.000
204.733;   41.100;  178.000;  168.000
204.879; -281.100;-1018.000; -822.000
205.025;   48.700;  -99.000;  126.000
205.170;   16.900;  -17.000;   94.000
205.316;  184.800;  438.000;  661.000
205.461; -161.600; -698.000; -554.000
205.607;  188.700;  609.000;  665.000
205.752; -155.300; -626.000; -551.000
205.898;  -84.300; -501.000; -391.000
206.043; -111.400; -578.000; -506.000
206.189;  -59.000; -243.000; -285.000
206.334;  177.600;  554.000;  606.000
206.480;  170.100;  409.000;  239.000
206.625; -170.500; -529.000; -552.000
206.771;  -81.500; -451.000; -373.000
206.916;  -80.600; -210.000; -537.000
207.062; -156.700; -545.000; -591.000
207.207; -123.600; -546.000; -443.000
207.353;  127.200;  185.000;  460.000
207.498;   39.700;  196.000;   85.000
207.643;  -97.300; -501.000; -370.000
207.789; -280.100;-1069.000; -910.000
207.934; -203.300; -665.000; -713.000
208.080;  -76.700; -154.000;   66.000
208.225;  -29.100;  -22.000;  -57.000
208.370; -163.100; -727.000; -619.000
208.516; -161.700; -741.000; -487.000
208.661;  -52.800; -127.000;  -69.000
208.806;  -24.200; -165.000; -171.000
208.952; -241.400;-1044.000; -731.000
209.097;  192.300;  378.000;  349.000
209.242;  -84.400; -307.000; -382.000
209.387;  113.700;  392.000;  350.000
209.533; -115.800; -321.000; -350.000
209.678;  178.900;  472.000;  543.000
209.823; -107.800; -408.000; -310.000
209.969; -197.300; -860.000; -757.000
210.114; -220.800; -907.000; -719.000
210.259; -247.600; -939.000; -889.000
210.404;  -37.200; -171.000;  103.000
210.549;   30.000;  108.000;    3.000
210.695;  -31.300;   -3.000;  -95.000
210.840;   93.500;   94.000;   67.000
210.985; -140.000; -484.000; -303.000
211.130;  143.600;  268.000;  406.000
211.275;   18.500;  207.000;  199.000
211.420;  -62.600; -300.000; -289.000
211.566; -146.100; -536.000; -489.000
211.711;   56.600;  218.000;  157.000
211.856; -139.600; -545.000; -519.000
212.001;   60.700;  151.000;   44.000
212.146;   19.200;  153.000;   49.000
212.291;  -32.700; -210.000; -186.000
212.436;  -48.300; -280.000;   -6.000
212.581; -148.300; -685.000; -653.000
212.726; -173.800; -487.000; -538.000
212.871;  -75.100; -552.000; -217.000
213.016; -317.000;-1172.000;-1029.000
213.161;  171.100;  406.000;  291.000
213.306; -142.400; -435.000; -577.000
213.451; -183.000; -778.000; -689.000
213.596; -105.400; -455.000; -347.000
213.741;  -89.200; -448.000; -538.000
213.886; -160.200; -498.000; -517.000
214.031;  -18.500; -294.000; -124.000
214.176; -127.500; -408.000; -341.000
214.321;  -41.700; -296.000; -157.000
214.466;  -56.900; -163.000;  -43.000
214.611;   17.200;  -61.000;  -10.000
214.756; -253.800; -948.000; -858.000
214.901;   -5.100; -388.000; -226.000
215.046; -234.300; -797.000; -825.000
215.191;   62.400;  128.000;   35.000
215.336;  -18.500; -157.000;  -19.000
215.480; -137.700; -684.000; -505.000
215.625;  -12.700; -175.000;  -19.000
215.770; -144.700; -757.000; -662.000
215.915;   -6.400;   -5.000;  -97.000
216.060;   -4.200; -113.000;  -21.000
216.205; -242.000; -731.000; -779.000
216.349; -121.300; -470.000; -533.000
216.494; -288.400; -939.000; -867.000
216.639; -233.800; -823.000; -888.000
216.784; -228.400; -577.000; -525.000
216.929;  109.200;  392.000;  281.000
217.073;  -21.500; -244.000;  -31.000
217.218;   62.900;   78.000;  -47.000
217.363; -175.800; -656.000; -618.000
217.507; -140.700; -623.000; -588.000
217.652; -265.700; -845.000; -874.000
217.797; -161.300; -708.000; -659.000
217.942; -218.600; -856.000; -720.000
218.086;  175.600;  608.000;  539.000
218.231;  -23.400; -174.000;  -26.000
218.376;  -36.400; -337.000; -229.000
218.520;   15.500;  -41.000;   96.000
218.665;  -45.200; -338.000; -204.000
218.810;  -94.800; -275.000; -233.000
218.954;   48.800;  201.000;   35.000
219.099; -230.400; -713.000; -963.000
219.243; -119.900; -589.000; -554.000
219.388;  -67.400; -264.000; -136.000
219.532;    0.900; -116.000; -116.000
219.677; -155.500; -564.000; -521.000
219.822;   20.600;   33.000;   89.000
219.966;   36.400;   17.000;  -99.000
220.111;  -64.200; -328.000;  -40.000
220.255; -204.800; -797.000; -750.000
220.400;   -5.500; -180.000; -146.000
220.544; -156.900; -516.000; -450.000
220.689;  -92.400; -422.000; -451.000
220.833;  -27.100; -123.000;  -58.000
220.978;  -74.100; -393.000; -563.000
221.122;   52.200;  319.000;  307.000
221.267; -232.500; -906.000; -837.000
221.411; -147.800; -478.000; -394.000
221.555;   23.400; -104.000;  -23.000
221.700;  -89.000; -329.000; -222.000
221.844;   79.400;  255.000;  272.000
221.989;  -93.700; -328.000; -311.000
222.133;  -68.500; -289.000; -307.000
222.277;  -22.500;    5.000;   78.000
222.422;   82.700;  227.000;  113.000
222.566;  -86.300; -381.000; -214.000
222.711;  -90.100; -414.000; -479.000
222.855; -167.900; -643.000; -586.000
222.999; -141.600; -642.000; -717.000
223.144;  -64.600; -195.000; -194.000
223.288;  139.100;  423.000;  251.000
223.432;   32.100;  184.000;  230.000
223.576;   63.500;  152.000;  -21.000
223.721;   55.200;  364.000;  273.000
223.865;  -92.200; -472.000; -475.000
224.009;  483.500; 1673.000; 1631.000
224.153; -160.000; -660.000; -671.000
224.298; -117.900; -531.000; -489.000
224.442;   -9.800;  -74.000;  -33.000
224.586;  -39.600; -169.000; -106.000
224.730; -174.600; -858.000; -670.000
224.875; -222.400; -739.000; -688.000
225.019;   34.200;  102.000;  188.000
225.163;  171.200;  208.000;  341.000
225.307;   36.900;   97.000;  -91.000
225.451;  103.400;  360.000;  481.000
225.595;   64.200;  264.000;  176.000
225.739;  -44.300; -170.000;  -94.000
225.884;    3.000;   86.000;    5.000
226.028; -196.700; -760.000; -626.000
226.172;  -87.100; -260.000; -273.000
226.316; -243.200; -941.000; -902.000
226.460; -126.000; -645.000; -493.000
226.604; -119.800; -406.000; -400.000
226.748; -189.900; -836.000; -733.000
226.892;  -59.600; -227.000; -181.000
227.036;  -86.900; -537.000; -447.000
227.180; -130.500; -551.000; -375.000
227.324; -133.800; -561.000; -580.000
227.468; -239.600; -819.000; -717.000
227.612;   42.700;  242.000;  -28.000
227.756; -218.100; -845.000; -698.000
227.900;  111.700;  342.000;  441.000
228.044; -108.700; -509.000; -290.000
228.188;  149.600;  448.000;  568.000
228.332; -170.100; -546.000; -472.000
228.476;  -39.900; -223.000; -149.000
228.620;  -80.500; -210.000; -150.000
228.764;  178.000;  431.000;  349.000
228.908;  -44.300; -155.000;   30.000
229.052; -114.800; -615.000; -528.000
229.195;  -23.000; -172.000;   13.000
229.339;  -41.800; -235.000; -305.000
229.483;  -52.700;    5.000; -162.000
229.627;    4.100; -156.000;  139.000
229.771;  -88.600; -218.000; -294.000
229.915;   44.300;  230.000;   79.000
230.059; -162.100; -648.000; -663.000
230.202;  -73.100; -370.000; -317.000
230.346;  -16.500; -107.000;  107.000
230.490;  -98.400; -489.000; -521.000
230.634; -211.800; -736.000; -553.000
230.777;  198.200;  478.000;  509.000
230.921; -113.200; -450.000; -359.000
231.065;  -66.900; -246.000; -286.000
231.209;   41.900;  261.000;  265.000
231.352;   44.100;   54.000;   40.000
231.496;   47.500;  568.000;  188.000
231.640; -139.800; -693.000; -621.000
231.783;  104.200;  546.000;  525.000
231.927;  -64.700; -294.000; -365.000
232.071; -254.500; -962.000; -736.000
232.214; -209.100; -980.000; -764.000
232.358; -206.300; -683.000; -599.000
232.502;    5.500;  -19.000;    7.000
232.645; -294.600;-1090.000; -927.000
232.789;    0.900; -257.000; -218.000
232.933; -101.300; -407.000; -224.000
233.076; -235.600;-1038.000; -897.000
233.220; -201.100; -752.000; -777.000
233.363; -110.300; -669.000; -477.000
233.507;  134.900;  371.000;  129.000
233.650; -176.300; -764.000; -834.000
233.794;  110.800;  438.000;  461.000
233.938;  -95.300; -530.000; -362.000
234.081;  -46.900;  -93.000;   31.000
234.225;  -80.900; -631.000; -539.000
234.368; -224.200; -773.000; -723.000
234.512;  -89.100; -385.000; -299.000
234.655; -190.700; -582.000; -555.000
234.798; -119.500; -493.000; -466.000
234.942; -270.400; -884.000;-1002.000
235.085; -136.800; -651.000; -443.000
235.229; -155.600; -405.000; -410.000
235.372;  -64.500; -247.000; -191.000
235.516; -125.900; -397.000; -321.000
235.659;   64.600;   92.000;  121.000
235.802;  -24.400;  -38.000;  -22.000
235.946;   91.600;  335.000;  215.000
236.089;   58.500;  126.000;  250.000
236.233;  119.800;  275.000;  298.000
236.376; -100.500; -235.000; -378.000
236.519;  -42.200; -297.000; -319.000
236.663;  -51.200; -215.000; -117.000
236.806; -263.200;-1029.000; -999.000
236.949;  117.800;  543.000;  431.000
237.092;  190.600;  412.000;  391.000
237.236; -202.100; -589.000; -502.000
237.379;  155.300;  352.000;  428.000
237.522; -252.400; -879.000; -768.000
237.666;  -13.200; -271.000;   18.000
237.809; -229.100; -851.000; -823.000
237.952;  127.500;  469.000;  271.000
238.095; -123.600; -447.000; -442.000
238.238;  188.500;  688.000;  700.000
238.382;   10.800;  166.000;  103.000
238.525; -110.900; -598.000; -511.000
238.668; -255.200;-1060.000; -985.000
238.811; -186.800; -638.000; -643.000
238.954; -137.000; -483.000; -334.000
239.097;  232.900;  617.000;  664.000
239.241;   56.600;  394.000;  326.000
239.384;  -47.800; -254.000; -214.000
239.527; -122.200; -424.000; -224.000
239.670; -265.900; -994.000;-1091.000
239.813; -208.500; -696.000; -658.000
239.956;  190.300;  579.000;  473.000
240.099; -246.100; -778.000; -725.000
240.242;  134.800;  428.000;  432.000
240.385;   93.400;  466.000;  450.000
240.528; -114.100; -706.000; -473.000
240.671;   34.300;  189.000;  134.000
240.814;  -68.300; -441.000; -158.000
240.957; -194.500; -767.000; -578.000
241.100; -164.500; -779.000; -755.000
241.243; -282.700;-1234.000; -893.000
241.386;  -91.400; -508.000; -379.000
241.529; -180.800; -735.000; -547.000
241.672; -106.500; -566.000; -495.000
241.815; -233.600; -832.000; -808.000
241.958;  -24.400; -125.000; -182.000
242.101; -158.600; -545.000; -390.000
242.244;  -35.700; -270.000; -325.000
242.387;  -62.300; -304.000; -246.000
242.530;  135.800;  470.000;  134.000
242.673; -100.200; -381.000; -309.000
242.815; -230.300; -925.000; -899.000
242.958; -136.000; -482.000; -381.000
243.101;   10.900;  132.000;  187.000
243.244; -154.500; -564.000; -521.000
243.387;  -80.100; -313.000; -316.000
243.530; -193.600; -657.000; -674.000
243.672;   45.000;   43.000;  -92.000
243.815; -126.400; -355.000; -283.000
243.958;   19.900;   98.000;  -26.000
244.101;   14.500;   59.000;  -16.000
244.243;    3.800;  -47.000;  101.000
244.386; -223.100; -761.000; -630.000
244.529;  -20.500; -132.000; -139.000
244.672; -318.800;-1154.000; -951.000
244.814; -182.000; -621.000; -794.000
244.957; -106.900; -380.000; -304.000
245.100; -140.800; -489.000; -489.000
245.242; -108.000; -387.000; -374.000
245.385;    4.900;  -59.000;  -39.000
245.528; -246.400; -871.000; -705.000
245.670;  190.800;  612.000;  634.000
245.813; -166.200; -599.000; -547.000
245.956;  -58.600; -324.000; -275.000
246.098; -120.100; -508.000; -650.000
246.241;   62.300;  194.000;   48.000
246.383;  -23.700; -119.000;  -73.000
246.526; -183.700; -454.000; -525.000
246.669; -242.600; -889.000; -780.000
246.811;   45.100;  172.000;   -1.000
246.954; -132.800; -512.000; -426.000
247.096;   -8.700;  -84.000;   -6.000
247.239; -125.800; -482.000; -445.000
247.381; -102.200; -647.000; -488.000
247.524;  156.900;  645.000;  679.000
247.666;   22.000;   58.000;   11.000
247.809; -229.500; -887.000; -691.000
247.951;   -1.100;  -75.000;  138.000
248.094;   72.700;  432.000;  308.000
248.236; -282.600;-1262.000;-1238.000
248.378;  -28.900; -356.000;  -81.000
248.521;  -53.400; -334.000; -337.000
248.663;  -82.900; -236.000; -267.000
248.806;  -26.400; -300.000; -266.000
248.948; -213.000; -886.000; -763.000
249.090; -127.800; -428.000; -398.000
249.233; -108.000; -344.000; -381.000
249.375; -116.700; -474.000; -451.000
249.518;  -30.400;  -83.000; -133.000
249.660;  -33.000; -103.000;    3.000
249.802; -362.400;-1303.000;-1189.000
249.945; -147.000; -612.000; -540.000
250.087; -228.000; -834.000; -768.000
250.229;  -92.300; -362.000; -480.000
250.371; -140.200; -494.000; -439.000
250.514;  -94.400; -310.000; -244.000
250.656;  -18.500;   69.000;  102.000
250.798; -204.400; -849.000; -800.000
250.940; -142.800; -322.000; -322.000
251.083;  -41.600; -335.000; -111.000
251.225;  119.600;  338.000;  310.000
251.367;  -74.300; -274.000; -373.000
251.509;  -54.300; -265.000; -210.000
251.651; -150.700; -731.000; -671.000
251.794;  121.000;  538.000;  632.000
251.936; -191.500; -821.000; -747.000
252.078; -163.300; -540.000; -461.000
252.220; -115.500; -645.000; -477.000
252.362;   94.100;  344.000;  462.000
252.504; -137.700; -677.000; -584.000
252.646; -224.500; -875.000; -722.000
252.788;    5.800;   14.000; -128.000
252.931; -115.200; -257.000; -253.000
253.073;  -77.600; -376.000; -317.000
253.215;   21.500;  141.000;  122.000
253.357;  -21.900;   82.000; -153.000
253.499;  -92.900; -374.000; -234.000
253.641; -181.800; -749.000; -594.000
253.783; -191.300; -609.000; -527.000
253.925; -155.400; -586.000; -591.000
254.067; -230.300; -744.000; -667.000
254.209;  -60.500; -391.000; -259.000
254.351; -253.300; -865.000; -883.000
254.493;  -95.300; -441.000; -417.000
254.635; -249.200; -936.000; -818.000
254.777; -168.100; -752.000; -687.000
254.918; -161.000; -512.000; -430.000
255.060; -135.000; -551.000; -395.000
255.202; -115.300; -473.000; -261.000
255.344; -118.100; -658.000; -455.000
255.486; -104.100; -471.000; -406.000
255.628; -181.600; -780.000; -781.000
255.770; -172.100; -676.000; -536.000
255.912;  -87.100; -559.000; -468.000
256.053; -187.600; -730.000; -508.000
256.195;  349.500; 1008.000;  903.000
256.337; -211.400; -861.000; -595.000
256.479;  158.300;  532.000;  416.000
256.621;  -66.800; -394.000; -212.000
256.762; -171.900; -789.000; -742.000
256.904;  132.100;  485.000;  487.000
257.046;  -71.900; -381.000; -271.000
257.188;  -96.400; -351.000; -264.000
257.329; -135.200; -525.000; -464.000
257.471; -229.000; -939.000; -807.000
257.613; -105.400; -584.000; -498.000
257.755; -295.600;-1073.000; -982.000
257.896;  109.200;  286.000;  392.000
258.038; -116.200; -403.000; -352.000
258.180;  -45.400; -354.000; -279.000
258.321; -157.100; -581.000; -457.000
258.463;   32.300;  -71.000;  133.000
258.605; -202.000; -562.000; -570.000
258.746; -180.700; -886.000; -772.000
258.888; -306.300;-1026.000;-1020.000
259.029;   45.200;  121.000;   -8.000
259.171; -172.900; -614.000; -550.000
259.313;   26.000;  -49.000;  -47.000
259.454; -141.800; -536.000; -414.000
259.596;  -88.700; -483.000; -390.000
259.737; -136.000; -590.000; -474.000
259.879;  145.500;  217.000;  311.000
260.020;  215.900;  901.000;  636.000
260.162;   -9.500; -146.000; -253.000
260.303; -209.200; -768.000; -687.000
260.445; -160.100; -609.000; -613.000
260.586;   71.400;  392.000;  157.000
260.728;  -90.800; -360.000; -248.000
260.869; -133.300; -350.000; -343.000
261.011;  178.400;  706.000;  537.000
261.152; -125.700; -479.000; -319.000
261.293; -125.800; -576.000; -595.000
261.435;  -73.400; -219.000; -184.000
261.576;  -42.300; -455.000; -325.000
261.718;  130.500;  420.000;  470.000
261.859; -220.000; -940.000; -949.000
262.000; -284.500; -951.000;-1016.000
262.142;  -18.000;  -52.000;  -60.000
262.283; -243.900; -808.000; -691.000
262.424; -143.700; -666.000; -625.000
262.566; -293.100;-1161.000; -983.000
262.707; -211.800; -840.000; -830.000
262.848; -248.500; -769.000; -726.000
262.990;  -84.700; -362.000; -345.000
263.131;  171.300;  650.000;  681.000
263.272;   36.500;  -61.000;  -41.000
263.413; -186.600; -589.000; -561.000
263.555; -126.400; -669.000; -143.000
263.696; -180.600; -550.000; -641.000
263.837;  -95.000; -449.000; -551.000
263.978;  -21.500;   -5.000;  -77.000
264.119;  -73.200; -283.000; -264.000
264.261; -244.000; -847.000; -630.000
264.402;   18.300;   33.000;   40.000
264.543; -180.700; -509.000; -524.000
264.684;   22.400;   61.000;  -50.000
264.825; -129.400; -816.000; -538.000
264.966;    5.400;  -84.000;  -67.000
265.107; -229.700; -646.000; -670.000
265.248; -210.900; -825.000; -812.000
265.390;  -25.400;  152.000;   -9.000
265.531;  -17.800; -238.000; -107.000
265.672; -172.400; -557.000; -630.000
265.813;  137.900;  563.000;  439.000
265.954; -309.500; -959.000; -940.000
266.095;    0.800; -372.000; -322.000
266.236; -210.000; -686.000; -548.000
266.377;  -52.800; -243.000; -297.000
266.518; -117.400; -619.000; -547.000
266.659;   98.700;  170.000;  268.000
266.800;    2.400;   83.000;   85.000
266.941; -111.200; -487.000; -478.000
267.082;   66.200;  354.000;   99.000
267.223;  -58.600; -344.000; -273.000
267.364; -260.700; -892.000; -686.000
267.504;    1.600;    3.000;  135.000
267.645;   31.200;  160.000;   67.000
267.786;  -42.600; -147.000;  -86.000
267.927; -134.400; -473.000; -379.000
268.068;   10.100; -186.000;  -61.000
268.209;  -94.600; -175.000; -413.000
268.350;  -16.300; -388.000; -532.000
268.490; -173.700; -648.000; -521.000
268.631;  103.100;  127.000;  225.000
268.772; -205.000; -874.000; -647.000
268.913;  -66.500; -328.000; -476.000
269.054;  -31.400; -117.000;   12.000
269.194;  -56.400; -418.000; -402.000
269.335; -302.600;-1137.000;-1074.000
269.476;   20.100;   33.000;  -35.000
269.617;  -77.100; -347.000; -392.000
269.757; -175.100; -713.000; -646.000
269.898; -204.700; -856.000; -613.000
270.039;  -95.400; -415.000; -405.000
270.180; -263.000; -952.000; -816.000
270.320;  -27.600; -190.000; -250.000
270.461;  -55.600; -277.000; -249.000
270.602;    0.600; -186.000; -156.000
270.742; -259.700; -868.000; -943.000
270.883; -104.300; -442.000; -390.000
271.023; -109.900; -358.000; -357.000
271.164; -142.300; -607.000; -528.000
271.305; -193.100; -666.000; -654.000
271.445; -181.300; -722.000; -683.000
271.586; -142.300; -462.000; -283.000
271.726; -109.300; -397.000; -322.000
271.867; -161.600; -594.000; -534.000
272.008;  119.600; -473.000; -285.000
272.148;  172.000;  462.000;  468.000
272.289;   20.800; -113.000; -181.000
272.429;    5.400;   19.000;  185.000
272.570; -164.100; -633.000; -737.000
272.710; -213.200; -825.000; -775.000
272.851;  -11.100;  113.000; -130.000
272.991; -310.900;-1173.000;-1077.000
273.131;  -87.100; -419.000; -459.000
273.272; -217.400; -683.000; -723.000
273.412;    6.500; -143.000;  -31.000
273.553; -127.100; -488.000; -507.000
273.693;  267.800;  913.000;  858.000
273.834; -244.800; -894.000; -692.000
273.974; -125.700; -664.000; -615.000
274.114; -234.000; -772.000; -560.000
274.255;  160.400;  414.000;  373.000
274.395;  -42.700; -180.000; -125.000
274.535;   96.200;  199.000;  350.000
274.676;   37.500;  225.000;   94.000
274.816;   29.400;  110.000;   34.000
274.956; -193.200; -624.000; -690.000
275.097; -191.100;-1014.000; -922.000
275.237; -231.200; -913.000; -803.000
275.377; -165.000; -778.000; -689.000
275.517; -310.100; -878.000; -937.000
275.658; -154.300; -590.000; -555.000
275.798; -155.500; -606.000; -413.000
275.938;   58.900;  215.000;  323.000
276.078; -207.500; -626.000; -395.000
276.218;   -5.900;   99.000;  104.000
276.359; -299.400;-1026.000;-1024.000
276.499; -140.000; -605.000; -446.000
276.639;  -63.300; -305.000; -151.000
276.779;  -66.800; -475.000; -357.000
276.919; -196.600; -783.000; -624.000
277.059;  -18.800; -261.000; -212.000
277.199;  -85.900; -357.000; -259.000
277.340;  130.400;  287.000;  175.000
277.480; -213.300; -840.000; -693.000
277.620;   50.800;  192.000;   16.000
277.760; -424.200;-1533.000;-1294.000
277.900;   16.500;  113.000;   33.000
278.040;   54.100;  137.000;  159.000
278.180;   88.000;  270.000;  170.000
278.320;  -16.700;   21.000;   56.000
278.460;  -96.600; -443.000; -469.000
278.600; -182.100; -708.000; -598.000
278.740;  147.100;  448.000;  224.000
278.880; -220.600; -768.000; -791.000
279.020;  -36.400; -194.000; -144.000
279.160; -177.100; -672.000; -595.000
279.300; -233.600; -926.000; -873.000
279.440; -184.600; -709.000; -622.000
279.579; -150.500;-1014.000; -929.000
279.719; -139.100; -410.000; -394.000
279.859;   89.000;   -4.000;   41.000
279.999;   -5.700; -208.000;  101.000
280.139;  -80.100; -435.000; -387.000
280.279; -203.600; -708.000; -745.000
280.419;  -31.200; -229.000; -147.000
280.559;  -80.800; -259.000; -180.000
280.698; -131.500; -790.000; -639.000
280.838; -190.500; -778.000; -800.000
280.978; -203.000; -846.000; -790.000
281.118; -235.000; -811.000; -704.000
281.257;   35.400;   24.000;    6.000
281.397; -254.900;-1094.000; -960.000
281.537; -160.700; -599.000; -712.000
281.677;  -49.800; -150.000; -101.000
281.816; -158.400; -700.000; -630.000
281.956;  -85.300; -193.000; -257.000
282.096;  -93.700; -539.000; -396.000
282.235; -188.300; -672.000; -638.000
282.375;  -25.600; -243.000;  -98.000
282.515; -200.100; -715.000; -707.000
282.654;   53.400;   29.000;  106.000
282.794;   57.400;  388.000;  244.000
282.934;  -87.200; -530.000; -491.000
283.073; -238.700;-1030.000; -857.000
283.213;  -60.200; -460.000; -467.000
283.353;  -97.300; -408.000; -349.000
283.492;  -49.700; -264.000; -296.000
283.632;  -82.200; -254.000; -168.000
283.771; -188.700; -859.000; -730.000
283.911; -123.800; -369.000; -260.000
284.050; -169.000; -794.000; -748.000
284.190; -318.800;-1229.000;-1096.000
284.329; -259.900;-1055.000; -964.000
284.469; -166.400; -516.000; -591.000
284.608;  -95.100; -559.000; -598.000
284.748; -148.900; -614.000; -570.000
284.887;   41.500;  -87.000;  -20.000
285.027; -239.900; -844.000; -892.000
285.166;  -41.700; -192.000; -249.000
285.306;  -13.000; -116.000;  -33.000
285.445;  -55.300; -229.000; -343.000
285.584; -176.500; -630.000; -494.000
285.724;  -81.700; -282.000; -322.000
285.863; -211.300; -857.000; -507.000
286.002;  -85.100; -366.000; -276.000
286.142; -205.200; -715.000; -622.000
286.281; -134.400; -525.000; -493.000
286.420; -158.600; -554.000; -417.000
286.560;  228.600;  653.000;  623.000
286.699; -281.300; -958.000; -912.000
286.838; -132.200; -590.000; -591.000
286.978; -180.000; -533.000; -537.000
287.117; -255.000;-1085.000; -950.000
287.256;  -36.200; -228.000; -211.000
287.395;  -82.500; -197.000; -378.000
287.535;  -83.700; -370.000; -298.000
287.674; -148.900; -509.000; -484.000
287.813;  132.300;  661.000;  533.000
287.952; -248.500;-1010.000; -871.000
288.091; -282.700;-1049.000; -915.000
288.231;   67.600;   13.000;   15.000
288.370; -352.000;-1217.000;-1200.000
288.509; -138.600; -728.000; -645.000
288.648; -173.500; -770.000; -548.000
288.787;  -44.300; -243.000;  -87.000
288.926; -154.300; -454.000; -475.000
289.065;  256.200;  859.000;  672.000
289.204;  -91.800; -377.000; -217.000
289.344; -173.100; -791.000; -690.000
289.483;   48.200;  416.000;  304.000
289.622;  -33.400; -291.000; -149.000
289.761;  -19.400; -309.000; -166.000
289.900; -192.600; -785.000; -626.000
290.039;  -26.100;  -12.000;  -95.000
290.178;  -50.500; -274.000; -180.000
290.317; -183.300; -618.000; -479.000
290.456; -107.300; -463.000; -451.000
290.595; -267.400; -961.000; -833.000
290.734; -255.300; -904.000; -891.000
290.873; -144.100; -456.000; -420.000
291.011; -216.800; -833.000; -843.000
291.150; -208.500; -770.000; -682.000
291.289;  -12.700; -343.000; -110.000
291.428; -182.600; -599.000; -480.000
291.567;  -83.100; -370.000; -442.000
291.706;   15.600;  109.000;  154.000
291.845; -159.900; -597.000; -505.000
291.984; -326.400;-1234.000;-1061.000
292.122;  166.700;  602.000;  582.000
292.261;  110.400;  620.000;  463.000
292.400;   24.800; -144.000;  211.000
292.539; -253.700; -959.000; -813.000
292.678;  -39.800; -325.000; -300.000
292.816; -325.200;-1136.000; -965.000
292.955; -182.400; -844.000; -684.000
293.094;  -36.200; -173.000; -337.000
293.233;  -82.300; -556.000; -400.000
293.371;  -76.600; -225.000;  -84.000
293.510; -201.200; -866.000; -780.000
293.649; -267.200; -959.000; -924.000
293.787; -216.600;-1083.000;-1012.000
293.926;   -3.500; -113.000;  -32.000
294.065;  -82.800; -379.000; -290.000
294.203;  105.500;  298.000;  406.000
294.342;   80.000;   74.000;  156.000
294.481;11558.900;51180.000; -836.000
294.619;  -72.000; -425.000; -582.000
294.758; -312.200;-1230.000;-1137.000
294.896;   58.100; -125.000;    5.000
295.035; -252.600;-1040.000;-1006.000
295.174; -237.300;-1082.000; -954.000
295.312;  -87.400; -323.000; -203.000
295.451;  -41.800; -307.000; -428.000
295.589; -115.100; -389.000; -518.000
295.728;   50.600; -292.000; -165.000
295.866;  -51.300;  -36.000;  -51.000
296.005; -111.900; -584.000; -341.000
296.143; -148.700; -558.000; -596.000
296.282; -207.900; -957.000; -881.000
296.420; -160.300; -657.000; -557.000
296.559; -136.400; -892.000; -633.000
296.697;  -97.200; -847.000; -665.000
296.835; -122.800;-1141.000;-1002.000
296.974;   46.000;  -23.000;   39.000
297.112;  -26.200; -443.000; -504.000
297.251; -153.000; -815.000; -755.000
297.389;   -7.900; -576.000; -438.000
297.527;   34.600; -145.000;  -83.000
297.666; -124.500; -486.000; -438.000
297.804; -120.900; -404.000; -264.000
297.942;   11.800; -136.000; -161.000
298.081;   -3.300; -183.000;   63.000
298.219;   73.300;  -17.000;  -19.000
298.357;  -12.200; -144.000;  -71.000
298.495; -105.200; -810.000; -812.000
298.634;   74.900;  245.000;  219.000
298.772;   11.000; -220.000; -338.000
298.910;  -72.200; -309.000; -182.000
299.048;   13.200; -130.000; -153.000
299.187;  -93.000; -350.000; -250.000
299.325;   71.000;   52.000;  122.000
299.463;  -62.900; -389.000; -299.000
299.601;   89.700; -327.000; -271.000
299.739; -220.800; -908.000; -883.000
299.877; -170.100; -791.000; -703.000
300.016; -228.500;-1095.000; -935.000
300.154;  103.000;  -19.000; -161.000
300.292;  -64.100; -428.000; -348.000
300.430;  -13.100; -408.000; -291.000
300.568; -248.100; -940.000; -874.000
300.706; -102.100; -366.000; -469.000
300.844; -270.700;-1108.000; -979.000
300.982;  160.000;  246.000;  282.000
301.120; -244.100; -965.000; -866.000
301.258; -169.200; -812.000; -705.000
301.396;   35.900;  104.000;  -41.000
301.534;  -10.500; -218.000; -293.000
301.672; -117.300; -664.000; -521.000
301.810;  -52.600; -613.000; -545.000
301.948;  121.500;   53.000;  149.000
302.086;  460.700; -250.000;  -32.000
302.224;  633.300; -610.000; -585.000
302.362;  -42.200; -558.000; -622.000
302.500; -190.400; -923.000; -893.000
302.638;  108.500;  128.000;  245.000
302.776;  -45.700; -352.000; -408.000
302.913;  134.200;  447.000;  236.000
303.051;  -24.300;  -86.000;  -23.000
303.189;   80.800;   90.000;  118.000
303.327; -103.700; -341.000; -256.000
303.465; -157.400; -832.000; -588.000
303.603; -203.000; -805.000; -604.000
303.740;  164.800;  417.000;  241.000
303.878; -119.500; -800.000; -759.000
304.016; -187.100; -915.000; -790.000
304.154; -312.500;-1123.000;-1152.000
304.291;  -67.900; -505.000; -554.000
304.429;   38.000;  102.000;   74.000
304.567; -232.400; -908.000; -893.000
304.705; -139.600; -408.000; -515.000
304.842;   -3.100; -616.000; -540.000
304.980;   52.300;  215.000;   35.000
305.118;    8.200; -367.000; -365.000
305.255; -222.200; -945.000; -927.000
305.393;  112.900;  178.000;  239.000
305.531; -274.600;-1173.000; -956.000
305.668; -141.800; -663.000; -582.000
305.806;   -7.200; -358.000; -439.000
305.943;  -27.600; -629.000; -637.000
306.081;  -11.500; -378.000; -267.000
306.219; -214.100; -863.000; -748.000
306.356;   25.800;  158.000;   27.000
306.494;  326.700;  981.000;  761.000
306.631;   22.700;  -11.000;  -55.000
306.769;  -54.500; -613.000; -485.000
306.906;   -6.800; -284.000; -258.000
307.044;  -41.100; -473.000; -488.000
307.181;  -97.800; -410.000; -332.000
307.319;   86.200;  112.000;   87.000
307.456; -350.600;-1191.000;-1153.000
307.594; -182.300; -980.000; -727.000
307.731;  -28.000; -371.000; -164.000
307.868;   51.700;  -15.000;   20.000
308.006; -225.400; -961.000; -847.000
308.143; -119.600; -618.000; -330.000
308.281;  172.400;  -37.000; -254.000
308.418;  -49.600; -748.000; -640.000
308.555; -114.300; -400.000; -250.000
308.693;  -89.800; -577.000; -573.000
308.830; -171.800; -712.000; -657.000
308.967;   28.400; -215.000;  -95.000
309.105;  -42.600; -507.000; -396.000
309.242;   14.700; -468.000; -367.000
309.379;  255.900; -577.000; -655.000
309.517; -122.000; -936.000; -948.000
309.654; -171.100; -910.000; -734.000
309.791;  -73.300; -662.000; -580.000
309.928; -214.000; -977.000; -914.000
310.065;  316.200;  819.000;  697.000
310.203; -135.600; -825.000; -850.000
310.340;  -40.800; -465.000; -321.000
310.477; -115.200; -412.000; -516.000
310.614;  -78.300; -383.000; -473.000
310.751;  -89.500; -427.000; -518.000
310.889;   10.900;    1.000;   11.000
311.026; -267.800;-1161.000; -939.000
311.163;  -36.600; -386.000; -380.000
311.300; -111.200; -512.000; -479.000
311.437;  -94.600; -658.000; -619.000
311.574; -284.600;-1226.000; -985.000
311.711; -115.000; -595.000; -433.000
311.848;  -43.700; -380.000; -388.000
311.985;   63.500;  270.000;   93.000
312.122; -214.300; -932.000; -762.000
312.259; -203.500; -941.000; -994.000
312.396; -125.800; -508.000; -551.000
312.533; -110.800; -812.000; -790.000
312.670; -239.900;-1070.000; -898.000
312.807;   -6.600; -352.000; -367.000
312.944; -143.900; -513.000; -611.000
313.081;   -4.500; -150.000; -415.000
313.218; -238.600;-1111.000; -867.000
313.355;  -33.000; -531.000; -449.000
313.492;  -34.900; -455.000; -292.000
313.629;  285.900;  815.000;  735.000
313.766; -277.200;-1176.000;-1008.000
313.902;    5.700; -186.000;   21.000
314.039;  -99.000; -372.000; -289.000
314.176;   60.500;  286.000;  192.000
314.313; -144.200; -569.000; -473.000
314.450;  -87.400; -788.000; -684.000
314.587; -122.500; -468.000; -480.000
314.723;   29.600;  -78.000;  130.000
314.860;  122.200;  318.000;  332.000
314.997;   84.100;  223.000;  142.000
315.134;  -96.600; -385.000; -368.000
315.270;  -50.600; -480.000; -496.000
315.407; -256.600;-1094.000; -967.000
315.544; -127.900; -657.000; -538.000
315.681; -159.300; -681.000; -565.000
315.817;   35.800; -133.000; -176.000
315.954;  -68.400; -613.000; -392.000
316.091; -254.200;-1045.000;-1023.000
316.227;  -46.300;  -71.000; -179.000
316.364;   29.700;   23.000;    6.000
316.500;  -78.300; -113.000; -300.000
316.637;  -57.300; -181.000; -302.000
316.774; -155.700; -625.000; -358.000
316.910; -151.000; -598.000; -629.000
317.047; -109.400; -487.000; -351.000
317.183; -103.300; -435.000; -566.000
317.320;  -91.600; -367.000; -321.000
317.456; -160.000; -733.000; -805.000
317.593; -169.700; -598.000; -641.000
317.729;   43.800;  168.000;  -67.000
317.866; -381.700;-1434.000;-1285.000
318.002; -162.200; -708.000; -948.000
318.139; -183.500; -883.000; -867.000
318.275; -206.400;-1003.000; -738.000
318.412;  -88.600; -517.000; -336.000
318.548; -119.500; -751.000; -720.000
318.685; -234.200; -985.000; -888.000
318.821; -176.600; -762.000; -735.000
318.957;  -28.200;   34.000;  -23.000
319.094;   95.900;  297.000;  154.000
319.230; -188.000; -756.000; -742.000
319.367;   91.700; -471.000; -520.000
319.503;  -13.000; -538.000; -436.000
319.639; -188.000; -877.000; -793.000
319.775; -172.500; -750.000; -685.000
319.912;  -93.100; -424.000; -519.000
320.048; -265.600;-1184.000;-1184.000
320.184;  101.600;   59.000;   70.000
320.321; -109.900; -497.000; -467.000
320.457;  147.200;  475.000;  662.000
320.593;  -94.900; -375.000; -382.000
320.729; -178.600; -732.000; -734.000
320.866; -133.200; -577.000; -635.000
321.002; -156.100; -759.000; -809.000
321.138;  -50.600; -135.000; -211.000
321.274;   72.900; -148.000; -115.000
321.410;  -91.700; -585.000; -353.000
321.546; -150.800;-1011.000; -911.000
321.683;   99.300;  400.000;  185.000
321.819;   -2.200;  -48.000; -117.000
321.955; -227.200; -743.000; -722.000
322.091;  -93.900; -585.000; -540.000
322.227;  -56.700; -382.000; -202.000
322.363;  -56.900; -320.000; -215.000
322.499;  -97.000; -343.000; -331.000
322.635;  226.000;  636.000;  443.000
322.771;   20.900; -139.000;   12.000
322.907;  174.700;  129.000;  327.000
323.043;  -53.900; -115.000; -206.000
323.179;  -52.900; -394.000; -363.000
323.315;  -65.300; -401.000; -371.000
323.451;   47.400; -328.000; -236.000
323.587;   25.400;  -60.000;  -77.000
323.723;  -54.900; -682.000; -601.000
323.859;  -51.500; -258.000;  -76.000
323.995;  -76.800; -467.000; -409.000
324.131; -242.300; -967.000; -892.000
324.267;  -59.700; -254.000; -276.000
324.402; -254.500; -960.000; -983.000
324.538;  -11.000; -279.000; -104.000
324.674;   33.700;  164.000;   77.000
324.810;  185.100;  226.000;  308.000
324.946;  -54.500; -810.000; -658.000
325.082; -101.600; -568.000; -475.000
325.217;  -39.000;  -62.000;   16.000
325.353; -166.500; -764.000; -659.000
325.489; -145.000; -540.000; -506.000
325.625; -144.700; -579.000; -525.000
325.760;   89.300;  517.000;  376.000
325.896;  -65.900; -515.000; -702.000
326.032; -100.800; -403.000; -352.000
326.168; -101.600; -462.000; -369.000
326.303; -118.100; -352.000; -461.000
326.439;  -16.300; -336.000; -276.000
326.575;  -12.800; -190.000;  -29.000
326.710;    4.200; -156.000;  -30.000
326.846;  -28.800;  146.000;  103.000
326.982; -128.000; -530.000; -548.000
327.117; -134.500; -481.000; -442.000
327.253; -152.400; -745.000; -742.000
327.388; -364.600;-1137.000;-1153.000
327.524; -130.100; -811.000; -578.000
327.659;  -37.100;  -58.000;  -22.000
327.795;   26.800;   69.000;   45.000
327.931; -151.600; -723.000; -499.000
328.066;  -36.700; -417.000; -276.000
328.202;  -33.200;   12.000; -129.000
328.337;  250.600;  957.000;  713.000
328.473;    4.700;  -12.000;  -74.000
328.608;   -9.500; -256.000; -267.000
328.743; -202.300; -799.000; -664.000
328.879;   67.500;  214.000;  114.000
329.014; -126.600; -102.000; -122.000
329.150; -147.700; -358.000; -483.000
329.285; -137.300; -465.000; -466.000
329.421;  -82.500; -548.000; -246.000
329.556;    1.100;  -36.000;   85.000
329.691; -169.700; -633.000; -615.000
329.827; -131.800; -626.000; -480.000
329.962;  -58.400;  131.000; -301.000
330.097; -174.800; -673.000; -585.000
330.233;  -69.800; -410.000; -223.000
330.368; -255.300; -839.000; -628.000
330.503;   10.600;    3.000;   98.000
330.638;    0.200;  -93.000; -125.000
330.774; -135.600; -609.000; -530.000
330.909;  -89.000; -434.000; -244.000
331.044; -175.200; -714.000; -708.000
331.179; -350.300;-1217.000;-1109.000
331.315;   32.400;   77.000;   20.000
331.450;   58.900;  157.000;  285.000
331.585; -186.900; -805.000; -706.000
331.720; -182.600; -510.000; -460.000
331.855;   11.000;  -35.000; -102.000
331.990;  139.000;   62.000;  138.000
332.126;  128.000; -110.000;   71.000
332.261;  -55.300; -379.000; -265.000
332.396;    2.500; -135.000; -242.000
332.531; -250.300;-1074.000;-1031.000
332.666;  -27.800; -519.000; -363.000
332.801; -195.800; -726.000; -807.000
332.936;  -40.300; -192.000; -122.000
333.071; -292.600; -870.000; -817.000
333.206;   67.400;  307.000;  379.000
333.341;   65.600;  344.000;  418.000
333.476; -161.200; -627.000; -623.000
333.611;  -77.100; -251.000; -173.000
333.746;  -73.100; -381.000; -464.000
333.881; -250.500; -973.000; -935.000
334.016; -217.000; -936.000; -917.000
334.151; -229.400; -746.000; -702.000
334.286;   69.400;  152.000;  186.000
334.421;  -20.000; -125.000; -178.000
334.556; -162.800; -611.000; -567.000
334.690; -178.900; -631.000; -577.000
334.825;  113.500;  381.000;   83.000
334.960; -134.400; -285.000; -413.000
335.095;   27.200;  135.000;  -91.000
335.230; -219.200; -722.000; -738.000
335.365; -267.300;-1084.000; -990.000
335.499; -316.000;-1108.000;-1037.000
335.634;   73.300;    9.000;  534.000
335.769; -226.800; -755.000; -720.000
335.904; -144.800; -603.000; -561.000
336.038; -200.500; -735.000; -657.000
336.173; -274.400;-1206.000;-1194.000
336.308;  -27.600; -116.000; -189.000
336.443;  -19.200; -544.000; -634.000
336.577; -217.600; -936.000; -787.000
336.712;   51.300;   -4.000;  -12.000
336.847; -151.400; -724.000; -607.000
336.981;  -13.900; -272.000; -208.000
337.116;  303.000;  615.000;  501.000
337.250;   35.900; -434.000; -421.000
337.385;  133.500; -297.000; -208.000
337.520;  -35.400; -632.000; -603.000
337.654;  -75.800; -215.000; -126.000
337.789; -245.300; -989.000; -933.000
337.923;  -57.100; -104.000; -205.000
338.058; -185.700; -673.000; -738.000
338.192; -120.800; -611.000; -488.000
338.327;   -0.500;  -18.000; -155.000
338.461; -128.500; -299.000; -469.000
338.596; -150.700; -780.000; -638.000
338.730; -225.800; -767.000; -803.000
338.865;   75.200;  -46.000; -140.000
338.999; -191.700; -846.000; -702.000
339.134; -131.000; -634.000; -536.000
339.268; -110.500; -741.000; -603.000
339.403;  124.300; -740.000; -775.000
339.537;  -77.700; -894.000; -820.000
339.671; -226.300; -829.000; -813.000
339.806; -166.100; -556.000; -512.000
339.940;   -0.500; -261.000; -235.000
340.074; -175.000; -685.000; -510.000
340.209;  -56.500; -351.000; -230.000
340.343; -150.500; -517.000; -573.000
340.477;  298.200;  998.000; 1036.000
340.612; -192.400;-1033.000; -900.000
340.746;   96.600; -199.000; -243.000
340.880; -202.400; -924.000; -785.000
341.014;  -32.500;  -45.000; -154.000
341.149; -222.000; -756.000; -718.000
341.283; -188.400; -839.000; -754.000
341.417; -266.500;-1124.000; -938.000
341.551;    4.900; -768.000; -708.000
341.685; -140.000; -633.000; -611.000
341.820; -133.300; -562.000; -493.000
341.954; -142.100; -218.000; -349.000
342.088; -282.400;-1102.000;-1019.000
342.222;  117.200;  565.000;  618.000
342.356; -102.000; -395.000; -335.000
342.490; -211.800; -880.000; -841.000
342.624;  -49.800; -339.000; -242.000
342.758;  -54.100; -364.000; -312.000
342.892; -124.200; -710.000; -585.000
343.026;  -61.400;  -58.000; -116.000
343.160;  -72.000; -426.000; -376.000
343.294; -173.700; -474.000; -337.000
343.428;  -72.400; -488.000; -448.000
343.562;  -43.800; -172.000;  -23.000
343.696;  -49.500; -385.000; -314.000
343.830;  -66.300; -362.000; -356.000
343.964;  -13.100; -231.000; -168.000
344.098;  735.900;  199.000;   70.000
344.232;  624.200; -266.000; -127.000
344.366;  -40.900; -567.000; -453.000
344.500;  -47.900; -665.000; -744.000
344.634;  -14.900; -324.000; -164.000
344.768;  -86.800; -531.000; -341.000
344.902;   68.500;  278.000;  256.000
345.035; -120.200; -556.000; -496.000
345.169; -288.000; -933.000; -656.000
345.303;  -54.300; -308.000; -482.000
345.437; -188.700; -826.000; -717.000
345.571; -158.600; -675.000; -594.000
345.704; -114.200; -309.000; -532.000
345.838;  -24.200; -331.000; -284.000
345.972; -139.100; -543.000; -495.000
346.106;  145.100; -179.000; -190.000
346.239;  251.400; -312.000; -243.000
346.373;  -43.200; -343.000; -302.000
346.507; -276.100; -950.000; -962.000
346.640;  109.600;  -30.000;   13.000
346.774; -179.600; -650.000; -797.000
346.908;  -28.500; -138.000;  -11.000
347.041; -185.700; -646.000; -593.000
347.175;   48.900;  259.000;   27.000
347.309; -184.700; -698.000; -628.000
347.442; -204.400; -883.000; -732.000
347.576;  321.800;  670.000;  668.000
347.709;  165.100; -123.000;  -52.000
347.843; -232.900; -933.000; -825.000
347.976;  112.300;  235.000;  294.000
348.110; -342.700;-1268.000;-1186.000
348.243; -169.000; -679.000; -772.000
348.377;   30.800;  -26.000;   60.000
348.510;  126.800;  403.000;  540.000
348.644;  -46.200;  -37.000; -159.000
348.777;   31.500;  180.000;  191.000
348.911;  -90.400; -142.000; -112.000
349.044;  237.900;  471.000;  448.000
349.178;  -56.500;-1069.000;-1006.000
349.311;  155.900;  141.000;  255.000
349.444; -146.100; -927.000; -813.000
349.578;  -34.000; -347.000; -200.000
349.711; -233.700; -959.000; -862.000
349.845;  -63.600; -661.000; -591.000
349.978; -309.600;-1224.000;-1137.000
350.111; -133.100; -546.000; -612.000
350.244; -155.100; -596.000; -700.000
350.378;  -12.500; -392.000; -393.000
350.511; -136.400; -393.000; -426.000
350.644; -206.000; -808.000; -806.000
350.778;    8.800;  168.000;  104.000
350.911;   27.900;  134.000;  140.000
351.044; -187.900; -685.000; -615.000
351.177;  -21.100; -321.000; -281.000
351.310;  -13.400;    3.000; -131.000
351.444; -189.300; -888.000; -788.000
351.577;  144.700;  140.000;   90.000
351.710;  190.500;  593.000;  417.000
351.843;  -45.700; -165.000;  -77.000
351.976;   13.900;  149.000;  -79.000
352.109; -188.900; -621.000; -612.000
352.242;  -76.100; -464.000; -419.000
352.376; -148.700; -580.000; -636.000
352.509;   49.900; -437.000; -356.000
352.642; -159.100; -654.000; -604.000
352.775;   59.100; -141.000;  -98.000
352.908; -251.700; -933.000; -904.000
353.041; -195.200; -814.000; -824.000
353.174; -128.800; -551.000; -424.000
353.307; -178.500; -753.000; -764.000
353.440;  112.400;  541.000;  453.000
353.573; -232.900; -957.000;-1008.000
353.706; -172.200; -384.000; -558.000
353.839;  -47.700; -264.000; -220.000
353.971; -152.600; -657.000; -512.000
354.104; -209.100; -896.000; -835.000
354.237; -163.200; -627.000; -662.000
354.370; -197.600; -846.000; -879.000
354.503; -377.500;-1231.000;-1308.000
354.636;  -67.700; -529.000; -348.000
354.769; -283.500; -937.000; -860.000
354.902;  -28.600; -230.000; -139.000
355.034;  -54.100; -164.000; -220.000
355.167;   -9.600; -262.000; -162.000
355.300; -270.300;-1061.000; -880.000
355.433;  621.400;  -71.000;  -14.000
355.565;  923.500; -402.000; -384.000
355.698;  257.000; -356.000; -296.000
355.831; -139.500; -882.000; -801.000
355.964;    6.500; -285.000; -170.000
356.096; -246.200; -856.000; -843.000
356.229;  -66.000; -523.000; -530.000
356.362;  176.700; -373.000; -266.000
356.494;  393.900; -229.000; -162.000
356.627;  337.800;  269.000;  377.000
356.760;  506.700;  120.000;   53.000
356.892;  496.600; -286.000; -601.000
357.025;  576.300;  403.000;  389.000
357.157;  376.400; -167.000; -179.000
357.290;  398.600; -856.000; -713.000
357.423;   32.700; -667.000; -556.000
357.555;   67.500; -217.000; -228.000
357.688;  -22.400; -483.000; -364.000
357.820;  180.300; -870.000; -877.000
357.953; 2704.100; -563.000; -589.000
358.085;  538.100; -632.000; -612.000
358.218;  606.200;-1131.000; -932.000
358.350;  175.500;  -58.000;  312.000
358.483; -315.400;-1300.000;-1187.000
358.615; -161.100;-1182.000;-1078.000
358.747; -272.800;-1187.000;-1058.000
358.880;  -75.800; -810.000; -744.000
359.012;  -64.300; -376.000; -202.000
359.145; -104.500; -480.000; -511.000
359.277; -172.700; -962.000; -913.000
359.409; 2371.300;  536.000;  231.000
359.542;  431.700; -738.000; -688.000
359.674;   85.600;   46.000;   13.000
359.806; -131.200; -565.000; -438.000
359.939;  -79.500; -617.000; -516.000
360.071; -120.200; -583.000; -579.000
360.203;  -72.400; -411.000; -364.000
360.335;   62.900;  164.000;  -16.000
360.468;  115.700; -249.000; -307.000
360.600; 1716.900; -547.000; -454.000
360.732; 1844.600; -546.000; -423.000
360.864;    9.500;-1216.000;-1044.000
360.996;  158.300; -516.000; -554.000
361.129;  -64.600; -389.000; -598.000
361.261;   -2.200;  110.000; -113.000
361.393;  -64.800; -252.000; -214.000
361.525;   65.500;   94.000;  244.000
361.657; -164.600; -821.000; -703.000
361.789;   27.400; -139.000; -155.000
361.921;   34.700; -642.000; -593.000
362.053;  280.700;  524.000;  541.000
362.185;   20.400;  288.000;   72.000
362.318; -160.800; -709.000; -705.000
362.450;  151.300;  294.000;  444.000
362.582;  -45.100; -913.000; -870.000
362.714;  -89.200; -353.000; -332.000
362.846; -131.800; -606.000; -490.000
362.978; -300.500; -941.000; -811.000
363.109;   -6.600; -161.000; -260.000
363.241;  191.700; -739.000; -749.000
363.373;  183.500; -649.000; -564.000
363.505;  431.400; -186.000;  -91.000
363.637;   32.700; -787.000; -601.000
363.769; -305.300;-1067.000;-1080.000
363.901; -171.600; -596.000; -654.000
364.033; -283.700;-1103.000;-1062.000
364.165;  -48.300; -283.000; -283.000
364.296;   18.600; -316.000; -177.000
364.428; -171.300;-1344.000;-1220.000
364.560; -195.300; -679.000; -661.000
364.692; -123.800; -738.000; -835.000
364.824;  103.700; -588.000; -456.000
364.955;  210.500; -402.000; -564.000
365.087;  419.500;-1097.000; -852.000
365.219;  -94.100; -686.000; -816.000
365.351; -169.500; -526.000; -572.000
365.482;  110.900;  300.000;  240.000
365.614;  -81.900; -402.000; -314.000
365.746; -158.300; -729.000; -752.000
365.877; -233.700; -706.000; -672.000
366.009;  177.800;  -35.000;  -62.000
366.141; -266.400;-1249.000;-1134.000
366.272; -207.200; -803.000; -719.000
366.404; -223.700;-1005.000; -874.000
366.535;   -6.400; -139.000;  -12.000
366.667; -206.300; -644.000; -649.000
366.799;  125.600;  353.000;  203.000
366.930; -253.700; -862.000; -996.000
367.062;   -6.400; -639.000; -613.000
367.193;  -47.100; -872.000; -842.000
367.325;  -88.200; -580.000; -684.000
367.456;  -17.300; -246.000;   31.000
367.588;   75.000; -371.000; -318.000
367.719;    2.900;  -44.000;  -45.000
367.851;  -36.600; -222.000; -241.000
367.982; -187.600; -875.000; -732.000
368.113;   58.800; -475.000; -358.000
368.245; -238.500; -960.000; -841.000
368.376;   -7.800; -254.000; -302.000
368.508;  -86.300; -188.000; -263.000
368.639; -281.800;-1166.000;-1034.000
368.770; -156.300; -670.000; -589.000
368.902; -167.900; -836.000; -926.000
369.033; -240.200; -906.000; -855.000
369.164; -140.100; -720.000; -653.000
369.296; -212.200; -452.000; -601.000
369.427;   14.400; -209.000; -144.000
369.558; -114.800; -593.000; -377.000
369.689; -169.900; -721.000; -569.000
369.821; -240.000; -951.000; -845.000
369.952;   33.500;   42.000; -108.000
370.083;  -80.000; -229.000; -108.000
370.214; -168.500; -735.000; -650.000
370.345;    8.200;   65.000;   81.000
370.477; -182.300; -810.000; -790.000
370.608;  138.200; -328.000; -264.000
370.739; -207.700;-1233.000;-1292.000
370.870; -204.900;-1102.000; -923.000
371.001;   38.100; -378.000; -467.000
371.132; -202.400; -754.000; -735.000
371.263;    7.600;  -42.000; -148.000
371.394; -280.800; -841.000; -748.000
371.525;  116.300;  345.000;  225.000
371.657; -187.400; -808.000; -670.000
371.788;   69.600;  103.000;  199.000
371.919;   34.900; -384.000; -304.000
372.050; 3223.800;  -91.000; -156.000
372.181;  868.400; -188.000; -294.000
372.311;  336.000;   42.000; -127.000
372.442;  -57.200; -457.000; -451.000
372.573;  -26.700; -444.000; -340.000
372.704; -278.700;-1008.000; -980.000
372.835;   25.500; -228.000; -289.000
372.966; -137.400; -646.000; -554.000
373.097; -170.300; -575.000; -711.000
373.228; -125.000; -717.000; -542.000
373.359;   25.900; -824.000; -536.000
373.490;  544.800; -881.000; -727.000
373.620;  710.100;-1001.000; -803.000
373.751; 1443.300; -332.000; -396.000
373.882;  589.300; -663.000; -733.000
374.013;  -10.800; -449.000; -262.000
374.143; -125.100; -581.000; -659.000
374.274; -254.600; -987.000; -908.000
374.405;  103.900; -388.000; -276.000
374.536;  289.700; -526.000; -387.000
374.666;  842.800; -759.000; -807.000
374.797;   23.500; -817.000; -868.000
374.928;  606.800; -710.000; -560.000
375.058;  516.700; -535.000; -500.000
375.189;   50.300;  -59.000;  -93.000
375.320; -262.900; -928.000;-1034.000
375.450; -155.300; -625.000; -616.000
375.581; -110.400; -526.000; -436.000
375.712;  -99.900; -574.000; -250.000
375.842;  121.400; -438.000; -415.000
375.973;   68.200; -554.000; -513.000
376.103; -142.600; -665.000; -648.000
376.234; -157.700; -531.000; -552.000
376.364; -203.800; -944.000; -867.000
376.495;  374.500;  925.000;  529.000
376.625; -124.700; -472.000; -485.000
376.756;  -66.900; -709.000; -678.000
376.886; -257.200;-1178.000;-1026.000
377.017; -157.600;-1048.000;-1061.000
377.147;   86.200; -786.000; -782.000
377.278;   76.300;  174.000;  228.000
377.408; -239.300; -801.000; -815.000
377.538; -183.800; -707.000; -693.000
377.669; -152.300; -537.000; -613.000
377.799; -159.500; -645.000; -635.000
377.929; -128.400; -610.000; -428.000
378.060; -239.600; -781.000; -847.000
378.190; -173.000; -726.000; -531.000
378.320;  -75.400; -401.000; -406.000
378.451;    3.400; -131.000;  -22.000
378.581;  -19.800;  -67.000; -110.000
378.711;  274.000; 1035.000;  866.000
378.841;  -91.400; -533.000; -675.000
378.972; -209.000; -871.000; -751.000
379.102;  -96.100; -652.000; -579.000
379.232;  -52.300; -126.000;  -73.000
379.362; -208.700;-1001.000; -885.000
379.492;  -88.900; -373.000; -424.000
379.623;  124.100;    0.000;  111.000
379.753; -243.400;-1107.000; -974.000
379.883;  211.500;   59.000;  156.000
380.013; -206.200;-1081.000;-1017.000
380.143; -209.900;-1097.000;-1056.000
380.273; -227.400; -985.000; -861.000
380.403;  -28.800; -344.000; -257.000
380.533; -170.700; -651.000; -664.000
380.663;  107.800;  173.000;  128.000
380.793; -270.300;-1027.000;-1074.000
380.923;  -13.700; -103.000;  -34.000
381.053; -196.400; -613.000; -623.000
381.183;  -30.800; -106.000; -248.000
381.313;  -58.500; -656.000; -470.000
381.443;  -17.400; -692.000; -473.000
381.573;   63.300; -402.000; -409.000
381.703;    2.600;-1249.000;-1095.000
381.833; -336.900;-1454.000;-1336.000
381.963;   85.300; -134.000;  -87.000
382.093;  909.800; -925.000; -909.000
382.223;  220.100; -713.000; -602.000
382.353; -136.900; -801.000; -608.000
382.482;  155.600;-1091.000; -964.000
382.612;  445.600; -872.000; -644.000
382.742;  244.600; -695.000; -622.000
382.872;   65.000; -565.000; -551.000
383.002;   58.300;  347.000; -132.000
383.131; -106.600; -226.000; -160.000
383.261; -150.600; -706.000; -768.000
383.391;   66.300; -552.000; -377.000
383.521; 2318.000;  451.000;  263.000
383.650;  284.600; -947.000; -904.000
383.780;  -98.400; -783.000; -656.000
383.910;  221.100;  880.000;  802.000
384.039; -116.900; -794.000; -656.000
384.169;  -92.700;-1205.000;-1017.000
384.299; -138.000; -650.000; -662.000
384.428; -212.800; -764.000; -680.000
384.558;  -62.900; -308.000; -275.000
384.687;  -93.600; -414.000; -334.000
384.817;   28.800;   75.000;   -2.000
384.947;  -31.700; -234.000; -141.000
385.076;  404.000;  982.000;  912.000
385.206;  202.700;  369.000;  480.000
385.335;  -77.600; -549.000; -417.000
385.465; -186.800; -655.000; -663.000
385.594;  141.900;  -53.000;  -44.000
385.724;  241.300; -868.000; -838.000
385.853;   66.300; -296.000; -270.000
385.982; 1086.100; -743.000; -787.000
386.112; 1733.800;-1052.000; -871.000
386.241;   60.700; -307.000; -312.000
386.371;   17.200; -174.000;  -87.000
386.500; -140.500; -825.000; -789.000
386.629;  -78.900; -874.000; -817.000
386.759;   80.200;  -43.000;   68.000
386.888;   -7.700; -170.000; -250.000
387.017; -181.000; -648.000; -620.000
387.147; -159.300; -771.000; -798.000
387.276;  -94.600; -410.000; -397.000
387.405;  -34.800; -398.000; -342.000
387.535; -103.300; -452.000; -361.000
387.664; -134.800; -692.000; -620.000
387.793;   11.500; -198.000; -113.000
387.922;  509.800;  255.000;  200.000
388.052;  -85.600; -576.000; -423.000
388.181;  -35.500; -342.000; -472.000
388.310; -143.100; -889.000; -710.000
388.439; -154.200; -749.000; -742.000
388.568;  192.000;  365.000;  244.000
388.697;  795.700; -756.000; -653.000
388.826;   63.900; -768.000; -666.000
388.956;   26.500; -285.000; -307.000
389.085;  -56.300; -347.000; -287.000
389.214; -200.700; -842.000; -872.000
389.343; -167.200; -645.000; -413.000
389.472;  357.200;  126.000;  149.000
389.601;  403.500;   91.000;    0.000
389.730;  -52.600; -568.000; -687.000
389.859;   93.400;  226.000;   46.000
389.988;  108.300; -423.000; -408.000
390.117;   73.400; -168.000; -146.000
390.246;  -51.400; -331.000; -320.000
390.375;    0.700; -673.000; -626.000
390.504; -144.200; -703.000; -621.000
390.633; -213.600; -672.000; -726.000
390.761; -120.500; -732.000; -645.000
390.890;   11.500;   -4.000; -130.000
391.019;  -59.200; -421.000; -441.000
391.148; -246.000; -826.000; -855.000
391.277; -111.000; -576.000; -493.000
391.406; -180.200; -821.000; -805.000
391.534;   81.800;  574.000; -301.000
391.663; -145.400; -583.000; -645.000
391.792; -161.100; -673.000; -701.000
391.921;   61.300;   -3.000;   15.000
392.050;  131.800; -287.000; -228.000
392.178; -220.400;-1206.000;-1061.000
392.307;    4.100; -758.000; -712.000
392.436;  -30.900; -427.000; -641.000
392.564;   39.200;  166.000;   -6.000
392.693; -222.100; -860.000; -682.000
392.822;  104.400; -529.000; -534.000
392.950;  -53.500; -880.000; -714.000
393.079;  239.000; -188.000; -328.000
393.208;  -39.300; -488.000; -511.000
393.336;   10.000; -170.000; -145.000
393.465;  -75.100; -317.000; -199.000
393.593;   65.600;   62.000;   79.000
393.722; -287.400;-1121.000; -916.000
393.850;  -21.600; -188.000;  -61.000
393.979; -289.600; -926.000; -805.000
394.107; -130.900; -517.000; -537.000
394.236; -124.100; -570.000; -507.000
394.364;  256.000;  383.000;  206.000
394.493;  193.500; -911.000; -767.000
394.621; -130.100; -955.000; -916.000
394.750;  271.400; -873.000; -923.000
394.878; 1858.800; -247.000; -149.000
395.007; 2320.600; -721.000; -807.000
395.135;   42.400; -790.000; -721.000
395.263; -257.000;-1038.000;-1040.000
395.392;   33.000;  -25.000; -107.000
395.520; -152.500; -818.000; -679.000
395.648; -211.900; -865.000; -915.000
395.777; -109.000; -366.000; -405.000
395.905;  -78.900; -449.000; -564.000
396.033;   10.600;  217.000;  172.000
396.162;  488.900; -399.000; -453.000
396.290;  476.200;  -17.000;   -2.000
396.418;   18.900; -555.000; -514.000
396.546; -204.700; -571.000; -466.000
396.674; -191.300; -850.000; -878.000
396.803;   -0.300;  -72.000;  -23.000
396.931;   40.100; -179.000; -199.000
397.059; -180.200;-1026.000; -989.000
397.187; -219.000;-1026.000; -975.000
397.315; -258.700; -884.000; -649.000
397.443; -155.200; -592.000; -443.000
397.572; -163.300; -578.000; -424.000
397.700; -113.300; -607.000; -614.000
397.828;   33.800;  120.000;  -90.000
397.956; -113.400; -508.000; -478.000
398.084; -182.300; -767.000; -626.000
398.212;   74.200;  137.000;  124.000
398.340;   -1.000;  -56.000;  159.000
398.468;  -32.500; -390.000; -169.000
398.596; -291.900; -993.000; -953.000
398.724; -225.400; -762.000; -767.000
398.852; -303.600;-1024.000; -976.000
398.980; -116.500; -560.000; -560.000
399.108; -197.200; -982.000; -735.000
399.236;   28.700;   13.000;    8.000
399.363;   10.100;  222.000;  196.000
399.491; -103.100; -404.000; -398.000
399.619; -263.700; -829.000; -800.000
399.747; -229.600; -859.000; -771.000
399.875;  108.800;  220.000;  234.000
400.003;  -78.100; -359.000; -284.000
400.130; -151.500; -421.000; -341.000
400.258;    5.200;  -83.000;   38.000
400.386;  -94.200; -352.000; -168.000
400.514; -105.600; -526.000; -587.000
400.641; -245.700; -928.000; -802.000
400.769; -244.500; -979.000; -888.000
400.897; -201.100; -838.000; -793.000
401.025;    7.600; -166.000; -152.000
401.152;    2.500;  220.000;   38.000
401.280;  -92.200; -430.000; -429.000
401.408; -218.800; -712.000; -576.000
401.535; -188.600; -735.000; -758.000
401.663; -347.600;-1134.000;-1054.000
401.790; -123.400; -514.000; -525.000
401.918;  113.500;  436.000;  405.000
402.046;   18.700;  134.000;  122.000
402.173;  -40.300;  -18.000;    7.000
402.301; -101.500; -519.000; -397.000
402.428;  106.900;  528.000;  383.000
402.556; -264.300;-1188.000; -913.000
402.683;  -47.200;  -20.000;   -1.000
402.811;  -17.600;  -37.000; -206.000
402.938;   12.800;   20.000;   27.000
403.066;   92.000; -574.000; -558.000
403.193;  244.800;  299.000;  239.000
403.321;  155.900; -396.000; -574.000
403.448;  249.400;   83.000;   27.000
403.575;   91.300;  -90.000;  -46.000
403.703; -214.400; -732.000; -557.000
403.830; -108.100; -531.000; -496.000
403.957; -287.500;-1117.000;-1023.000
404.085;  -13.500;  -61.000; -172.000
404.212;   40.700;  -50.000;   63.000
404.339;  134.300; -566.000; -306.000
404.467; 3650.300; -612.000; -524.000
404.594; 2335.000; -287.000; -227.000
404.721;  419.800; -869.000; -764.000
404.848;   44.300; -113.000; -202.000
404.976; -211.600; -856.000; -783.000
405.103;   28.400;  -14.000;  -82.000
405.230;   -8.100;  190.000;  226.000
405.357;   54.000;  117.000;   44.000
405.484;  168.000;  -49.000;    5.000
405.612;  -39.500; -548.000; -563.000
405.739; -127.800; -488.000; -243.000
405.866;  178.400;  669.000;  385.000
405.993; -102.700; -398.000; -102.000
406.120; -240.900; -801.000; -887.000
406.247; -104.700; -323.000; -342.000
406.374;  446.900;  540.000;  629.000
406.501;  -62.600; -632.000; -702.000
406.628; -119.500; -621.000; -589.000
406.755; -192.700; -803.000; -620.000
406.882;  -67.300; -228.000; -277.000
407.009; -217.900; -719.000; -628.000
407.136;    4.800; -480.000; -401.000
407.263;  -81.500; -939.000; -829.000
407.390; -153.300; -692.000; -614.000
407.517; -344.600;-1139.000;-1187.000
407.644;  -69.000; -332.000; -256.000
407.771; -129.100; -249.000; -287.000
407.898;   28.600;  168.000;  328.000
408.025; -120.100; -421.000; -313.000
408.151;    4.800;   82.000;  153.000
408.278; -112.500; -267.000; -216.000
408.405; -213.600; -931.000; -899.000
408.532; -135.300; -549.000; -542.000
408.659; -190.400; -677.000; -648.000
408.785; -369.500;-1298.000;-1170.000
408.912;  -77.500; -412.000; -296.000
409.039; -151.000; -610.000; -686.000
409.166; -167.600; -591.000; -555.000
409.292; -183.800; -571.000; -534.000
409.419; -193.600; -665.000; -649.000
409.546; -118.700; -431.000; -192.000
409.672; -164.700; -713.000; -545.000
409.799;  -47.900;  -36.000;   34.000
409.926;  -45.700; -180.000; -179.000
410.052; -357.900;-1127.000;-1091.000
410.179;  -74.600; -368.000; -392.000
410.305; -120.500; -375.000; -493.000
410.432;  -53.700; -220.000; -333.000
410.558; -141.300; -305.000; -380.000
410.685; -151.600; -688.000; -431.000
410.812; -180.800; -409.000; -588.000
410.938; -239.300; -964.000; -808.000
411.065; -193.400; -671.000; -645.000
411.191;  -20.900; -189.000; -174.000
411.317; -245.400; -823.000; -742.000
411.444;  -64.100; -317.000; -246.000
411.570; -142.600; -339.000; -294.000
411.697; -212.600; -758.000; -752.000
411.823; -316.700; -989.000; -999.000
411.949;  -23.700;  -56.000;   17.000
412.076; -197.400; -539.000; -519.000
412.202; -194.800; -758.000; -757.000
412.329; -220.600; -798.000; -752.000
412.455; -196.700; -821.000; -657.000
412.581;   -9.200;  -15.000;  172.000
412.707; -121.400; -540.000; -457.000
412.834;   43.100;  156.000;  219.000
412.960; -201.700; -785.000; -784.000
413.086; -179.700; -743.000; -701.000
413.212;  208.600;  604.000;  578.000
413.339; -200.200; -685.000; -701.000
413.465;  -51.900; -364.000; -310.000
413.591; -212.800; -757.000; -474.000
413.717;  -91.800; -358.000; -366.000
413.843; -254.900; -839.000; -861.000
413.969; -106.500;  -47.000; -292.000
414.096; -221.000; -679.000; -679.000
414.222;    5.700;  -33.000;   85.000
414.348; -114.200; -652.000; -385.000
414.474;   75.400;   38.000;  -52.000
414.600;  -44.300; -126.000; -144.000
414.726;   -3.700;  -96.000;  -55.000
414.852; -128.300; -365.000; -342.000
414.978;   70.100;  104.000;  -18.000
415.104;    7.600;   38.000;   80.000
415.230;   -7.700; -329.000; -330.000
415.356;  -75.500; -409.000; -514.000
415.482;  113.200;   13.000;  -35.000
415.608;  118.900; -247.000; -323.000
415.734;  687.500;   67.000;   38.000
415.860;13690.200; -875.000; -767.000
415.986; 9101.500; -685.000; -607.000
416.111;  581.200; -798.000; -652.000
416.237;  120.800; -424.000; -571.000
416.363;  668.100; -765.000; -733.000
416.489; 2691.200; -324.000; -251.000
416.615;   83.300; -707.000; -742.000
416.741; -173.100; -677.000; -784.000
416.866; -205.100; -673.000; -736.000
416.992; -226.200; -801.000; -818.000
417.118;  -52.800;  -41.000;  -80.000
417.244; -180.000; -798.000; -531.000
417.369; -239.300; -801.000; -612.000
417.495;  -32.300; -325.000; -254.000
417.621; -247.400;-1015.000; -803.000
417.746;  -41.200; -579.000; -572.000
417.872;   22.600; -254.000; -144.000
417.998;  -29.000; -515.000; -530.000
418.123;  584.900;-1073.000; -845.000
418.249; 3221.400; -512.000; -601.000
418.374;  264.500; -916.000; -824.000
418.500;   -1.800; -383.000; -482.000
418.626;   91.500;   70.000;  -59.000
418.751;   23.200; -549.000; -448.000
418.877;   -4.800; -637.000; -643.000
419.002; 1213.400; -688.000; -560.000
419.128; 7896.300; -930.000; -721.000
419.253; 1600.800; -967.000; -837.000
419.379;  134.800; -391.000; -338.000
419.504;  346.200;  325.000;  415.000
419.629;  273.000; -393.000; -212.000
419.755; 2430.500; -317.000; -254.000
419.880;13241.200;  -98.000;   67.000
420.006; 7590.500; -280.000; -221.000
420.131;19157.200; -662.000; -775.000
420.256; 2527.300; -315.000; -316.000
420.382;  233.500; -665.000; -687.000
420.507;  -77.100; -649.000; -778.000
420.632;   31.000; -337.000; -339.000
420.758;  241.600; -251.000; -425.000
420.883; -166.600; -876.000; -672.000
421.008; -164.800; -775.000; -619.000
421.133; -255.400; -509.000; -467.000
421.259;  -42.900; -325.000; -259.000
421.384; -231.400; -834.000; -693.000
421.509; -119.700;-1052.000; -862.000
421.634;  932.500; -936.000; -820.000
421.759;  378.300; -359.000; -327.000
421.885; -155.000; -717.000; -656.000
422.010; -115.400; -673.000; -542.000
422.135; -278.100; -695.000; -727.000
422.260;  117.900;  340.000;  280.000
422.385;  -50.300;   12.000;  -98.000
422.510;   33.100;  151.000;  -26.000
422.635;   23.700;  -87.000;  -43.000
422.760;   -2.900; -766.000; -791.000
422.885;   17.000;  -57.000;  -80.000
423.010;  -40.500; -112.000; -169.000
423.135; -142.500; -481.000; -561.000
423.260;  -24.300; -150.000; -245.000
423.385;   98.000;  476.000;  222.000
423.510;   73.900;   71.000;  -22.000
423.635;   63.200;  133.000;   45.000
423.760;  127.200;  383.000;  328.000
423.885;   82.700;  336.000;  391.000
424.010;   -5.300;  -68.000;  -13.000
424.135;  -38.700;    5.000;  -33.000
424.259; -177.700; -654.000; -457.000
424.384; -128.100; -279.000; -272.000
424.509;  -29.300; -260.000; -186.000
424.634; -199.000; -761.000; -623.000
424.759;  -93.900; -688.000; -544.000
424.883;  -85.700; -506.000; -527.000
425.008;   34.300; -502.000; -410.000
425.133; 1177.200; -679.000; -653.000
425.258;  465.600; -517.000; -381.000
425.382;  711.100; -867.000; -774.000
425.507; 1919.600; -487.000; -543.000
425.632;  145.000; -802.000; -663.000
425.756;  267.800; -256.000; -146.000
425.881; 4213.500; -831.000; -857.000
426.006;10655.900; -604.000; -355.000
426.130; 1431.600; -696.000; -508.000
426.255;  129.800; -611.000; -491.000
426.379;   47.600; -189.000; -577.000
426.504;  417.400;  660.000;  544.000
426.629; 2612.500; -519.000; -466.000
426.753; 1676.500;   64.000;  -46.000
426.878;  129.200; -252.000; -288.000
427.002;  -37.800; -651.000; -668.000
427.127; 1162.900;  -35.000; -158.000
427.251; 7889.800;  372.000;  401.000
427.375; 1981.600; -191.000; -173.000
427.500; 1708.600; -616.000; -610.000
427.624;  450.100; -234.000; -400.000
427.749;   42.500; -216.000; -225.000
427.873;  -83.800; -499.000; -412.000
427.997;  -22.100; -222.000; -230.000
428.122;  169.900;  795.000;  703.000
428.246;  158.600;  433.000;  434.000
428.371; -242.500; -869.000; -773.000
428.495; -158.900; -624.000; -646.000
428.619;  -19.800; -186.000; -117.000
428.743;   73.300;   65.000;  132.000
428.868; -108.900; -732.000; -643.000
428.992; 1085.100; -219.000; -326.000
429.116;  356.000; -329.000; -357.000
429.240;  314.800;  419.000;  426.000
429.365; -105.200; -454.000; -574.000
429.489; -103.300; -638.000; -647.000
429.613;   -9.700; -236.000; -177.000
429.737;  -29.900; -563.000; -432.000
429.861;  123.500; -247.000; -133.000
429.985; 3855.000; -425.000; -305.000
430.109; 3667.700; -770.000; -908.000
430.234;  459.100;   76.000;  -50.000
430.358;   -9.200; -250.000; -160.000
430.482; -146.100; -672.000; -564.000
430.606; -111.700; -655.000; -375.000
430.730;    5.400; -437.000; -388.000
430.854;  -88.100; -909.000; -835.000
430.978; -146.000; -795.000; -764.000
431.102; -168.300; -499.000; -422.000
431.226; -161.600; -874.000; -815.000
431.350;  118.300;  345.000;  422.000
431.474; -137.600; -661.000; -373.000
431.597; -306.900;-1060.000; -848.000
431.721;  -99.700; -276.000; -267.000
431.845; -222.200; -704.000; -472.000
431.969; -122.500; -304.000; -349.000
432.093; -143.200; -395.000; -317.000
432.217;   28.700;   32.000;   82.000
432.341; -179.800; -523.000; -518.000
432.464;   16.700;   96.000;   40.000
432.588;   46.900; -401.000; -329.000
432.712;   78.500;  -52.000;  -52.000
432.836;   67.100;  213.000;  263.000
432.959;  -76.000; -372.000; -311.000
433.083;   35.100;   11.000;    2.000
433.207;  338.000;  285.000;  930.000
433.330; 3320.700; -391.000; -200.000
433.454; 3650.000; -654.000; -638.000
433.578; 2288.100;  583.000;  278.000
433.701;  256.900; -623.000; -675.000
433.825;    6.000; -292.000; -299.000
433.949;  134.900;   28.000;  -72.000
434.072;  -15.000; -410.000; -323.000
434.196;  -24.700; -309.000; -117.000
434.319; 7724.000;25482.000;25124.000
434.443;  374.800; -656.000; -603.000
434.566; 1710.900;  281.000;   62.000
434.690;  158.200; -637.000; -383.000
434.813;   -6.800; -251.000; -173.000
434.937; -136.300; -569.000; -696.000
435.060; -117.800; -423.000; -332.000
435.184;  205.100; -492.000; -217.000
435.307;  134.300;  159.000;  102.000
435.431;   -9.900;  -40.000;   24.000
435.554;  -92.900; -399.000; -240.000
435.677;  -89.500; -350.000; -258.000
435.801;  -45.300;  -25.000;   49.000
435.924;   23.300;    1.000;  -67.000
436.048; -243.600;-1019.000; -732.000
436.171;  -81.100; -240.000;  -66.000
436.294; -113.000; -248.000; -229.000
436.417;  -89.400; -963.000; -849.000
436.541; -231.900; -814.000; -840.000
436.664;  -23.600; -242.000; -316.000
436.787;    3.600;   13.000;  113.000
436.910; -157.300; -792.000; -422.000
437.034;   27.000;  142.000;  143.000
437.157;   73.400;  -11.000;    0.000
437.280; -116.100; -392.000; -292.000
437.403; -211.400; -982.000; -869.000
437.526;  469.500; -903.000; -865.000
437.649; 1968.000; -505.000; -332.000
437.772;  124.700; -692.000; -540.000
437.896;  228.700;  700.000;  544.000
438.019; -206.700; -758.000; -503.000
438.142; -134.100; -596.000; -506.000
438.265; -150.300; -639.000; -670.000
438.388;  347.200; -520.000; -410.000
438.511;  -52.300; -597.000; -394.000
438.634;  -91.200; -247.000; -125.000
438.757; -234.400; -693.000; -619.000
438.880;  -33.200;  -34.000;  -57.000
439.003; -163.800; -417.000; -437.000
439.126;  -69.800; -287.000; -167.000
439.248;  -54.100;  -98.000; -139.000
439.371;  -28.200;    9.000;  -53.000
439.494;   90.900;  510.000;  439.000
439.617;  -50.800;   65.000;  -88.000
439.740; -299.900; -968.000; -816.000
439.863; -208.000; -755.000; -595.000
439.986; -211.900; -476.000; -431.000
440.108;  -62.200; -161.000; -112.000
440.231; -313.400; -950.000; -836.000
440.354;  -27.500;  -64.000; -150.000
440.477; -144.000; -566.000; -542.000
440.599;  -42.200; -200.000; -225.000
440.722; -210.600; -709.000; -586.000
440.845;  212.000;  751.000;  928.000
440.968; -198.500; -415.000; -311.000
441.090;  -54.100; -199.000;  -33.000
441.213; -304.300;-1021.000; -825.000
441.336;  -47.300; -159.000;   -5.000
441.458; -135.100; -549.000; -396.000
441.581; -162.500; -628.000; -629.000
441.703; -110.100; -152.000;   13.000
441.826; -157.400; -557.000; -400.000
441.948;  -21.600;   56.000;   51.000
442.071;   97.000;  555.000;  424.000
442.193; -172.800; -531.000; -485.000
442.316;   58.300;  152.000;   97.000
442.438;  -14.800; -233.000;  -10.000
442.561;   99.100;  272.000;  262.000
442.683;  392.400; -809.000; -522.000
442.806;  979.300;   -8.000;   74.000
442.928; -134.900; -859.000; -604.000
443.051; -136.800; -577.000; -373.000
443.173; -149.700; -341.000; -339.000
443.295; -119.600; -263.000; -371.000
443.418;  -90.000; -321.000;  -29.000
443.540;   10.600; -106.000;   -4.000
443.662; -208.400; -563.000; -465.000
443.785;   39.900;  335.000;  199.000
443.907; -170.200; -362.000; -208.000
444.029; -220.000; -767.000; -494.000
444.152; -241.900; -644.000; -554.000
444.274;  -20.600;  -18.000;  -24.000
444.396; -195.500; -461.000; -221.000
444.518; -181.900; -691.000; -454.000
444.640; -165.200; -268.000; -111.000
444.763;   31.300;  388.000;  249.000
444.885; -204.500; -432.000; -392.000
445.007;  -20.100;   35.000;   86.000
445.129; -192.900; -610.000; -515.000
445.251; -144.500; -372.000; -439.000
445.373; -224.000; -537.000; -386.000
445.495;   50.500;  242.000;  350.000
445.617;  139.900;  853.000;  753.000
445.739;  -90.200; -215.000;  -97.000
445.861;  -67.300; -245.000; -112.000
445.984;  -67.700; -267.000; -101.000
446.105;  164.300; -418.000; -251.000
446.227;  547.900; -176.000;  -19.000
446.349;  -75.500; -358.000; -249.000
446.471; -170.700; -615.000; -448.000
446.593; -141.100; -316.000;   19.000
446.715;   14.800;  -67.000;   41.000
446.837;  161.100;  697.000;  832.000
446.959; -150.200; -457.000; -478.000
447.081; -241.800; -628.000; -518.000
447.203;  161.800;  862.000;  834.000
447.325; -126.700; -270.000;   42.000
447.446;   53.400;  286.000;  530.000
447.568; -264.500; -921.000; -803.000
447.690; -129.900; -236.000; -245.000
447.812; -260.300; -798.000; -519.000
447.933;    2.000;  155.000;  127.000
448.055; -128.600; -306.000; -261.000
448.177;  188.400;   31.000;   79.000
448.299; -100.100; -935.000; -727.000
448.420;   20.400;  -25.000;  159.000
448.542;  -82.700;   -3.000;   33.000
448.664;   21.800;  109.000;  322.000
448.785;   -9.200;  265.000;   83.000
448.907; -137.000; -614.000; -353.000
449.028; -121.700; -771.000; -471.000
449.150;  137.800;  492.000;  589.000
449.272; -330.700;-1044.000; -913.000
449.393;  129.100;  612.000;  694.000
449.515; -263.900; -634.000; -581.000
449.636;  -48.300; -264.000; -155.000
449.758;  145.500;  763.000;  622.000
449.879; -114.300; -498.000; -396.000
450.001; -116.800; -149.000;  -49.000
450.122;  -13.600;  -95.000;  162.000
450.244;   19.800;   37.000;  364.000
450.365; -125.000; -495.000; -301.000
450.486;  -47.400;   80.000;  268.000
450.608;   98.100;  393.000;  326.000
450.729;  102.200;  578.000;  645.000
450.850;  -99.300; -574.000; -466.000
450.972;  358.600; -552.000; -389.000
451.093; 3231.600;  190.000;  588.000
451.214; 1093.200; -516.000; -337.000
451.336;  364.500;  773.000;  579.000
451.457;   67.100;  264.000;  393.000
451.578;  -51.700; -118.000;  -74.000
451.699; -214.200; -546.000; -540.000
451.821;  -98.000; -284.000;  -50.000
451.942;   26.600;  278.000;  285.000
452.063;   98.200;  228.000;  419.000
452.184;  322.800;  -54.000;  -49.000
452.305;  745.800;  103.000;  170.000
452.427;  -52.900; -549.000; -301.000
452.548;   -5.200;   23.000;   79.000
452.669;  -82.200; -257.000;  -89.000
452.790;  -31.700;    3.000;  -18.000
452.911;    2.400;  195.000;  259.000
453.032;  -52.600; -289.000;  -60.000
453.153;  -86.500;  -29.000;   81.000
453.274;  223.900;  737.000;  868.000
453.395;  -49.500;  -51.000;  175.000
453.516;  304.900; 1317.000; 1388.000
453.637; -108.800; -205.000; -150.000
453.758;  -75.200;   15.000;   69.000
453.879; -170.200; -462.000; -250.000
454.000;  223.100; 1086.000;  948.000
454.121; -212.200; -554.000; -326.000
454.242; -161.500; -599.000; -383.000
454.362;  -33.400;  -99.000;  114.000
454.483;  -68.900; -309.000; -229.000
454.604;   86.000;  512.000;  580.000
454.725; -225.400; -627.000; -555.000
454.846; -200.500; -474.000; -406.000
454.967;   11.600;  230.000;  539.000
455.087;  -11.000;  179.000;  153.000
455.208;   97.600;  554.000;  856.000
455.329;  -84.100;  -22.000;   82.000
455.450;  104.800;  473.000;  633.000
455.570; -136.700; -234.000; -211.000
455.691;  -23.000;  201.000;  407.000
455.812; -131.700; -270.000;  -92.000
455.932;  -41.100;  107.000;  -97.000
456.053; -108.800;   36.000;   24.000
456.173; -159.000; -433.000; -355.000
456.294; -218.200; -476.000; -303.000
456.415;  -81.900;  -73.000;   70.000
456.535;   -6.400;  297.000;  273.000
456.656;  -14.300;  132.000;  240.000
456.776;  -99.100;    3.000;  298.000
456.897;   52.300;  308.000;  513.000
457.017;  -90.000; -153.000;   -3.000
457.138; -161.900; -402.000; -249.000
457.258;  -46.400;  263.000;  224.000
457.379;   65.800;  509.000;  521.000
457.499;   16.300;  443.000;  432.000
457.620; -170.600; -407.000; -231.000
457.740; -142.700; -132.000;  -11.000
457.860;  -29.700;   87.000;   44.000
457.981;  -75.600;  132.000;  124.000
458.101;  -85.400;  -89.000;   40.000
458.221;   22.200;  336.000;  402.000
458.342;    2.300;   -4.000;  -37.000
458.462;   65.600;  617.000;  352.000
458.582;  -69.400; -302.000; -294.000
458.703;   23.900;  303.000;  154.000
458.823;    4.700;   22.000;  163.000
458.943;   39.400;  341.000;  467.000
459.063;  -19.300; 1124.000;  192.000
459.183;  -11.500;  328.000;  313.000
459.304;   88.500;  315.000;  517.000
459.424;  -92.900; -246.000;  -89.000
459.544;  345.500;  388.000;  764.000
459.664;  635.600;  499.000;  506.000
459.784;  361.600; 1004.000; 1175.000
459.904;  108.600;  867.000;  744.000
460.024;  204.600;  867.000;  684.000
460.144;   13.300;  449.000;  554.000
460.264;   40.400;  515.000;  327.000
460.385; -126.600; -145.000; -119.000
460.505;  166.200;  905.000;  858.000
460.625; -158.300;  -17.000;  -68.000
460.745;   37.300;  396.000;  541.000
460.864;  -64.400;  153.000;  469.000
460.984;   68.300;  499.000;  573.000
461.104;  317.100; 1656.000; 1775.000
461.224;  107.600;  657.000;  650.000
461.344;    5.500;  431.000;  360.000
461.464;   23.700;  258.000;  513.000
461.584;   -0.300;  283.000;  466.000
461.704;  -49.000;   58.000;  108.000
461.824;  -43.700;  238.000;  259.000
461.943;  -19.100;  191.000;  130.000
462.063;  -88.300;    2.000;  324.000
462.183;  137.000;  639.000;  717.000
462.303;  249.600; 1678.000; 1230.000
462.422;  139.500;  781.000;  840.000
462.542;  -19.400;  271.000;  391.000
462.662;   83.000;  353.000;  380.000
462.782;  232.600;  833.000;  572.000
462.901;  389.600;  545.000;  717.000
463.021;  428.900; 1702.000; 1638.000
463.141;   32.500;  337.000;  770.000
463.260;   47.000;  614.000;  474.000
463.380;  102.300;  902.000;  884.000
463.499;   39.500;  342.000;  332.000
463.619;  -12.000;  581.000;  559.000
463.738;  283.300; 1644.000;  903.000
463.858;   57.800;  657.000;  811.000
463.978;    1.900;  542.000;  396.000
464.097;  186.000;  921.000; 1114.000
464.217;  234.200; 1196.000; 1143.000
464.336;  280.500; 1068.000; 1130.000
464.455;  -24.700;  328.000;  659.000
464.575;  110.800;  597.000;  602.000
464.694;  266.600; 1204.000; 1179.000
464.814;  222.100; 1190.000; 1138.000
464.933;  155.600; 1095.000; 1027.000
465.052;  259.800; 1412.000; 1054.000
465.172;  144.900;  922.000;  799.000
465.291;  313.000; 1376.000; 1320.000
465.410;   45.400;  462.000;  735.000
465.530;  272.200; 1355.000; 1310.000
465.649;  183.000; 1209.000; 1273.000
465.768;  344.900; 1673.000; 1508.000
465.888;  144.700;  941.000; 1174.000
466.007;  287.400; 1335.000; 1440.000
466.126;   57.900;  721.000;  641.000
466.245;  174.400; 1176.000; 1187.000
466.364;   91.500;  950.000; 1060.000
466.484;  193.900; 1024.000; 1213.000
466.603;  125.200; 1101.000; 1222.000
466.722;  328.300; 1490.000; 1769.000
466.841;  183.900; 1151.000; 1401.000
466.960;  146.400; 1069.000;  972.000
467.079;  346.400; 1971.000; 1786.000
467.198;  187.400; 1238.000; 1181.000
467.317;  232.400; 1768.000; 1162.000
467.436;  225.800; 1709.000; 1261.000
467.555;  323.700; 1796.000; 1746.000
467.674;  226.000; 1227.000; 1329.000
467.793;  180.900; 1376.000; 1374.000
467.912;  252.000; 1658.000; 1539.000
468.031;  284.700; 2038.000; 1930.000
468.150;  332.900; 1842.000; 1837.000
468.269;  461.300; 2313.000; 2090.000
468.388;  485.100; 2168.000; 2339.000
468.507;  575.000; 2884.000; 2903.000
468.626;  636.400; 2555.000; 2541.000
468.744;  333.900; 2018.000; 2174.000
468.863;  454.500; 2312.000; 2523.000
468.982;  256.800; 1503.000; 1555.000
469.101;  535.600; 2788.000; 2692.000
469.220;  401.500; 2333.000; 2176.000
469.338;  572.200; 2935.000; 3051.000
469.457;  445.700; 2719.000; 2545.000
469.576;  760.000; 3953.000; 3784.000
469.695;  547.800; 2877.000; 3066.000
469.813;  907.900; 4148.000; 4192.000
469.932;  847.100; 4255.000; 4485.000
470.051;  844.400; 4075.000; 4161.000
470.169; 1178.000; 4470.000; 4338.000
470.288; 1659.800; 4700.000; 4809.000
470.406; 1222.800; 5059.000; 5194.000
470.525; 1326.100; 6101.000; 5787.000
470.644; 1415.400; 6847.000; 6794.000
470.762; 1716.600; 8397.000; 7873.000
470.881; 1848.200; 8651.000; 8464.000
470.999; 2127.400; 9685.000; 9151.000
471.118; 2210.400;11174.000;10711.000

