
Integration time [ms]: 100.000
Averaging Nr. [scans]: 40
Smoothing Nr. [pixels]: 0
Data measured with spectrometer [name]: 2101012U2
Wave   ;Sample   ;Dark     ;Reference
[nm]   ;[counts] ;[counts] ;[counts] 

197.733;   60.825;  516.000;  404.000
197.879;  -82.700; -610.000; -634.000
198.025;  -47.600; -475.000; -420.000
198.171;  -77.825; -602.000; -612.000
198.317;  -38.950; -401.000; -316.000
198.463;  -56.950; -655.000; -404.000
198.609;   35.000;  181.000; -137.000
198.755;  -87.325; -644.000; -410.000
198.901;  -73.100; -505.000; -424.000
199.047;  -58.450; -615.000; -488.000
199.193;  -35.825; -230.000; -468.000
199.339;  -47.300; -222.000; -369.000
199.485;   31.625;  330.000;  271.000
199.631;   11.350;  227.000;  310.000
199.777;  -60.675; -466.000; -398.000
199.923;  -65.250; -610.000; -424.000
200.069;   10.150; -141.000;  -58.000
200.215;   39.150;  128.000;  453.000
200.361;   45.550;  243.000;  477.000
200.507;  -59.675; -600.000; -373.000
200.653;  -36.225; -371.000; -194.000
200.798;  -27.250; -215.000; -125.000
200.944;   -8.100; -146.000;  -41.000
201.090;   29.775;   61.000;  222.000
201.236;   -1.950; -116.000; -158.000
201.382;  120.200;  874.000;  903.000
201.528;    3.875;  -58.000;  -48.000
201.674;  -32.950; -386.000; -293.000
201.819;  -70.350; -540.000; -439.000
201.965;  -89.525; -699.000; -447.000
202.111;  -31.775; -273.000; -226.000
202.257;  -43.850; -250.000; -238.000
202.402;   14.875;   13.000;  -36.000
202.548;  -26.450; -169.000; -116.000
202.694;   64.100;  410.000; -183.000
202.840;  -86.125; -603.000; -531.000
202.985;  -72.950; -681.000; -639.000
203.131; -105.175; -832.000; -666.000
203.277;  -22.875; -199.000; -262.000
203.423;  -62.775; -434.000; -520.000
203.568;  -48.475; -462.000; -237.000
203.714;  -66.375; -535.000; -542.000
203.860;  -79.450; -682.000; -641.000
204.005;   16.650;  112.000;  167.000
204.151;   62.200;  561.000;  556.000
204.296;  -45.500; -354.000; -221.000
204.442;  -74.975; -600.000; -547.000
204.588;  -80.100; -592.000; -579.000
204.733;   28.775;  178.000;  168.000
204.879; -137.600;-1018.000; -822.000
205.025;    5.125;  -99.000;  126.000
205.170;  -15.650;  -17.000;   94.000
205.316;   91.800;  438.000;  661.000
205.461;  -77.700; -698.000; -554.000
205.607;   77.825;  609.000;  665.000
205.752;  -83.675; -626.000; -551.000
205.898;  -47.225; -501.000; -391.000
206.043;  -59.900; -578.000; -506.000
206.189;  -37.775; -243.000; -285.000
206.334;   73.325;  554.000;  606.000
206.480;   86.325;  409.000;  239.000
206.625;  -81.525; -529.000; -552.000
206.771;  -53.625; -451.000; -373.000
206.916;  -40.700; -210.000; -537.000
207.062;  -87.450; -545.000; -591.000
207.207;  -50.325; -546.000; -443.000
207.353;   55.450;  185.000;  460.000
207.498;    5.500;  196.000;   85.000
207.643;  -42.000; -501.000; -370.000
207.789; -136.300;-1069.000; -910.000
207.934;  -89.200; -665.000; -713.000
208.080;  -29.675; -154.000;   66.000
208.225;    2.100;  -22.000;  -57.000
208.370;  -89.775; -727.000; -619.000
208.516;  -75.675; -741.000; -487.000
208.661;  -37.225; -127.000;  -69.000
208.806;   -6.050; -165.000; -171.000
208.952; -130.225;-1044.000; -731.000
209.097;   85.750;  378.000;  349.000
209.242;  -47.275; -307.000; -382.000
209.387;   67.775;  392.000;  350.000
209.533;  -59.500; -321.000; -350.000
209.678;   78.700;  472.000;  543.000
209.823;  -50.050; -408.000; -310.000
209.969;  -93.375; -860.000; -757.000
210.114; -121.025; -907.000; -719.000
210.259; -124.000; -939.000; -889.000
210.404;   -7.800; -171.000;  103.000
210.549;    7.575;  108.000;    3.000
210.695;  -10.450;   -3.000;  -95.000
210.840;   38.000;   94.000;   67.000
210.985;  -67.950; -484.000; -303.000
211.130;   77.525;  268.000;  406.000
211.275;   10.325;  207.000;  199.000
211.420;  -45.525; -300.000; -289.000
211.566;  -77.125; -536.000; -489.000
211.711;   19.425;  218.000;  157.000
211.856;  -64.075; -545.000; -519.000
212.001;   11.350;  151.000;   44.000
212.146;   34.050;  153.000;   49.000
212.291;  -31.250; -210.000; -186.000
212.436;  -23.425; -280.000;   -6.000
212.581;  -91.125; -685.000; -653.000
212.726;  -82.200; -487.000; -538.000
212.871;  -60.900; -552.000; -217.000
213.016; -157.025;-1172.000;-1029.000
213.161;   53.650;  406.000;  291.000
213.306;  -66.625; -435.000; -577.000
213.451;  -80.875; -778.000; -689.000
213.596;  -58.375; -455.000; -347.000
213.741;  -57.975; -448.000; -538.000
213.886;  -81.200; -498.000; -517.000
214.031;  -14.425; -294.000; -124.000
214.176;  -44.625; -408.000; -341.000
214.321;  -17.500; -296.000; -157.000
214.466;  -31.925; -163.000;  -43.000
214.611;   -9.150;  -61.000;  -10.000
214.756; -123.500; -948.000; -858.000
214.901;  -21.525; -388.000; -226.000
215.046; -121.500; -797.000; -825.000
215.191;   18.550;  128.000;   35.000
215.336;  -18.175; -157.000;  -19.000
215.480;  -67.100; -684.000; -505.000
215.625;  -20.375; -175.000;  -19.000
215.770;  -85.350; -757.000; -662.000
215.915;    0.950;   -5.000;  -97.000
216.060;   -8.900; -113.000;  -21.000
216.205; -127.650; -731.000; -779.000
216.349;  -74.175; -470.000; -533.000
216.494; -141.225; -939.000; -867.000
216.639; -117.175; -823.000; -888.000
216.784;  -92.125; -577.000; -525.000
216.929;   53.625;  392.000;  281.000
217.073;  -11.475; -244.000;  -31.000
217.218;   -0.325;   78.000;  -47.000
217.363;  -85.250; -656.000; -618.000
217.507;  -67.525; -623.000; -588.000
217.652; -130.950; -845.000; -874.000
217.797;  -84.250; -708.000; -659.000
217.942; -112.300; -856.000; -720.000
218.086;   79.525;  608.000;  539.000
218.231;  -30.050; -174.000;  -26.000
218.376;  -19.575; -337.000; -229.000
218.520;   -5.950;  -41.000;   96.000
218.665;  -21.475; -338.000; -204.000
218.810;  -36.925; -275.000; -233.000
218.954;   36.550;  201.000;   35.000
219.099; -125.250; -713.000; -963.000
219.243;  -83.550; -589.000; -554.000
219.388;  -46.050; -264.000; -136.000
219.532;  -15.100; -116.000; -116.000
219.677;  -84.125; -564.000; -521.000
219.822;   11.950;   33.000;   89.000
219.966;   13.100;   17.000;  -99.000
220.111;  -26.875; -328.000;  -40.000
220.255;  -96.700; -797.000; -750.000
220.400;  -23.725; -180.000; -146.000
220.544;  -81.925; -516.000; -450.000
220.689;  -38.675; -422.000; -451.000
220.833;  -36.425; -123.000;  -58.000
220.978;  -45.375; -393.000; -563.000
221.122;    6.675;  319.000;  307.000
221.267; -115.750; -906.000; -837.000
221.411;  -69.200; -478.000; -394.000
221.555;    0.700; -104.000;  -23.000
221.700;  -48.975; -329.000; -222.000
221.844;   34.750;  255.000;  272.000
221.989;  -51.550; -328.000; -311.000
222.133;  -27.325; -289.000; -307.000
222.277;  -12.325;    5.000;   78.000
222.422;    6.150;  227.000;  113.000
222.566;  -45.050; -381.000; -214.000
222.711;  -36.325; -414.000; -479.000
222.855;  -80.525; -643.000; -586.000
222.999;  -84.625; -642.000; -717.000
223.144;  -31.050; -195.000; -194.000
223.288;   43.925;  423.000;  251.000
223.432;   19.950;  184.000;  230.000
223.576;   22.400;  152.000;  -21.000
223.721;   36.400;  364.000;  273.000
223.865;  -61.700; -472.000; -475.000
224.009;  274.850; 1673.000; 1631.000
224.153;  -67.925; -660.000; -671.000
224.298;  -76.450; -531.000; -489.000
224.442;  -10.300;  -74.000;  -33.000
224.586;  -14.225; -169.000; -106.000
224.730;  -90.950; -858.000; -670.000
224.875; -105.375; -739.000; -688.000
225.019;    6.975;  102.000;  188.000
225.163;   47.900;  208.000;  341.000
225.307;   16.025;   97.000;  -91.000
225.451;   45.575;  360.000;  481.000
225.595;   38.775;  264.000;  176.000
225.739;  -11.675; -170.000;  -94.000
225.884;   12.175;   86.000;    5.000
226.028; -102.275; -760.000; -626.000
226.172;  -29.200; -260.000; -273.000
226.316; -126.125; -941.000; -902.000
226.460;  -73.275; -645.000; -493.000
226.604;  -49.775; -406.000; -400.000
226.748; -103.725; -836.000; -733.000
226.892;  -33.625; -227.000; -181.000
227.036;  -48.125; -537.000; -447.000
227.180;  -56.600; -551.000; -375.000
227.324;  -73.650; -561.000; -580.000
227.468; -121.800; -819.000; -717.000
227.612;   10.625;  242.000;  -28.000
227.756; -112.500; -845.000; -698.000
227.900;   65.525;  342.000;  441.000
228.044;  -64.025; -509.000; -290.000
228.188;   57.525;  448.000;  568.000
228.332; -101.400; -546.000; -472.000
228.476;  -27.525; -223.000; -149.000
228.620;  -32.200; -210.000; -150.000
228.764;   82.100;  431.000;  349.000
228.908;  -22.300; -155.000;   30.000
229.052;  -62.675; -615.000; -528.000
229.195;  -22.050; -172.000;   13.000
229.339;  -26.800; -235.000; -305.000
229.483;  -27.850;    5.000; -162.000
229.627;   -0.825; -156.000;  139.000
229.771;  -40.525; -218.000; -294.000
229.915;    3.425;  230.000;   79.000
230.059;  -97.950; -648.000; -663.000
230.202;  -48.875; -370.000; -317.000
230.346;  -29.425; -107.000;  107.000
230.490;  -64.950; -489.000; -521.000
230.634; -113.925; -736.000; -553.000
230.777;   78.050;  478.000;  509.000
230.921;  -61.200; -450.000; -359.000
231.065;  -43.600; -246.000; -286.000
231.209;   18.700;  261.000;  265.000
231.352;   28.500;   54.000;   40.000
231.496;   21.975;  568.000;  188.000
231.640;  -79.025; -693.000; -621.000
231.783;   69.925;  546.000;  525.000
231.927;  -46.775; -294.000; -365.000
232.071; -131.675; -962.000; -736.000
232.214; -113.050; -980.000; -764.000
232.358; -106.200; -683.000; -599.000
232.502;  -11.125;  -19.000;    7.000
232.645; -137.425;-1090.000; -927.000
232.789;  -25.850; -257.000; -218.000
232.933;  -46.325; -407.000; -224.000
233.076; -128.750;-1038.000; -897.000
233.220; -110.225; -752.000; -777.000
233.363;  -76.125; -669.000; -477.000
233.507;   58.400;  371.000;  129.000
233.650;  -89.575; -764.000; -834.000
233.794;   42.750;  438.000;  461.000
233.938;  -51.850; -530.000; -362.000
234.081;  -12.350;  -93.000;   31.000
234.225;  -57.850; -631.000; -539.000
234.368; -122.300; -773.000; -723.000
234.512;  -44.525; -385.000; -299.000
234.655;  -78.625; -582.000; -555.000
234.798;  -60.000; -493.000; -466.000
234.942; -127.775; -884.000;-1002.000
235.085;  -73.375; -651.000; -443.000
235.229;  -89.700; -405.000; -410.000
235.372;  -57.900; -247.000; -191.000
235.516;  -62.825; -397.000; -321.000
235.659;    5.325;   92.000;  121.000
235.802;  -22.575;  -38.000;  -22.000
235.946;   22.525;  335.000;  215.000
236.089;   30.500;  126.000;  250.000
236.233;   49.800;  275.000;  298.000
236.376;  -50.775; -235.000; -378.000
236.519;  -54.475; -297.000; -319.000
236.663;  -26.700; -215.000; -117.000
236.806; -132.325;-1029.000; -999.000
236.949;   59.925;  543.000;  431.000
237.092;   51.175;  412.000;  391.000
237.236;  -98.875; -589.000; -502.000
237.379;   69.725;  352.000;  428.000
237.522; -128.250; -879.000; -768.000
237.666;  -20.400; -271.000;   18.000
237.809; -135.625; -851.000; -823.000
237.952;   50.975;  469.000;  271.000
238.095;  -68.100; -447.000; -442.000
238.238;   76.325;  688.000;  700.000
238.382;  -17.650;  166.000;  103.000
238.525;  -77.100; -598.000; -511.000
238.668; -142.600;-1060.000; -985.000
238.811;  -88.600; -638.000; -643.000
238.954;  -54.375; -483.000; -334.000
239.097;   96.975;  617.000;  664.000
239.241;   10.525;  394.000;  326.000
239.384;  -37.850; -254.000; -214.000
239.527;  -65.000; -424.000; -224.000
239.670; -145.900; -994.000;-1091.000
239.813; -115.350; -696.000; -658.000
239.956;   82.825;  579.000;  473.000
240.099; -112.750; -778.000; -725.000
240.242;   61.250;  428.000;  432.000
240.385;   27.400;  466.000;  450.000
240.528;  -68.675; -706.000; -473.000
240.671;   26.525;  189.000;  134.000
240.814;  -54.100; -441.000; -158.000
240.957; -105.700; -767.000; -578.000
241.100;  -84.650; -779.000; -755.000
241.243; -137.200;-1234.000; -893.000
241.386;  -69.825; -508.000; -379.000
241.529;  -84.425; -735.000; -547.000
241.672;  -72.325; -566.000; -495.000
241.815; -122.625; -832.000; -808.000
241.958;   -5.925; -125.000; -182.000
242.101;  -81.475; -545.000; -390.000
242.244;  -29.200; -270.000; -325.000
242.387;  -47.175; -304.000; -246.000
242.530;   67.150;  470.000;  134.000
242.673;  -61.775; -381.000; -309.000
242.815; -114.800; -925.000; -899.000
242.958;  -76.050; -482.000; -381.000
243.101;   11.150;  132.000;  187.000
243.244;  -89.250; -564.000; -521.000
243.387;  -51.025; -313.000; -316.000
243.530; -108.775; -657.000; -674.000
243.672;    1.600;   43.000;  -92.000
243.815;  -46.475; -355.000; -283.000
243.958;    1.075;   98.000;  -26.000
244.101;    0.875;   59.000;  -16.000
244.243;  -12.600;  -47.000;  101.000
244.386; -110.400; -761.000; -630.000
244.529;  -23.550; -132.000; -139.000
244.672; -162.775;-1154.000; -951.000
244.814;  -91.250; -621.000; -794.000
244.957;  -43.200; -380.000; -304.000
245.100;  -62.425; -489.000; -489.000
245.242;  -79.850; -387.000; -374.000
245.385;  -18.000;  -59.000;  -39.000
245.528; -129.600; -871.000; -705.000
245.670;   99.150;  612.000;  634.000
245.813;  -98.675; -599.000; -547.000
245.956;  -26.350; -324.000; -275.000
246.098;  -88.050; -508.000; -650.000
246.241;    6.700;  194.000;   48.000
246.383;  -27.100; -119.000;  -73.000
246.526;  -67.550; -454.000; -525.000
246.669; -118.125; -889.000; -780.000
246.811;   28.475;  172.000;   -1.000
246.954;  -68.850; -512.000; -426.000
247.096;  -14.725;  -84.000;   -6.000
247.239;  -82.925; -482.000; -445.000
247.381;  -69.500; -647.000; -488.000
247.524;   94.275;  645.000;  679.000
247.666;    3.250;   58.000;   11.000
247.809; -123.125; -887.000; -691.000
247.951;   -6.825;  -75.000;  138.000
248.094;   26.200;  432.000;  308.000
248.236; -160.025;-1262.000;-1238.000
248.378;   -3.050; -356.000;  -81.000
248.521;  -11.375; -334.000; -337.000
248.663;  -51.925; -236.000; -267.000
248.806;  -17.625; -300.000; -266.000
248.948;  -95.825; -886.000; -763.000
249.090;  -32.625; -428.000; -398.000
249.233;  -55.200; -344.000; -381.000
249.375;  -65.450; -474.000; -451.000
249.518;  -23.850;  -83.000; -133.000
249.660;  -12.825; -103.000;    3.000
249.802; -179.775;-1303.000;-1189.000
249.945;  -74.600; -612.000; -540.000
250.087; -110.500; -834.000; -768.000
250.229;  -54.975; -362.000; -480.000
250.371;  -65.550; -494.000; -439.000
250.514;  -44.575; -310.000; -244.000
250.656;  -59.150;   69.000;  102.000
250.798; -121.700; -849.000; -800.000
250.940;  -68.875; -322.000; -322.000
251.083;  -28.625; -335.000; -111.000
251.225;   64.250;  338.000;  310.000
251.367;  -40.475; -274.000; -373.000
251.509;  -43.275; -265.000; -210.000
251.651;  -97.550; -731.000; -671.000
251.794;   81.350;  538.000;  632.000
251.936; -109.600; -821.000; -747.000
252.078;  -91.750; -540.000; -461.000
252.220;  -62.325; -645.000; -477.000
252.362;   77.075;  344.000;  462.000
252.504;  -53.850; -677.000; -584.000
252.646; -108.275; -875.000; -722.000
252.788;   -0.250;   14.000; -128.000
252.931;  -35.675; -257.000; -253.000
253.073;  -47.575; -376.000; -317.000
253.215;  -20.075;  141.000;  122.000
253.357;   -8.475;   82.000; -153.000
253.499;  -60.000; -374.000; -234.000
253.641;  -81.000; -749.000; -594.000
253.783;  -89.075; -609.000; -527.000
253.925;  -93.275; -586.000; -591.000
254.067; -120.350; -744.000; -667.000
254.209;  -22.200; -391.000; -259.000
254.351; -140.150; -865.000; -883.000
254.493;  -60.625; -441.000; -417.000
254.635; -136.750; -936.000; -818.000
254.777;  -89.025; -752.000; -687.000
254.918;  -74.325; -512.000; -430.000
255.060;  -58.100; -551.000; -395.000
255.202;  -55.800; -473.000; -261.000
255.344;  -80.150; -658.000; -455.000
255.486;  -71.575; -471.000; -406.000
255.628; -104.525; -780.000; -781.000
255.770;  -92.400; -676.000; -536.000
255.912;  -70.100; -559.000; -468.000
256.053; -101.175; -730.000; -508.000
256.195;  159.475; 1008.000;  903.000
256.337; -109.725; -861.000; -595.000
256.479;   61.375;  532.000;  416.000
256.621;  -48.725; -394.000; -212.000
256.762; -103.000; -789.000; -742.000
256.904;   58.350;  485.000;  487.000
257.046;  -39.100; -381.000; -271.000
257.188;  -58.500; -351.000; -264.000
257.329;  -56.550; -525.000; -464.000
257.471; -116.125; -939.000; -807.000
257.613;  -66.900; -584.000; -498.000
257.755; -143.450;-1073.000; -982.000
257.896;   42.300;  286.000;  392.000
258.038;  -70.250; -403.000; -352.000
258.180;  -37.875; -354.000; -279.000
258.321;  -88.125; -581.000; -457.000
258.463;  -12.650;  -71.000;  133.000
258.605;  -93.125; -562.000; -570.000
258.746; -110.800; -886.000; -772.000
258.888; -160.350;-1026.000;-1020.000
259.029;   24.350;  121.000;   -8.000
259.171; -104.450; -614.000; -550.000
259.313;   -3.050;  -49.000;  -47.000
259.454;  -79.675; -536.000; -414.000
259.596;  -60.575; -483.000; -390.000
259.737;  -91.500; -590.000; -474.000
259.879;   41.550;  217.000;  311.000
260.020;   83.975;  901.000;  636.000
260.162;  -15.900; -146.000; -253.000
260.303; -112.650; -768.000; -687.000
260.445;  -79.475; -609.000; -613.000
260.586;   19.725;  392.000;  157.000
260.728;  -46.675; -360.000; -248.000
260.869;  -65.550; -350.000; -343.000
261.011;   81.450;  706.000;  537.000
261.152;  -59.150; -479.000; -319.000
261.293;  -85.500; -576.000; -595.000
261.435;  -27.075; -219.000; -184.000
261.576;  -61.025; -455.000; -325.000
261.718;   49.300;  420.000;  470.000
261.859; -132.300; -940.000; -949.000
262.000; -138.400; -951.000;-1016.000
262.142;  -19.900;  -52.000;  -60.000
262.283; -122.150; -808.000; -691.000
262.424;  -87.775; -666.000; -625.000
262.566; -157.075;-1161.000; -983.000
262.707; -123.100; -840.000; -830.000
262.848; -134.600; -769.000; -726.000
262.990;  -51.600; -362.000; -345.000
263.131;   69.450;  650.000;  681.000
263.272;  -11.675;  -61.000;  -41.000
263.413;  -98.450; -589.000; -561.000
263.555;  -63.375; -669.000; -143.000
263.696; -100.125; -550.000; -641.000
263.837;  -62.400; -449.000; -551.000
263.978;  -16.525;   -5.000;  -77.000
264.119;  -49.150; -283.000; -264.000
264.261; -109.475; -847.000; -630.000
264.402;    7.875;   33.000;   40.000
264.543;  -80.575; -509.000; -524.000
264.684;   -9.750;   61.000;  -50.000
264.825;  -84.250; -816.000; -538.000
264.966;  -10.800;  -84.000;  -67.000
265.107; -123.875; -646.000; -670.000
265.248; -124.625; -825.000; -812.000
265.390;  -15.300;  152.000;   -9.000
265.531;  -31.450; -238.000; -107.000
265.672;  -92.075; -557.000; -630.000
265.813;   72.575;  563.000;  439.000
265.954; -150.375; -959.000; -940.000
266.095;  -24.900; -372.000; -322.000
266.236; -102.750; -686.000; -548.000
266.377;  -42.200; -243.000; -297.000
266.518;  -70.500; -619.000; -547.000
266.659;   27.650;  170.000;  268.000
266.800;   13.850;   83.000;   85.000
266.941;  -72.075; -487.000; -478.000
267.082;   14.300;  354.000;   99.000
267.223;  -51.650; -344.000; -273.000
267.364; -124.575; -892.000; -686.000
267.504;  -12.925;    3.000;  135.000
267.645;  -11.225;  160.000;   67.000
267.786;  -26.000; -147.000;  -86.000
267.927;  -77.175; -473.000; -379.000
268.068;  -25.700; -186.000;  -61.000
268.209;  -46.875; -175.000; -413.000
268.350;  -60.800; -388.000; -532.000
268.490;  -90.050; -648.000; -521.000
268.631;   35.700;  127.000;  225.000
268.772; -113.100; -874.000; -647.000
268.913;  -49.200; -328.000; -476.000
269.054;  -14.875; -117.000;   12.000
269.194;  -55.450; -418.000; -402.000
269.335; -172.225;-1137.000;-1074.000
269.476;  -25.900;   33.000;  -35.000
269.617;  -58.850; -347.000; -392.000
269.757;  -93.275; -713.000; -646.000
269.898; -110.500; -856.000; -613.000
270.039;  -50.350; -415.000; -405.000
270.180; -153.000; -952.000; -816.000
270.320;  -36.475; -190.000; -250.000
270.461;  -53.250; -277.000; -249.000
270.602;  -17.700; -186.000; -156.000
270.742; -138.925; -868.000; -943.000
270.883;  -55.950; -442.000; -390.000
271.023;  -67.850; -358.000; -357.000
271.164;  -80.350; -607.000; -528.000
271.305; -108.825; -666.000; -654.000
271.445;  -96.700; -722.000; -683.000
271.586;  -63.600; -462.000; -283.000
271.726;  -47.300; -397.000; -322.000
271.867;  -71.950; -594.000; -534.000
272.008;  160.975; -473.000; -285.000
272.148;  112.725;  462.000;  468.000
272.289;   10.075; -113.000; -181.000
272.429;    8.525;   19.000;  185.000
272.570;  -93.400; -633.000; -737.000
272.710; -118.250; -825.000; -775.000
272.851;  -26.475;  113.000; -130.000
272.991; -172.900;-1173.000;-1077.000
273.131;  -72.625; -419.000; -459.000
273.272; -100.875; -683.000; -723.000
273.412;    8.500; -143.000;  -31.000
273.553;  -71.550; -488.000; -507.000
273.693;  130.725;  913.000;  858.000
273.834; -105.500; -894.000; -692.000
273.974;  -71.125; -664.000; -615.000
274.114;  -96.600; -772.000; -560.000
274.255;   73.050;  414.000;  373.000
274.395;  -14.775; -180.000; -125.000
274.535;   34.225;  199.000;  350.000
274.676;   12.350;  225.000;   94.000
274.816;    4.400;  110.000;   34.000
274.956;  -86.950; -624.000; -690.000
275.097;  -82.500;-1014.000; -922.000
275.237; -108.275; -913.000; -803.000
275.377; -109.700; -778.000; -689.000
275.517; -156.600; -878.000; -937.000
275.658;  -59.900; -590.000; -555.000
275.798;  -82.175; -606.000; -413.000
275.938;   24.425;  215.000;  323.000
276.078; -113.500; -626.000; -395.000
276.218;    1.800;   99.000;  104.000
276.359; -131.750;-1026.000;-1024.000
276.499;  -77.475; -605.000; -446.000
276.639;  -43.625; -305.000; -151.000
276.779;  -50.525; -475.000; -357.000
276.919; -111.050; -783.000; -624.000
277.059;  -25.550; -261.000; -212.000
277.199;  -53.775; -357.000; -259.000
277.340;   35.575;  287.000;  175.000
277.480; -105.700; -840.000; -693.000
277.620;   23.250;  192.000;   16.000
277.760; -214.300;-1533.000;-1294.000
277.900;    6.000;  113.000;   33.000
278.040;    4.075;  137.000;  159.000
278.180;   28.375;  270.000;  170.000
278.320;  -12.225;   21.000;   56.000
278.460;  -74.175; -443.000; -469.000
278.600;  -83.600; -708.000; -598.000
278.740;   57.650;  448.000;  224.000
278.880;  -58.075; -768.000; -791.000
279.020;   -6.650; -194.000; -144.000
279.160; -106.600; -672.000; -595.000
279.300; -126.900; -926.000; -873.000
279.440;  -99.425; -709.000; -622.000
279.579;  -25.700;-1014.000; -929.000
279.719;  -56.275; -410.000; -394.000
279.859;   66.500;   -4.000;   41.000
279.999;   20.425; -208.000;  101.000
280.139;   -9.000; -435.000; -387.000
280.279;  -87.000; -708.000; -745.000
280.419;  -20.050; -229.000; -147.000
280.559;  -38.850; -259.000; -180.000
280.698;  -84.600; -790.000; -639.000
280.838; -105.175; -778.000; -800.000
280.978; -108.325; -846.000; -790.000
281.118; -111.125; -811.000; -704.000
281.257;  -10.500;   24.000;    6.000
281.397; -125.625;-1094.000; -960.000
281.537;  -91.325; -599.000; -712.000
281.677;  -29.475; -150.000; -101.000
281.816;  -92.750; -700.000; -630.000
281.956;  -39.650; -193.000; -257.000
282.096;  -59.525; -539.000; -396.000
282.235; -111.550; -672.000; -638.000
282.375;  -14.650; -243.000;  -98.000
282.515; -123.475; -715.000; -707.000
282.654;   34.025;   29.000;  106.000
282.794;   22.925;  388.000;  244.000
282.934;  -53.000; -530.000; -491.000
283.073; -136.875;-1030.000; -857.000
283.213;  -52.400; -460.000; -467.000
283.353;  -42.050; -408.000; -349.000
283.492;  -31.300; -264.000; -296.000
283.632;  -46.000; -254.000; -168.000
283.771; -115.025; -859.000; -730.000
283.911;  -51.425; -369.000; -260.000
284.050; -104.150; -794.000; -748.000
284.190; -152.025;-1229.000;-1096.000
284.329; -129.950;-1055.000; -964.000
284.469;  -79.150; -516.000; -591.000
284.608;  -60.225; -559.000; -598.000
284.748;  -85.325; -614.000; -570.000
284.887;  -16.100;  -87.000;  -20.000
285.027; -135.575; -844.000; -892.000
285.166;  -44.975; -192.000; -249.000
285.306;   -4.550; -116.000;  -33.000
285.445;  -35.825; -229.000; -343.000
285.584; -107.650; -630.000; -494.000
285.724;  -54.050; -282.000; -322.000
285.863; -124.175; -857.000; -507.000
286.002;  -52.050; -366.000; -276.000
286.142; -120.950; -715.000; -622.000
286.281;  -82.100; -525.000; -493.000
286.420;  -75.400; -554.000; -417.000
286.560;   93.400;  653.000;  623.000
286.699; -145.100; -958.000; -912.000
286.838;  -80.450; -590.000; -591.000
286.978; -101.475; -533.000; -537.000
287.117; -148.275;-1085.000; -950.000
287.256;  -44.250; -228.000; -211.000
287.395;  -53.800; -197.000; -378.000
287.535;  -65.450; -370.000; -298.000
287.674;  -86.775; -509.000; -484.000
287.813;   59.975;  661.000;  533.000
287.952; -137.425;-1010.000; -871.000
288.091; -158.550;-1049.000; -915.000
288.231;   13.025;   13.000;   15.000
288.370; -183.600;-1217.000;-1200.000
288.509; -105.725; -728.000; -645.000
288.648;  -93.675; -770.000; -548.000
288.787;  -25.925; -243.000;  -87.000
288.926;  -68.100; -454.000; -475.000
289.065;  108.625;  859.000;  672.000
289.204;  -52.800; -377.000; -217.000
289.344;  -97.950; -791.000; -690.000
289.483;   26.450;  416.000;  304.000
289.622;  -23.875; -291.000; -149.000
289.761;  -29.850; -309.000; -166.000
289.900; -107.525; -785.000; -626.000
290.039;  -11.325;  -12.000;  -95.000
290.178;  -46.200; -274.000; -180.000
290.317;  -83.550; -618.000; -479.000
290.456;  -54.900; -463.000; -451.000
290.595; -140.025; -961.000; -833.000
290.734; -131.950; -904.000; -891.000
290.873;  -65.075; -456.000; -420.000
291.011; -111.300; -833.000; -843.000
291.150; -117.375; -770.000; -682.000
291.289;  -20.775; -343.000; -110.000
291.428;  -98.675; -599.000; -480.000
291.567;  -55.350; -370.000; -442.000
291.706;   -9.400;  109.000;  154.000
291.845;  -92.200; -597.000; -505.000
291.984; -172.025;-1234.000;-1061.000
292.122;   70.475;  602.000;  582.000
292.261;   41.025;  620.000;  463.000
292.400;   -0.075; -144.000;  211.000
292.539; -134.725; -959.000; -813.000
292.678;  -40.300; -325.000; -300.000
292.816; -167.500;-1136.000; -965.000
292.955;  -98.100; -844.000; -684.000
293.094;  -30.200; -173.000; -337.000
293.233;  -51.175; -556.000; -400.000
293.371;  -32.375; -225.000;  -84.000
293.510; -104.600; -866.000; -780.000
293.649; -138.825; -959.000; -924.000
293.787;  -75.325;-1083.000;-1012.000
293.926;   -7.875; -113.000;  -32.000
294.065;  -50.400; -379.000; -290.000
294.203;   41.925;  298.000;  406.000
294.342;   33.525;   74.000;  156.000
294.481; 6634.425;51180.000; -836.000
294.619;  -30.750; -425.000; -582.000
294.758; -157.975;-1230.000;-1137.000
294.896;   70.050; -125.000;    5.000
295.035; -135.375;-1040.000;-1006.000
295.174; -123.100;-1082.000; -954.000
295.312;  -45.675; -323.000; -203.000
295.451;   -7.775; -307.000; -428.000
295.589;  -63.100; -389.000; -518.000
295.728;   15.350; -292.000; -165.000
295.866;   -2.325;  -36.000;  -51.000
296.005;  -63.150; -584.000; -341.000
296.143;  -70.900; -558.000; -596.000
296.282; -107.100; -957.000; -881.000
296.420;  -85.575; -657.000; -557.000
296.559;  -94.175; -892.000; -633.000
296.697;    2.450; -847.000; -665.000
296.835;   30.175;-1141.000;-1002.000
296.974;   29.475;  -23.000;   39.000
297.112;    7.800; -443.000; -504.000
297.251;  -89.700; -815.000; -755.000
297.389;   75.475; -576.000; -438.000
297.527;   29.075; -145.000;  -83.000
297.666;  -53.450; -486.000; -438.000
297.804;  -56.350; -404.000; -264.000
297.942;  -16.050; -136.000; -161.000
298.081;   -9.275; -183.000;   63.000
298.219;   59.250;  -17.000;  -19.000
298.357;   35.175; -144.000;  -71.000
298.495;   32.525; -810.000; -812.000
298.634;   66.800;  245.000;  219.000
298.772;   53.900; -220.000; -338.000
298.910;  -49.100; -309.000; -182.000
299.048;   -7.125; -130.000; -153.000
299.187;  -43.100; -350.000; -250.000
299.325;   12.850;   52.000;  122.000
299.463;   31.175; -389.000; -299.000
299.601;   83.500; -327.000; -271.000
299.739; -118.100; -908.000; -883.000
299.877;  -75.675; -791.000; -703.000
300.016;  -55.600;-1095.000; -935.000
300.154;  139.475;  -19.000; -161.000
300.292;   42.075; -428.000; -348.000
300.430;   22.825; -408.000; -291.000
300.568; -108.275; -940.000; -874.000
300.706;  -47.625; -366.000; -469.000
300.844;  -86.175;-1108.000; -979.000
300.982;  107.900;  246.000;  282.000
301.120; -122.075; -965.000; -866.000
301.258;  -77.425; -812.000; -705.000
301.396;   45.425;  104.000;  -41.000
301.534;   50.925; -218.000; -293.000
301.672;  -12.250; -664.000; -521.000
301.810;   -2.050; -613.000; -545.000
301.948;  101.575;   53.000;  149.000
302.086;  563.050; -250.000;  -32.000
302.224;  848.300; -610.000; -585.000
302.362;   29.275; -558.000; -622.000
302.500;  -33.550; -923.000; -893.000
302.638;   98.575;  128.000;  245.000
302.776;  -10.700; -352.000; -408.000
302.913;   33.375;  447.000;  236.000
303.051;    7.350;  -86.000;  -23.000
303.189;   46.350;   90.000;  118.000
303.327;  -28.500; -341.000; -256.000
303.465;  -82.250; -832.000; -588.000
303.603; -106.100; -805.000; -604.000
303.740;  101.625;  417.000;  241.000
303.878;   -0.200; -800.000; -759.000
304.016;  -99.100; -915.000; -790.000
304.154; -125.100;-1123.000;-1152.000
304.291;  -41.225; -505.000; -554.000
304.429;    1.925;  102.000;   74.000
304.567; -124.475; -908.000; -893.000
304.705;  -70.475; -408.000; -515.000
304.842;   81.350; -616.000; -540.000
304.980;   30.800;  215.000;   35.000
305.118;   32.425; -367.000; -365.000
305.255;  -80.900; -945.000; -927.000
305.393;   51.225;  178.000;  239.000
305.531; -112.100;-1173.000; -956.000
305.668;  -69.800; -663.000; -582.000
305.806;   70.625; -358.000; -439.000
305.943;   94.350; -629.000; -637.000
306.081;   41.125; -378.000; -267.000
306.219;  -96.975; -863.000; -748.000
306.356;    9.775;  158.000;   27.000
306.494;   97.825;  981.000;  761.000
306.631;    0.350;  -11.000;  -55.000
306.769;  -11.150; -613.000; -485.000
306.906;  -23.450; -284.000; -258.000
307.044;  -54.625; -473.000; -488.000
307.181;  -68.125; -410.000; -332.000
307.319;   22.500;  112.000;   87.000
307.456; -171.325;-1191.000;-1153.000
307.594; -112.700; -980.000; -727.000
307.731;  -10.100; -371.000; -164.000
307.868;    4.650;  -15.000;   20.000
308.006; -142.825; -961.000; -847.000
308.143;  -64.375; -618.000; -330.000
308.281;  115.550;  -37.000; -254.000
308.418;  -28.900; -748.000; -640.000
308.555;  -73.375; -400.000; -250.000
308.693;  -77.425; -577.000; -573.000
308.830; -113.250; -712.000; -657.000
308.967;  -21.875; -215.000;  -95.000
309.105;  -63.475; -507.000; -396.000
309.242;    8.475; -468.000; -367.000
309.379;  195.125; -577.000; -655.000
309.517;  -74.125; -936.000; -948.000
309.654; -114.775; -910.000; -734.000
309.791;  -74.450; -662.000; -580.000
309.928; -120.075; -977.000; -914.000
310.065;  174.700;  819.000;  697.000
310.203;  -36.125; -825.000; -850.000
310.340;  -17.225; -465.000; -321.000
310.477;  -79.750; -412.000; -516.000
310.614;  -69.500; -383.000; -473.000
310.751;  -86.000; -427.000; -518.000
310.889;  -27.100;    1.000;   11.000
311.026; -166.225;-1161.000; -939.000
311.163;  -46.900; -386.000; -380.000
311.300;  -81.350; -512.000; -479.000
311.437;  -83.250; -658.000; -619.000
311.574; -170.500;-1226.000; -985.000
311.711;  -66.100; -595.000; -433.000
311.848;  -37.700; -380.000; -388.000
311.985;   16.575;  270.000;   93.000
312.122; -121.100; -932.000; -762.000
312.259; -116.000; -941.000; -994.000
312.396;  -87.950; -508.000; -551.000
312.533;  -96.525; -812.000; -790.000
312.670; -140.900;-1070.000; -898.000
312.807;  -26.350; -352.000; -367.000
312.944;  -82.700; -513.000; -611.000
313.081;  -47.850; -150.000; -415.000
313.218; -115.975;-1111.000; -867.000
313.355;    7.125; -531.000; -449.000
313.492;  -11.600; -455.000; -292.000
313.629;  126.000;  815.000;  735.000
313.766; -166.875;-1176.000;-1008.000
313.902;  -22.775; -186.000;   21.000
314.039;  -61.075; -372.000; -289.000
314.176;   33.525;  286.000;  192.000
314.313;  -89.450; -569.000; -473.000
314.450;  -73.500; -788.000; -684.000
314.587;  -65.750; -468.000; -480.000
314.723;   -7.475;  -78.000;  130.000
314.860;   29.800;  318.000;  332.000
314.997;   31.400;  223.000;  142.000
315.134;  -36.500; -385.000; -368.000
315.270;  -43.275; -480.000; -496.000
315.407; -136.125;-1094.000; -967.000
315.544;  -50.600; -657.000; -538.000
315.681;  -63.400; -681.000; -565.000
315.817;   15.125; -133.000; -176.000
315.954;   -6.375; -613.000; -392.000
316.091; -133.175;-1045.000;-1023.000
316.227;  -38.475;  -71.000; -179.000
316.364;   -4.250;   23.000;    6.000
316.500;  -61.750; -113.000; -300.000
316.637;  -52.300; -181.000; -302.000
316.774;  -94.800; -625.000; -358.000
316.910;  -92.600; -598.000; -629.000
317.047;  -69.475; -487.000; -351.000
317.183;  -56.275; -435.000; -566.000
317.320;  -12.225; -367.000; -321.000
317.456;  -80.450; -733.000; -805.000
317.593;  -99.825; -598.000; -641.000
317.729;  -10.200;  168.000;  -67.000
317.866; -210.650;-1434.000;-1285.000
318.002;  -92.375; -708.000; -948.000
318.139;  -99.425; -883.000; -867.000
318.275; -120.600;-1003.000; -738.000
318.412;  -72.125; -517.000; -336.000
318.548;  -46.575; -751.000; -720.000
318.685; -108.625; -985.000; -888.000
318.821;  -94.425; -762.000; -735.000
318.957;  -28.125;   34.000;  -23.000
319.094;   31.500;  297.000;  154.000
319.230;  -75.700; -756.000; -742.000
319.367;  109.900; -471.000; -520.000
319.503;   31.275; -538.000; -436.000
319.639;  -92.300; -877.000; -793.000
319.775;  -73.850; -750.000; -685.000
319.912;  -53.425; -424.000; -519.000
320.048;  -99.275;-1184.000;-1184.000
320.184;   80.600;   59.000;   70.000
320.321;  -76.375; -497.000; -467.000
320.457;   66.750;  475.000;  662.000
320.593;  -82.700; -375.000; -382.000
320.729;  -91.800; -732.000; -734.000
320.866;  -82.100; -577.000; -635.000
321.002;  -87.225; -759.000; -809.000
321.138;  -23.025; -135.000; -211.000
321.274;   72.725; -148.000; -115.000
321.410;  -35.750; -585.000; -353.000
321.546;  -45.575;-1011.000; -911.000
321.683;   62.175;  400.000;  185.000
321.819;    3.475;  -48.000; -117.000
321.955; -128.950; -743.000; -722.000
322.091;  -44.300; -585.000; -540.000
322.227;  -17.075; -382.000; -202.000
322.363;  -17.000; -320.000; -215.000
322.499;  -51.325; -343.000; -331.000
322.635;  143.725;  636.000;  443.000
322.771;    7.750; -139.000;   12.000
322.907;   83.775;  129.000;  327.000
323.043;  -24.075; -115.000; -206.000
323.179;  -46.275; -394.000; -363.000
323.315;   -2.800; -401.000; -371.000
323.451;   70.000; -328.000; -236.000
323.587;   54.100;  -60.000;  -77.000
323.723;   -2.250; -682.000; -601.000
323.859;  -25.500; -258.000;  -76.000
323.995;  -31.300; -467.000; -409.000
324.131; -134.175; -967.000; -892.000
324.267;  -47.200; -254.000; -276.000
324.402; -141.075; -960.000; -983.000
324.538;  -20.325; -279.000; -104.000
324.674;   24.250;  164.000;   77.000
324.810;  107.200;  226.000;  308.000
324.946;   -3.325; -810.000; -658.000
325.082;  -74.900; -568.000; -475.000
325.217;   -4.450;  -62.000;   16.000
325.353; -101.225; -764.000; -659.000
325.489;  -93.075; -540.000; -506.000
325.625;  -77.775; -579.000; -525.000
325.760;   70.700;  517.000;  376.000
325.896;  -21.875; -515.000; -702.000
326.032;  -55.350; -403.000; -352.000
326.168;  -59.650; -462.000; -369.000
326.303;  -76.175; -352.000; -461.000
326.439;  -19.600; -336.000; -276.000
326.575;   -4.525; -190.000;  -29.000
326.710;    3.825; -156.000;  -30.000
326.846;  -12.250;  146.000;  103.000
326.982;  -81.025; -530.000; -548.000
327.117;  -79.025; -481.000; -442.000
327.253; -103.675; -745.000; -742.000
327.388; -137.475;-1137.000;-1153.000
327.524;  -61.075; -811.000; -578.000
327.659;  -32.600;  -58.000;  -22.000
327.795;  -10.000;   69.000;   45.000
327.931;  -84.800; -723.000; -499.000
328.066;  -17.375; -417.000; -276.000
328.202;  -14.400;   12.000; -129.000
328.337;   99.425;  957.000;  713.000
328.473;   40.025;  -12.000;  -74.000
328.608;  -22.450; -256.000; -267.000
328.743;  -91.825; -799.000; -664.000
328.879;   25.125;  214.000;  114.000
329.014;  -41.475; -102.000; -122.000
329.150;  -85.875; -358.000; -483.000
329.285;  -80.100; -465.000; -466.000
329.421;  -54.675; -548.000; -246.000
329.556;  -31.225;  -36.000;   85.000
329.691; -104.275; -633.000; -615.000
329.827;  -88.500; -626.000; -480.000
329.962;  -41.325;  131.000; -301.000
330.097;  -94.750; -673.000; -585.000
330.233;  -55.200; -410.000; -223.000
330.368; -140.250; -839.000; -628.000
330.503;  -18.975;    3.000;   98.000
330.638;   11.425;  -93.000; -125.000
330.774;  -60.600; -609.000; -530.000
330.909;  -47.325; -434.000; -244.000
331.044; -102.750; -714.000; -708.000
331.179; -172.900;-1217.000;-1109.000
331.315;    4.200;   77.000;   20.000
331.450;    3.100;  157.000;  285.000
331.585;  -85.525; -805.000; -706.000
331.720;  -91.550; -510.000; -460.000
331.855;  -14.775;  -35.000; -102.000
331.990;  235.775;   62.000;  138.000
332.126;  125.975; -110.000;   71.000
332.261;  -26.175; -379.000; -265.000
332.396;  -19.825; -135.000; -242.000
332.531; -102.700;-1074.000;-1031.000
332.666;   32.100; -519.000; -363.000
332.801; -109.775; -726.000; -807.000
332.936;  -31.475; -192.000; -122.000
333.071; -133.725; -870.000; -817.000
333.206;   19.125;  307.000;  379.000
333.341;   29.575;  344.000;  418.000
333.476;  -92.650; -627.000; -623.000
333.611;  -42.875; -251.000; -173.000
333.746;  -29.675; -381.000; -464.000
333.881; -124.900; -973.000; -935.000
334.016; -125.850; -936.000; -917.000
334.151; -127.000; -746.000; -702.000
334.286;   16.900;  152.000;  186.000
334.421;  -32.600; -125.000; -178.000
334.556;  -80.400; -611.000; -567.000
334.690;  -98.200; -631.000; -577.000
334.825;   68.300;  381.000;   83.000
334.960;  -82.600; -285.000; -413.000
335.095;   13.200;  135.000;  -91.000
335.230; -108.700; -722.000; -738.000
335.365; -130.125;-1084.000; -990.000
335.499; -143.425;-1108.000;-1037.000
335.634;   11.850;    9.000;  534.000
335.769; -112.850; -755.000; -720.000
335.904;  -62.700; -603.000; -561.000
336.038;  -65.475; -735.000; -657.000
336.173; -125.875;-1206.000;-1194.000
336.308;    2.450; -116.000; -189.000
336.443;   23.150; -544.000; -634.000
336.577;  -76.450; -936.000; -787.000
336.712;   55.475;   -4.000;  -12.000
336.847;  -55.400; -724.000; -607.000
336.981;   44.550; -272.000; -208.000
337.116;  271.125;  615.000;  501.000
337.250;  140.275; -434.000; -421.000
337.385;  247.450; -297.000; -208.000
337.520;   84.225; -632.000; -603.000
337.654;  -44.500; -215.000; -126.000
337.789; -126.275; -989.000; -933.000
337.923;  -33.500; -104.000; -205.000
338.058;  -94.975; -673.000; -738.000
338.192;  -36.400; -611.000; -488.000
338.327;   -9.550;  -18.000; -155.000
338.461;  -70.075; -299.000; -469.000
338.596;  -94.175; -780.000; -638.000
338.730; -101.225; -767.000; -803.000
338.865;   91.450;  -46.000; -140.000
338.999;  -48.825; -846.000; -702.000
339.134;  -32.550; -634.000; -536.000
339.268;   10.950; -741.000; -603.000
339.403;  356.000; -740.000; -775.000
339.537;  110.325; -894.000; -820.000
339.671; -118.100; -829.000; -813.000
339.806;  -69.750; -556.000; -512.000
339.940;    9.175; -261.000; -235.000
340.074;  -98.150; -685.000; -510.000
340.209;  -52.400; -351.000; -230.000
340.343;  -98.350; -517.000; -573.000
340.477;  149.475;  998.000; 1036.000
340.612;  -71.575;-1033.000; -900.000
340.746;  137.200; -199.000; -243.000
340.880;  -81.925; -924.000; -785.000
341.014;  -10.450;  -45.000; -154.000
341.149; -109.375; -756.000; -718.000
341.283; -108.625; -839.000; -754.000
341.417; -106.250;-1124.000; -938.000
341.551;   91.100; -768.000; -708.000
341.685;  -46.125; -633.000; -611.000
341.820;  -58.350; -562.000; -493.000
341.954;  -47.300; -218.000; -349.000
342.088; -148.700;-1102.000;-1019.000
342.222;   49.400;  565.000;  618.000
342.356;  -79.450; -395.000; -335.000
342.490; -101.175; -880.000; -841.000
342.624;  -46.025; -339.000; -242.000
342.758;  -16.850; -364.000; -312.000
342.892;  -79.225; -710.000; -585.000
343.026;  -40.950;  -58.000; -116.000
343.160;  -57.525; -426.000; -376.000
343.294;  -82.625; -474.000; -337.000
343.428;  -18.800; -488.000; -448.000
343.562;  -20.925; -172.000;  -23.000
343.696;  -20.125; -385.000; -314.000
343.830;  -22.050; -362.000; -356.000
343.964;   10.950; -231.000; -168.000
344.098;  799.225;  199.000;   70.000
344.232;  685.625; -266.000; -127.000
344.366;   59.800; -567.000; -453.000
344.500;   26.250; -665.000; -744.000
344.634;   21.150; -324.000; -164.000
344.768;  -17.025; -531.000; -341.000
344.902;   17.450;  278.000;  256.000
345.035;  -78.450; -556.000; -496.000
345.169; -140.500; -933.000; -656.000
345.303;  -58.875; -308.000; -482.000
345.437;  -79.675; -826.000; -717.000
345.571;  -83.700; -675.000; -594.000
345.704;  -76.150; -309.000; -532.000
345.838;  -27.625; -331.000; -284.000
345.972;  -37.075; -543.000; -495.000
346.106;  167.200; -179.000; -190.000
346.239;  403.750; -312.000; -243.000
346.373;    3.425; -343.000; -302.000
346.507; -146.800; -950.000; -962.000
346.640;  124.725;  -30.000;   13.000
346.774;  -56.350; -650.000; -797.000
346.908;   -4.050; -138.000;  -11.000
347.041; -104.350; -646.000; -593.000
347.175;    5.400;  259.000;   27.000
347.309;  -73.550; -698.000; -628.000
347.442;  -99.800; -883.000; -732.000
347.576;  259.725;  670.000;  668.000
347.709;  180.950; -123.000;  -52.000
347.843;  -90.350; -933.000; -825.000
347.976;   39.925;  235.000;  294.000
348.110; -189.475;-1268.000;-1186.000
348.243;  -91.200; -679.000; -772.000
348.377;   16.325;  -26.000;   60.000
348.510;   52.125;  403.000;  540.000
348.644;  -41.225;  -37.000; -159.000
348.777;    9.175;  180.000;  191.000
348.911;  -56.275; -142.000; -112.000
349.044;  155.875;  471.000;  448.000
349.178;  133.825;-1069.000;-1006.000
349.311;  114.575;  141.000;  255.000
349.444;  -20.100; -927.000; -813.000
349.578;  -18.300; -347.000; -200.000
349.711; -101.675; -959.000; -862.000
349.845;   -7.775; -661.000; -591.000
349.978; -155.125;-1224.000;-1137.000
350.111;  -99.575; -546.000; -612.000
350.244;  -91.600; -596.000; -700.000
350.378;    1.125; -392.000; -393.000
350.511;  -69.375; -393.000; -426.000
350.644; -100.875; -808.000; -806.000
350.778;   -9.950;  168.000;  104.000
350.911;   -4.125;  134.000;  140.000
351.044; -108.875; -685.000; -615.000
351.177;  -25.925; -321.000; -281.000
351.310;  -21.700;    3.000; -131.000
351.444;  -91.825; -888.000; -788.000
351.577;  100.675;  140.000;   90.000
351.710;  102.375;  593.000;  417.000
351.843;  -35.750; -165.000;  -77.000
351.976;    4.225;  149.000;  -79.000
352.109;  -95.650; -621.000; -612.000
352.242;  -33.375; -464.000; -419.000
352.376;  -70.575; -580.000; -636.000
352.509;  146.450; -437.000; -356.000
352.642;  -35.050; -654.000; -604.000
352.775;   54.950; -141.000;  -98.000
352.908; -127.125; -933.000; -904.000
353.041; -110.275; -814.000; -824.000
353.174;  -68.925; -551.000; -424.000
353.307;  -92.275; -753.000; -764.000
353.440;   67.850;  541.000;  453.000
353.573; -112.250; -957.000;-1008.000
353.706;  -59.725; -384.000; -558.000
353.839;  -23.775; -264.000; -220.000
353.971;  -90.250; -657.000; -512.000
354.104;  -87.200; -896.000; -835.000
354.237;  -48.075; -627.000; -662.000
354.370;  -96.275; -846.000; -879.000
354.503; -196.800;-1231.000;-1308.000
354.636;  -36.250; -529.000; -348.000
354.769; -130.875; -937.000; -860.000
354.902;  -14.075; -230.000; -139.000
355.034;  -31.375; -164.000; -220.000
355.167;  -21.350; -262.000; -162.000
355.300;  -94.650;-1061.000; -880.000
355.433;  954.425;  -71.000;  -14.000
355.565; 1500.925; -402.000; -384.000
355.698;  380.600; -356.000; -296.000
355.831;  -11.775; -882.000; -801.000
355.964;   74.650; -285.000; -170.000
356.096; -106.725; -856.000; -843.000
356.229;   -7.525; -523.000; -530.000
356.362;  306.225; -373.000; -266.000
356.494;  581.450; -229.000; -162.000
356.627;  443.100;  269.000;  377.000
356.760;  654.350;  120.000;   53.000
356.892;  943.800; -286.000; -601.000
357.025;  618.700;  403.000;  389.000
357.157;  527.850; -167.000; -179.000
357.290;  671.650; -856.000; -713.000
357.423;  196.750; -667.000; -556.000
357.555;  105.400; -217.000; -228.000
357.688;  121.000; -483.000; -364.000
357.820;  390.450; -870.000; -877.000
357.953; 3415.175; -563.000; -589.000
358.085;  724.650; -632.000; -612.000
358.218;  970.325;-1131.000; -932.000
358.350;  165.775;  -58.000;  312.000
358.483; -138.725;-1300.000;-1187.000
358.615;  -40.975;-1182.000;-1078.000
358.747;  -77.300;-1187.000;-1058.000
358.880;   -6.800; -810.000; -744.000
359.012;  -24.475; -376.000; -202.000
359.145;  -41.725; -480.000; -511.000
359.277;   28.425; -962.000; -913.000
359.409; 2782.500;  536.000;  231.000
359.542;  706.375; -738.000; -688.000
359.674;   60.150;   46.000;   13.000
359.806;  -78.950; -565.000; -438.000
359.939;  -44.475; -617.000; -516.000
360.071;  -23.500; -583.000; -579.000
360.203;  -24.225; -411.000; -364.000
360.335;   32.800;  164.000;  -16.000
360.468;  173.975; -249.000; -307.000
360.600; 2249.200; -547.000; -454.000
360.732; 2814.025; -546.000; -423.000
360.864;  360.775;-1216.000;-1044.000
360.996;  251.675; -516.000; -554.000
361.129;    7.325; -389.000; -598.000
361.261;   10.775;  110.000; -113.000
361.393;  -30.225; -252.000; -214.000
361.525;   24.175;   94.000;  244.000
361.657;  -54.775; -821.000; -703.000
361.789;    3.950; -139.000; -155.000
361.921;  180.550; -642.000; -593.000
362.053;  233.100;  524.000;  541.000
362.185;   50.375;  288.000;   72.000
362.318;  -94.950; -709.000; -705.000
362.450;  104.900;  294.000;  444.000
362.582;   74.600; -913.000; -870.000
362.714;  -45.400; -353.000; -332.000
362.846;  -94.375; -606.000; -490.000
362.978; -150.450; -941.000; -811.000
363.109;   37.050; -161.000; -260.000
363.241;  353.825; -739.000; -749.000
363.373;  419.550; -649.000; -564.000
363.505;  655.075; -186.000;  -91.000
363.637;  150.700; -787.000; -601.000
363.769; -131.200;-1067.000;-1080.000
363.901;  -86.450; -596.000; -654.000
364.033; -132.850;-1103.000;-1062.000
364.165;  -18.725; -283.000; -283.000
364.296;   53.900; -316.000; -177.000
364.428;   67.925;-1344.000;-1220.000
364.560;  -76.150; -679.000; -661.000
364.692;  -83.600; -738.000; -835.000
364.824;  207.375; -588.000; -456.000
364.955;  426.700; -402.000; -564.000
365.087;  911.975;-1097.000; -852.000
365.219;   22.825; -686.000; -816.000
365.351;  -82.100; -526.000; -572.000
365.482;   55.950;  300.000;  240.000
365.614;  -74.800; -402.000; -314.000
365.746; -111.650; -729.000; -752.000
365.877; -102.200; -706.000; -672.000
366.009;  263.475;  -35.000;  -62.000
366.141;  -91.400;-1249.000;-1134.000
366.272;  -92.825; -803.000; -719.000
366.404; -121.175;-1005.000; -874.000
366.535;  -17.650; -139.000;  -12.000
366.667; -102.150; -644.000; -649.000
366.799;   37.050;  353.000;  203.000
366.930; -121.900; -862.000; -996.000
367.062;  117.150; -639.000; -613.000
367.193;  146.150; -872.000; -842.000
367.325;  -81.250; -580.000; -684.000
367.456;   34.675; -246.000;   31.000
367.588;  164.875; -371.000; -318.000
367.719;   18.250;  -44.000;  -45.000
367.851;   -8.325; -222.000; -241.000
367.982;  -66.225; -875.000; -732.000
368.113;   86.375; -475.000; -358.000
368.245; -133.200; -960.000; -841.000
368.376;  -25.000; -254.000; -302.000
368.508;  -25.725; -188.000; -263.000
368.639; -147.225;-1166.000;-1034.000
368.770;  -34.850; -670.000; -589.000
368.902;  -66.550; -836.000; -926.000
369.033; -118.150; -906.000; -855.000
369.164;  -61.000; -720.000; -653.000
369.296; -123.800; -452.000; -601.000
369.427;   -9.625; -209.000; -144.000
369.558;  -60.975; -593.000; -377.000
369.689;  -92.800; -721.000; -569.000
369.821; -137.600; -951.000; -845.000
369.952;  -17.475;   42.000; -108.000
370.083;  -57.050; -229.000; -108.000
370.214;  -95.625; -735.000; -650.000
370.345;  -15.875;   65.000;   81.000
370.477;  -95.850; -810.000; -790.000
370.608;  174.050; -328.000; -264.000
370.739;  -74.075;-1233.000;-1292.000
370.870;  -51.650;-1102.000; -923.000
371.001;   73.500; -378.000; -467.000
371.132;  -81.325; -754.000; -735.000
371.263;  -24.000;  -42.000; -148.000
371.394; -144.850; -841.000; -748.000
371.525;   23.250;  345.000;  225.000
371.657;  -92.050; -808.000; -670.000
371.788;   68.950;  103.000;  199.000
371.919;  131.575; -384.000; -304.000
372.050; 3276.975;  -91.000; -156.000
372.181;  970.100; -188.000; -294.000
372.311;  337.650;   42.000; -127.000
372.442;   14.875; -457.000; -451.000
372.573;  -22.475; -444.000; -340.000
372.704; -150.425;-1008.000; -980.000
372.835;   60.975; -228.000; -289.000
372.966;  -68.050; -646.000; -554.000
373.097;  -78.800; -575.000; -711.000
373.228;  -60.000; -717.000; -542.000
373.359;  114.225; -824.000; -536.000
373.490;  814.875; -881.000; -727.000
373.620; 1030.975;-1001.000; -803.000
373.751; 1581.000; -332.000; -396.000
373.882;  698.225; -663.000; -733.000
374.013;   27.000; -449.000; -262.000
374.143;  -54.825; -581.000; -659.000
374.274; -115.900; -987.000; -908.000
374.405;  149.500; -388.000; -276.000
374.536;  382.450; -526.000; -387.000
374.666;  976.475; -759.000; -807.000
374.797;  175.675; -817.000; -868.000
374.928;  762.550; -710.000; -560.000
375.058;  783.700; -535.000; -500.000
375.189;   63.900;  -59.000;  -93.000
375.320; -117.200; -928.000;-1034.000
375.450;  -45.050; -625.000; -616.000
375.581;  -46.625; -526.000; -436.000
375.712;  -33.675; -574.000; -250.000
375.842;  250.075; -438.000; -415.000
375.973;  174.450; -554.000; -513.000
376.103;  -63.875; -665.000; -648.000
376.234;  -98.800; -531.000; -552.000
376.364;  -58.525; -944.000; -867.000
376.495;  302.100;  925.000;  529.000
376.625;  -39.725; -472.000; -485.000
376.756;   40.675; -709.000; -678.000
376.886;  -88.525;-1178.000;-1026.000
377.017;   50.050;-1048.000;-1061.000
377.147;  346.825; -786.000; -782.000
377.278;   62.375;  174.000;  228.000
377.408; -129.875; -801.000; -815.000
377.538; -100.100; -707.000; -693.000
377.669; -107.925; -537.000; -613.000
377.799;  -91.925; -645.000; -635.000
377.929;  -72.925; -610.000; -428.000
378.060; -134.750; -781.000; -847.000
378.190;  -64.350; -726.000; -531.000
378.320;  -45.425; -401.000; -406.000
378.451;  -10.725; -131.000;  -22.000
378.581;   -6.750;  -67.000; -110.000
378.711;  144.525; 1035.000;  866.000
378.841;  -34.400; -533.000; -675.000
378.972;  -92.400; -871.000; -751.000
379.102;  -11.150; -652.000; -579.000
379.232;  -24.325; -126.000;  -73.000
379.362; -112.200;-1001.000; -885.000
379.492;   -1.675; -373.000; -424.000
379.623;   98.025;    0.000;  111.000
379.753; -101.225;-1107.000; -974.000
379.883;  153.600;   59.000;  156.000
380.013;  -20.900;-1081.000;-1017.000
380.143; -107.325;-1097.000;-1056.000
380.273; -115.025; -985.000; -861.000
380.403;   -6.550; -344.000; -257.000
380.533;  -32.150; -651.000; -664.000
380.663;   59.025;  173.000;  128.000
380.793; -113.025;-1027.000;-1074.000
380.923;  -27.850; -103.000;  -34.000
381.053; -112.425; -613.000; -623.000
381.183;  -33.375; -106.000; -248.000
381.313;   13.325; -656.000; -470.000
381.443;   16.325; -692.000; -473.000
381.573;  165.300; -402.000; -409.000
381.703;  232.200;-1249.000;-1095.000
381.833; -146.600;-1454.000;-1336.000
381.963;  104.350; -134.000;  -87.000
382.093; 1234.425; -925.000; -909.000
382.223;  378.225; -713.000; -602.000
382.353;  -46.825; -801.000; -608.000
382.482;  308.275;-1091.000; -964.000
382.612;  672.025; -872.000; -644.000
382.742;  380.150; -695.000; -622.000
382.872;  220.125; -565.000; -551.000
383.002;   64.425;  347.000; -132.000
383.131;  -16.025; -226.000; -160.000
383.261;  -45.425; -706.000; -768.000
383.391;  271.325; -552.000; -377.000
383.521; 3250.675;  451.000;  263.000
383.650;  749.275; -947.000; -904.000
383.780;   -8.375; -783.000; -656.000
383.910;  104.000;  880.000;  802.000
384.039;   -5.275; -794.000; -656.000
384.169;  151.575;-1205.000;-1017.000
384.299;  -37.625; -650.000; -662.000
384.428; -107.925; -764.000; -680.000
384.558;  -55.600; -308.000; -275.000
384.687;  -49.625; -414.000; -334.000
384.817;    3.875;   75.000;   -2.000
384.947;    8.975; -234.000; -141.000
385.076;  270.850;  982.000;  912.000
385.206;   94.625;  369.000;  480.000
385.335;  -26.025; -549.000; -417.000
385.465;  -94.700; -655.000; -663.000
385.594;  120.250;  -53.000;  -44.000
385.724;  346.300; -868.000; -838.000
385.853;   99.175; -296.000; -270.000
385.982; 1247.125; -743.000; -787.000
386.112; 1906.075;-1052.000; -871.000
386.241;  117.950; -307.000; -312.000
386.371;    4.375; -174.000;  -87.000
386.500;  -32.700; -825.000; -789.000
386.629;    8.375; -874.000; -817.000
386.759;   50.525;  -43.000;   68.000
386.888;   -3.525; -170.000; -250.000
387.017;  -82.900; -648.000; -620.000
387.147;  -87.050; -771.000; -798.000
387.276;  -20.600; -410.000; -397.000
387.405;   -3.500; -398.000; -342.000
387.535;  -50.650; -452.000; -361.000
387.664;  -72.825; -692.000; -620.000
387.793;   38.675; -198.000; -113.000
387.922;  459.950;  255.000;  200.000
388.052;    2.750; -576.000; -423.000
388.181;   -5.125; -342.000; -472.000
388.310;  -24.300; -889.000; -710.000
388.439;  -55.250; -749.000; -742.000
388.568;  158.825;  365.000;  244.000
388.697;  940.500; -756.000; -653.000
388.826;  179.325; -768.000; -666.000
388.956;   50.300; -285.000; -307.000
389.085;  -51.775; -347.000; -287.000
389.214; -114.775; -842.000; -872.000
389.343;  -76.475; -645.000; -413.000
389.472;  409.100;  126.000;  149.000
389.601;  485.000;   91.000;    0.000
389.730;    5.650; -568.000; -687.000
389.859;   46.725;  226.000;   46.000
389.988;  173.250; -423.000; -408.000
390.117;  111.325; -168.000; -146.000
390.246;  -20.625; -331.000; -320.000
390.375;   70.550; -673.000; -626.000
390.504;  -72.800; -703.000; -621.000
390.633;  -94.475; -672.000; -726.000
390.761;  -77.775; -732.000; -645.000
390.890;    0.525;   -4.000; -130.000
391.019;  -30.475; -421.000; -441.000
391.148; -139.850; -826.000; -855.000
391.277;  -71.875; -576.000; -493.000
391.406;  -94.000; -821.000; -805.000
391.534;   17.275;  574.000; -301.000
391.663;  -73.475; -583.000; -645.000
391.792;  -94.000; -673.000; -701.000
391.921;   86.475;   -3.000;   15.000
392.050;  152.225; -287.000; -228.000
392.178;  -69.975;-1206.000;-1061.000
392.307;  107.700; -758.000; -712.000
392.436;   41.375; -427.000; -641.000
392.564;   21.400;  166.000;   -6.000
392.693; -116.525; -860.000; -682.000
392.822;  165.825; -529.000; -534.000
392.950;   58.775; -880.000; -714.000
393.079;  281.775; -188.000; -328.000
393.208;   11.950; -488.000; -511.000
393.336;   -3.150; -170.000; -145.000
393.465;  -56.100; -317.000; -199.000
393.593;   -0.300;   62.000;   79.000
393.722; -168.125;-1121.000; -916.000
393.850;  -30.925; -188.000;  -61.000
393.979; -167.125; -926.000; -805.000
394.107;  -56.825; -517.000; -537.000
394.236;  -36.275; -570.000; -507.000
394.364;  178.250;  383.000;  206.000
394.493;  246.300; -911.000; -767.000
394.621;  -27.175; -955.000; -916.000
394.750;  697.600; -873.000; -923.000
394.878; 2970.425; -247.000; -149.000
395.007; 3995.375; -721.000; -807.000
395.135;  274.150; -790.000; -721.000
395.263;  -82.150;-1038.000;-1040.000
395.392;    6.950;  -25.000; -107.000
395.520; -155.675; -818.000; -679.000
395.648; -103.975; -865.000; -915.000
395.777;  -36.075; -366.000; -405.000
395.905;  -61.625; -449.000; -564.000
396.033;    6.575;  217.000;  172.000
396.162;  405.950; -399.000; -453.000
396.290;  361.925;  -17.000;   -2.000
396.418;   75.575; -555.000; -514.000
396.546;  -94.475; -571.000; -466.000
396.674; -100.250; -850.000; -878.000
396.803;   -6.475;  -72.000;  -23.000
396.931;   64.775; -179.000; -199.000
397.059;    9.500;-1026.000; -989.000
397.187; -123.550;-1026.000; -975.000
397.315; -144.825; -884.000; -649.000
397.443; -106.225; -592.000; -443.000
397.572;  -95.500; -578.000; -424.000
397.700;  -25.100; -607.000; -614.000
397.828;   -5.100;  120.000;  -90.000
397.956;  -54.575; -508.000; -478.000
398.084;  -67.975; -767.000; -626.000
398.212;   30.650;  137.000;  124.000
398.340;    8.425;  -56.000;  159.000
398.468;   18.450; -390.000; -169.000
398.596; -135.075; -993.000; -953.000
398.724; -121.775; -762.000; -767.000
398.852; -177.850;-1024.000; -976.000
398.980;  -72.150; -560.000; -560.000
399.108;  -67.000; -982.000; -735.000
399.236;   25.475;   13.000;    8.000
399.363;    1.725;  222.000;  196.000
399.491;  -74.750; -404.000; -398.000
399.619; -131.150; -829.000; -800.000
399.747; -120.375; -859.000; -771.000
399.875;   66.500;  220.000;  234.000
400.003;  -67.050; -359.000; -284.000
400.130; -103.900; -421.000; -341.000
400.258;  -26.800;  -83.000;   38.000
400.386;  -79.950; -352.000; -168.000
400.514;  -55.600; -526.000; -587.000
400.641; -109.725; -928.000; -802.000
400.769; -149.650; -979.000; -888.000
400.897; -112.275; -838.000; -793.000
401.025;  -26.475; -166.000; -152.000
401.152;  -15.400;  220.000;   38.000
401.280;  -82.950; -430.000; -429.000
401.408; -125.825; -712.000; -576.000
401.535; -106.275; -735.000; -758.000
401.663; -187.750;-1134.000;-1054.000
401.790;  -99.600; -514.000; -525.000
401.918;   34.025;  436.000;  405.000
402.046;  -22.350;  134.000;  122.000
402.173;  -43.925;  -18.000;    7.000
402.301;  -68.475; -519.000; -397.000
402.428;   28.675;  528.000;  383.000
402.556; -152.225;-1188.000; -913.000
402.683;  -43.100;  -20.000;   -1.000
402.811;  -22.625;  -37.000; -206.000
402.938;  -16.925;   20.000;   27.000
403.066;  166.675; -574.000; -558.000
403.193;  316.850;  299.000;  239.000
403.321;  230.325; -396.000; -574.000
403.448;  293.775;   83.000;   27.000
403.575;  135.775;  -90.000;  -46.000
403.703; -111.125; -732.000; -557.000
403.830;  -61.075; -531.000; -496.000
403.957; -151.700;-1117.000;-1023.000
404.085;   -1.600;  -61.000; -172.000
404.212;   94.200;  -50.000;   63.000
404.339;  259.850; -566.000; -306.000
404.467; 5870.000; -612.000; -524.000
404.594; 3743.000; -287.000; -227.000
404.721;  832.100; -869.000; -764.000
404.848;   69.375; -113.000; -202.000
404.976; -127.475; -856.000; -783.000
405.103;  -22.525;  -14.000;  -82.000
405.230;  -25.025;  190.000;  226.000
405.357;   18.875;  117.000;   44.000
405.484;  256.875;  -49.000;    5.000
405.612;   38.325; -548.000; -563.000
405.739;  -64.600; -488.000; -243.000
405.866;   68.250;  669.000;  385.000
405.993;  -37.225; -398.000; -102.000
406.120; -151.675; -801.000; -887.000
406.247;  -63.200; -323.000; -342.000
406.374;  391.650;  540.000;  629.000
406.501;   67.200; -632.000; -702.000
406.628;  -82.475; -621.000; -589.000
406.755; -114.925; -803.000; -620.000
406.882;  -40.050; -228.000; -277.000
407.009; -125.225; -719.000; -628.000
407.136;   30.025; -480.000; -401.000
407.263;   99.900; -939.000; -829.000
407.390;  -80.275; -692.000; -614.000
407.517; -188.150;-1139.000;-1187.000
407.644;  -65.950; -332.000; -256.000
407.771;  -71.775; -249.000; -287.000
407.898;   -6.650;  168.000;  328.000
408.025;  -73.800; -421.000; -313.000
408.151;  -20.225;   82.000;  153.000
408.278;  -74.000; -267.000; -216.000
408.405; -116.675; -931.000; -899.000
408.532;  -79.425; -549.000; -542.000
408.659; -115.550; -677.000; -648.000
408.785; -212.800;-1298.000;-1170.000
408.912;  -76.550; -412.000; -296.000
409.039; -127.050; -610.000; -686.000
409.166;  -93.050; -591.000; -555.000
409.292; -114.775; -571.000; -534.000
409.419; -121.250; -665.000; -649.000
409.546;  -98.575; -431.000; -192.000
409.672; -119.175; -713.000; -545.000
409.799;  -18.100;  -36.000;   34.000
409.926;  -54.475; -180.000; -179.000
410.052; -176.100;-1127.000;-1091.000
410.179;  -68.775; -368.000; -392.000
410.305;  -88.525; -375.000; -493.000
410.432;  -38.175; -220.000; -333.000
410.558;  -97.900; -305.000; -380.000
410.685; -105.225; -688.000; -431.000
410.812; -111.250; -409.000; -588.000
410.938; -141.825; -964.000; -808.000
411.065; -104.100; -671.000; -645.000
411.191;  -25.050; -189.000; -174.000
411.317; -114.500; -823.000; -742.000
411.444;  -66.825; -317.000; -246.000
411.570;  -77.175; -339.000; -294.000
411.697; -135.150; -758.000; -752.000
411.823; -185.100; -989.000; -999.000
411.949;  -34.775;  -56.000;   17.000
412.076; -124.175; -539.000; -519.000
412.202; -118.025; -758.000; -757.000
412.329; -139.175; -798.000; -752.000
412.455; -123.475; -821.000; -657.000
412.581;  -39.750;  -15.000;  172.000
412.707;  -88.175; -540.000; -457.000
412.834;    9.475;  156.000;  219.000
412.960;  -84.900; -785.000; -784.000
413.086; -111.150; -743.000; -701.000
413.212;  122.650;  604.000;  578.000
413.339;  -88.625; -685.000; -701.000
413.465;  -11.275; -364.000; -310.000
413.591; -112.225; -757.000; -474.000
413.717;  -61.800; -358.000; -366.000
413.843; -152.475; -839.000; -861.000
413.969;  -54.275;  -47.000; -292.000
414.096; -103.325; -679.000; -679.000
414.222;  -19.850;  -33.000;   85.000
414.348;  -45.025; -652.000; -385.000
414.474;   68.425;   38.000;  -52.000
414.600;  -12.325; -126.000; -144.000
414.726;  -13.025;  -96.000;  -55.000
414.852;  -62.675; -365.000; -342.000
414.978;   29.750;  104.000;  -18.000
415.104;   30.200;   38.000;   80.000
415.230;    9.175; -329.000; -330.000
415.356;   27.425; -409.000; -514.000
415.482;  183.225;   13.000;  -35.000
415.608;  257.250; -247.000; -323.000
415.734;  966.525;   67.000;   38.000
415.860;20140.525; -875.000; -767.000
415.986;14389.500; -685.000; -607.000
416.111; 1214.075; -798.000; -652.000
416.237;  249.600; -424.000; -571.000
416.363; 1149.575; -765.000; -733.000
416.489; 4208.350; -324.000; -251.000
416.615;  438.200; -707.000; -742.000
416.741;  -21.675; -677.000; -784.000
416.866;  -98.725; -673.000; -736.000
416.992; -132.750; -801.000; -818.000
417.118;  -33.050;  -41.000;  -80.000
417.244;  -85.575; -798.000; -531.000
417.369;  -86.225; -801.000; -612.000
417.495;  -18.925; -325.000; -254.000
417.621; -115.950;-1015.000; -803.000
417.746;   -6.850; -579.000; -572.000
417.872;   33.175; -254.000; -144.000
417.998;   47.775; -515.000; -530.000
418.123; 1070.425;-1073.000; -845.000
418.249; 5436.950; -512.000; -601.000
418.374;  741.625; -916.000; -824.000
418.500;  105.775; -383.000; -482.000
418.626;   99.200;   70.000;  -59.000
418.751;  112.575; -549.000; -448.000
418.877;  208.650; -637.000; -643.000
419.002; 1852.850; -688.000; -560.000
419.128;12660.225; -930.000; -721.000
419.253; 3049.100; -967.000; -837.000
419.379;  391.150; -391.000; -338.000
419.504;  402.525;  325.000;  415.000
419.629;  519.175; -393.000; -212.000
419.755; 3660.325; -317.000; -254.000
419.880;21490.775;  -98.000;   67.000
420.006;11558.775; -280.000; -221.000
420.131;29630.575; -662.000; -775.000
420.256; 4186.300; -315.000; -316.000
420.382;  549.325; -665.000; -687.000
420.507;   56.650; -649.000; -778.000
420.632;  108.700; -337.000; -339.000
420.758;  215.700; -251.000; -425.000
420.883;  -94.725; -876.000; -672.000
421.008; -106.750; -775.000; -619.000
421.133;  -82.700; -509.000; -467.000
421.259;  -47.325; -325.000; -259.000
421.384; -128.900; -834.000; -693.000
421.509;  -55.075;-1052.000; -862.000
421.634; 1009.925; -936.000; -820.000
421.759;  418.475; -359.000; -327.000
421.885;  -77.500; -717.000; -656.000
422.010;  -90.925; -673.000; -542.000
422.135; -151.250; -695.000; -727.000
422.260;   28.825;  340.000;  280.000
422.385;  -33.075;   12.000;  -98.000
422.510;   -3.400;  151.000;  -26.000
422.635;   -2.500;  -87.000;  -43.000
422.760;   79.425; -766.000; -791.000
422.885;   46.300;  -57.000;  -80.000
423.010;  -45.700; -112.000; -169.000
423.135;  -94.750; -481.000; -561.000
423.260;  -24.750; -150.000; -245.000
423.385;   53.000;  476.000;  222.000
423.510;   25.300;   71.000;  -22.000
423.635;   58.925;  133.000;   45.000
423.760;   46.675;  383.000;  328.000
423.885;   40.300;  336.000;  391.000
424.010;    3.425;  -68.000;  -13.000
424.135;  -13.200;    5.000;  -33.000
424.259;  -88.850; -654.000; -457.000
424.384;  -63.250; -279.000; -272.000
424.509;  -32.950; -260.000; -186.000
424.634; -118.425; -761.000; -623.000
424.759;  -32.975; -688.000; -544.000
424.883;  -36.075; -506.000; -527.000
425.008;  147.600; -502.000; -410.000
425.133; 2020.200; -679.000; -653.000
425.258;  931.375; -517.000; -381.000
425.382;  925.575; -867.000; -774.000
425.507; 2363.575; -487.000; -543.000
425.632;  372.750; -802.000; -663.000
425.756;  458.125; -256.000; -146.000
425.881; 6708.675; -831.000; -857.000
426.006;17987.525; -604.000; -355.000
426.130; 2744.700; -696.000; -508.000
426.255;  357.825; -611.000; -491.000
426.379;  154.075; -189.000; -577.000
426.504;  373.750;  660.000;  544.000
426.629; 4088.050; -519.000; -466.000
426.753; 2755.875;   64.000;  -46.000
426.878;  310.775; -252.000; -288.000
427.002;  146.275; -651.000; -668.000
427.127; 1595.775;  -35.000; -158.000
427.251;11545.775;  372.000;  401.000
427.375; 3195.725; -191.000; -173.000
427.500; 2113.600; -616.000; -610.000
427.624;  694.175; -234.000; -400.000
427.749;   63.500; -216.000; -225.000
427.873;  -52.575; -499.000; -412.000
427.997;  -28.625; -222.000; -230.000
428.122;   68.175;  795.000;  703.000
428.246;   65.100;  433.000;  434.000
428.371; -135.825; -869.000; -773.000
428.495; -115.525; -624.000; -646.000
428.619;  -49.450; -186.000; -117.000
428.743;   19.300;   65.000;  132.000
428.868;   -3.125; -732.000; -643.000
428.992; 1279.375; -219.000; -326.000
429.116;  489.900; -329.000; -357.000
429.240;  228.375;  419.000;  426.000
429.365;  -38.625; -454.000; -574.000
429.489;  -58.875; -638.000; -647.000
429.613;   19.575; -236.000; -177.000
429.737;   36.300; -563.000; -432.000
429.861;  254.350; -247.000; -133.000
429.985; 5685.775; -425.000; -305.000
430.109; 6160.200; -770.000; -908.000
430.234;  707.350;   76.000;  -50.000
430.358;   38.750; -250.000; -160.000
430.482;  -55.300; -672.000; -564.000
430.606;  -76.225; -655.000; -375.000
430.730;    1.525; -437.000; -388.000
430.854;   72.175; -909.000; -835.000
430.978;  -76.100; -795.000; -764.000
431.102;  -76.550; -499.000; -422.000
431.226; -122.625; -874.000; -815.000
431.350;   14.600;  345.000;  422.000
431.474;  -82.650; -661.000; -373.000
431.597; -155.400;-1060.000; -848.000
431.721;  -77.000; -276.000; -267.000
431.845; -142.950; -704.000; -472.000
431.969;  -94.675; -304.000; -349.000
432.093;  -99.550; -395.000; -317.000
432.217;  -23.300;   32.000;   82.000
432.341; -104.100; -523.000; -518.000
432.464;    1.700;   96.000;   40.000
432.588;  164.525; -401.000; -329.000
432.712;   77.675;  -52.000;  -52.000
432.836;   34.300;  213.000;  263.000
432.959;  -15.725; -372.000; -311.000
433.083;   78.925;   11.000;    2.000
433.207;  372.475;  285.000;  930.000
433.330; 5170.175; -391.000; -200.000
433.454; 6305.150; -654.000; -638.000
433.578; 3640.225;  583.000;  278.000
433.701;  656.500; -623.000; -675.000
433.825;  123.025; -292.000; -299.000
433.949;  130.925;   28.000;  -72.000
434.072;   19.200; -410.000; -323.000
434.196;  -15.225; -309.000; -117.000
434.319; 3740.425;25482.000;25124.000
434.443;  715.425; -656.000; -603.000
434.566; 2684.550;  281.000;   62.000
434.690;  446.800; -637.000; -383.000
434.813;   28.300; -251.000; -173.000
434.937;  -84.225; -569.000; -696.000
435.060;  -53.725; -423.000; -332.000
435.184;  242.825; -492.000; -217.000
435.307;  122.575;  159.000;  102.000
435.431;  -29.450;  -40.000;   24.000
435.554;  -86.950; -399.000; -240.000
435.677; -100.025; -350.000; -258.000
435.801;  -54.000;  -25.000;   49.000
435.924;   -7.200;    1.000;  -67.000
436.048; -132.300;-1019.000; -732.000
436.171;  -75.650; -240.000;  -66.000
436.294;  -29.450; -248.000; -229.000
436.417;   83.800; -963.000; -849.000
436.541;  -89.375; -814.000; -840.000
436.664;  -51.875; -242.000; -316.000
436.787;  -34.750;   13.000;  113.000
436.910; -114.775; -792.000; -422.000
437.034;   -8.550;  142.000;  143.000
437.157;   26.150;  -11.000;    0.000
437.280;  -52.275; -392.000; -292.000
437.403; -110.700; -982.000; -869.000
437.526;  533.625; -903.000; -865.000
437.649; 1973.150; -505.000; -332.000
437.772;  259.025; -692.000; -540.000
437.896;  114.600;  700.000;  544.000
438.019; -101.800; -758.000; -503.000
438.142; -103.950; -596.000; -506.000
438.265;  -45.475; -639.000; -670.000
438.388;  466.075; -520.000; -410.000
438.511;   60.000; -597.000; -394.000
438.634;  -59.225; -247.000; -125.000
438.757; -148.425; -693.000; -619.000
438.880;  -33.225;  -34.000;  -57.000
439.003;  -86.400; -417.000; -437.000
439.126;  -70.725; -287.000; -167.000
439.248;  -85.425;  -98.000; -139.000
439.371;  -67.500;    9.000;  -53.000
439.494;   41.150;  510.000;  439.000
439.617;  -60.275;   65.000;  -88.000
439.740; -185.275; -968.000; -816.000
439.863; -146.325; -755.000; -595.000
439.986; -131.900; -476.000; -431.000
440.108;  -46.975; -161.000; -112.000
440.231; -168.775; -950.000; -836.000
440.354;  -55.150;  -64.000; -150.000
440.477;   -9.625; -566.000; -542.000
440.599;  -18.850; -200.000; -225.000
440.722; -128.600; -709.000; -586.000
440.845;   77.050;  751.000;  928.000
440.968; -117.875; -415.000; -311.000
441.090;  -75.350; -199.000;  -33.000
441.213; -186.850;-1021.000; -825.000
441.336;  -50.425; -159.000;   -5.000
441.458; -100.450; -549.000; -396.000
441.581;  -95.900; -628.000; -629.000
441.703;  -76.325; -152.000;   13.000
441.826; -113.325; -557.000; -400.000
441.948;  -67.050;   56.000;   51.000
442.071;   24.725;  555.000;  424.000
442.193; -120.825; -531.000; -485.000
442.316;   10.225;  152.000;   97.000
442.438;   36.675; -233.000;  -10.000
442.561;   54.450;  272.000;  262.000
442.683;  433.275; -809.000; -522.000
442.806; 1012.475;   -8.000;   74.000
442.928;  -12.650; -859.000; -604.000
443.051;  -86.475; -577.000; -373.000
443.173; -104.150; -341.000; -339.000
443.295; -101.700; -263.000; -371.000
443.418;  -88.700; -321.000;  -29.000
443.540;  -17.000; -106.000;   -4.000
443.662; -122.425; -563.000; -465.000
443.785;  -26.175;  335.000;  199.000
443.907; -107.350; -362.000; -208.000
444.029; -121.925; -767.000; -494.000
444.152; -151.250; -644.000; -554.000
444.274;  -36.175;  -18.000;  -24.000
444.396; -118.900; -461.000; -221.000
444.518; -143.800; -691.000; -454.000
444.640; -115.800; -268.000; -111.000
444.763;  -21.375;  388.000;  249.000
444.885; -124.000; -432.000; -392.000
445.007;  -36.200;   35.000;   86.000
445.129; -123.850; -610.000; -515.000
445.251; -107.900; -372.000; -439.000
445.373; -146.200; -537.000; -386.000
445.495;  -14.025;  242.000;  350.000
445.617;   45.200;  853.000;  753.000
445.739;  -69.525; -215.000;  -97.000
445.861;  -41.625; -245.000; -112.000
445.984;  -29.975; -267.000; -101.000
446.105;  151.025; -418.000; -251.000
446.227;  527.075; -176.000;  -19.000
446.349;  -16.725; -358.000; -249.000
446.471; -129.550; -615.000; -448.000
446.593;  -71.800; -316.000;   19.000
446.715;  -10.475;  -67.000;   41.000
446.837;   60.575;  697.000;  832.000
446.959;  -93.100; -457.000; -478.000
447.081; -136.425; -628.000; -518.000
447.203;   50.325;  862.000;  834.000
447.325;  -89.425; -270.000;   42.000
447.446;  -24.550;  286.000;  530.000
447.568; -161.700; -921.000; -803.000
447.690;  -83.675; -236.000; -245.000
447.812; -159.675; -798.000; -519.000
447.933;  -22.825;  155.000;  127.000
448.055;  -78.350; -306.000; -261.000
448.177;  132.900;   31.000;   79.000
448.299;   34.450; -935.000; -727.000
448.420;   11.950;  -25.000;  159.000
448.542;  -52.150;   -3.000;   33.000
448.664;  -20.300;  109.000;  322.000
448.785;  -44.400;  265.000;   83.000
448.907;  -85.125; -614.000; -353.000
449.028;  -47.400; -771.000; -471.000
449.150;   68.100;  492.000;  589.000
449.272; -200.575;-1044.000; -913.000
449.393;   32.475;  612.000;  694.000
449.515; -146.925; -634.000; -581.000
449.636;  -73.175; -264.000; -155.000
449.758;   58.100;  763.000;  622.000
449.879;  -96.975; -498.000; -396.000
450.001;  -91.775; -149.000;  -49.000
450.122;  -28.350;  -95.000;  162.000
450.244;  -31.375;   37.000;  364.000
450.365;  -94.675; -495.000; -301.000
450.486;  -51.425;   80.000;  268.000
450.608;   23.850;  393.000;  326.000
450.729;   74.975;  578.000;  645.000
450.850;    7.350; -574.000; -466.000
450.972;  756.875; -552.000; -389.000
451.093; 5007.775;  190.000;  588.000
451.214; 2142.600; -516.000; -337.000
451.336;  358.375;  773.000;  579.000
451.457;   61.650;  264.000;  393.000
451.578;  -54.150; -118.000;  -74.000
451.699; -138.350; -546.000; -540.000
451.821;  -78.875; -284.000;  -50.000
451.942;    2.100;  278.000;  285.000
452.063;   38.900;  228.000;  419.000
452.184;  562.275;  -54.000;  -49.000
452.305; 1093.375;  103.000;  170.000
452.427;  125.525; -549.000; -301.000
452.548;  -24.975;   23.000;   79.000
452.669;  -73.800; -257.000;  -89.000
452.790;  -47.625;    3.000;  -18.000
452.911;  -23.600;  195.000;  259.000
453.032;  -67.375; -289.000;  -60.000
453.153;  -46.125;  -29.000;   81.000
453.274;   57.600;  737.000;  868.000
453.395;  -65.250;  -51.000;  175.000
453.516;  126.600; 1317.000; 1388.000
453.637;  -94.025; -205.000; -150.000
453.758;  -64.325;   15.000;   69.000
453.879; -123.000; -462.000; -250.000
454.000;   70.925; 1086.000;  948.000
454.121; -137.925; -554.000; -326.000
454.242; -119.175; -599.000; -383.000
454.362;  -71.125;  -99.000;  114.000
454.483;  -36.200; -309.000; -229.000
454.604;   39.650;  512.000;  580.000
454.725; -122.075; -627.000; -555.000
454.846; -127.950; -474.000; -406.000
454.967;  -36.850;  230.000;  539.000
455.087;  -48.475;  179.000;  153.000
455.208;   13.975;  554.000;  856.000
455.329;  -73.075;  -22.000;   82.000
455.450;   36.525;  473.000;  633.000
455.570;  -89.375; -234.000; -211.000
455.691;  -41.550;  201.000;  407.000
455.812; -103.500; -270.000;  -92.000
455.932;  -59.775;  107.000;  -97.000
456.053;  -83.975;   36.000;   24.000
456.173; -116.350; -433.000; -355.000
456.294; -134.325; -476.000; -303.000
456.415;  -69.500;  -73.000;   70.000
456.535;  -37.350;  297.000;  273.000
456.656;  -41.025;  132.000;  240.000
456.776;  -84.900;    3.000;  298.000
456.897;  -13.650;  308.000;  513.000
457.017;  -84.100; -153.000;   -3.000
457.138; -116.400; -402.000; -249.000
457.258;  -34.975;  263.000;  224.000
457.379;   -7.175;  509.000;  521.000
457.499;  -27.850;  443.000;  432.000
457.620; -122.525; -407.000; -231.000
457.740; -102.000; -132.000;  -11.000
457.860;  -69.650;   87.000;   44.000
457.981;  -68.725;  132.000;  124.000
458.101;  -65.225;  -89.000;   40.000
458.221;   -7.450;  336.000;  402.000
458.342;  -76.150;   -4.000;  -37.000
458.462;    3.575;  617.000;  352.000
458.582;  -35.725; -302.000; -294.000
458.703;    2.075;  303.000;  154.000
458.823;  -29.925;   22.000;  163.000
458.943;   11.350;  341.000;  467.000
459.063;  -24.000; 1124.000;  192.000
459.183;  -47.750;  328.000;  313.000
459.304;   11.825;  315.000;  517.000
459.424;  -63.850; -246.000;  -89.000
459.544;  319.425;  388.000;  764.000
459.664;  847.775;  499.000;  506.000
459.784;  292.625; 1004.000; 1175.000
459.904;   52.875;  867.000;  744.000
460.024;   57.950;  867.000;  684.000
460.144;   -8.500;  449.000;  554.000
460.264;  -12.075;  515.000;  327.000
460.385; -105.325; -145.000; -119.000
460.505;   40.575;  905.000;  858.000
460.625;  -95.050;  -17.000;  -68.000
460.745;  -32.100;  396.000;  541.000
460.864;  -45.150;  153.000;  469.000
460.984;   14.000;  499.000;  573.000
461.104;  132.550; 1656.000; 1775.000
461.224;   16.100;  657.000;  650.000
461.344;  -38.025;  431.000;  360.000
461.464;  -37.175;  258.000;  513.000
461.584;  -24.925;  283.000;  466.000
461.704;  -61.550;   58.000;  108.000
461.824;  -72.075;  238.000;  259.000
461.943;  -50.750;  191.000;  130.000
462.063;  -81.400;    2.000;  324.000
462.183;   32.350;  639.000;  717.000
462.303;   99.250; 1678.000; 1230.000
462.422;   31.800;  781.000;  840.000
462.542;  -47.350;  271.000;  391.000
462.662;   43.550;  353.000;  380.000
462.782;  238.125;  833.000;  572.000
462.901;  487.175;  545.000;  717.000
463.021;  275.325; 1702.000; 1638.000
463.141;  -18.950;  337.000;  770.000
463.260;   -5.125;  614.000;  474.000
463.380;   14.550;  902.000;  884.000
463.499;  -53.275;  342.000;  332.000
463.619;  -25.475;  581.000;  559.000
463.738;  100.550; 1644.000;  903.000
463.858;   14.525;  657.000;  811.000
463.978;  -54.075;  542.000;  396.000
464.097;   40.150;  921.000; 1114.000
464.217;  106.625; 1196.000; 1143.000
464.336;  117.550; 1068.000; 1130.000
464.455;  -45.900;  328.000;  659.000
464.575;   39.800;  597.000;  602.000
464.694;  149.150; 1204.000; 1179.000
464.814;  102.100; 1190.000; 1138.000
464.933;   70.750; 1095.000; 1027.000
465.052;   88.475; 1412.000; 1054.000
465.172;   69.100;  922.000;  799.000
465.291;  130.275; 1376.000; 1320.000
465.410;    4.975;  462.000;  735.000
465.530;   99.200; 1355.000; 1310.000
465.649;   48.675; 1209.000; 1273.000
465.768;  130.850; 1673.000; 1508.000
465.888;   52.200;  941.000; 1174.000
466.007;   82.000; 1335.000; 1440.000
466.126;  -13.175;  721.000;  641.000
466.245;   42.575; 1176.000; 1187.000
466.364;   17.150;  950.000; 1060.000
466.484;   46.925; 1024.000; 1213.000
466.603;   38.900; 1101.000; 1222.000
466.722;  105.375; 1490.000; 1769.000
466.841;   77.900; 1151.000; 1401.000
466.960;   35.750; 1069.000;  972.000
467.079;  126.500; 1971.000; 1786.000
467.198;   33.700; 1238.000; 1181.000
467.317;   85.800; 1768.000; 1162.000
467.436;   80.275; 1709.000; 1261.000
467.555;  121.750; 1796.000; 1746.000
467.674;   61.550; 1227.000; 1329.000
467.793;   30.350; 1376.000; 1374.000
467.912;   72.800; 1658.000; 1539.000
468.031;  131.050; 2038.000; 1930.000
468.150;  126.475; 1842.000; 1837.000
468.269;  182.800; 2313.000; 2090.000
468.388;  193.600; 2168.000; 2339.000
468.507;  246.850; 2884.000; 2903.000
468.626;  216.850; 2555.000; 2541.000
468.744;  129.725; 2018.000; 2174.000
468.863;  207.700; 2312.000; 2523.000
468.982;   83.850; 1503.000; 1555.000
469.101;  229.375; 2788.000; 2692.000
469.220;  141.575; 2333.000; 2176.000
469.338;  244.600; 2935.000; 3051.000
469.457;  186.675; 2719.000; 2545.000
469.576;  328.925; 3953.000; 3784.000
469.695;  232.175; 2877.000; 3066.000
469.813;  424.975; 4148.000; 4192.000
469.932;  403.800; 4255.000; 4485.000
470.051;  401.900; 4075.000; 4161.000
470.169;  858.150; 4470.000; 4338.000
470.288; 1495.675; 4700.000; 4809.000
470.406;  890.925; 5059.000; 5194.000
470.525;  647.825; 6101.000; 5787.000
470.644;  641.150; 6847.000; 6794.000
470.762;  820.750; 8397.000; 7873.000
470.881;  901.500; 8651.000; 8464.000
470.999; 1035.325; 9685.000; 9151.000
471.118; 1114.475;11174.000;10711.000

