
Integration time [ms]: 100.000
Averaging Nr. [scans]: 40
Smoothing Nr. [pixels]: 0
Data measured with spectrometer [name]: 2101012U2
Wave   ;Sample   ;Dark     ;Reference
[nm]   ;[counts] ;[counts] ;[counts] 

197.733;   39.600;  516.000;  404.000
197.879;  -72.450; -610.000; -634.000
198.025;  -46.775; -475.000; -420.000
198.171;  -64.225; -602.000; -612.000
198.317;  -26.525; -401.000; -316.000
198.463;  -48.775; -655.000; -404.000
198.609;    7.450;  181.000; -137.000
198.755;  -65.900; -644.000; -410.000
198.901;  -60.550; -505.000; -424.000
199.047;  -66.800; -615.000; -488.000
199.193;  -42.800; -230.000; -468.000
199.339;  -35.100; -222.000; -369.000
199.485;   31.300;  330.000;  271.000
199.631;    6.300;  227.000;  310.000
199.777;  -54.950; -466.000; -398.000
199.923;  -67.400; -610.000; -424.000
200.069;    3.775; -141.000;  -58.000
200.215;   53.450;  128.000;  453.000
200.361;   41.175;  243.000;  477.000
200.507;  -58.075; -600.000; -373.000
200.653;  -33.575; -371.000; -194.000
200.798;  -28.700; -215.000; -125.000
200.944;  -10.950; -146.000;  -41.000
201.090;   27.450;   61.000;  222.000
201.236;    2.875; -116.000; -158.000
201.382;  114.725;  874.000;  903.000
201.528;    4.675;  -58.000;  -48.000
201.674;  -59.150; -386.000; -293.000
201.819;  -70.125; -540.000; -439.000
201.965;  -72.775; -699.000; -447.000
202.111;  -17.375; -273.000; -226.000
202.257;  -41.100; -250.000; -238.000
202.402;    0.750;   13.000;  -36.000
202.548;  -37.550; -169.000; -116.000
202.694;   79.800;  410.000; -183.000
202.840;  -74.100; -603.000; -531.000
202.985;  -74.600; -681.000; -639.000
203.131; -108.600; -832.000; -666.000
203.277;  -18.675; -199.000; -262.000
203.423;  -48.000; -434.000; -520.000
203.568;  -49.075; -462.000; -237.000
203.714;  -63.100; -535.000; -542.000
203.860;  -67.575; -682.000; -641.000
204.005;   20.925;  112.000;  167.000
204.151;   63.425;  561.000;  556.000
204.296;  -53.425; -354.000; -221.000
204.442;  -79.075; -600.000; -547.000
204.588;  -71.325; -592.000; -579.000
204.733;   29.175;  178.000;  168.000
204.879; -111.075;-1018.000; -822.000
205.025;   10.800;  -99.000;  126.000
205.170;  -16.050;  -17.000;   94.000
205.316;   74.825;  438.000;  661.000
205.461;  -76.575; -698.000; -554.000
205.607;   64.225;  609.000;  665.000
205.752;  -72.575; -626.000; -551.000
205.898;  -42.500; -501.000; -391.000
206.043;  -53.450; -578.000; -506.000
206.189;  -43.350; -243.000; -285.000
206.334;   70.300;  554.000;  606.000
206.480;   81.425;  409.000;  239.000
206.625;  -71.150; -529.000; -552.000
206.771;  -46.675; -451.000; -373.000
206.916;  -29.225; -210.000; -537.000
207.062;  -72.175; -545.000; -591.000
207.207;  -55.450; -546.000; -443.000
207.353;   36.625;  185.000;  460.000
207.498;   13.700;  196.000;   85.000
207.643;  -53.450; -501.000; -370.000
207.789; -131.700;-1069.000; -910.000
207.934;  -79.900; -665.000; -713.000
208.080;  -28.650; -154.000;   66.000
208.225;   -6.575;  -22.000;  -57.000
208.370;  -87.475; -727.000; -619.000
208.516;  -82.750; -741.000; -487.000
208.661;  -18.375; -127.000;  -69.000
208.806;  -21.725; -165.000; -171.000
208.952; -110.950;-1044.000; -731.000
209.097;   75.175;  378.000;  349.000
209.242;  -50.825; -307.000; -382.000
209.387;   57.375;  392.000;  350.000
209.533;  -48.900; -321.000; -350.000
209.678;   74.525;  472.000;  543.000
209.823;  -50.850; -408.000; -310.000
209.969;  -93.575; -860.000; -757.000
210.114; -106.350; -907.000; -719.000
210.259; -107.475; -939.000; -889.000
210.404;  -21.075; -171.000;  103.000
210.549;    4.550;  108.000;    3.000
210.695;  -19.825;   -3.000;  -95.000
210.840;   24.800;   94.000;   67.000
210.985;  -58.025; -484.000; -303.000
211.130;   61.200;  268.000;  406.000
211.275;   23.150;  207.000;  199.000
211.420;  -47.225; -300.000; -289.000
211.566;  -60.575; -536.000; -489.000
211.711;   24.350;  218.000;  157.000
211.856;  -62.650; -545.000; -519.000
212.001;    0.100;  151.000;   44.000
212.146;   22.950;  153.000;   49.000
212.291;  -21.000; -210.000; -186.000
212.436;  -33.950; -280.000;   -6.000
212.581;  -86.875; -685.000; -653.000
212.726;  -68.375; -487.000; -538.000
212.871;  -60.600; -552.000; -217.000
213.016; -122.625;-1172.000;-1029.000
213.161;   52.475;  406.000;  291.000
213.306;  -67.275; -435.000; -577.000
213.451;  -89.325; -778.000; -689.000
213.596;  -40.450; -455.000; -347.000
213.741;  -49.650; -448.000; -538.000
213.886;  -73.650; -498.000; -517.000
214.031;  -24.625; -294.000; -124.000
214.176;  -44.225; -408.000; -341.000
214.321;  -24.425; -296.000; -157.000
214.466;  -18.100; -163.000;  -43.000
214.611;   -2.500;  -61.000;  -10.000
214.756; -106.125; -948.000; -858.000
214.901;  -27.450; -388.000; -226.000
215.046; -118.375; -797.000; -825.000
215.191;   14.375;  128.000;   35.000
215.336;  -15.550; -157.000;  -19.000
215.480;  -64.400; -684.000; -505.000
215.625;  -18.200; -175.000;  -19.000
215.770;  -78.475; -757.000; -662.000
215.915;  -13.275;   -5.000;  -97.000
216.060;    1.750; -113.000;  -21.000
216.205;  -97.000; -731.000; -779.000
216.349;  -62.200; -470.000; -533.000
216.494; -117.775; -939.000; -867.000
216.639; -117.900; -823.000; -888.000
216.784;  -77.925; -577.000; -525.000
216.929;   40.675;  392.000;  281.000
217.073;   -7.575; -244.000;  -31.000
217.218;    8.925;   78.000;  -47.000
217.363;  -71.525; -656.000; -618.000
217.507;  -87.075; -623.000; -588.000
217.652; -115.875; -845.000; -874.000
217.797;  -91.575; -708.000; -659.000
217.942; -101.750; -856.000; -720.000
218.086;   67.500;  608.000;  539.000
218.231;  -31.225; -174.000;  -26.000
218.376;  -33.650; -337.000; -229.000
218.520;    1.500;  -41.000;   96.000
218.665;  -24.875; -338.000; -204.000
218.810;  -39.075; -275.000; -233.000
218.954;   18.775;  201.000;   35.000
219.099; -107.125; -713.000; -963.000
219.243;  -78.900; -589.000; -554.000
219.388;  -36.875; -264.000; -136.000
219.532;   -2.975; -116.000; -116.000
219.677;  -86.775; -564.000; -521.000
219.822;   -7.400;   33.000;   89.000
219.966;   -0.125;   17.000;  -99.000
220.111;  -39.050; -328.000;  -40.000
220.255;  -86.125; -797.000; -750.000
220.400;  -15.450; -180.000; -146.000
220.544;  -67.900; -516.000; -450.000
220.689;  -53.550; -422.000; -451.000
220.833;  -13.650; -123.000;  -58.000
220.978;  -45.950; -393.000; -563.000
221.122;   25.175;  319.000;  307.000
221.267; -109.775; -906.000; -837.000
221.411;  -66.250; -478.000; -394.000
221.555;   -9.950; -104.000;  -23.000
221.700;  -50.400; -329.000; -222.000
221.844;   36.200;  255.000;  272.000
221.989;  -43.775; -328.000; -311.000
222.133;  -40.175; -289.000; -307.000
222.277;   -7.150;    5.000;   78.000
222.422;   20.425;  227.000;  113.000
222.566;  -28.450; -381.000; -214.000
222.711;  -58.700; -414.000; -479.000
222.855;  -74.775; -643.000; -586.000
222.999;  -82.275; -642.000; -717.000
223.144;  -25.300; -195.000; -194.000
223.288;   37.725;  423.000;  251.000
223.432;   15.625;  184.000;  230.000
223.576;   10.175;  152.000;  -21.000
223.721;   38.150;  364.000;  273.000
223.865;  -64.475; -472.000; -475.000
224.009;  239.750; 1673.000; 1631.000
224.153;  -88.200; -660.000; -671.000
224.298;  -68.075; -531.000; -489.000
224.442;  -19.675;  -74.000;  -33.000
224.586;  -18.050; -169.000; -106.000
224.730;  -91.125; -858.000; -670.000
224.875;  -87.875; -739.000; -688.000
225.019;   -3.400;  102.000;  188.000
225.163;   52.575;  208.000;  341.000
225.307;    1.425;   97.000;  -91.000
225.451;   29.350;  360.000;  481.000
225.595;    8.800;  264.000;  176.000
225.739;  -15.025; -170.000;  -94.000
225.884;   -2.700;   86.000;    5.000
226.028;  -82.800; -760.000; -626.000
226.172;  -39.325; -260.000; -273.000
226.316; -109.300; -941.000; -902.000
226.460;  -70.500; -645.000; -493.000
226.604;  -52.900; -406.000; -400.000
226.748;  -90.475; -836.000; -733.000
226.892;  -40.425; -227.000; -181.000
227.036;  -47.600; -537.000; -447.000
227.180;  -52.775; -551.000; -375.000
227.324;  -71.000; -561.000; -580.000
227.468;  -94.450; -819.000; -717.000
227.612;    8.775;  242.000;  -28.000
227.756;  -86.000; -845.000; -698.000
227.900;   44.350;  342.000;  441.000
228.044;  -54.850; -509.000; -290.000
228.188;   49.400;  448.000;  568.000
228.332;  -91.250; -546.000; -472.000
228.476;  -42.850; -223.000; -149.000
228.620;  -27.450; -210.000; -150.000
228.764;   61.175;  431.000;  349.000
228.908;  -21.500; -155.000;   30.000
229.052;  -65.000; -615.000; -528.000
229.195;   -9.000; -172.000;   13.000
229.339;  -39.700; -235.000; -305.000
229.483;  -20.400;    5.000; -162.000
229.627;  -20.800; -156.000;  139.000
229.771;  -37.625; -218.000; -294.000
229.915;   17.125;  230.000;   79.000
230.059;  -89.925; -648.000; -663.000
230.202;  -43.900; -370.000; -317.000
230.346;  -30.450; -107.000;  107.000
230.490;  -70.075; -489.000; -521.000
230.634;  -99.650; -736.000; -553.000
230.777;   69.300;  478.000;  509.000
230.921;  -46.000; -450.000; -359.000
231.065;  -44.950; -246.000; -286.000
231.209;   25.825;  261.000;  265.000
231.352;    7.600;   54.000;   40.000
231.496;    6.000;  568.000;  188.000
231.640;  -74.400; -693.000; -621.000
231.783;   51.750;  546.000;  525.000
231.927;  -41.425; -294.000; -365.000
232.071; -113.800; -962.000; -736.000
232.214; -104.300; -980.000; -764.000
232.358;  -84.575; -683.000; -599.000
232.502;    7.250;  -19.000;    7.000
232.645; -132.700;-1090.000; -927.000
232.789;  -18.300; -257.000; -218.000
232.933;  -38.375; -407.000; -224.000
233.076; -116.275;-1038.000; -897.000
233.220; -104.375; -752.000; -777.000
233.363;  -68.725; -669.000; -477.000
233.507;   44.775;  371.000;  129.000
233.650;  -91.650; -764.000; -834.000
233.794;   36.750;  438.000;  461.000
233.938;  -69.400; -530.000; -362.000
234.081;  -19.775;  -93.000;   31.000
234.225;  -66.950; -631.000; -539.000
234.368;  -91.825; -773.000; -723.000
234.512;  -36.550; -385.000; -299.000
234.655;  -95.900; -582.000; -555.000
234.798;  -65.525; -493.000; -466.000
234.942; -122.150; -884.000;-1002.000
235.085;  -83.275; -651.000; -443.000
235.229;  -55.550; -405.000; -410.000
235.372;  -42.000; -247.000; -191.000
235.516;  -47.150; -397.000; -321.000
235.659;    2.750;   92.000;  121.000
235.802;   -5.700;  -38.000;  -22.000
235.946;   15.775;  335.000;  215.000
236.089;   32.125;  126.000;  250.000
236.233;   46.725;  275.000;  298.000
236.376;  -55.675; -235.000; -378.000
236.519;  -47.700; -297.000; -319.000
236.663;  -27.000; -215.000; -117.000
236.806; -130.325;-1029.000; -999.000
236.949;   42.775;  543.000;  431.000
237.092;   45.925;  412.000;  391.000
237.236;  -78.825; -589.000; -502.000
237.379;   64.850;  352.000;  428.000
237.522; -121.975; -879.000; -768.000
237.666;  -30.225; -271.000;   18.000
237.809; -127.400; -851.000; -823.000
237.952;   33.350;  469.000;  271.000
238.095;  -66.300; -447.000; -442.000
238.238;   75.125;  688.000;  700.000
238.382;    0.575;  166.000;  103.000
238.525;  -60.750; -598.000; -511.000
238.668; -137.175;-1060.000; -985.000
238.811;  -87.750; -638.000; -643.000
238.954;  -51.500; -483.000; -334.000
239.097;   77.275;  617.000;  664.000
239.241;   17.775;  394.000;  326.000
239.384;  -50.975; -254.000; -214.000
239.527;  -64.000; -424.000; -224.000
239.670; -149.425; -994.000;-1091.000
239.813; -109.475; -696.000; -658.000
239.956;   64.950;  579.000;  473.000
240.099; -105.725; -778.000; -725.000
240.242;   51.175;  428.000;  432.000
240.385;   44.250;  466.000;  450.000
240.528;  -84.025; -706.000; -473.000
240.671;    3.200;  189.000;  134.000
240.814;  -56.650; -441.000; -158.000
240.957;  -94.600; -767.000; -578.000
241.100; -100.525; -779.000; -755.000
241.243; -128.625;-1234.000; -893.000
241.386;  -66.525; -508.000; -379.000
241.529;  -73.175; -735.000; -547.000
241.672;  -74.650; -566.000; -495.000
241.815; -118.050; -832.000; -808.000
241.958;  -19.525; -125.000; -182.000
242.101;  -74.900; -545.000; -390.000
242.244;  -42.600; -270.000; -325.000
242.387;  -52.675; -304.000; -246.000
242.530;   43.875;  470.000;  134.000
242.673;  -36.225; -381.000; -309.000
242.815; -108.800; -925.000; -899.000
242.958;  -82.000; -482.000; -381.000
243.101;   -6.700;  132.000;  187.000
243.244;  -79.000; -564.000; -521.000
243.387;  -52.250; -313.000; -316.000
243.530;  -86.800; -657.000; -674.000
243.672;  -17.200;   43.000;  -92.000
243.815;  -52.075; -355.000; -283.000
243.958;    2.050;   98.000;  -26.000
244.101;    2.425;   59.000;  -16.000
244.243;  -23.025;  -47.000;  101.000
244.386; -114.425; -761.000; -630.000
244.529;  -25.425; -132.000; -139.000
244.672; -139.550;-1154.000; -951.000
244.814;  -88.825; -621.000; -794.000
244.957;  -50.325; -380.000; -304.000
245.100;  -76.700; -489.000; -489.000
245.242;  -66.950; -387.000; -374.000
245.385;  -17.850;  -59.000;  -39.000
245.528; -116.850; -871.000; -705.000
245.670;   71.775;  612.000;  634.000
245.813;  -88.325; -599.000; -547.000
245.956;  -39.675; -324.000; -275.000
246.098;  -73.725; -508.000; -650.000
246.241;   10.475;  194.000;   48.000
246.383;  -27.250; -119.000;  -73.000
246.526;  -67.200; -454.000; -525.000
246.669; -124.150; -889.000; -780.000
246.811;   11.900;  172.000;   -1.000
246.954;  -63.475; -512.000; -426.000
247.096;  -35.100;  -84.000;   -6.000
247.239;  -75.475; -482.000; -445.000
247.381;  -73.600; -647.000; -488.000
247.524;   61.975;  645.000;  679.000
247.666;  -18.400;   58.000;   11.000
247.809; -108.125; -887.000; -691.000
247.951;  -18.150;  -75.000;  138.000
248.094;   33.100;  432.000;  308.000
248.236; -150.650;-1262.000;-1238.000
248.378;  -28.825; -356.000;  -81.000
248.521;  -38.025; -334.000; -337.000
248.663;  -46.250; -236.000; -267.000
248.806;  -39.975; -300.000; -266.000
248.948; -112.625; -886.000; -763.000
249.090;  -55.825; -428.000; -398.000
249.233;  -59.600; -344.000; -381.000
249.375;  -73.700; -474.000; -451.000
249.518;  -24.125;  -83.000; -133.000
249.660;  -14.225; -103.000;    3.000
249.802; -174.925;-1303.000;-1189.000
249.945;  -83.400; -612.000; -540.000
250.087; -100.125; -834.000; -768.000
250.229;  -51.250; -362.000; -480.000
250.371;  -69.775; -494.000; -439.000
250.514;  -48.825; -310.000; -244.000
250.656;  -12.475;   69.000;  102.000
250.798; -116.425; -849.000; -800.000
250.940;  -69.575; -322.000; -322.000
251.083;  -32.325; -335.000; -111.000
251.225;   45.200;  338.000;  310.000
251.367;  -35.275; -274.000; -373.000
251.509;  -47.475; -265.000; -210.000
251.651;  -98.575; -731.000; -671.000
251.794;   43.400;  538.000;  632.000
251.936; -120.250; -821.000; -747.000
252.078;  -79.650; -540.000; -461.000
252.220;  -76.075; -645.000; -477.000
252.362;   51.525;  344.000;  462.000
252.504;  -81.875; -677.000; -584.000
252.646; -107.550; -875.000; -722.000
252.788;  -10.375;   14.000; -128.000
252.931;  -47.875; -257.000; -253.000
253.073;  -60.925; -376.000; -317.000
253.215;   -7.800;  141.000;  122.000
253.357;  -26.825;   82.000; -153.000
253.499;  -53.625; -374.000; -234.000
253.641;  -94.850; -749.000; -594.000
253.783;  -88.075; -609.000; -527.000
253.925;  -79.850; -586.000; -591.000
254.067; -110.500; -744.000; -667.000
254.209;  -40.200; -391.000; -259.000
254.351; -128.025; -865.000; -883.000
254.493;  -62.700; -441.000; -417.000
254.635; -123.600; -936.000; -818.000
254.777;  -98.175; -752.000; -687.000
254.918;  -60.075; -512.000; -430.000
255.060;  -64.725; -551.000; -395.000
255.202;  -60.825; -473.000; -261.000
255.344;  -83.675; -658.000; -455.000
255.486;  -71.925; -471.000; -406.000
255.628; -102.675; -780.000; -781.000
255.770;  -76.325; -676.000; -536.000
255.912;  -53.300; -559.000; -468.000
256.053;  -78.450; -730.000; -508.000
256.195;  139.225; 1008.000;  903.000
256.337; -100.325; -861.000; -595.000
256.479;   51.200;  532.000;  416.000
256.621;  -40.300; -394.000; -212.000
256.762;  -99.000; -789.000; -742.000
256.904;   34.950;  485.000;  487.000
257.046;  -37.675; -381.000; -271.000
257.188;  -43.900; -351.000; -264.000
257.329;  -89.775; -525.000; -464.000
257.471; -116.125; -939.000; -807.000
257.613;  -59.850; -584.000; -498.000
257.755; -146.950;-1073.000; -982.000
257.896;   31.750;  286.000;  392.000
258.038;  -67.375; -403.000; -352.000
258.180;  -38.475; -354.000; -279.000
258.321;  -66.850; -581.000; -457.000
258.463;  -10.150;  -71.000;  133.000
258.605;  -94.500; -562.000; -570.000
258.746; -104.200; -886.000; -772.000
258.888; -146.550;-1026.000;-1020.000
259.029;   13.325;  121.000;   -8.000
259.171;  -90.175; -614.000; -550.000
259.313;  -16.300;  -49.000;  -47.000
259.454;  -62.425; -536.000; -414.000
259.596;  -53.850; -483.000; -390.000
259.737;  -79.625; -590.000; -474.000
259.879;   18.575;  217.000;  311.000
260.020;   91.800;  901.000;  636.000
260.162;  -43.125; -146.000; -253.000
260.303; -114.850; -768.000; -687.000
260.445;  -87.975; -609.000; -613.000
260.586;   14.050;  392.000;  157.000
260.728;  -51.850; -360.000; -248.000
260.869;  -70.125; -350.000; -343.000
261.011;   60.025;  706.000;  537.000
261.152;  -61.675; -479.000; -319.000
261.293;  -78.725; -576.000; -595.000
261.435;  -25.100; -219.000; -184.000
261.576;  -60.225; -455.000; -325.000
261.718;   29.325;  420.000;  470.000
261.859; -114.950; -940.000; -949.000
262.000; -109.100; -951.000;-1016.000
262.142;  -21.575;  -52.000;  -60.000
262.283; -114.325; -808.000; -691.000
262.424;  -79.600; -666.000; -625.000
262.566; -147.550;-1161.000; -983.000
262.707; -111.675; -840.000; -830.000
262.848; -111.125; -769.000; -726.000
262.990;  -42.150; -362.000; -345.000
263.131;   70.800;  650.000;  681.000
263.272;   -6.700;  -61.000;  -41.000
263.413;  -84.825; -589.000; -561.000
263.555;  -64.975; -669.000; -143.000
263.696;  -76.325; -550.000; -641.000
263.837;  -52.100; -449.000; -551.000
263.978;   -6.800;   -5.000;  -77.000
264.119;  -34.075; -283.000; -264.000
264.261; -113.275; -847.000; -630.000
264.402;   -2.800;   33.000;   40.000
264.543;  -67.275; -509.000; -524.000
264.684;   -0.250;   61.000;  -50.000
264.825;  -67.300; -816.000; -538.000
264.966;   -1.550;  -84.000;  -67.000
265.107; -108.825; -646.000; -670.000
265.248; -122.350; -825.000; -812.000
265.390;   -8.725;  152.000;   -9.000
265.531;  -34.600; -238.000; -107.000
265.672;  -86.425; -557.000; -630.000
265.813;   50.700;  563.000;  439.000
265.954; -136.875; -959.000; -940.000
266.095;  -18.850; -372.000; -322.000
266.236;  -79.275; -686.000; -548.000
266.377;  -36.675; -243.000; -297.000
266.518;  -56.475; -619.000; -547.000
266.659;   22.525;  170.000;  268.000
266.800;    5.125;   83.000;   85.000
266.941;  -76.425; -487.000; -478.000
267.082;   10.975;  354.000;   99.000
267.223;  -50.650; -344.000; -273.000
267.364; -102.075; -892.000; -686.000
267.504;  -27.500;    3.000;  135.000
267.645;   -1.250;  160.000;   67.000
267.786;  -35.725; -147.000;  -86.000
267.927;  -77.200; -473.000; -379.000
268.068;  -20.825; -186.000;  -61.000
268.209;  -34.225; -175.000; -413.000
268.350;  -64.100; -388.000; -532.000
268.490;  -84.425; -648.000; -521.000
268.631;   19.475;  127.000;  225.000
268.772;  -94.275; -874.000; -647.000
268.913;  -43.075; -328.000; -476.000
269.054;  -10.625; -117.000;   12.000
269.194;  -54.725; -418.000; -402.000
269.335; -144.425;-1137.000;-1074.000
269.476;  -14.350;   33.000;  -35.000
269.617;  -35.875; -347.000; -392.000
269.757;  -86.800; -713.000; -646.000
269.898;  -90.500; -856.000; -613.000
270.039;  -69.350; -415.000; -405.000
270.180; -124.900; -952.000; -816.000
270.320;  -27.525; -190.000; -250.000
270.461;  -40.100; -277.000; -249.000
270.602;  -16.625; -186.000; -156.000
270.742; -117.450; -868.000; -943.000
270.883;  -60.150; -442.000; -390.000
271.023;  -54.500; -358.000; -357.000
271.164;  -86.075; -607.000; -528.000
271.305;  -96.250; -666.000; -654.000
271.445;  -80.850; -722.000; -683.000
271.586;  -67.150; -462.000; -283.000
271.726;  -52.550; -397.000; -322.000
271.867;  -76.275; -594.000; -534.000
272.008;   22.100; -473.000; -285.000
272.148;   63.250;  462.000;  468.000
272.289;   -7.400; -113.000; -181.000
272.429;    7.250;   19.000;  185.000
272.570;  -92.225; -633.000; -737.000
272.710;  -84.550; -825.000; -775.000
272.851;  -29.425;  113.000; -130.000
272.991; -153.500;-1173.000;-1077.000
273.131;  -68.225; -419.000; -459.000
273.272;  -91.450; -683.000; -723.000
273.412;  -10.575; -143.000;  -31.000
273.553;  -64.900; -488.000; -507.000
273.693;  103.475;  913.000;  858.000
273.834; -104.475; -894.000; -692.000
273.974;  -89.100; -664.000; -615.000
274.114;  -98.625; -772.000; -560.000
274.255;   39.125;  414.000;  373.000
274.395;  -15.800; -180.000; -125.000
274.535;   23.400;  199.000;  350.000
274.676;   17.275;  225.000;   94.000
274.816;   -2.750;  110.000;   34.000
274.956;  -83.825; -624.000; -690.000
275.097; -108.150;-1014.000; -922.000
275.237; -105.300; -913.000; -803.000
275.377;  -93.325; -778.000; -689.000
275.517; -140.800; -878.000; -937.000
275.658;  -74.675; -590.000; -555.000
275.798;  -84.950; -606.000; -413.000
275.938;   22.875;  215.000;  323.000
276.078;  -60.075; -626.000; -395.000
276.218;   -0.225;   99.000;  104.000
276.359; -129.925;-1026.000;-1024.000
276.499;  -72.525; -605.000; -446.000
276.639;  -33.725; -305.000; -151.000
276.779;  -46.325; -475.000; -357.000
276.919;  -91.250; -783.000; -624.000
277.059;  -22.250; -261.000; -212.000
277.199;  -31.000; -357.000; -259.000
277.340;   31.800;  287.000;  175.000
277.480; -105.800; -840.000; -693.000
277.620;   17.225;  192.000;   16.000
277.760; -183.300;-1533.000;-1294.000
277.900;   10.950;  113.000;   33.000
278.040;    2.125;  137.000;  159.000
278.180;   22.875;  270.000;  170.000
278.320;    7.300;   21.000;   56.000
278.460;  -60.000; -443.000; -469.000
278.600;  -80.950; -708.000; -598.000
278.740;   65.375;  448.000;  224.000
278.880; -100.925; -768.000; -791.000
279.020;  -25.375; -194.000; -144.000
279.160;  -80.450; -672.000; -595.000
279.300; -114.025; -926.000; -873.000
279.440;  -94.200; -709.000; -622.000
279.579;  -88.200;-1014.000; -929.000
279.719;  -49.100; -410.000; -394.000
279.859;   32.850;   -4.000;   41.000
279.999;    6.575; -208.000;  101.000
280.139;  -41.925; -435.000; -387.000
280.279;  -88.425; -708.000; -745.000
280.419;  -14.100; -229.000; -147.000
280.559;  -28.650; -259.000; -180.000
280.698;  -93.075; -790.000; -639.000
280.838; -101.800; -778.000; -800.000
280.978;  -97.450; -846.000; -790.000
281.118; -103.600; -811.000; -704.000
281.257;    3.875;   24.000;    6.000
281.397; -116.750;-1094.000; -960.000
281.537;  -81.875; -599.000; -712.000
281.677;  -18.025; -150.000; -101.000
281.816;  -74.725; -700.000; -630.000
281.956;  -12.125; -193.000; -257.000
282.096;  -50.375; -539.000; -396.000
282.235;  -84.025; -672.000; -638.000
282.375;    0.900; -243.000;  -98.000
282.515;  -71.325; -715.000; -707.000
282.654;   35.450;   29.000;  106.000
282.794;   45.925;  388.000;  244.000
282.934;  -28.550; -530.000; -491.000
283.073; -110.075;-1030.000; -857.000
283.213;  -43.925; -460.000; -467.000
283.353;  -29.275; -408.000; -349.000
283.492;  -21.575; -264.000; -296.000
283.632;  -38.325; -254.000; -168.000
283.771;  -96.650; -859.000; -730.000
283.911;  -42.350; -369.000; -260.000
284.050;  -97.150; -794.000; -748.000
284.190; -127.675;-1229.000;-1096.000
284.329; -127.775;-1055.000; -964.000
284.469;  -63.050; -516.000; -591.000
284.608;  -49.275; -559.000; -598.000
284.748;  -58.700; -614.000; -570.000
284.887;    9.325;  -87.000;  -20.000
285.027; -102.500; -844.000; -892.000
285.166;  -39.300; -192.000; -249.000
285.306;   -4.350; -116.000;  -33.000
285.445;  -26.625; -229.000; -343.000
285.584;  -59.250; -630.000; -494.000
285.724;  -38.575; -282.000; -322.000
285.863;  -99.525; -857.000; -507.000
286.002;  -42.825; -366.000; -276.000
286.142;  -85.975; -715.000; -622.000
286.281;  -69.500; -525.000; -493.000
286.420;  -59.675; -554.000; -417.000
286.560;   79.500;  653.000;  623.000
286.699; -131.650; -958.000; -912.000
286.838;  -69.625; -590.000; -591.000
286.978;  -79.075; -533.000; -537.000
287.117; -127.625;-1085.000; -950.000
287.256;  -21.925; -228.000; -211.000
287.395;  -39.075; -197.000; -378.000
287.535;  -46.750; -370.000; -298.000
287.674;  -54.950; -509.000; -484.000
287.813;   54.475;  661.000;  533.000
287.952; -118.575;-1010.000; -871.000
288.091; -132.625;-1049.000; -915.000
288.231;    0.400;   13.000;   15.000
288.370; -142.575;-1217.000;-1200.000
288.509;  -85.625; -728.000; -645.000
288.648;  -72.600; -770.000; -548.000
288.787;  -13.925; -243.000;  -87.000
288.926;  -49.850; -454.000; -475.000
289.065;  106.475;  859.000;  672.000
289.204;  -36.250; -377.000; -217.000
289.344;  -82.725; -791.000; -690.000
289.483;   27.900;  416.000;  304.000
289.622;  -21.675; -291.000; -149.000
289.761;   -4.900; -309.000; -166.000
289.900; -107.700; -785.000; -626.000
290.039;    0.025;  -12.000;  -95.000
290.178;  -30.875; -274.000; -180.000
290.317;  -67.950; -618.000; -479.000
290.456;  -44.800; -463.000; -451.000
290.595; -109.875; -961.000; -833.000
290.734; -125.475; -904.000; -891.000
290.873;  -55.350; -456.000; -420.000
291.011;  -96.575; -833.000; -843.000
291.150;  -97.175; -770.000; -682.000
291.289;  -24.525; -343.000; -110.000
291.428;  -85.450; -599.000; -480.000
291.567;  -40.100; -370.000; -442.000
291.706;   12.150;  109.000;  154.000
291.845;  -64.500; -597.000; -505.000
291.984; -146.925;-1234.000;-1061.000
292.122;   69.275;  602.000;  582.000
292.261;   41.025;  620.000;  463.000
292.400;   14.325; -144.000;  211.000
292.539; -105.525; -959.000; -813.000
292.678;  -12.425; -325.000; -300.000
292.816; -133.425;-1136.000; -965.000
292.955;  -87.550; -844.000; -684.000
293.094;  -30.850; -173.000; -337.000
293.233;  -45.775; -556.000; -400.000
293.371;  -30.500; -225.000;  -84.000
293.510;  -92.175; -866.000; -780.000
293.649; -101.400; -959.000; -924.000
293.787; -111.025;-1083.000;-1012.000
293.926;    8.400; -113.000;  -32.000
294.065;  -40.450; -379.000; -290.000
294.203;   40.650;  298.000;  406.000
294.342;   44.225;   74.000;  156.000
294.481; 4982.675;51180.000; -836.000
294.619;  -31.575; -425.000; -582.000
294.758; -132.075;-1230.000;-1137.000
294.896;   21.450; -125.000;    5.000
295.035; -122.375;-1040.000;-1006.000
295.174; -103.275;-1082.000; -954.000
295.312;  -31.025; -323.000; -203.000
295.451;  -37.050; -307.000; -428.000
295.589;  -54.750; -389.000; -518.000
295.728;   14.750; -292.000; -165.000
295.866;   10.550;  -36.000;  -51.000
296.005;  -50.725; -584.000; -341.000
296.143;  -60.075; -558.000; -596.000
296.282;  -84.750; -957.000; -881.000
296.420;  -66.200; -657.000; -557.000
296.559;  -66.425; -892.000; -633.000
296.697;  -17.275; -847.000; -665.000
296.835;  -54.375;-1141.000;-1002.000
296.974;   56.075;  -23.000;   39.000
297.112;   -5.950; -443.000; -504.000
297.251;  -32.725; -815.000; -755.000
297.389;   22.325; -576.000; -438.000
297.527;   35.225; -145.000;  -83.000
297.666;  -42.975; -486.000; -438.000
297.804;  -37.550; -404.000; -264.000
297.942;    6.725; -136.000; -161.000
298.081;   12.250; -183.000;   63.000
298.219;   28.600;  -17.000;  -19.000
298.357;   -2.725; -144.000;  -71.000
298.495;  -68.075; -810.000; -812.000
298.634;   24.175;  245.000;  219.000
298.772;  -14.425; -220.000; -338.000
298.910;  -41.800; -309.000; -182.000
299.048;   -6.625; -130.000; -153.000
299.187;  -31.025; -350.000; -250.000
299.325;    5.150;   52.000;  122.000
299.463;  -23.875; -389.000; -299.000
299.601;   13.850; -327.000; -271.000
299.739; -117.075; -908.000; -883.000
299.877;  -79.875; -791.000; -703.000
300.016;  -95.250;-1095.000; -935.000
300.154;   58.225;  -19.000; -161.000
300.292;  -24.700; -428.000; -348.000
300.430;  -25.900; -408.000; -291.000
300.568;  -99.575; -940.000; -874.000
300.706;  -53.100; -366.000; -469.000
300.844; -113.425;-1108.000; -979.000
300.982;   76.400;  246.000;  282.000
301.120; -120.025; -965.000; -866.000
301.258;  -78.150; -812.000; -705.000
301.396;   23.250;  104.000;  -41.000
301.534;   -6.625; -218.000; -293.000
301.672;  -45.775; -664.000; -521.000
301.810;  -50.950; -613.000; -545.000
301.948;   58.425;   53.000;  149.000
302.086;  179.550; -250.000;  -32.000
302.224;  218.250; -610.000; -585.000
302.362;  -55.750; -558.000; -622.000
302.500;  -97.200; -923.000; -893.000
302.638;   45.725;  128.000;  245.000
302.776;  -24.875; -352.000; -408.000
302.913;   44.600;  447.000;  236.000
303.051;   -7.100;  -86.000;  -23.000
303.189;   19.300;   90.000;  118.000
303.327;  -30.275; -341.000; -256.000
303.465;  -68.350; -832.000; -588.000
303.603;  -81.400; -805.000; -604.000
303.740;   52.100;  417.000;  241.000
303.878;  -62.375; -800.000; -759.000
304.016;  -84.175; -915.000; -790.000
304.154; -134.975;-1123.000;-1152.000
304.291;  -54.375; -505.000; -554.000
304.429;   12.600;  102.000;   74.000
304.567; -122.650; -908.000; -893.000
304.705;  -54.975; -408.000; -515.000
304.842;  -39.600; -616.000; -540.000
304.980;   36.800;  215.000;   35.000
305.118;   -2.025; -367.000; -365.000
305.255; -101.150; -945.000; -927.000
305.393;   46.075;  178.000;  239.000
305.531; -115.900;-1173.000; -956.000
305.668;  -68.925; -663.000; -582.000
305.806;    8.475; -358.000; -439.000
305.943;  -14.850; -629.000; -637.000
306.081;   -7.475; -378.000; -267.000
306.219;  -93.225; -863.000; -748.000
306.356;   45.125;  158.000;   27.000
306.494;  186.750;  981.000;  761.000
306.631;   37.300;  -11.000;  -55.000
306.769;   46.425; -613.000; -485.000
306.906;   36.025; -284.000; -258.000
307.044;   -1.525; -473.000; -488.000
307.181;  -18.375; -410.000; -332.000
307.319;   44.500;  112.000;   87.000
307.456; -141.375;-1191.000;-1153.000
307.594;  -86.675; -980.000; -727.000
307.731;   -7.650; -371.000; -164.000
307.868;   29.300;  -15.000;   20.000
308.006;  -98.300; -961.000; -847.000
308.143;  -44.950; -618.000; -330.000
308.281;   60.200;  -37.000; -254.000
308.418;  -31.975; -748.000; -640.000
308.555;  -42.325; -400.000; -250.000
308.693;  -44.075; -577.000; -573.000
308.830;  -52.300; -712.000; -657.000
308.967;   11.200; -215.000;  -95.000
309.105;   57.650; -507.000; -396.000
309.242;   36.850; -468.000; -367.000
309.379;   96.475; -577.000; -655.000
309.517;  -55.275; -936.000; -948.000
309.654;  -31.275; -910.000; -734.000
309.791;  -26.650; -662.000; -580.000
309.928;  -58.575; -977.000; -914.000
310.065;  169.775;  819.000;  697.000
310.203;  -24.800; -825.000; -850.000
310.340;   35.725; -465.000; -321.000
310.477;  -50.200; -412.000; -516.000
310.614;  -11.600; -383.000; -473.000
310.751;  -16.350; -427.000; -518.000
310.889;   17.475;    1.000;   11.000
311.026;  -92.375;-1161.000; -939.000
311.163;  -21.100; -386.000; -380.000
311.300;  -21.950; -512.000; -479.000
311.437;  -34.675; -658.000; -619.000
311.574; -104.425;-1226.000; -985.000
311.711;  -25.325; -595.000; -433.000
311.848;   13.375; -380.000; -388.000
311.985;   80.125;  270.000;   93.000
312.122;  -81.525; -932.000; -762.000
312.259;  -42.400; -941.000; -994.000
312.396;   15.175; -508.000; -551.000
312.533;   -9.325; -812.000; -790.000
312.670;  -72.575;-1070.000; -898.000
312.807;   34.975; -352.000; -367.000
312.944;   -4.300; -513.000; -611.000
313.081;   44.500; -150.000; -415.000
313.218;  -48.550;-1111.000; -867.000
313.355;    8.100; -531.000; -449.000
313.492;   42.025; -455.000; -292.000
313.629;  165.050;  815.000;  735.000
313.766;  -93.575;-1176.000;-1008.000
313.902;   24.725; -186.000;   21.000
314.039;  -25.925; -372.000; -289.000
314.176;   64.050;  286.000;  192.000
314.313;  -25.575; -569.000; -473.000
314.450;  -21.650; -788.000; -684.000
314.587;  -32.375; -468.000; -480.000
314.723;   47.325;  -78.000;  130.000
314.860;   91.400;  318.000;  332.000
314.997;   62.800;  223.000;  142.000
315.134;   23.300; -385.000; -368.000
315.270;    4.725; -480.000; -496.000
315.407;  -64.000;-1094.000; -967.000
315.544;    4.000; -657.000; -538.000
315.681;  -19.625; -681.000; -565.000
315.817;   80.800; -133.000; -176.000
315.954;   82.725; -613.000; -392.000
316.091;  -95.725;-1045.000;-1023.000
316.227;    4.175;  -71.000; -179.000
316.364;   23.700;   23.000;    6.000
316.500;  -16.575; -113.000; -300.000
316.637;  -21.000; -181.000; -302.000
316.774;  -56.875; -625.000; -358.000
316.910;  -60.550; -598.000; -629.000
317.047;  -24.725; -487.000; -351.000
317.183;  -42.725; -435.000; -566.000
317.320;   47.450; -367.000; -321.000
317.456;  -26.275; -733.000; -805.000
317.593;  -51.525; -598.000; -641.000
317.729;    1.300;  168.000;  -67.000
317.866; -166.250;-1434.000;-1285.000
318.002;  -83.775; -708.000; -948.000
318.139;  -81.075; -883.000; -867.000
318.275;  -87.875;-1003.000; -738.000
318.412;  -44.100; -517.000; -336.000
318.548;  -67.200; -751.000; -720.000
318.685;  -71.000; -985.000; -888.000
318.821;  -80.650; -762.000; -735.000
318.957;   13.025;   34.000;  -23.000
319.094;   40.850;  297.000;  154.000
319.230;  -71.725; -756.000; -742.000
319.367;    3.475; -471.000; -520.000
319.503;   -9.900; -538.000; -436.000
319.639;  -79.625; -877.000; -793.000
319.775;  -68.675; -750.000; -685.000
319.912;  -56.325; -424.000; -519.000
320.048;  -90.325;-1184.000;-1184.000
320.184;   78.950;   59.000;   70.000
320.321;  -29.450; -497.000; -467.000
320.457;   73.550;  475.000;  662.000
320.593;  -58.250; -375.000; -382.000
320.729;  -87.850; -732.000; -734.000
320.866;  -58.475; -577.000; -635.000
321.002;  -83.900; -759.000; -809.000
321.138;  -28.925; -135.000; -211.000
321.274;   35.225; -148.000; -115.000
321.410;  -44.125; -585.000; -353.000
321.546;  -89.725;-1011.000; -911.000
321.683;   49.075;  400.000;  185.000
321.819;   -3.900;  -48.000; -117.000
321.955;  -97.775; -743.000; -722.000
322.091;  -67.550; -585.000; -540.000
322.227;  -21.875; -382.000; -202.000
322.363;  -32.950; -320.000; -215.000
322.499;  -36.350; -343.000; -331.000
322.635;   84.100;  636.000;  443.000
322.771;   13.500; -139.000;   12.000
322.907;   51.775;  129.000;  327.000
323.043;  -20.500; -115.000; -206.000
323.179;  -28.225; -394.000; -363.000
323.315;  -25.925; -401.000; -371.000
323.451;   26.075; -328.000; -236.000
323.587;   65.950;  -60.000;  -77.000
323.723;  -41.300; -682.000; -601.000
323.859;  -22.275; -258.000;  -76.000
323.995;  -46.450; -467.000; -409.000
324.131; -102.675; -967.000; -892.000
324.267;  -27.000; -254.000; -276.000
324.402; -121.425; -960.000; -983.000
324.538;  -32.300; -279.000; -104.000
324.674;   12.400;  164.000;   77.000
324.810;   55.325;  226.000;  308.000
324.946;  -29.700; -810.000; -658.000
325.082;  -75.025; -568.000; -475.000
325.217;    0.075;  -62.000;   16.000
325.353;  -81.325; -764.000; -659.000
325.489;  -75.400; -540.000; -506.000
325.625;  -51.625; -579.000; -525.000
325.760;   80.800;  517.000;  376.000
325.896;   12.275; -515.000; -702.000
326.032;  -35.300; -403.000; -352.000
326.168;  -50.975; -462.000; -369.000
326.303;  -27.650; -352.000; -461.000
326.439;   -8.775; -336.000; -276.000
326.575;   -3.175; -190.000;  -29.000
326.710;   -3.225; -156.000;  -30.000
326.846;   -2.150;  146.000;  103.000
326.982;  -66.450; -530.000; -548.000
327.117;  -53.925; -481.000; -442.000
327.253;  -66.975; -745.000; -742.000
327.388; -146.825;-1137.000;-1153.000
327.524;  -73.775; -811.000; -578.000
327.659;    0.850;  -58.000;  -22.000
327.795;    1.800;   69.000;   45.000
327.931;  -60.250; -723.000; -499.000
328.066;  -14.725; -417.000; -276.000
328.202;  -31.450;   12.000; -129.000
328.337;  102.575;  957.000;  713.000
328.473;   45.975;  -12.000;  -74.000
328.608;    7.650; -256.000; -267.000
328.743;  -91.125; -799.000; -664.000
328.879;   22.075;  214.000;  114.000
329.014;  -19.525; -102.000; -122.000
329.150;  -71.525; -358.000; -483.000
329.285;  -71.075; -465.000; -466.000
329.421;  -26.725; -548.000; -246.000
329.556;   -6.250;  -36.000;   85.000
329.691;  -62.725; -633.000; -615.000
329.827;  -66.475; -626.000; -480.000
329.962;  -16.075;  131.000; -301.000
330.097;  -53.000; -673.000; -585.000
330.233;  -33.075; -410.000; -223.000
330.368;  -92.675; -839.000; -628.000
330.503;    0.400;    3.000;   98.000
330.638;   -3.675;  -93.000; -125.000
330.774;  -67.275; -609.000; -530.000
330.909;  -41.975; -434.000; -244.000
331.044;  -81.375; -714.000; -708.000
331.179; -153.650;-1217.000;-1109.000
331.315;   12.875;   77.000;   20.000
331.450;   18.600;  157.000;  285.000
331.585;  -70.600; -805.000; -706.000
331.720;  -77.150; -510.000; -460.000
331.855;    3.500;  -35.000; -102.000
331.990;  380.775;   62.000;  138.000
332.126;  196.450; -110.000;   71.000
332.261;   12.850; -379.000; -265.000
332.396;   37.300; -135.000; -242.000
332.531;  -52.925;-1074.000;-1031.000
332.666;   84.750; -519.000; -363.000
332.801;  -80.000; -726.000; -807.000
332.936;  -20.425; -192.000; -122.000
333.071; -126.025; -870.000; -817.000
333.206;   24.250;  307.000;  379.000
333.341;   33.350;  344.000;  418.000
333.476;  -69.900; -627.000; -623.000
333.611;  -29.350; -251.000; -173.000
333.746;  -33.650; -381.000; -464.000
333.881; -107.775; -973.000; -935.000
334.016; -100.250; -936.000; -917.000
334.151;  -78.825; -746.000; -702.000
334.286;   17.950;  152.000;  186.000
334.421;    9.675; -125.000; -178.000
334.556;  -62.900; -611.000; -567.000
334.690;  -56.925; -631.000; -577.000
334.825;   61.850;  381.000;   83.000
334.960;  -37.375; -285.000; -413.000
335.095;   31.250;  135.000;  -91.000
335.230;  -63.700; -722.000; -738.000
335.365; -102.825;-1084.000; -990.000
335.499;  -93.625;-1108.000;-1037.000
335.634;   32.250;    9.000;  534.000
335.769;  -58.750; -755.000; -720.000
335.904;  -29.850; -603.000; -561.000
336.038;  -13.075; -735.000; -657.000
336.173;  -66.300;-1206.000;-1194.000
336.308;   57.375; -116.000; -189.000
336.443;   73.525; -544.000; -634.000
336.577;  -19.800; -936.000; -787.000
336.712;   99.250;   -4.000;  -12.000
336.847;   10.925; -724.000; -607.000
336.981;  105.250; -272.000; -208.000
337.116;  326.275;  615.000;  501.000
337.250;  150.725; -434.000; -421.000
337.385;  378.725; -297.000; -208.000
337.520;  174.525; -632.000; -603.000
337.654;   -4.875; -215.000; -126.000
337.789; -109.375; -989.000; -933.000
337.923;  -33.375; -104.000; -205.000
338.058;  -94.875; -673.000; -738.000
338.192;  -40.300; -611.000; -488.000
338.327;  -11.300;  -18.000; -155.000
338.461;  -51.475; -299.000; -469.000
338.596;  -78.650; -780.000; -638.000
338.730;  -73.975; -767.000; -803.000
338.865;  155.625;  -46.000; -140.000
338.999;   17.325; -846.000; -702.000
339.134;    4.200; -634.000; -536.000
339.268;   34.875; -741.000; -603.000
339.403;  483.250; -740.000; -775.000
339.537;  236.650; -894.000; -820.000
339.671;  -92.625; -829.000; -813.000
339.806;  -25.200; -556.000; -512.000
339.940;   44.050; -261.000; -235.000
340.074;  -86.725; -685.000; -510.000
340.209;  -44.450; -351.000; -230.000
340.343;  -76.075; -517.000; -573.000
340.477;  142.000;  998.000; 1036.000
340.612;  -10.300;-1033.000; -900.000
340.746;  184.100; -199.000; -243.000
340.880;  -89.050; -924.000; -785.000
341.014;  -31.400;  -45.000; -154.000
341.149; -102.175; -756.000; -718.000
341.283; -100.925; -839.000; -754.000
341.417; -115.950;-1124.000; -938.000
341.551;  -20.850; -768.000; -708.000
341.685;  -53.775; -633.000; -611.000
341.820;  -39.900; -562.000; -493.000
341.954;  -42.025; -218.000; -349.000
342.088; -129.925;-1102.000;-1019.000
342.222;   64.800;  565.000;  618.000
342.356;  -61.375; -395.000; -335.000
342.490;  -94.800; -880.000; -841.000
342.624;  -57.500; -339.000; -242.000
342.758;  -37.350; -364.000; -312.000
342.892;  -83.800; -710.000; -585.000
343.026;  -33.300;  -58.000; -116.000
343.160;  -54.450; -426.000; -376.000
343.294;  -67.975; -474.000; -337.000
343.428;  -47.125; -488.000; -448.000
343.562;  -23.200; -172.000;  -23.000
343.696;  -32.525; -385.000; -314.000
343.830;  -36.300; -362.000; -356.000
343.964;  -15.700; -231.000; -168.000
344.098;  300.475;  199.000;   70.000
344.232;  256.775; -266.000; -127.000
344.366;   64.550; -567.000; -453.000
344.500;  -37.375; -665.000; -744.000
344.634;  -21.650; -324.000; -164.000
344.768;  -45.200; -531.000; -341.000
344.902;    9.975;  278.000;  256.000
345.035;  -61.500; -556.000; -496.000
345.169; -131.200; -933.000; -656.000
345.303;  -38.250; -308.000; -482.000
345.437;  -97.125; -826.000; -717.000
345.571;  -69.100; -675.000; -594.000
345.704;  -48.875; -309.000; -532.000
345.838;  -24.250; -331.000; -284.000
345.972;  -45.650; -543.000; -495.000
346.106;  210.350; -179.000; -190.000
346.239;  444.575; -312.000; -243.000
346.373;    3.225; -343.000; -302.000
346.507; -120.600; -950.000; -962.000
346.640;   47.400;  -30.000;   13.000
346.774;  -72.775; -650.000; -797.000
346.908;  -24.550; -138.000;  -11.000
347.041;  -83.100; -646.000; -593.000
347.175;   -1.525;  259.000;   27.000
347.309;  -76.750; -698.000; -628.000
347.442; -113.650; -883.000; -732.000
347.576;  136.475;  670.000;  668.000
347.709;   60.450; -123.000;  -52.000
347.843;  -85.050; -933.000; -825.000
347.976;   33.550;  235.000;  294.000
348.110; -149.450;-1268.000;-1186.000
348.243;  -79.825; -679.000; -772.000
348.377;   13.875;  -26.000;   60.000
348.510;   61.300;  403.000;  540.000
348.644;  -21.375;  -37.000; -159.000
348.777;   11.875;  180.000;  191.000
348.911;  -25.950; -142.000; -112.000
349.044;   94.575;  471.000;  448.000
349.178;   -0.225;-1069.000;-1006.000
349.311;  108.925;  141.000;  255.000
349.444;   39.150; -927.000; -813.000
349.578;  -15.825; -347.000; -200.000
349.711; -102.950; -959.000; -862.000
349.845;  -64.750; -661.000; -591.000
349.978; -144.350;-1224.000;-1137.000
350.111;  -79.250; -546.000; -612.000
350.244;  -68.500; -596.000; -700.000
350.378;  -44.000; -392.000; -393.000
350.511;  -77.800; -393.000; -426.000
350.644;  -93.650; -808.000; -806.000
350.778;   33.200;  168.000;  104.000
350.911;   11.475;  134.000;  140.000
351.044;  -79.400; -685.000; -615.000
351.177;  -32.075; -321.000; -281.000
351.310;    1.075;    3.000; -131.000
351.444;  -91.500; -888.000; -788.000
351.577;   59.800;  140.000;   90.000
351.710;   81.100;  593.000;  417.000
351.843;  -19.700; -165.000;  -77.000
351.976;   -0.650;  149.000;  -79.000
352.109;  -75.300; -621.000; -612.000
352.242;  -34.925; -464.000; -419.000
352.376;  -68.375; -580.000; -636.000
352.509;   17.250; -437.000; -356.000
352.642;  -83.225; -654.000; -604.000
352.775;    0.700; -141.000;  -98.000
352.908;  -96.325; -933.000; -904.000
353.041;  -86.850; -814.000; -824.000
353.174;  -40.450; -551.000; -424.000
353.307;  -82.300; -753.000; -764.000
353.440;   82.600;  541.000;  453.000
353.573;  -82.850; -957.000;-1008.000
353.706;  -33.050; -384.000; -558.000
353.839;  -14.475; -264.000; -220.000
353.971;  -76.100; -657.000; -512.000
354.104;  -89.175; -896.000; -835.000
354.237;  -61.450; -627.000; -662.000
354.370;  -75.450; -846.000; -879.000
354.503; -156.775;-1231.000;-1308.000
354.636;   19.525; -529.000; -348.000
354.769;  -96.100; -937.000; -860.000
354.902;   -2.100; -230.000; -139.000
355.034;    1.100; -164.000; -220.000
355.167;   15.075; -262.000; -162.000
355.300;  -43.525;-1061.000; -880.000
355.433; 1405.800;  -71.000;  -14.000
355.565; 2164.350; -402.000; -384.000
355.698;  525.875; -356.000; -296.000
355.831;    4.125; -882.000; -801.000
355.964;   50.825; -285.000; -170.000
356.096;  -49.000; -856.000; -843.000
356.229;   39.225; -523.000; -530.000
356.362;  483.050; -373.000; -266.000
356.494;  848.500; -229.000; -162.000
356.627;  343.150;  269.000;  377.000
356.760;  850.925;  120.000;   53.000
356.892; 1412.800; -286.000; -601.000
357.025;  362.125;  403.000;  389.000
357.157;  261.025; -167.000; -179.000
357.290;  945.750; -856.000; -713.000
357.423;  300.350; -667.000; -556.000
357.555;  120.125; -217.000; -228.000
357.688;  160.300; -483.000; -364.000
357.820;  163.875; -870.000; -877.000
357.953; 1321.325; -563.000; -589.000
358.085;  222.875; -632.000; -612.000
358.218;  219.025;-1131.000; -932.000
358.350;   82.450;  -58.000;  312.000
358.483; -130.775;-1300.000;-1187.000
358.615; -104.400;-1182.000;-1078.000
358.747; -123.575;-1187.000;-1058.000
358.880;  -34.475; -810.000; -744.000
359.012;   -6.925; -376.000; -202.000
359.145;  -56.600; -480.000; -511.000
359.277;  -43.175; -962.000; -913.000
359.409; 1157.350;  536.000;  231.000
359.542;  257.925; -738.000; -688.000
359.674;   40.625;   46.000;   13.000
359.806;  -55.900; -565.000; -438.000
359.939;  -32.375; -617.000; -516.000
360.071;   23.950; -583.000; -579.000
360.203;  -14.950; -411.000; -364.000
360.335;   33.475;  164.000;  -16.000
360.468;   89.350; -249.000; -307.000
360.600; 1151.250; -547.000; -454.000
360.732; 3580.725; -546.000; -423.000
360.864;  560.950;-1216.000;-1044.000
360.996;   97.775; -516.000; -554.000
361.129;  -15.300; -389.000; -598.000
361.261;   -4.275;  110.000; -113.000
361.393;  -35.050; -252.000; -214.000
361.525;    6.275;   94.000;  244.000
361.657;  -89.975; -821.000; -703.000
361.789;   -9.800; -139.000; -155.000
361.921;  -11.275; -642.000; -593.000
362.053;  107.175;  524.000;  541.000
362.185;   17.550;  288.000;   72.000
362.318;  -87.375; -709.000; -705.000
362.450;   67.875;  294.000;  444.000
362.582;  -51.450; -913.000; -870.000
362.714;  -49.450; -353.000; -332.000
362.846;  -78.600; -606.000; -490.000
362.978; -125.725; -941.000; -811.000
363.109;  -36.000; -161.000; -260.000
363.241;  177.050; -739.000; -749.000
363.373;  587.800; -649.000; -564.000
363.505;  955.000; -186.000;  -91.000
363.637;  212.500; -787.000; -601.000
363.769; -108.750;-1067.000;-1080.000
363.901;  -78.025; -596.000; -654.000
364.033; -121.225;-1103.000;-1062.000
364.165;  -12.825; -283.000; -283.000
364.296;   91.375; -316.000; -177.000
364.428;  189.725;-1344.000;-1220.000
364.560;  -41.650; -679.000; -661.000
364.692;  -66.650; -738.000; -835.000
364.824;   17.250; -588.000; -456.000
364.955;  417.900; -402.000; -564.000
365.087; 1357.700;-1097.000; -852.000
365.219;   73.950; -686.000; -816.000
365.351;  -53.800; -526.000; -572.000
365.482;   16.800;  300.000;  240.000
365.614;  -45.875; -402.000; -314.000
365.746;  -95.175; -729.000; -752.000
365.877;  -87.475; -706.000; -672.000
366.009;  370.600;  -35.000;  -62.000
366.141;  -27.300;-1249.000;-1134.000
366.272;  -87.125; -803.000; -719.000
366.404;  -96.550;-1005.000; -874.000
366.535;   -7.850; -139.000;  -12.000
366.667;  -95.050; -644.000; -649.000
366.799;   29.625;  353.000;  203.000
366.930; -103.175; -862.000; -996.000
367.062;  162.125; -639.000; -613.000
367.193;  310.600; -872.000; -842.000
367.325;  -30.250; -580.000; -684.000
367.456;   19.575; -246.000;   31.000
367.588;  234.675; -371.000; -318.000
367.719;   44.425;  -44.000;  -45.000
367.851;  -28.450; -222.000; -241.000
367.982;  -93.400; -875.000; -732.000
368.113;   -9.350; -475.000; -358.000
368.245; -115.100; -960.000; -841.000
368.376;  -39.250; -254.000; -302.000
368.508;  -34.425; -188.000; -263.000
368.639; -137.275;-1166.000;-1034.000
368.770;  -71.525; -670.000; -589.000
368.902; -101.675; -836.000; -926.000
369.033; -102.575; -906.000; -855.000
369.164;   -8.700; -720.000; -653.000
369.296;  -89.000; -452.000; -601.000
369.427;   -3.100; -209.000; -144.000
369.558;  -46.425; -593.000; -377.000
369.689;  -64.725; -721.000; -569.000
369.821; -104.225; -951.000; -845.000
369.952;  -27.825;   42.000; -108.000
370.083;  -28.425; -229.000; -108.000
370.214;  -72.525; -735.000; -650.000
370.345;  -11.400;   65.000;   81.000
370.477; -100.625; -810.000; -790.000
370.608;   42.925; -328.000; -264.000
370.739; -109.575;-1233.000;-1292.000
370.870;  -73.225;-1102.000; -923.000
371.001;    4.225; -378.000; -467.000
371.132;  -81.500; -754.000; -735.000
371.263;   -8.150;  -42.000; -148.000
371.394; -108.675; -841.000; -748.000
371.525;   30.425;  345.000;  225.000
371.657; -101.425; -808.000; -670.000
371.788;   36.700;  103.000;  199.000
371.919;   26.550; -384.000; -304.000
372.050; 1165.525;  -91.000; -156.000
372.181;  379.675; -188.000; -294.000
372.311;  112.525;   42.000; -127.000
372.442;  -28.625; -457.000; -451.000
372.573;  -38.425; -444.000; -340.000
372.704; -112.625;-1008.000; -980.000
372.835;  -10.800; -228.000; -289.000
372.966;  -55.100; -646.000; -554.000
373.097;  -69.700; -575.000; -711.000
373.228;  -81.725; -717.000; -542.000
373.359;  -27.550; -824.000; -536.000
373.490;  165.550; -881.000; -727.000
373.620;  267.825;-1001.000; -803.000
373.751;  542.050; -332.000; -396.000
373.882;  237.100; -663.000; -733.000
374.013;    3.275; -449.000; -262.000
374.143;  -68.175; -581.000; -659.000
374.274; -112.700; -987.000; -908.000
374.405;   69.425; -388.000; -276.000
374.536;  142.275; -526.000; -387.000
374.666;  322.825; -759.000; -807.000
374.797;   11.325; -817.000; -868.000
374.928;  215.500; -710.000; -560.000
375.058;  209.625; -535.000; -500.000
375.189;   15.575;  -59.000;  -93.000
375.320; -100.900; -928.000;-1034.000
375.450;  -23.750; -625.000; -616.000
375.581;  -16.550; -526.000; -436.000
375.712;  -40.175; -574.000; -250.000
375.842;   28.725; -438.000; -415.000
375.973;   -4.125; -554.000; -513.000
376.103;  -80.225; -665.000; -648.000
376.234;  -86.050; -531.000; -552.000
376.364;  -97.000; -944.000; -867.000
376.495;  158.150;  925.000;  529.000
376.625;  -30.600; -472.000; -485.000
376.756;  -34.650; -709.000; -678.000
376.886; -112.350;-1178.000;-1026.000
377.017;  122.475;-1048.000;-1061.000
377.147;  594.100; -786.000; -782.000
377.278;   84.200;  174.000;  228.000
377.408; -102.350; -801.000; -815.000
377.538;  -82.225; -707.000; -693.000
377.669;  -66.150; -537.000; -613.000
377.799;  -87.175; -645.000; -635.000
377.929;  -60.800; -610.000; -428.000
378.060; -112.400; -781.000; -847.000
378.190;  -11.900; -726.000; -531.000
378.320;  -31.725; -401.000; -406.000
378.451;   12.975; -131.000;  -22.000
378.581;    0.075;  -67.000; -110.000
378.711;  126.025; 1035.000;  866.000
378.841;  -42.875; -533.000; -675.000
378.972;  -77.850; -871.000; -751.000
379.102;  -34.125; -652.000; -579.000
379.232;  -15.275; -126.000;  -73.000
379.362;  -99.075;-1001.000; -885.000
379.492;  -28.500; -373.000; -424.000
379.623;   55.300;    0.000;  111.000
379.753;  -99.000;-1107.000; -974.000
379.883;   77.075;   59.000;  156.000
380.013;  -63.800;-1081.000;-1017.000
380.143; -109.150;-1097.000;-1056.000
380.273;  -61.975; -985.000; -861.000
380.403;   28.825; -344.000; -257.000
380.533;  -23.550; -651.000; -664.000
380.663;   38.375;  173.000;  128.000
380.793; -118.975;-1027.000;-1074.000
380.923;  -16.350; -103.000;  -34.000
381.053;  -68.225; -613.000; -623.000
381.183;  -20.675; -106.000; -248.000
381.313;  -43.075; -656.000; -470.000
381.443;  -27.975; -692.000; -473.000
381.573;   22.100; -402.000; -409.000
381.703;  -40.800;-1249.000;-1095.000
381.833; -149.125;-1454.000;-1336.000
381.963;   44.300; -134.000;  -87.000
382.093;  356.100; -925.000; -909.000
382.223;  113.875; -713.000; -602.000
382.353;  -56.725; -801.000; -608.000
382.482;   32.325;-1091.000; -964.000
382.612;  200.425; -872.000; -644.000
382.742;   83.725; -695.000; -622.000
382.872;   19.400; -565.000; -551.000
383.002;   44.400;  347.000; -132.000
383.131;   -5.000; -226.000; -160.000
383.261;  -26.675; -706.000; -768.000
383.391;  287.650; -552.000; -377.000
383.521; 4288.750;  451.000;  263.000
383.650; 1317.650; -947.000; -904.000
383.780;   40.850; -783.000; -656.000
383.910;  108.100;  880.000;  802.000
384.039;  -61.300; -794.000; -656.000
384.169;  -40.625;-1205.000;-1017.000
384.299;  -53.850; -650.000; -662.000
384.428;  -99.925; -764.000; -680.000
384.558;  -34.925; -308.000; -275.000
384.687;  -54.300; -414.000; -334.000
384.817;   12.300;   75.000;   -2.000
384.947;    0.700; -234.000; -141.000
385.076;  180.800;  982.000;  912.000
385.206;   90.475;  369.000;  480.000
385.335;  -35.425; -549.000; -417.000
385.465;  -74.800; -655.000; -663.000
385.594;   40.650;  -53.000;  -44.000
385.724;   74.875; -868.000; -838.000
385.853;   12.575; -296.000; -270.000
385.982;  362.075; -743.000; -787.000
386.112;  671.975;-1052.000; -871.000
386.241;   45.550; -307.000; -312.000
386.371;  -21.700; -174.000;  -87.000
386.500;  -37.125; -825.000; -789.000
386.629;   14.950; -874.000; -817.000
386.759;  110.350;  -43.000;   68.000
386.888;   19.450; -170.000; -250.000
387.017;  -61.875; -648.000; -620.000
387.147;  -68.800; -771.000; -798.000
387.276;  -17.475; -410.000; -397.000
387.405;  -18.400; -398.000; -342.000
387.535;  -49.050; -452.000; -361.000
387.664;  -59.475; -692.000; -620.000
387.793;   13.375; -198.000; -113.000
387.922;  179.450;  255.000;  200.000
388.052;  -27.675; -576.000; -423.000
388.181;   -7.275; -342.000; -472.000
388.310;  -46.650; -889.000; -710.000
388.439;  -65.625; -749.000; -742.000
388.568;   71.600;  365.000;  244.000
388.697;  274.825; -756.000; -653.000
388.826;   28.225; -768.000; -666.000
388.956;   -7.350; -285.000; -307.000
389.085;  -15.925; -347.000; -287.000
389.214;  -82.275; -842.000; -872.000
389.343;  -55.900; -645.000; -413.000
389.472;  524.600;  126.000;  149.000
389.601;  610.050;   91.000;    0.000
389.730;   16.825; -568.000; -687.000
389.859;   64.925;  226.000;   46.000
389.988;   48.000; -423.000; -408.000
390.117;   55.675; -168.000; -146.000
390.246;  -18.775; -331.000; -320.000
390.375;  -22.900; -673.000; -626.000
390.504;  -76.300; -703.000; -621.000
390.633;  -81.025; -672.000; -726.000
390.761;  -70.250; -732.000; -645.000
390.890;   -0.800;   -4.000; -130.000
391.019;  -44.800; -421.000; -441.000
391.148;  -95.700; -826.000; -855.000
391.277;  -62.400; -576.000; -493.000
391.406;  -85.225; -821.000; -805.000
391.534;   32.375;  574.000; -301.000
391.663;  -70.800; -583.000; -645.000
391.792;  -86.550; -673.000; -701.000
391.921;   21.800;   -3.000;   15.000
392.050;   38.550; -287.000; -228.000
392.178;  -89.850;-1206.000;-1061.000
392.307;  -23.025; -758.000; -712.000
392.436;  -29.325; -427.000; -641.000
392.564;   20.125;  166.000;   -6.000
392.693;  -68.325; -860.000; -682.000
392.822;   47.150; -529.000; -534.000
392.950;  -15.850; -880.000; -714.000
393.079;   90.950; -188.000; -328.000
393.208;   -1.600; -488.000; -511.000
393.336;   16.025; -170.000; -145.000
393.465;  -32.050; -317.000; -199.000
393.593;   20.150;   62.000;   79.000
393.722; -107.950;-1121.000; -916.000
393.850;  -12.025; -188.000;  -61.000
393.979; -119.200; -926.000; -805.000
394.107;  -29.450; -517.000; -537.000
394.236;  -27.525; -570.000; -507.000
394.364;  128.325;  383.000;  206.000
394.493;   84.350; -911.000; -767.000
394.621;   28.875; -955.000; -916.000
394.750; 1137.225; -873.000; -923.000
394.878; 4341.300; -247.000; -149.000
395.007; 6460.100; -721.000; -807.000
395.135;  607.275; -790.000; -721.000
395.263;  -34.175;-1038.000;-1040.000
395.392;   15.875;  -25.000; -107.000
395.520; -119.200; -818.000; -679.000
395.648;  -94.025; -865.000; -915.000
395.777;  -57.475; -366.000; -405.000
395.905;  -54.325; -449.000; -564.000
396.033;    7.900;  217.000;  172.000
396.162;   93.075; -399.000; -453.000
396.290;  127.000;  -17.000;   -2.000
396.418;  -34.450; -555.000; -514.000
396.546;  -71.975; -571.000; -466.000
396.674; -115.825; -850.000; -878.000
396.803;   -4.150;  -72.000;  -23.000
396.931;  -19.200; -179.000; -199.000
397.059; -101.450;-1026.000; -989.000
397.187; -121.175;-1026.000; -975.000
397.315; -114.400; -884.000; -649.000
397.443;  -87.950; -592.000; -443.000
397.572;  -71.700; -578.000; -424.000
397.700;  -75.350; -607.000; -614.000
397.828;  -32.875;  120.000;  -90.000
397.956;  -21.800; -508.000; -478.000
398.084;  -18.925; -767.000; -626.000
398.212;    6.075;  137.000;  124.000
398.340;  -12.075;  -56.000;  159.000
398.468;  -41.550; -390.000; -169.000
398.596; -130.450; -993.000; -953.000
398.724; -108.975; -762.000; -767.000
398.852; -154.775;-1024.000; -976.000
398.980;  -73.700; -560.000; -560.000
399.108;  -82.525; -982.000; -735.000
399.236;   -4.250;   13.000;    8.000
399.363;    7.900;  222.000;  196.000
399.491;  -41.275; -404.000; -398.000
399.619;  -93.300; -829.000; -800.000
399.747; -102.075; -859.000; -771.000
399.875;   56.425;  220.000;  234.000
400.003;  -54.675; -359.000; -284.000
400.130;  -75.150; -421.000; -341.000
400.258;  -31.700;  -83.000;   38.000
400.386;  -63.075; -352.000; -168.000
400.514;  -83.650; -526.000; -587.000
400.641; -119.025; -928.000; -802.000
400.769; -141.850; -979.000; -888.000
400.897; -106.025; -838.000; -793.000
401.025;  -36.250; -166.000; -152.000
401.152;    5.875;  220.000;   38.000
401.280;  -75.375; -430.000; -429.000
401.408;  -84.575; -712.000; -576.000
401.535;  -95.750; -735.000; -758.000
401.663; -177.825;-1134.000;-1054.000
401.790;  -92.050; -514.000; -525.000
401.918;   51.750;  436.000;  405.000
402.046;   -6.875;  134.000;  122.000
402.173;  -25.150;  -18.000;    7.000
402.301;  -60.700; -519.000; -397.000
402.428;   46.600;  528.000;  383.000
402.556; -126.775;-1188.000; -913.000
402.683;  -18.000;  -20.000;   -1.000
402.811;   -3.825;  -37.000; -206.000
402.938;    1.425;   20.000;   27.000
403.066;   26.725; -574.000; -558.000
403.193;  111.300;  299.000;  239.000
403.321;   84.950; -396.000; -574.000
403.448;  137.925;   83.000;   27.000
403.575;   68.975;  -90.000;  -46.000
403.703;  -67.475; -732.000; -557.000
403.830;  -29.775; -531.000; -496.000
403.957;  -96.575;-1117.000;-1023.000
404.085;   54.350;  -61.000; -172.000
404.212;  131.275;  -50.000;   63.000
404.339;  460.575; -566.000; -306.000
404.467; 8602.250; -612.000; -524.000
404.594; 5415.475; -287.000; -227.000
404.721;  994.650; -869.000; -764.000
404.848;  130.500; -113.000; -202.000
404.976;  -65.900; -856.000; -783.000
405.103;    3.300;  -14.000;  -82.000
405.230;   41.725;  190.000;  226.000
405.357;   93.225;  117.000;   44.000
405.484;  422.950;  -49.000;    5.000
405.612;  135.225; -548.000; -563.000
405.739;  -24.350; -488.000; -243.000
405.866;   79.925;  669.000;  385.000
405.993;  -41.925; -398.000; -102.000
406.120; -123.225; -801.000; -887.000
406.247;  -56.300; -323.000; -342.000
406.374;  129.325;  540.000;  629.000
406.501;  -39.425; -632.000; -702.000
406.628;  -77.200; -621.000; -589.000
406.755;  -85.650; -803.000; -620.000
406.882;  -45.725; -228.000; -277.000
407.009;  -82.700; -719.000; -628.000
407.136;   -9.650; -480.000; -401.000
407.263;   13.400; -939.000; -829.000
407.390;  -67.100; -692.000; -614.000
407.517; -144.425;-1139.000;-1187.000
407.644;  -43.900; -332.000; -256.000
407.771;  -47.875; -249.000; -287.000
407.898;    2.200;  168.000;  328.000
408.025;  -81.025; -421.000; -313.000
408.151;   27.375;   82.000;  153.000
408.278;  -57.250; -267.000; -216.000
408.405; -122.850; -931.000; -899.000
408.532;  -65.825; -549.000; -542.000
408.659; -116.325; -677.000; -648.000
408.785; -165.000;-1298.000;-1170.000
408.912;  -58.575; -412.000; -296.000
409.039;  -90.125; -610.000; -686.000
409.166;  -85.750; -591.000; -555.000
409.292;  -83.900; -571.000; -534.000
409.419; -102.750; -665.000; -649.000
409.546;  -72.775; -431.000; -192.000
409.672;  -92.500; -713.000; -545.000
409.799;  -17.800;  -36.000;   34.000
409.926;  -47.450; -180.000; -179.000
410.052; -152.575;-1127.000;-1091.000
410.179;  -60.100; -368.000; -392.000
410.305;  -70.225; -375.000; -493.000
410.432;   -4.750; -220.000; -333.000
410.558;  -58.775; -305.000; -380.000
410.685;  -94.575; -688.000; -431.000
410.812;  -86.825; -409.000; -588.000
410.938; -126.600; -964.000; -808.000
411.065;  -88.700; -671.000; -645.000
411.191;  -31.175; -189.000; -174.000
411.317; -118.250; -823.000; -742.000
411.444;  -56.825; -317.000; -246.000
411.570;  -65.100; -339.000; -294.000
411.697; -102.700; -758.000; -752.000
411.823; -148.450; -989.000; -999.000
411.949;  -38.450;  -56.000;   17.000
412.076; -104.225; -539.000; -519.000
412.202; -120.375; -758.000; -757.000
412.329; -112.675; -798.000; -752.000
412.455; -103.700; -821.000; -657.000
412.581;  -27.350;  -15.000;  172.000
412.707;  -79.475; -540.000; -457.000
412.834;    3.325;  156.000;  219.000
412.960; -102.700; -785.000; -784.000
413.086;  -86.875; -743.000; -701.000
413.212;  168.225;  604.000;  578.000
413.339;  -66.675; -685.000; -701.000
413.465;  -39.000; -364.000; -310.000
413.591;  -97.975; -757.000; -474.000
413.717;  -42.275; -358.000; -366.000
413.843; -120.675; -839.000; -861.000
413.969;  -37.050;  -47.000; -292.000
414.096;  -92.150; -679.000; -679.000
414.222;   -0.825;  -33.000;   85.000
414.348;  -68.325; -652.000; -385.000
414.474;    2.250;   38.000;  -52.000
414.600;    5.425; -126.000; -144.000
414.726;   12.600;  -96.000;  -55.000
414.852;  -12.825; -365.000; -342.000
414.978;   50.625;  104.000;  -18.000
415.104;   75.125;   38.000;   80.000
415.230;   52.375; -329.000; -330.000
415.356;   74.725; -409.000; -514.000
415.482;  251.900;   13.000;  -35.000
415.608;  430.275; -247.000; -323.000
415.734; 1398.000;   67.000;   38.000
415.860;28089.500; -875.000; -767.000
415.986;23741.250; -685.000; -607.000
416.111; 2243.275; -798.000; -652.000
416.237;  503.175; -424.000; -571.000
416.363; 1601.600; -765.000; -733.000
416.489; 6502.200; -324.000; -251.000
416.615;  925.275; -707.000; -742.000
416.741;   66.825; -677.000; -784.000
416.866;  -33.625; -673.000; -736.000
416.992;  -85.750; -801.000; -818.000
417.118;    5.625;  -41.000;  -80.000
417.244;  -59.750; -798.000; -531.000
417.369;  -58.800; -801.000; -612.000
417.495;   22.375; -325.000; -254.000
417.621;  -55.675;-1015.000; -803.000
417.746;   19.450; -579.000; -572.000
417.872;   92.125; -254.000; -144.000
417.998;  137.000; -515.000; -530.000
418.123; 1526.600;-1073.000; -845.000
418.249; 8440.075; -512.000; -601.000
418.374; 1509.750; -916.000; -824.000
418.500;  228.575; -383.000; -482.000
418.626;  202.650;   70.000;  -59.000
418.751;  181.025; -549.000; -448.000
418.877;  353.375; -637.000; -643.000
419.002; 2478.825; -688.000; -560.000
419.128;18866.950; -930.000; -721.000
419.253; 5471.575; -967.000; -837.000
419.379;  783.600; -391.000; -338.000
419.504;  588.975;  325.000;  415.000
419.629;  804.925; -393.000; -212.000
419.755; 4924.625; -317.000; -254.000
419.880;32381.100;  -98.000;   67.000
420.006;16852.675; -280.000; -221.000
420.131;43019.700; -662.000; -775.000
420.256; 7201.000; -315.000; -316.000
420.382;  997.775; -665.000; -687.000
420.507;  187.750; -649.000; -778.000
420.632;   87.000; -337.000; -339.000
420.758;   85.175; -251.000; -425.000
420.883;  -77.300; -876.000; -672.000
421.008;  -97.250; -775.000; -619.000
421.133;  -65.700; -509.000; -467.000
421.259;  -37.925; -325.000; -259.000
421.384; -111.475; -834.000; -693.000
421.509;  -85.925;-1052.000; -862.000
421.634;  276.600; -936.000; -820.000
421.759;  162.475; -359.000; -327.000
421.885;  -72.225; -717.000; -656.000
422.010;  -83.150; -673.000; -542.000
422.135; -131.175; -695.000; -727.000
422.260;   27.825;  340.000;  280.000
422.385;  -30.200;   12.000;  -98.000
422.510;   13.375;  151.000;  -26.000
422.635;    5.525;  -87.000;  -43.000
422.760;   -0.200; -766.000; -791.000
422.885;   52.575;  -57.000;  -80.000
423.010;  -25.750; -112.000; -169.000
423.135;  -65.250; -481.000; -561.000
423.260;  -21.300; -150.000; -245.000
423.385;   36.450;  476.000;  222.000
423.510;   15.950;   71.000;  -22.000
423.635;   20.200;  133.000;   45.000
423.760;   68.600;  383.000;  328.000
423.885;   59.775;  336.000;  391.000
424.010;   -3.375;  -68.000;  -13.000
424.135;  -11.125;    5.000;  -33.000
424.259;  -65.475; -654.000; -457.000
424.384;  -38.825; -279.000; -272.000
424.509;  -18.000; -260.000; -186.000
424.634;  -85.650; -761.000; -623.000
424.759;  -29.100; -688.000; -544.000
424.883;   11.450; -506.000; -527.000
425.008;  199.100; -502.000; -410.000
425.133; 2764.550; -679.000; -653.000
425.258; 1550.100; -517.000; -381.000
425.382;  482.650; -867.000; -774.000
425.507; 1110.750; -487.000; -543.000
425.632;  382.050; -802.000; -663.000
425.756;  620.475; -256.000; -146.000
425.881; 8709.550; -831.000; -857.000
426.006;27733.125; -604.000; -355.000
426.130; 4741.750; -696.000; -508.000
426.255;  626.250; -611.000; -491.000
426.379;  285.450; -189.000; -577.000
426.504;  510.700;  660.000;  544.000
426.629; 5839.825; -519.000; -466.000
426.753; 4735.825;   64.000;  -46.000
426.878;  593.575; -252.000; -288.000
427.002;  320.250; -651.000; -668.000
427.127; 1950.100;  -35.000; -158.000
427.251;16510.425;  372.000;  401.000
427.375; 5551.075; -191.000; -173.000
427.500; 1275.975; -616.000; -610.000
427.624;  428.300; -234.000; -400.000
427.749;  153.750; -216.000; -225.000
427.873;   46.550; -499.000; -412.000
427.997;  -17.850; -222.000; -230.000
428.122;   78.600;  795.000;  703.000
428.246;   46.200;  433.000;  434.000
428.371; -120.550; -869.000; -773.000
428.495;  -89.525; -624.000; -646.000
428.619;  -12.000; -186.000; -117.000
428.743;   23.175;   65.000;  132.000
428.868;  -62.625; -732.000; -643.000
428.992;  462.400; -219.000; -326.000
429.116;  205.125; -329.000; -357.000
429.240;  142.150;  419.000;  426.000
429.365;  -14.525; -454.000; -574.000
429.489;  -31.825; -638.000; -647.000
429.613;   53.775; -236.000; -177.000
429.737;  125.425; -563.000; -432.000
429.861;  426.525; -247.000; -133.000
429.985; 7669.800; -425.000; -305.000
430.109;10069.025; -770.000; -908.000
430.234; 1277.425;   76.000;  -50.000
430.358;  189.175; -250.000; -160.000
430.482;   -4.175; -672.000; -564.000
430.606;  -27.125; -655.000; -375.000
430.730;  -25.150; -437.000; -388.000
430.854;  -25.400; -909.000; -835.000
430.978;  -51.900; -795.000; -764.000
431.102;  -51.550; -499.000; -422.000
431.226;  -54.525; -874.000; -815.000
431.350;   69.600;  345.000;  422.000
431.474;  -57.225; -661.000; -373.000
431.597; -126.500;-1060.000; -848.000
431.721;  -61.300; -276.000; -267.000
431.845; -101.500; -704.000; -472.000
431.969;  -69.275; -304.000; -349.000
432.093;  -75.025; -395.000; -317.000
432.217;  -12.900;   32.000;   82.000
432.341;  -64.625; -523.000; -518.000
432.464;    3.550;   96.000;   40.000
432.588;   17.400; -401.000; -329.000
432.712;   39.225;  -52.000;  -52.000
432.836;   65.900;  213.000;  263.000
432.959;   32.450; -372.000; -311.000
433.083;  191.175;   11.000;    2.000
433.207;  574.400;  285.000;  930.000
433.330; 7180.350; -391.000; -200.000
433.454;10341.475; -654.000; -638.000
433.578; 5776.325;  583.000;  278.000
433.701; 1292.425; -623.000; -675.000
433.825;  185.100; -292.000; -299.000
433.949;   73.075;   28.000;  -72.000
434.072;   13.700; -410.000; -323.000
434.196;   11.525; -309.000; -117.000
434.319; 3481.925;25482.000;25124.000
434.443;  839.400; -656.000; -603.000
434.566; 3930.725;  281.000;   62.000
434.690;  891.575; -637.000; -383.000
434.813;  220.825; -251.000; -173.000
434.937;    7.750; -569.000; -696.000
435.060;  -56.800; -423.000; -332.000
435.184;   33.325; -492.000; -217.000
435.307;   55.450;  159.000;  102.000
435.431;  -26.700;  -40.000;   24.000
435.554;  -59.950; -399.000; -240.000
435.677;  -68.350; -350.000; -258.000
435.801;  -29.450;  -25.000;   49.000
435.924;  -31.350;    1.000;  -67.000
436.048; -113.200;-1019.000; -732.000
436.171;  -47.950; -240.000;  -66.000
436.294;    9.625; -248.000; -229.000
436.417;  228.075; -963.000; -849.000
436.541;  -22.625; -814.000; -840.000
436.664;  -37.300; -242.000; -316.000
436.787;   -2.675;   13.000;  113.000
436.910; -101.525; -792.000; -422.000
437.034;   14.550;  142.000;  143.000
437.157;   40.500;  -11.000;    0.000
437.280;  -55.400; -392.000; -292.000
437.403; -120.700; -982.000; -869.000
437.526;   84.325; -903.000; -865.000
437.649;  703.475; -505.000; -332.000
437.772;   75.125; -692.000; -540.000
437.896;   65.800;  700.000;  544.000
438.019;  -59.400; -758.000; -503.000
438.142;  -83.100; -596.000; -506.000
438.265; -105.625; -639.000; -670.000
438.388;   75.150; -520.000; -410.000
438.511;  -23.900; -597.000; -394.000
438.634;  -48.300; -247.000; -125.000
438.757; -118.550; -693.000; -619.000
438.880;  -26.900;  -34.000;  -57.000
439.003;  -77.025; -417.000; -437.000
439.126;  -67.875; -287.000; -167.000
439.248;  -49.225;  -98.000; -139.000
439.371;  -36.475;    9.000;  -53.000
439.494;   33.800;  510.000;  439.000
439.617;  -33.650;   65.000;  -88.000
439.740; -164.850; -968.000; -816.000
439.863; -132.575; -755.000; -595.000
439.986; -104.225; -476.000; -431.000
440.108;  -31.550; -161.000; -112.000
440.231; -138.525; -950.000; -836.000
440.354;  -47.275;  -64.000; -150.000
440.477;  -91.225; -566.000; -542.000
440.599;  -66.025; -200.000; -225.000
440.722; -114.475; -709.000; -586.000
440.845;   57.025;  751.000;  928.000
440.968;  -93.375; -415.000; -311.000
441.090;  -60.700; -199.000;  -33.000
441.213; -153.600;-1021.000; -825.000
441.336;  -53.825; -159.000;   -5.000
441.458;  -87.150; -549.000; -396.000
441.581; -119.150; -628.000; -629.000
441.703;  -51.425; -152.000;   13.000
441.826;  -96.925; -557.000; -400.000
441.948;  -39.025;   56.000;   51.000
442.071;   28.850;  555.000;  424.000
442.193;  -93.525; -531.000; -485.000
442.316;    9.975;  152.000;   97.000
442.438;   87.275; -233.000;  -10.000
442.561;   86.725;  272.000;  262.000
442.683;  109.625; -809.000; -522.000
442.806;  342.300;   -8.000;   74.000
442.928;  -81.800; -859.000; -604.000
443.051;  -65.650; -577.000; -373.000
443.173;  -87.725; -341.000; -339.000
443.295;  -77.850; -263.000; -371.000
443.418;  -71.400; -321.000;  -29.000
443.540;  -37.300; -106.000;   -4.000
443.662; -114.350; -563.000; -465.000
443.785;  -24.375;  335.000;  199.000
443.907;  -84.325; -362.000; -208.000
444.029; -106.300; -767.000; -494.000
444.152; -139.000; -644.000; -554.000
444.274;  -47.000;  -18.000;  -24.000
444.396; -110.800; -461.000; -221.000
444.518; -110.875; -691.000; -454.000
444.640;  -79.625; -268.000; -111.000
444.763;  -20.675;  388.000;  249.000
444.885; -111.500; -432.000; -392.000
445.007;  -35.350;   35.000;   86.000
445.129; -106.625; -610.000; -515.000
445.251; -103.500; -372.000; -439.000
445.373; -138.150; -537.000; -386.000
445.495;   -8.325;  242.000;  350.000
445.617;   43.325;  853.000;  753.000
445.739;  -71.325; -215.000;  -97.000
445.861;  -59.925; -245.000; -112.000
445.984;  -72.900; -267.000; -101.000
446.105;  -17.900; -418.000; -251.000
446.227;  133.975; -176.000;  -19.000
446.349;  -71.550; -358.000; -249.000
446.471; -114.375; -615.000; -448.000
446.593;  -90.925; -316.000;   19.000
446.715;  -46.400;  -67.000;   41.000
446.837;   48.725;  697.000;  832.000
446.959; -100.775; -457.000; -478.000
447.081; -120.600; -628.000; -518.000
447.203;   38.525;  862.000;  834.000
447.325;  -69.725; -270.000;   42.000
447.446;   -6.925;  286.000;  530.000
447.568; -124.775; -921.000; -803.000
447.690;  -82.425; -236.000; -245.000
447.812; -130.250; -798.000; -519.000
447.933;  -24.850;  155.000;  127.000
448.055;  -66.100; -306.000; -261.000
448.177;   38.800;   31.000;   79.000
448.299;  -57.825; -935.000; -727.000
448.420;    0.525;  -25.000;  159.000
448.542;  -44.950;   -3.000;   33.000
448.664;  -42.225;  109.000;  322.000
448.785;  -37.375;  265.000;   83.000
448.907;  -86.200; -614.000; -353.000
449.028;  -98.600; -771.000; -471.000
449.150;   54.625;  492.000;  589.000
449.272; -153.900;-1044.000; -913.000
449.393;   28.550;  612.000;  694.000
449.515; -121.150; -634.000; -581.000
449.636;  -69.350; -264.000; -155.000
449.758;   57.300;  763.000;  622.000
449.879;  -68.900; -498.000; -396.000
450.001;  -60.400; -149.000;  -49.000
450.122;  -29.025;  -95.000;  162.000
450.244;   -4.350;   37.000;  364.000
450.365;  -68.550; -495.000; -301.000
450.486;   -2.825;   80.000;  268.000
450.608;   57.475;  393.000;  326.000
450.729;  128.325;  578.000;  645.000
450.850;   87.300; -574.000; -466.000
450.972; 1118.025; -552.000; -389.000
451.093; 7458.475;  190.000;  588.000
451.214; 3973.450; -516.000; -337.000
451.336;  688.100;  773.000;  579.000
451.457;  118.750;  264.000;  393.000
451.578;  -10.500; -118.000;  -74.000
451.699;  -88.975; -546.000; -540.000
451.821;  -52.450; -284.000;  -50.000
451.942;   17.200;  278.000;  285.000
452.063;   61.000;  228.000;  419.000
452.184;  791.975;  -54.000;  -49.000
452.305; 1706.100;  103.000;  170.000
452.427;  352.200; -549.000; -301.000
452.548;   22.700;   23.000;   79.000
452.669;  -36.400; -257.000;  -89.000
452.790;  -40.575;    3.000;  -18.000
452.911;   -9.650;  195.000;  259.000
453.032;  -64.350; -289.000;  -60.000
453.153;  -53.200;  -29.000;   81.000
453.274;   53.025;  737.000;  868.000
453.395;  -51.475;  -51.000;  175.000
453.516;   16.275; 1317.000; 1388.000
453.637;  -77.100; -205.000; -150.000
453.758;  -44.250;   15.000;   69.000
453.879;  -99.300; -462.000; -250.000
454.000;   81.425; 1086.000;  948.000
454.121; -114.225; -554.000; -326.000
454.242; -116.000; -599.000; -383.000
454.362;  -43.125;  -99.000;  114.000
454.483;   18.300; -309.000; -229.000
454.604;  105.800;  512.000;  580.000
454.725; -103.475; -627.000; -555.000
454.846; -114.225; -474.000; -406.000
454.967;  -17.900;  230.000;  539.000
455.087;  -36.500;  179.000;  153.000
455.208;   19.925;  554.000;  856.000
455.329;  -42.100;  -22.000;   82.000
455.450;   59.075;  473.000;  633.000
455.570;  -49.350; -234.000; -211.000
455.691;  -26.000;  201.000;  407.000
455.812;  -93.325; -270.000;  -92.000
455.932;  -49.825;  107.000;  -97.000
456.053;  -64.725;   36.000;   24.000
456.173;  -99.725; -433.000; -355.000
456.294; -118.375; -476.000; -303.000
456.415;  -52.125;  -73.000;   70.000
456.535;  -18.825;  297.000;  273.000
456.656;  -33.275;  132.000;  240.000
456.776;  -50.875;    3.000;  298.000
456.897;    4.000;  308.000;  513.000
457.017;  -58.450; -153.000;   -3.000
457.138; -101.525; -402.000; -249.000
457.258;  -26.850;  263.000;  224.000
457.379;  -28.200;  509.000;  521.000
457.499;  -15.975;  443.000;  432.000
457.620; -112.300; -407.000; -231.000
457.740;  -80.225; -132.000;  -11.000
457.860;  -44.150;   87.000;   44.000
457.981;  -20.750;  132.000;  124.000
458.101;  -56.925;  -89.000;   40.000
458.221;   -8.225;  336.000;  402.000
458.342;  -40.750;   -4.000;  -37.000
458.462;   43.850;  617.000;  352.000
458.582;    6.825; -302.000; -294.000
458.703;   37.925;  303.000;  154.000
458.823;   25.350;   22.000;  163.000
458.943;   71.700;  341.000;  467.000
459.063;   43.000; 1124.000;  192.000
459.183;   -3.050;  328.000;  313.000
459.304;   16.250;  315.000;  517.000
459.424;  -44.500; -246.000;  -89.000
459.544;  442.025;  388.000;  764.000
459.664; 1268.775;  499.000;  506.000
459.784;  529.150; 1004.000; 1175.000
459.904;  102.050;  867.000;  744.000
460.024;   67.500;  867.000;  684.000
460.144;    1.750;  449.000;  554.000
460.264;  -11.400;  515.000;  327.000
460.385;  -73.275; -145.000; -119.000
460.505;   32.825;  905.000;  858.000
460.625;  -65.450;  -17.000;  -68.000
460.745;  -21.200;  396.000;  541.000
460.864;  -18.625;  153.000;  469.000
460.984;   81.300;  499.000;  573.000
461.104;  176.225; 1656.000; 1775.000
461.224;   14.300;  657.000;  650.000
461.344;  -11.525;  431.000;  360.000
461.464;  -34.050;  258.000;  513.000
461.584;  -21.425;  283.000;  466.000
461.704;  -58.825;   58.000;  108.000
461.824;  -47.500;  238.000;  259.000
461.943;  -46.700;  191.000;  130.000
462.063;  -68.950;    2.000;  324.000
462.183;   26.525;  639.000;  717.000
462.303;   95.275; 1678.000; 1230.000
462.422;   27.950;  781.000;  840.000
462.542;  -26.525;  271.000;  391.000
462.662;   58.975;  353.000;  380.000
462.782;  333.450;  833.000;  572.000
462.901;  728.150;  545.000;  717.000
463.021;  393.075; 1702.000; 1638.000
463.141;   23.425;  337.000;  770.000
463.260;  -14.450;  614.000;  474.000
463.380;   26.025;  902.000;  884.000
463.499;  -27.050;  342.000;  332.000
463.619;  -29.750;  581.000;  559.000
463.738;   90.875; 1644.000;  903.000
463.858;   18.075;  657.000;  811.000
463.978;  -30.725;  542.000;  396.000
464.097;   54.025;  921.000; 1114.000
464.217;  147.525; 1196.000; 1143.000
464.336;  133.250; 1068.000; 1130.000
464.455;  -15.300;  328.000;  659.000
464.575;   26.675;  597.000;  602.000
464.694;  127.775; 1204.000; 1179.000
464.814;  129.775; 1190.000; 1138.000
464.933;   72.775; 1095.000; 1027.000
465.052;   79.650; 1412.000; 1054.000
465.172;   74.700;  922.000;  799.000
465.291;  101.350; 1376.000; 1320.000
465.410;   25.400;  462.000;  735.000
465.530;   74.625; 1355.000; 1310.000
465.649;   59.150; 1209.000; 1273.000
465.768;  150.775; 1673.000; 1508.000
465.888;   91.500;  941.000; 1174.000
466.007;   88.850; 1335.000; 1440.000
466.126;   12.825;  721.000;  641.000
466.245;   28.350; 1176.000; 1187.000
466.364;   35.200;  950.000; 1060.000
466.484;   41.325; 1024.000; 1213.000
466.603;   36.275; 1101.000; 1222.000
466.722;  102.400; 1490.000; 1769.000
466.841;   65.900; 1151.000; 1401.000
466.960;   33.575; 1069.000;  972.000
467.079;  119.175; 1971.000; 1786.000
467.198;   42.100; 1238.000; 1181.000
467.317;   91.575; 1768.000; 1162.000
467.436;   72.275; 1709.000; 1261.000
467.555;  126.150; 1796.000; 1746.000
467.674;   66.525; 1227.000; 1329.000
467.793;   57.925; 1376.000; 1374.000
467.912;   77.775; 1658.000; 1539.000
468.031;  155.850; 2038.000; 1930.000
468.150;  117.175; 1842.000; 1837.000
468.269;  181.600; 2313.000; 2090.000
468.388;  204.225; 2168.000; 2339.000
468.507;  249.925; 2884.000; 2903.000
468.626;  240.800; 2555.000; 2541.000
468.744;  140.050; 2018.000; 2174.000
468.863;  197.600; 2312.000; 2523.000
468.982;  102.300; 1503.000; 1555.000
469.101;  235.850; 2788.000; 2692.000
469.220;  168.775; 2333.000; 2176.000
469.338;  247.600; 2935.000; 3051.000
469.457;  208.125; 2719.000; 2545.000
469.576;  348.400; 3953.000; 3784.000
469.695;  263.525; 2877.000; 3066.000
469.813;  426.250; 4148.000; 4192.000
469.932;  413.950; 4255.000; 4485.000
470.051;  456.800; 4075.000; 4161.000
470.169; 1014.250; 4470.000; 4338.000
470.288; 1960.300; 4700.000; 4809.000
470.406; 1173.300; 5059.000; 5194.000
470.525;  681.175; 6101.000; 5787.000
470.644;  646.525; 6847.000; 6794.000
470.762;  817.900; 8397.000; 7873.000
470.881;  907.325; 8651.000; 8464.000
470.999; 1048.975; 9685.000; 9151.000
471.118; 1125.650;11174.000;10711.000

