
Integration time [ms]: 100.000
Averaging Nr. [scans]: 40
Smoothing Nr. [pixels]: 0
Data measured with spectrometer [name]: 2101012U2
Wave   ;Sample   ;Dark     ;Reference
[nm]   ;[counts] ;[counts] ;[counts] 

197.733;   51.850;  516.000;  404.000
197.879;  -80.100; -610.000; -634.000
198.025;  -48.400; -475.000; -420.000
198.171;  -72.625; -602.000; -612.000
198.317;  -31.675; -401.000; -316.000
198.463;  -60.725; -655.000; -404.000
198.609;   23.400;  181.000; -137.000
198.755;  -78.800; -644.000; -410.000
198.901;  -69.625; -505.000; -424.000
199.047;  -64.525; -615.000; -488.000
199.193;  -29.650; -230.000; -468.000
199.339;  -33.075; -222.000; -369.000
199.485;   27.600;  330.000;  271.000
199.631;   12.600;  227.000;  310.000
199.777;  -54.975; -466.000; -398.000
199.923;  -46.200; -610.000; -424.000
200.069;   -9.525; -141.000;  -58.000
200.215;   50.350;  128.000;  453.000
200.361;   42.350;  243.000;  477.000
200.507;  -64.500; -600.000; -373.000
200.653;  -25.925; -371.000; -194.000
200.798;  -37.650; -215.000; -125.000
200.944;   -1.950; -146.000;  -41.000
201.090;   35.600;   61.000;  222.000
201.236;   -8.400; -116.000; -158.000
201.382;  130.725;  874.000;  903.000
201.528;    1.525;  -58.000;  -48.000
201.674;  -48.475; -386.000; -293.000
201.819;  -55.125; -540.000; -439.000
201.965;  -84.775; -699.000; -447.000
202.111;  -20.800; -273.000; -226.000
202.257;  -24.125; -250.000; -238.000
202.402;   10.200;   13.000;  -36.000
202.548;  -27.950; -169.000; -116.000
202.694;   75.625;  410.000; -183.000
202.840;  -69.750; -603.000; -531.000
202.985;  -56.250; -681.000; -639.000
203.131;  -95.100; -832.000; -666.000
203.277;  -21.175; -199.000; -262.000
203.423;  -54.675; -434.000; -520.000
203.568;  -35.100; -462.000; -237.000
203.714;  -69.525; -535.000; -542.000
203.860;  -77.675; -682.000; -641.000
204.005;   12.050;  112.000;  167.000
204.151;   72.350;  561.000;  556.000
204.296;  -48.875; -354.000; -221.000
204.442;  -54.700; -600.000; -547.000
204.588;  -75.525; -592.000; -579.000
204.733;   17.775;  178.000;  168.000
204.879; -132.975;-1018.000; -822.000
205.025;   19.250;  -99.000;  126.000
205.170;    5.800;  -17.000;   94.000
205.316;   83.975;  438.000;  661.000
205.461;  -74.800; -698.000; -554.000
205.607;   85.525;  609.000;  665.000
205.752;  -79.700; -626.000; -551.000
205.898;  -62.150; -501.000; -391.000
206.043;  -68.700; -578.000; -506.000
206.189;  -50.750; -243.000; -285.000
206.334;   85.525;  554.000;  606.000
206.480;   66.575;  409.000;  239.000
206.625;  -78.375; -529.000; -552.000
206.771;  -37.350; -451.000; -373.000
206.916;  -45.850; -210.000; -537.000
207.062;  -72.350; -545.000; -591.000
207.207;  -57.350; -546.000; -443.000
207.353;   41.475;  185.000;  460.000
207.498;    0.100;  196.000;   85.000
207.643;  -56.950; -501.000; -370.000
207.789; -125.775;-1069.000; -910.000
207.934;  -87.550; -665.000; -713.000
208.080;  -24.425; -154.000;   66.000
208.225;  -16.825;  -22.000;  -57.000
208.370;  -67.625; -727.000; -619.000
208.516;  -82.050; -741.000; -487.000
208.661;  -20.250; -127.000;  -69.000
208.806;  -15.925; -165.000; -171.000
208.952; -111.125;-1044.000; -731.000
209.097;   69.150;  378.000;  349.000
209.242;  -48.225; -307.000; -382.000
209.387;   85.950;  392.000;  350.000
209.533;  -48.925; -321.000; -350.000
209.678;   67.875;  472.000;  543.000
209.823;  -49.575; -408.000; -310.000
209.969; -104.275; -860.000; -757.000
210.114; -100.425; -907.000; -719.000
210.259; -103.625; -939.000; -889.000
210.404;  -14.650; -171.000;  103.000
210.549;    3.075;  108.000;    3.000
210.695;  -11.700;   -3.000;  -95.000
210.840;   36.850;   94.000;   67.000
210.985;  -52.000; -484.000; -303.000
211.130;   62.900;  268.000;  406.000
211.275;   19.775;  207.000;  199.000
211.420;  -46.050; -300.000; -289.000
211.566;  -72.625; -536.000; -489.000
211.711;   23.375;  218.000;  157.000
211.856;  -49.675; -545.000; -519.000
212.001;    8.550;  151.000;   44.000
212.146;   18.575;  153.000;   49.000
212.291;  -23.150; -210.000; -186.000
212.436;  -27.700; -280.000;   -6.000
212.581;  -83.975; -685.000; -653.000
212.726;  -76.075; -487.000; -538.000
212.871;  -49.250; -552.000; -217.000
213.016; -141.575;-1172.000;-1029.000
213.161;   53.450;  406.000;  291.000
213.306;  -79.950; -435.000; -577.000
213.451;  -91.650; -778.000; -689.000
213.596;  -45.925; -455.000; -347.000
213.741;  -51.700; -448.000; -538.000
213.886;  -63.725; -498.000; -517.000
214.031;  -20.400; -294.000; -124.000
214.176;  -64.475; -408.000; -341.000
214.321;  -19.700; -296.000; -157.000
214.466;  -37.175; -163.000;  -43.000
214.611;   -3.250;  -61.000;  -10.000
214.756; -118.275; -948.000; -858.000
214.901;  -29.250; -388.000; -226.000
215.046; -123.375; -797.000; -825.000
215.191;    9.175;  128.000;   35.000
215.336;  -18.800; -157.000;  -19.000
215.480;  -64.175; -684.000; -505.000
215.625;  -13.700; -175.000;  -19.000
215.770;  -80.800; -757.000; -662.000
215.915;   -9.675;   -5.000;  -97.000
216.060;   -1.000; -113.000;  -21.000
216.205; -100.000; -731.000; -779.000
216.349;  -72.925; -470.000; -533.000
216.494; -124.500; -939.000; -867.000
216.639; -113.425; -823.000; -888.000
216.784;  -89.375; -577.000; -525.000
216.929;   30.300;  392.000;  281.000
217.073;  -19.875; -244.000;  -31.000
217.218;    5.875;   78.000;  -47.000
217.363;  -86.425; -656.000; -618.000
217.507;  -80.075; -623.000; -588.000
217.652; -125.525; -845.000; -874.000
217.797;  -99.475; -708.000; -659.000
217.942; -113.625; -856.000; -720.000
218.086;   71.475;  608.000;  539.000
218.231;  -20.775; -174.000;  -26.000
218.376;  -51.200; -337.000; -229.000
218.520;    2.650;  -41.000;   96.000
218.665;  -37.200; -338.000; -204.000
218.810;  -42.925; -275.000; -233.000
218.954;   -0.450;  201.000;   35.000
219.099; -106.550; -713.000; -963.000
219.243;  -70.750; -589.000; -554.000
219.388;  -31.850; -264.000; -136.000
219.532;  -24.900; -116.000; -116.000
219.677;  -75.200; -564.000; -521.000
219.822;    0.075;   33.000;   89.000
219.966;   -3.900;   17.000;  -99.000
220.111;  -36.350; -328.000;  -40.000
220.255;  -96.500; -797.000; -750.000
220.400;  -23.600; -180.000; -146.000
220.544;  -69.025; -516.000; -450.000
220.689;  -56.200; -422.000; -451.000
220.833;  -17.100; -123.000;  -58.000
220.978;  -51.450; -393.000; -563.000
221.122;   24.150;  319.000;  307.000
221.267; -113.250; -906.000; -837.000
221.411;  -63.000; -478.000; -394.000
221.555;   -1.825; -104.000;  -23.000
221.700;  -46.525; -329.000; -222.000
221.844;   25.375;  255.000;  272.000
221.989;  -41.775; -328.000; -311.000
222.133;  -26.250; -289.000; -307.000
222.277;  -14.650;    5.000;   78.000
222.422;   22.825;  227.000;  113.000
222.566;  -29.750; -381.000; -214.000
222.711;  -40.750; -414.000; -479.000
222.855;  -91.700; -643.000; -586.000
222.999;  -85.325; -642.000; -717.000
223.144;  -34.200; -195.000; -194.000
223.288;   54.700;  423.000;  251.000
223.432;   29.875;  184.000;  230.000
223.576;   10.100;  152.000;  -21.000
223.721;   24.275;  364.000;  273.000
223.865;  -57.150; -472.000; -475.000
224.009;  247.300; 1673.000; 1631.000
224.153;  -79.925; -660.000; -671.000
224.298;  -63.800; -531.000; -489.000
224.442;  -23.650;  -74.000;  -33.000
224.586;  -11.400; -169.000; -106.000
224.730;  -89.875; -858.000; -670.000
224.875; -110.825; -739.000; -688.000
225.019;   22.425;  102.000;  188.000
225.163;   41.850;  208.000;  341.000
225.307;   18.725;   97.000;  -91.000
225.451;   37.975;  360.000;  481.000
225.595;   27.150;  264.000;  176.000
225.739;  -21.250; -170.000;  -94.000
225.884;    3.800;   86.000;    5.000
226.028;  -92.875; -760.000; -626.000
226.172;  -40.225; -260.000; -273.000
226.316; -112.550; -941.000; -902.000
226.460;  -66.400; -645.000; -493.000
226.604;  -58.800; -406.000; -400.000
226.748;  -88.200; -836.000; -733.000
226.892;  -31.475; -227.000; -181.000
227.036;  -49.125; -537.000; -447.000
227.180;  -45.950; -551.000; -375.000
227.324;  -81.450; -561.000; -580.000
227.468; -113.250; -819.000; -717.000
227.612;    4.700;  242.000;  -28.000
227.756; -102.275; -845.000; -698.000
227.900;   42.975;  342.000;  441.000
228.044;  -65.275; -509.000; -290.000
228.188;   45.925;  448.000;  568.000
228.332;  -93.125; -546.000; -472.000
228.476;  -29.150; -223.000; -149.000
228.620;  -33.100; -210.000; -150.000
228.764;   69.000;  431.000;  349.000
228.908;  -22.675; -155.000;   30.000
229.052;  -57.375; -615.000; -528.000
229.195;  -10.375; -172.000;   13.000
229.339;  -24.525; -235.000; -305.000
229.483;  -26.450;    5.000; -162.000
229.627;  -13.175; -156.000;  139.000
229.771;  -59.175; -218.000; -294.000
229.915;   -3.650;  230.000;   79.000
230.059;  -77.525; -648.000; -663.000
230.202;  -37.675; -370.000; -317.000
230.346;  -13.400; -107.000;  107.000
230.490;  -60.875; -489.000; -521.000
230.634; -104.425; -736.000; -553.000
230.777;   71.500;  478.000;  509.000
230.921;  -51.775; -450.000; -359.000
231.065;  -37.875; -246.000; -286.000
231.209;   24.875;  261.000;  265.000
231.352;   18.200;   54.000;   40.000
231.496;   15.700;  568.000;  188.000
231.640;  -81.325; -693.000; -621.000
231.783;   54.175;  546.000;  525.000
231.927;  -43.325; -294.000; -365.000
232.071; -112.075; -962.000; -736.000
232.214; -106.325; -980.000; -764.000
232.358;  -97.475; -683.000; -599.000
232.502;   -1.400;  -19.000;    7.000
232.645; -136.925;-1090.000; -927.000
232.789;  -28.550; -257.000; -218.000
232.933;  -40.400; -407.000; -224.000
233.076; -127.150;-1038.000; -897.000
233.220; -114.850; -752.000; -777.000
233.363;  -86.250; -669.000; -477.000
233.507;   41.600;  371.000;  129.000
233.650;  -89.100; -764.000; -834.000
233.794;   41.550;  438.000;  461.000
233.938;  -72.800; -530.000; -362.000
234.081;  -19.400;  -93.000;   31.000
234.225;  -78.300; -631.000; -539.000
234.368; -105.275; -773.000; -723.000
234.512;  -38.925; -385.000; -299.000
234.655;  -91.025; -582.000; -555.000
234.798;  -64.150; -493.000; -466.000
234.942; -127.525; -884.000;-1002.000
235.085;  -67.975; -651.000; -443.000
235.229;  -75.100; -405.000; -410.000
235.372;  -44.300; -247.000; -191.000
235.516;  -68.200; -397.000; -321.000
235.659;   16.975;   92.000;  121.000
235.802;  -17.050;  -38.000;  -22.000
235.946;    9.425;  335.000;  215.000
236.089;   18.050;  126.000;  250.000
236.233;   50.225;  275.000;  298.000
236.376;  -51.800; -235.000; -378.000
236.519;  -49.200; -297.000; -319.000
236.663;  -31.850; -215.000; -117.000
236.806; -126.750;-1029.000; -999.000
236.949;   33.050;  543.000;  431.000
237.092;   51.050;  412.000;  391.000
237.236;  -80.250; -589.000; -502.000
237.379;   60.900;  352.000;  428.000
237.522; -112.625; -879.000; -768.000
237.666;  -18.775; -271.000;   18.000
237.809; -113.725; -851.000; -823.000
237.952;   21.775;  469.000;  271.000
238.095;  -58.200; -447.000; -442.000
238.238;   84.000;  688.000;  700.000
238.382;    4.750;  166.000;  103.000
238.525;  -67.375; -598.000; -511.000
238.668; -139.075;-1060.000; -985.000
238.811;  -73.125; -638.000; -643.000
238.954;  -59.900; -483.000; -334.000
239.097;   81.625;  617.000;  664.000
239.241;   19.075;  394.000;  326.000
239.384;  -25.475; -254.000; -214.000
239.527;  -67.925; -424.000; -224.000
239.670; -152.150; -994.000;-1091.000
239.813; -115.975; -696.000; -658.000
239.956;   77.200;  579.000;  473.000
240.099; -113.550; -778.000; -725.000
240.242;   62.000;  428.000;  432.000
240.385;   34.650;  466.000;  450.000
240.528;  -62.200; -706.000; -473.000
240.671;    4.675;  189.000;  134.000
240.814;  -47.225; -441.000; -158.000
240.957; -100.975; -767.000; -578.000
241.100;  -87.000; -779.000; -755.000
241.243; -139.175;-1234.000; -893.000
241.386;  -67.525; -508.000; -379.000
241.529;  -83.225; -735.000; -547.000
241.672;  -73.225; -566.000; -495.000
241.815; -118.725; -832.000; -808.000
241.958;  -29.675; -125.000; -182.000
242.101;  -75.375; -545.000; -390.000
242.244;  -42.000; -270.000; -325.000
242.387;  -43.050; -304.000; -246.000
242.530;   53.475;  470.000;  134.000
242.673;  -47.800; -381.000; -309.000
242.815; -116.375; -925.000; -899.000
242.958;  -67.750; -482.000; -381.000
243.101;    2.275;  132.000;  187.000
243.244;  -83.850; -564.000; -521.000
243.387;  -45.925; -313.000; -316.000
243.530; -103.900; -657.000; -674.000
243.672;   10.250;   43.000;  -92.000
243.815;  -52.325; -355.000; -283.000
243.958;  -11.275;   98.000;  -26.000
244.101;   -3.475;   59.000;  -16.000
244.243;   -3.425;  -47.000;  101.000
244.386; -116.450; -761.000; -630.000
244.529;  -33.600; -132.000; -139.000
244.672; -149.375;-1154.000; -951.000
244.814;  -88.450; -621.000; -794.000
244.957;  -63.850; -380.000; -304.000
245.100;  -75.500; -489.000; -489.000
245.242;  -62.850; -387.000; -374.000
245.385;   -0.325;  -59.000;  -39.000
245.528; -127.725; -871.000; -705.000
245.670;   78.500;  612.000;  634.000
245.813;  -80.650; -599.000; -547.000
245.956;  -35.675; -324.000; -275.000
246.098;  -73.075; -508.000; -650.000
246.241;   -3.525;  194.000;   48.000
246.383;  -36.625; -119.000;  -73.000
246.526;  -79.775; -454.000; -525.000
246.669; -112.725; -889.000; -780.000
246.811;    5.400;  172.000;   -1.000
246.954;  -58.200; -512.000; -426.000
247.096;  -30.975;  -84.000;   -6.000
247.239;  -77.675; -482.000; -445.000
247.381;  -71.400; -647.000; -488.000
247.524;   85.525;  645.000;  679.000
247.666;  -24.775;   58.000;   11.000
247.809; -111.700; -887.000; -691.000
247.951;  -13.450;  -75.000;  138.000
248.094;   21.550;  432.000;  308.000
248.236; -152.775;-1262.000;-1238.000
248.378;  -16.450; -356.000;  -81.000
248.521;  -40.875; -334.000; -337.000
248.663;  -53.325; -236.000; -267.000
248.806;  -32.400; -300.000; -266.000
248.948; -111.425; -886.000; -763.000
249.090;  -48.300; -428.000; -398.000
249.233;  -62.025; -344.000; -381.000
249.375;  -52.125; -474.000; -451.000
249.518;  -24.050;  -83.000; -133.000
249.660;  -20.200; -103.000;    3.000
249.802; -162.250;-1303.000;-1189.000
249.945;  -79.225; -612.000; -540.000
250.087; -121.025; -834.000; -768.000
250.229;  -60.300; -362.000; -480.000
250.371;  -71.425; -494.000; -439.000
250.514;  -52.500; -310.000; -244.000
250.656;  -64.150;   69.000;  102.000
250.798; -116.600; -849.000; -800.000
250.940;  -64.150; -322.000; -322.000
251.083;  -31.925; -335.000; -111.000
251.225;   42.425;  338.000;  310.000
251.367;  -52.075; -274.000; -373.000
251.509;  -37.100; -265.000; -210.000
251.651;  -95.075; -731.000; -671.000
251.794;   27.550;  538.000;  632.000
251.936; -105.600; -821.000; -747.000
252.078;  -76.350; -540.000; -461.000
252.220;  -76.325; -645.000; -477.000
252.362;   47.275;  344.000;  462.000
252.504;  -74.000; -677.000; -584.000
252.646; -108.350; -875.000; -722.000
252.788;  -11.025;   14.000; -128.000
252.931;  -45.575; -257.000; -253.000
253.073;  -49.225; -376.000; -317.000
253.215;  -10.375;  141.000;  122.000
253.357;  -25.550;   82.000; -153.000
253.499;  -50.950; -374.000; -234.000
253.641;  -93.675; -749.000; -594.000
253.783;  -84.350; -609.000; -527.000
253.925;  -84.225; -586.000; -591.000
254.067; -104.050; -744.000; -667.000
254.209;  -37.975; -391.000; -259.000
254.351; -141.325; -865.000; -883.000
254.493;  -75.375; -441.000; -417.000
254.635; -132.975; -936.000; -818.000
254.777;  -94.150; -752.000; -687.000
254.918;  -65.125; -512.000; -430.000
255.060;  -60.150; -551.000; -395.000
255.202;  -59.025; -473.000; -261.000
255.344;  -77.725; -658.000; -455.000
255.486;  -78.975; -471.000; -406.000
255.628; -114.550; -780.000; -781.000
255.770;  -88.025; -676.000; -536.000
255.912;  -71.450; -559.000; -468.000
256.053; -100.775; -730.000; -508.000
256.195;  131.425; 1008.000;  903.000
256.337;  -97.550; -861.000; -595.000
256.479;   63.275;  532.000;  416.000
256.621;  -68.375; -394.000; -212.000
256.762;  -98.250; -789.000; -742.000
256.904;   42.850;  485.000;  487.000
257.046;  -41.425; -381.000; -271.000
257.188;  -46.425; -351.000; -264.000
257.329;  -67.175; -525.000; -464.000
257.471; -117.550; -939.000; -807.000
257.613;  -69.225; -584.000; -498.000
257.755; -152.750;-1073.000; -982.000
257.896;   25.775;  286.000;  392.000
258.038;  -66.550; -403.000; -352.000
258.180;  -43.325; -354.000; -279.000
258.321;  -82.475; -581.000; -457.000
258.463;  -10.000;  -71.000;  133.000
258.605; -105.075; -562.000; -570.000
258.746;  -95.775; -886.000; -772.000
258.888; -149.650;-1026.000;-1020.000
259.029;   13.075;  121.000;   -8.000
259.171;  -88.725; -614.000; -550.000
259.313;    8.200;  -49.000;  -47.000
259.454;  -78.900; -536.000; -414.000
259.596;  -60.050; -483.000; -390.000
259.737;  -69.450; -590.000; -474.000
259.879;   24.100;  217.000;  311.000
260.020;   68.025;  901.000;  636.000
260.162;  -26.500; -146.000; -253.000
260.303;  -96.925; -768.000; -687.000
260.445;  -79.475; -609.000; -613.000
260.586;   20.675;  392.000;  157.000
260.728;  -43.350; -360.000; -248.000
260.869;  -66.475; -350.000; -343.000
261.011;   73.025;  706.000;  537.000
261.152;  -67.575; -479.000; -319.000
261.293;  -73.825; -576.000; -595.000
261.435;  -35.500; -219.000; -184.000
261.576;  -53.700; -455.000; -325.000
261.718;   47.600;  420.000;  470.000
261.859; -125.150; -940.000; -949.000
262.000; -123.350; -951.000;-1016.000
262.142;  -34.500;  -52.000;  -60.000
262.283; -117.750; -808.000; -691.000
262.424;  -92.250; -666.000; -625.000
262.566; -153.625;-1161.000; -983.000
262.707; -117.675; -840.000; -830.000
262.848; -117.550; -769.000; -726.000
262.990;  -55.300; -362.000; -345.000
263.131;   73.075;  650.000;  681.000
263.272;  -19.750;  -61.000;  -41.000
263.413;  -95.675; -589.000; -561.000
263.555;  -74.550; -669.000; -143.000
263.696;  -96.825; -550.000; -641.000
263.837;  -55.775; -449.000; -551.000
263.978;   -4.550;   -5.000;  -77.000
264.119;  -46.550; -283.000; -264.000
264.261; -122.075; -847.000; -630.000
264.402;   -8.700;   33.000;   40.000
264.543;  -80.475; -509.000; -524.000
264.684;  -22.775;   61.000;  -50.000
264.825;  -88.725; -816.000; -538.000
264.966;    3.350;  -84.000;  -67.000
265.107; -106.450; -646.000; -670.000
265.248;  -96.600; -825.000; -812.000
265.390;  -16.850;  152.000;   -9.000
265.531;  -34.350; -238.000; -107.000
265.672;  -82.775; -557.000; -630.000
265.813;   61.575;  563.000;  439.000
265.954; -142.800; -959.000; -940.000
266.095;  -24.475; -372.000; -322.000
266.236;  -96.550; -686.000; -548.000
266.377;  -44.850; -243.000; -297.000
266.518;  -74.425; -619.000; -547.000
266.659;   15.625;  170.000;  268.000
266.800;   -9.925;   83.000;   85.000
266.941;  -81.350; -487.000; -478.000
267.082;   14.050;  354.000;   99.000
267.223;  -52.475; -344.000; -273.000
267.364; -121.750; -892.000; -686.000
267.504;  -23.650;    3.000;  135.000
267.645;   -9.925;  160.000;   67.000
267.786;  -26.900; -147.000;  -86.000
267.927;  -58.475; -473.000; -379.000
268.068;  -25.375; -186.000;  -61.000
268.209;  -47.825; -175.000; -413.000
268.350;  -57.925; -388.000; -532.000
268.490;  -90.650; -648.000; -521.000
268.631;   27.500;  127.000;  225.000
268.772; -108.575; -874.000; -647.000
268.913;  -56.475; -328.000; -476.000
269.054;  -26.100; -117.000;   12.000
269.194;  -60.550; -418.000; -402.000
269.335; -154.675;-1137.000;-1074.000
269.476;  -12.350;   33.000;  -35.000
269.617;  -62.650; -347.000; -392.000
269.757;  -88.275; -713.000; -646.000
269.898; -108.675; -856.000; -613.000
270.039;  -66.625; -415.000; -405.000
270.180; -131.875; -952.000; -816.000
270.320;  -36.350; -190.000; -250.000
270.461;  -41.150; -277.000; -249.000
270.602;   -5.500; -186.000; -156.000
270.742; -132.550; -868.000; -943.000
270.883;  -73.900; -442.000; -390.000
271.023;  -77.275; -358.000; -357.000
271.164;  -91.500; -607.000; -528.000
271.305;  -98.475; -666.000; -654.000
271.445; -107.050; -722.000; -683.000
271.586;  -67.975; -462.000; -283.000
271.726;  -54.675; -397.000; -322.000
271.867;  -74.100; -594.000; -534.000
272.008;   55.025; -473.000; -285.000
272.148;   65.250;  462.000;  468.000
272.289;  -18.225; -113.000; -181.000
272.429;  -16.300;   19.000;  185.000
272.570; -107.100; -633.000; -737.000
272.710; -118.300; -825.000; -775.000
272.851;  -19.750;  113.000; -130.000
272.991; -155.225;-1173.000;-1077.000
273.131;  -78.375; -419.000; -459.000
273.272;  -92.650; -683.000; -723.000
273.412;  -26.975; -143.000;  -31.000
273.553;  -72.975; -488.000; -507.000
273.693;  111.725;  913.000;  858.000
273.834; -110.800; -894.000; -692.000
273.974;  -73.800; -664.000; -615.000
274.114;  -97.275; -772.000; -560.000
274.255;   41.950;  414.000;  373.000
274.395;  -23.875; -180.000; -125.000
274.535;   21.625;  199.000;  350.000
274.676;   13.225;  225.000;   94.000
274.816;  -13.850;  110.000;   34.000
274.956;  -81.750; -624.000; -690.000
275.097;  -97.200;-1014.000; -922.000
275.237; -122.375; -913.000; -803.000
275.377;  -99.825; -778.000; -689.000
275.517; -138.925; -878.000; -937.000
275.658;  -77.900; -590.000; -555.000
275.798;  -86.075; -606.000; -413.000
275.938;    9.650;  215.000;  323.000
276.078;  -72.775; -626.000; -395.000
276.218;   -5.975;   99.000;  104.000
276.359; -135.350;-1026.000;-1024.000
276.499;  -70.050; -605.000; -446.000
276.639;  -35.000; -305.000; -151.000
276.779;  -63.625; -475.000; -357.000
276.919; -114.675; -783.000; -624.000
277.059;  -36.175; -261.000; -212.000
277.199;  -41.600; -357.000; -259.000
277.340;   32.700;  287.000;  175.000
277.480; -111.225; -840.000; -693.000
277.620;   22.200;  192.000;   16.000
277.760; -192.975;-1533.000;-1294.000
277.900;   -3.975;  113.000;   33.000
278.040;   14.175;  137.000;  159.000
278.180;   19.075;  270.000;  170.000
278.320;  -12.925;   21.000;   56.000
278.460;  -73.725; -443.000; -469.000
278.600;  -92.775; -708.000; -598.000
278.740;   36.325;  448.000;  224.000
278.880; -115.000; -768.000; -791.000
279.020;  -36.175; -194.000; -144.000
279.160;  -94.025; -672.000; -595.000
279.300; -117.400; -926.000; -873.000
279.440;  -89.500; -709.000; -622.000
279.579;  -90.425;-1014.000; -929.000
279.719;  -57.275; -410.000; -394.000
279.859;   28.425;   -4.000;   41.000
279.999;   -7.125; -208.000;  101.000
280.139;  -38.075; -435.000; -387.000
280.279; -102.775; -708.000; -745.000
280.419;  -28.075; -229.000; -147.000
280.559;  -44.250; -259.000; -180.000
280.698; -100.900; -790.000; -639.000
280.838; -109.275; -778.000; -800.000
280.978; -115.150; -846.000; -790.000
281.118; -118.975; -811.000; -704.000
281.257;   -4.550;   24.000;    6.000
281.397; -148.850;-1094.000; -960.000
281.537;  -91.600; -599.000; -712.000
281.677;  -22.100; -150.000; -101.000
281.816;  -84.250; -700.000; -630.000
281.956;  -42.825; -193.000; -257.000
282.096;  -65.300; -539.000; -396.000
282.235; -109.650; -672.000; -638.000
282.375;  -26.550; -243.000;  -98.000
282.515; -102.775; -715.000; -707.000
282.654;   -3.150;   29.000;  106.000
282.794;   17.975;  388.000;  244.000
282.934;  -58.725; -530.000; -491.000
283.073; -135.750;-1030.000; -857.000
283.213;  -56.950; -460.000; -467.000
283.353;  -62.650; -408.000; -349.000
283.492;  -40.250; -264.000; -296.000
283.632;  -58.475; -254.000; -168.000
283.771;  -99.275; -859.000; -730.000
283.911;  -61.750; -369.000; -260.000
284.050; -115.100; -794.000; -748.000
284.190; -156.075;-1229.000;-1096.000
284.329; -155.775;-1055.000; -964.000
284.469;  -97.750; -516.000; -591.000
284.608;  -60.625; -559.000; -598.000
284.748;  -85.100; -614.000; -570.000
284.887;  -15.100;  -87.000;  -20.000
285.027; -128.425; -844.000; -892.000
285.166;  -34.600; -192.000; -249.000
285.306;  -17.800; -116.000;  -33.000
285.445;  -38.775; -229.000; -343.000
285.584;  -96.125; -630.000; -494.000
285.724;  -52.750; -282.000; -322.000
285.863; -118.225; -857.000; -507.000
286.002;  -50.300; -366.000; -276.000
286.142; -111.150; -715.000; -622.000
286.281;  -76.375; -525.000; -493.000
286.420;  -82.925; -554.000; -417.000
286.560;   88.850;  653.000;  623.000
286.699; -134.675; -958.000; -912.000
286.838;  -91.675; -590.000; -591.000
286.978;  -96.150; -533.000; -537.000
287.117; -138.225;-1085.000; -950.000
287.256;  -39.250; -228.000; -211.000
287.395;  -67.775; -197.000; -378.000
287.535;  -64.650; -370.000; -298.000
287.674;  -80.850; -509.000; -484.000
287.813;   52.325;  661.000;  533.000
287.952; -129.150;-1010.000; -871.000
288.091; -147.250;-1049.000; -915.000
288.231;   -4.250;   13.000;   15.000
288.370; -156.800;-1217.000;-1200.000
288.509;  -84.700; -728.000; -645.000
288.648;  -84.825; -770.000; -548.000
288.787;  -47.700; -243.000;  -87.000
288.926;  -66.200; -454.000; -475.000
289.065;   92.225;  859.000;  672.000
289.204;  -46.300; -377.000; -217.000
289.344; -114.550; -791.000; -690.000
289.483;   14.375;  416.000;  304.000
289.622;  -35.100; -291.000; -149.000
289.761;  -32.800; -309.000; -166.000
289.900; -108.950; -785.000; -626.000
290.039;  -26.300;  -12.000;  -95.000
290.178;  -37.300; -274.000; -180.000
290.317;  -79.425; -618.000; -479.000
290.456;  -64.475; -463.000; -451.000
290.595; -125.875; -961.000; -833.000
290.734; -140.750; -904.000; -891.000
290.873;  -68.700; -456.000; -420.000
291.011; -110.100; -833.000; -843.000
291.150; -103.650; -770.000; -682.000
291.289;  -34.075; -343.000; -110.000
291.428; -107.400; -599.000; -480.000
291.567;  -58.900; -370.000; -442.000
291.706;   -8.075;  109.000;  154.000
291.845;  -93.550; -597.000; -505.000
291.984; -165.200;-1234.000;-1061.000
292.122;   66.000;  602.000;  582.000
292.261;   36.950;  620.000;  463.000
292.400;   -2.900; -144.000;  211.000
292.539; -124.900; -959.000; -813.000
292.678;  -39.200; -325.000; -300.000
292.816; -163.500;-1136.000; -965.000
292.955;  -92.675; -844.000; -684.000
293.094;  -37.350; -173.000; -337.000
293.233;  -69.100; -556.000; -400.000
293.371;  -44.725; -225.000;  -84.000
293.510; -104.925; -866.000; -780.000
293.649; -136.825; -959.000; -924.000
293.787; -115.075;-1083.000;-1012.000
293.926;  -22.875; -113.000;  -32.000
294.065;  -46.275; -379.000; -290.000
294.203;   31.400;  298.000;  406.000
294.342;   20.825;   74.000;  156.000
294.481; 4992.900;51180.000; -836.000
294.619;  -50.100; -425.000; -582.000
294.758; -152.200;-1230.000;-1137.000
294.896;    5.650; -125.000;    5.000
295.035; -144.450;-1040.000;-1006.000
295.174; -141.225;-1082.000; -954.000
295.312;  -45.000; -323.000; -203.000
295.451;  -40.300; -307.000; -428.000
295.589;  -78.550; -389.000; -518.000
295.728;   -1.200; -292.000; -165.000
295.866;  -28.250;  -36.000;  -51.000
296.005;  -64.675; -584.000; -341.000
296.143;  -80.750; -558.000; -596.000
296.282; -108.550; -957.000; -881.000
296.420;  -92.150; -657.000; -557.000
296.559; -105.575; -892.000; -633.000
296.697;  -68.325; -847.000; -665.000
296.835;  -86.400;-1141.000;-1002.000
296.974;    9.100;  -23.000;   39.000
297.112;  -41.050; -443.000; -504.000
297.251;  -89.525; -815.000; -755.000
297.389;  -14.750; -576.000; -438.000
297.527;   -6.525; -145.000;  -83.000
297.666;  -81.400; -486.000; -438.000
297.804;  -51.125; -404.000; -264.000
297.942;  -15.800; -136.000; -161.000
298.081;   -9.300; -183.000;   63.000
298.219;    4.525;  -17.000;  -19.000
298.357;  -12.350; -144.000;  -71.000
298.495;  -66.150; -810.000; -812.000
298.634;   15.175;  245.000;  219.000
298.772;  -32.600; -220.000; -338.000
298.910;  -59.400; -309.000; -182.000
299.048;  -45.125; -130.000; -153.000
299.187;  -46.200; -350.000; -250.000
299.325;    0.000;   52.000;  122.000
299.463;  -34.075; -389.000; -299.000
299.601;  -14.675; -327.000; -271.000
299.739; -123.325; -908.000; -883.000
299.877;  -91.150; -791.000; -703.000
300.016;  -93.075;-1095.000; -935.000
300.154;   26.775;  -19.000; -161.000
300.292;  -52.625; -428.000; -348.000
300.430;  -28.200; -408.000; -291.000
300.568; -125.625; -940.000; -874.000
300.706;  -62.425; -366.000; -469.000
300.844; -127.925;-1108.000; -979.000
300.982;   59.575;  246.000;  282.000
301.120; -132.850; -965.000; -866.000
301.258;  -96.600; -812.000; -705.000
301.396;   11.450;  104.000;  -41.000
301.534;  -25.550; -218.000; -293.000
301.672;  -79.400; -664.000; -521.000
301.810;  -67.850; -613.000; -545.000
301.948;    9.600;   53.000;  149.000
302.086;  196.700; -250.000;  -32.000
302.224;  221.400; -610.000; -585.000
302.362;  -75.650; -558.000; -622.000
302.500; -100.050; -923.000; -893.000
302.638;   29.425;  128.000;  245.000
302.776;  -44.625; -352.000; -408.000
302.913;   29.575;  447.000;  236.000
303.051;  -38.500;  -86.000;  -23.000
303.189;    7.050;   90.000;  118.000
303.327;  -61.175; -341.000; -256.000
303.465;  -93.225; -832.000; -588.000
303.603; -111.650; -805.000; -604.000
303.740;   47.750;  417.000;  241.000
303.878;  -71.925; -800.000; -759.000
304.016;  -95.950; -915.000; -790.000
304.154; -148.575;-1123.000;-1152.000
304.291;  -56.825; -505.000; -554.000
304.429;   -0.625;  102.000;   74.000
304.567; -129.400; -908.000; -893.000
304.705;  -78.000; -408.000; -515.000
304.842;  -27.700; -616.000; -540.000
304.980;   16.250;  215.000;   35.000
305.118;  -24.500; -367.000; -365.000
305.255; -140.800; -945.000; -927.000
305.393;   25.550;  178.000;  239.000
305.531; -126.650;-1173.000; -956.000
305.668;  -75.175; -663.000; -582.000
305.806;    1.725; -358.000; -439.000
305.943;  -31.875; -629.000; -637.000
306.081;  -28.325; -378.000; -267.000
306.219; -111.175; -863.000; -748.000
306.356;   -4.250;  158.000;   27.000
306.494;   88.075;  981.000;  761.000
306.631;   -5.800;  -11.000;  -55.000
306.769;  -29.725; -613.000; -485.000
306.906;  -35.400; -284.000; -258.000
307.044;  -57.050; -473.000; -488.000
307.181;  -55.575; -410.000; -332.000
307.319;    4.000;  112.000;   87.000
307.456; -171.975;-1191.000;-1153.000
307.594; -110.625; -980.000; -727.000
307.731;  -34.325; -371.000; -164.000
307.868;  -12.375;  -15.000;   20.000
308.006; -124.500; -961.000; -847.000
308.143;  -69.150; -618.000; -330.000
308.281;   33.000;  -37.000; -254.000
308.418;  -56.200; -748.000; -640.000
308.555;  -81.800; -400.000; -250.000
308.693;  -66.975; -577.000; -573.000
308.830; -110.625; -712.000; -657.000
308.967;  -17.125; -215.000;  -95.000
309.105;  -52.900; -507.000; -396.000
309.242;   -9.750; -468.000; -367.000
309.379;   36.725; -577.000; -655.000
309.517;  -95.600; -936.000; -948.000
309.654; -105.925; -910.000; -734.000
309.791;  -63.925; -662.000; -580.000
309.928; -119.775; -977.000; -914.000
310.065;  116.750;  819.000;  697.000
310.203;  -69.450; -825.000; -850.000
310.340;  -43.750; -465.000; -321.000
310.477;  -77.675; -412.000; -516.000
310.614;  -67.950; -383.000; -473.000
310.751;  -65.075; -427.000; -518.000
310.889;  -22.250;    1.000;   11.000
311.026; -158.025;-1161.000; -939.000
311.163;  -50.175; -386.000; -380.000
311.300;  -73.925; -512.000; -479.000
311.437;  -74.150; -658.000; -619.000
311.574; -143.350;-1226.000; -985.000
311.711;  -62.675; -595.000; -433.000
311.848;  -28.125; -380.000; -388.000
311.985;   -0.025;  270.000;   93.000
312.122; -120.325; -932.000; -762.000
312.259; -110.575; -941.000; -994.000
312.396;  -70.100; -508.000; -551.000
312.533;  -80.700; -812.000; -790.000
312.670; -135.325;-1070.000; -898.000
312.807;  -22.950; -352.000; -367.000
312.944;  -75.425; -513.000; -611.000
313.081;  -25.475; -150.000; -415.000
313.218; -104.525;-1111.000; -867.000
313.355;  -19.475; -531.000; -449.000
313.492;  -15.175; -455.000; -292.000
313.629;  107.700;  815.000;  735.000
313.766; -148.225;-1176.000;-1008.000
313.902;  -14.675; -186.000;   21.000
314.039;  -44.975; -372.000; -289.000
314.176;    9.400;  286.000;  192.000
314.313;  -86.275; -569.000; -473.000
314.450;  -69.575; -788.000; -684.000
314.587;  -66.825; -468.000; -480.000
314.723;   12.400;  -78.000;  130.000
314.860;   41.525;  318.000;  332.000
314.997;   17.025;  223.000;  142.000
315.134;  -37.900; -385.000; -368.000
315.270;  -36.950; -480.000; -496.000
315.407; -113.425;-1094.000; -967.000
315.544;  -38.925; -657.000; -538.000
315.681;  -57.100; -681.000; -565.000
315.817;   27.900; -133.000; -176.000
315.954;   29.075; -613.000; -392.000
316.091; -113.600;-1045.000;-1023.000
316.227;  -30.625;  -71.000; -179.000
316.364;   -8.300;   23.000;    6.000
316.500;  -47.350; -113.000; -300.000
316.637;  -43.075; -181.000; -302.000
316.774;  -98.350; -625.000; -358.000
316.910;  -93.900; -598.000; -629.000
317.047;  -78.525; -487.000; -351.000
317.183;  -65.925; -435.000; -566.000
317.320;   40.150; -367.000; -321.000
317.456;  -34.250; -733.000; -805.000
317.593;  -81.725; -598.000; -641.000
317.729;   -3.625;  168.000;  -67.000
317.866; -192.750;-1434.000;-1285.000
318.002;  -92.850; -708.000; -948.000
318.139; -123.200; -883.000; -867.000
318.275; -106.575;-1003.000; -738.000
318.412;  -76.500; -517.000; -336.000
318.548;  -80.975; -751.000; -720.000
318.685; -110.550; -985.000; -888.000
318.821; -102.225; -762.000; -735.000
318.957;  -27.750;   34.000;  -23.000
319.094;   20.700;  297.000;  154.000
319.230;  -95.275; -756.000; -742.000
319.367;  -20.325; -471.000; -520.000
319.503;  -29.950; -538.000; -436.000
319.639; -103.750; -877.000; -793.000
319.775;  -98.000; -750.000; -685.000
319.912;  -68.200; -424.000; -519.000
320.048;  -97.400;-1184.000;-1184.000
320.184;   97.875;   59.000;   70.000
320.321;  -65.200; -497.000; -467.000
320.457;   70.125;  475.000;  662.000
320.593;  -68.500; -375.000; -382.000
320.729; -106.975; -732.000; -734.000
320.866;  -75.750; -577.000; -635.000
321.002;  -96.975; -759.000; -809.000
321.138;  -52.875; -135.000; -211.000
321.274;   20.575; -148.000; -115.000
321.410;  -53.000; -585.000; -353.000
321.546; -102.225;-1011.000; -911.000
321.683;   24.125;  400.000;  185.000
321.819;  -11.025;  -48.000; -117.000
321.955; -111.625; -743.000; -722.000
322.091;  -80.050; -585.000; -540.000
322.227;  -38.500; -382.000; -202.000
322.363;  -45.475; -320.000; -215.000
322.499;  -62.650; -343.000; -331.000
322.635;   94.225;  636.000;  443.000
322.771;  -17.375; -139.000;   12.000
322.907;   29.250;  129.000;  327.000
323.043;  -42.650; -115.000; -206.000
323.179;  -68.125; -394.000; -363.000
323.315;  -43.100; -401.000; -371.000
323.451;   16.925; -328.000; -236.000
323.587;   46.025;  -60.000;  -77.000
323.723;  -55.975; -682.000; -601.000
323.859;  -25.375; -258.000;  -76.000
323.995;  -63.725; -467.000; -409.000
324.131; -111.100; -967.000; -892.000
324.267;  -46.825; -254.000; -276.000
324.402; -139.175; -960.000; -983.000
324.538;  -45.600; -279.000; -104.000
324.674;  -11.900;  164.000;   77.000
324.810;   33.875;  226.000;  308.000
324.946;  -66.750; -810.000; -658.000
325.082;  -89.475; -568.000; -475.000
325.217;  -22.325;  -62.000;   16.000
325.353; -112.850; -764.000; -659.000
325.489;  -94.350; -540.000; -506.000
325.625;  -69.875; -579.000; -525.000
325.760;   76.950;  517.000;  376.000
325.896;   18.850; -515.000; -702.000
326.032;  -56.075; -403.000; -352.000
326.168;  -71.700; -462.000; -369.000
326.303;  -64.850; -352.000; -461.000
326.439;  -16.075; -336.000; -276.000
326.575;   -2.550; -190.000;  -29.000
326.710;  -16.775; -156.000;  -30.000
326.846;  -11.200;  146.000;  103.000
326.982;  -87.850; -530.000; -548.000
327.117;  -77.225; -481.000; -442.000
327.253;  -87.150; -745.000; -742.000
327.388; -130.050;-1137.000;-1153.000
327.524;  -88.500; -811.000; -578.000
327.659;  -38.025;  -58.000;  -22.000
327.795;  -16.950;   69.000;   45.000
327.931;  -81.600; -723.000; -499.000
328.066;  -34.475; -417.000; -276.000
328.202;  -29.800;   12.000; -129.000
328.337;   68.700;  957.000;  713.000
328.473;   19.025;  -12.000;  -74.000
328.608;  -31.250; -256.000; -267.000
328.743; -117.850; -799.000; -664.000
328.879;   -1.100;  214.000;  114.000
329.014;  -38.950; -102.000; -122.000
329.150;  -80.450; -358.000; -483.000
329.285;  -84.350; -465.000; -466.000
329.421;  -50.750; -548.000; -246.000
329.556;  -29.400;  -36.000;   85.000
329.691;  -90.175; -633.000; -615.000
329.827;  -80.225; -626.000; -480.000
329.962;  -42.500;  131.000; -301.000
330.097;  -88.050; -673.000; -585.000
330.233;  -55.800; -410.000; -223.000
330.368; -123.600; -839.000; -628.000
330.503;  -24.775;    3.000;   98.000
330.638;  -32.825;  -93.000; -125.000
330.774;  -80.350; -609.000; -530.000
330.909;  -51.300; -434.000; -244.000
331.044; -102.050; -714.000; -708.000
331.179; -168.250;-1217.000;-1109.000
331.315;  -11.850;   77.000;   20.000
331.450;    1.250;  157.000;  285.000
331.585;  -87.650; -805.000; -706.000
331.720;  -76.550; -510.000; -460.000
331.855;  -12.325;  -35.000; -102.000
331.990;  413.700;   62.000;  138.000
332.126;  217.300; -110.000;   71.000
332.261;   13.000; -379.000; -265.000
332.396;    9.450; -135.000; -242.000
332.531;  -51.500;-1074.000;-1031.000
332.666;   89.525; -519.000; -363.000
332.801;  -95.825; -726.000; -807.000
332.936;  -27.550; -192.000; -122.000
333.071; -131.725; -870.000; -817.000
333.206;   -8.125;  307.000;  379.000
333.341;   25.550;  344.000;  418.000
333.476;  -84.425; -627.000; -623.000
333.611;  -41.925; -251.000; -173.000
333.746;  -45.950; -381.000; -464.000
333.881; -118.675; -973.000; -935.000
334.016; -128.875; -936.000; -917.000
334.151; -123.650; -746.000; -702.000
334.286;    9.700;  152.000;  186.000
334.421;  -30.300; -125.000; -178.000
334.556;  -66.350; -611.000; -567.000
334.690;  -93.700; -631.000; -577.000
334.825;   33.425;  381.000;   83.000
334.960;  -64.650; -285.000; -413.000
335.095;   -0.150;  135.000;  -91.000
335.230;  -94.825; -722.000; -738.000
335.365; -133.650;-1084.000; -990.000
335.499; -134.000;-1108.000;-1037.000
335.634;   11.025;    9.000;  534.000
335.769; -102.725; -755.000; -720.000
335.904;  -72.600; -603.000; -561.000
336.038;  -43.000; -735.000; -657.000
336.173; -108.800;-1206.000;-1194.000
336.308;    7.700; -116.000; -189.000
336.443;   67.300; -544.000; -634.000
336.577;  -59.850; -936.000; -787.000
336.712;   68.400;   -4.000;  -12.000
336.847;  -29.600; -724.000; -607.000
336.981;   57.850; -272.000; -208.000
337.116;  279.250;  615.000;  501.000
337.250;  128.275; -434.000; -421.000
337.385;  467.225; -297.000; -208.000
337.520;  236.000; -632.000; -603.000
337.654;  -22.250; -215.000; -126.000
337.789; -140.875; -989.000; -933.000
337.923;  -31.900; -104.000; -205.000
338.058; -101.400; -673.000; -738.000
338.192;  -54.850; -611.000; -488.000
338.327;   -1.000;  -18.000; -155.000
338.461;  -72.000; -299.000; -469.000
338.596;  -95.000; -780.000; -638.000
338.730; -100.625; -767.000; -803.000
338.865;  145.300;  -46.000; -140.000
338.999;    5.425; -846.000; -702.000
339.134;   -0.775; -634.000; -536.000
339.268;   31.850; -741.000; -603.000
339.403;  571.700; -740.000; -775.000
339.537;  265.150; -894.000; -820.000
339.671;  -96.900; -829.000; -813.000
339.806;  -27.700; -556.000; -512.000
339.940;   28.500; -261.000; -235.000
340.074;  -97.900; -685.000; -510.000
340.209;  -57.675; -351.000; -230.000
340.343; -101.925; -517.000; -573.000
340.477;  124.300;  998.000; 1036.000
340.612;   12.425;-1033.000; -900.000
340.746;  247.550; -199.000; -243.000
340.880; -104.550; -924.000; -785.000
341.014;  -36.450;  -45.000; -154.000
341.149; -114.725; -756.000; -718.000
341.283; -109.750; -839.000; -754.000
341.417; -138.750;-1124.000; -938.000
341.551;  -35.650; -768.000; -708.000
341.685;  -61.725; -633.000; -611.000
341.820;  -37.800; -562.000; -493.000
341.954;  -60.025; -218.000; -349.000
342.088; -151.950;-1102.000;-1019.000
342.222;   20.850;  565.000;  618.000
342.356;  -79.775; -395.000; -335.000
342.490; -124.375; -880.000; -841.000
342.624;  -54.250; -339.000; -242.000
342.758;  -60.050; -364.000; -312.000
342.892; -110.350; -710.000; -585.000
343.026;  -53.200;  -58.000; -116.000
343.160;  -75.225; -426.000; -376.000
343.294;  -97.875; -474.000; -337.000
343.428;  -78.000; -488.000; -448.000
343.562;  -42.100; -172.000;  -23.000
343.696;  -52.725; -385.000; -314.000
343.830;  -55.600; -362.000; -356.000
343.964;  -24.125; -231.000; -168.000
344.098;  285.725;  199.000;   70.000
344.232;  230.850; -266.000; -127.000
344.366;   76.050; -567.000; -453.000
344.500;  -47.625; -665.000; -744.000
344.634;  -54.575; -324.000; -164.000
344.768;  -61.750; -531.000; -341.000
344.902;   -1.375;  278.000;  256.000
345.035;  -88.075; -556.000; -496.000
345.169; -134.850; -933.000; -656.000
345.303;  -70.150; -308.000; -482.000
345.437; -106.825; -826.000; -717.000
345.571;  -62.100; -675.000; -594.000
345.704;  -73.325; -309.000; -532.000
345.838;  -24.175; -331.000; -284.000
345.972;  -59.750; -543.000; -495.000
346.106;  242.925; -179.000; -190.000
346.239;  466.225; -312.000; -243.000
346.373;  -19.800; -343.000; -302.000
346.507; -146.825; -950.000; -962.000
346.640;   12.800;  -30.000;   13.000
346.774;  -86.200; -650.000; -797.000
346.908;  -30.875; -138.000;  -11.000
347.041; -101.700; -646.000; -593.000
347.175;   -8.550;  259.000;   27.000
347.309;  -95.175; -698.000; -628.000
347.442; -126.500; -883.000; -732.000
347.576;  116.075;  670.000;  668.000
347.709;   32.000; -123.000;  -52.000
347.843; -124.150; -933.000; -825.000
347.976;   25.250;  235.000;  294.000
348.110; -179.450;-1268.000;-1186.000
348.243; -117.975; -679.000; -772.000
348.377;  -10.300;  -26.000;   60.000
348.510;   36.000;  403.000;  540.000
348.644;  -45.275;  -37.000; -159.000
348.777;  -19.750;  180.000;  191.000
348.911;  -50.550; -142.000; -112.000
349.044;   73.400;  471.000;  448.000
349.178;  -46.800;-1069.000;-1006.000
349.311;   96.500;  141.000;  255.000
349.444;   43.900; -927.000; -813.000
349.578;  -35.925; -347.000; -200.000
349.711; -127.400; -959.000; -862.000
349.845;  -76.050; -661.000; -591.000
349.978; -161.100;-1224.000;-1137.000
350.111;  -96.700; -546.000; -612.000
350.244; -103.550; -596.000; -700.000
350.378;  -65.150; -392.000; -393.000
350.511;  -76.375; -393.000; -426.000
350.644; -111.625; -808.000; -806.000
350.778;    6.250;  168.000;  104.000
350.911;   -3.125;  134.000;  140.000
351.044; -103.050; -685.000; -615.000
351.177;  -46.925; -321.000; -281.000
351.310;  -34.850;    3.000; -131.000
351.444; -130.300; -888.000; -788.000
351.577;   20.800;  140.000;   90.000
351.710;   66.600;  593.000;  417.000
351.843;  -32.650; -165.000;  -77.000
351.976;  -11.325;  149.000;  -79.000
352.109;  -93.300; -621.000; -612.000
352.242;  -66.600; -464.000; -419.000
352.376;  -99.050; -580.000; -636.000
352.509;   14.925; -437.000; -356.000
352.642;  -87.800; -654.000; -604.000
352.775;    1.850; -141.000;  -98.000
352.908; -137.325; -933.000; -904.000
353.041; -100.400; -814.000; -824.000
353.174;  -79.450; -551.000; -424.000
353.307;  -92.600; -753.000; -764.000
353.440;   58.125;  541.000;  453.000
353.573; -103.925; -957.000;-1008.000
353.706;  -47.300; -384.000; -558.000
353.839;  -45.950; -264.000; -220.000
353.971;  -86.825; -657.000; -512.000
354.104; -103.975; -896.000; -835.000
354.237;  -70.675; -627.000; -662.000
354.370; -111.200; -846.000; -879.000
354.503; -192.175;-1231.000;-1308.000
354.636;  -37.400; -529.000; -348.000
354.769; -128.100; -937.000; -860.000
354.902;  -23.925; -230.000; -139.000
355.034;  -27.500; -164.000; -220.000
355.167;  -22.250; -262.000; -162.000
355.300;  -78.025;-1061.000; -880.000
355.433; 1438.825;  -71.000;  -14.000
355.565; 2262.200; -402.000; -384.000
355.698;  606.700; -356.000; -296.000
355.831;  -17.650; -882.000; -801.000
355.964;   12.900; -285.000; -170.000
356.096;  -72.450; -856.000; -843.000
356.229;   -2.625; -523.000; -530.000
356.362;  530.625; -373.000; -266.000
356.494;  916.675; -229.000; -162.000
356.627;  331.850;  269.000;  377.000
356.760;  880.125;  120.000;   53.000
356.892; 1517.000; -286.000; -601.000
357.025;  334.775;  403.000;  389.000
357.157;  230.275; -167.000; -179.000
357.290; 1202.075; -856.000; -713.000
357.423;  368.850; -667.000; -556.000
357.555;   91.325; -217.000; -228.000
357.688;  121.550; -483.000; -364.000
357.820;  166.800; -870.000; -877.000
357.953; 1467.300; -563.000; -589.000
358.085;  219.050; -632.000; -612.000
358.218;   94.800;-1131.000; -932.000
358.350;   34.625;  -58.000;  312.000
358.483; -167.750;-1300.000;-1187.000
358.615; -127.925;-1182.000;-1078.000
358.747; -150.125;-1187.000;-1058.000
358.880;  -52.500; -810.000; -744.000
359.012;  -34.600; -376.000; -202.000
359.145;  -69.375; -480.000; -511.000
359.277;  -64.975; -962.000; -913.000
359.409; 1228.525;  536.000;  231.000
359.542;  256.375; -738.000; -688.000
359.674;   15.250;   46.000;   13.000
359.806;  -77.925; -565.000; -438.000
359.939;  -35.575; -617.000; -516.000
360.071;   26.300; -583.000; -579.000
360.203;  -23.975; -411.000; -364.000
360.335;   19.125;  164.000;  -16.000
360.468;   85.300; -249.000; -307.000
360.600; 1301.275; -547.000; -454.000
360.732; 4317.250; -546.000; -423.000
360.864;  670.725;-1216.000;-1044.000
360.996;   60.150; -516.000; -554.000
361.129;  -44.600; -389.000; -598.000
361.261;    0.975;  110.000; -113.000
361.393;  -52.700; -252.000; -214.000
361.525;    7.675;   94.000;  244.000
361.657; -110.950; -821.000; -703.000
361.789;  -39.950; -139.000; -155.000
361.921;  -37.625; -642.000; -593.000
362.053;   88.550;  524.000;  541.000
362.185;  -21.275;  288.000;   72.000
362.318; -117.175; -709.000; -705.000
362.450;   26.050;  294.000;  444.000
362.582; -100.625; -913.000; -870.000
362.714;  -70.150; -353.000; -332.000
362.846;  -85.550; -606.000; -490.000
362.978; -143.100; -941.000; -811.000
363.109;  -26.750; -161.000; -260.000
363.241;  150.900; -739.000; -749.000
363.373;  622.850; -649.000; -564.000
363.505; 1051.950; -186.000;  -91.000
363.637;  233.825; -787.000; -601.000
363.769; -133.275;-1067.000;-1080.000
363.901;  -81.425; -596.000; -654.000
364.033; -148.350;-1103.000;-1062.000
364.165;  -28.750; -283.000; -283.000
364.296;   90.500; -316.000; -177.000
364.428;  190.825;-1344.000;-1220.000
364.560;  -69.825; -679.000; -661.000
364.692;  -77.400; -738.000; -835.000
364.824;   -5.750; -588.000; -456.000
364.955;  507.150; -402.000; -564.000
365.087; 1710.775;-1097.000; -852.000
365.219;  110.400; -686.000; -816.000
365.351;  -85.600; -526.000; -572.000
365.482;    1.700;  300.000;  240.000
365.614;  -58.475; -402.000; -314.000
365.746; -113.150; -729.000; -752.000
365.877;  -99.125; -706.000; -672.000
366.009;  425.100;  -35.000;  -62.000
366.141;  -28.600;-1249.000;-1134.000
366.272; -106.200; -803.000; -719.000
366.404; -121.950;-1005.000; -874.000
366.535;   -4.825; -139.000;  -12.000
366.667; -117.225; -644.000; -649.000
366.799;   22.275;  353.000;  203.000
366.930; -134.225; -862.000; -996.000
367.062;  195.075; -639.000; -613.000
367.193;  343.125; -872.000; -842.000
367.325;  -51.675; -580.000; -684.000
367.456;    0.675; -246.000;   31.000
367.588;  270.650; -371.000; -318.000
367.719;   35.675;  -44.000;  -45.000
367.851;  -46.675; -222.000; -241.000
367.982; -119.875; -875.000; -732.000
368.113;  -23.200; -475.000; -358.000
368.245; -147.350; -960.000; -841.000
368.376;  -38.025; -254.000; -302.000
368.508;  -65.975; -188.000; -263.000
368.639; -173.900;-1166.000;-1034.000
368.770;  -97.175; -670.000; -589.000
368.902; -111.475; -836.000; -926.000
369.033; -138.900; -906.000; -855.000
369.164;  -37.975; -720.000; -653.000
369.296; -109.750; -452.000; -601.000
369.427;  -41.725; -209.000; -144.000
369.558;  -76.075; -593.000; -377.000
369.689;  -84.525; -721.000; -569.000
369.821; -148.000; -951.000; -845.000
369.952;  -22.700;   42.000; -108.000
370.083;  -55.450; -229.000; -108.000
370.214; -104.100; -735.000; -650.000
370.345;  -26.500;   65.000;   81.000
370.477; -117.575; -810.000; -790.000
370.608;   12.450; -328.000; -264.000
370.739; -137.950;-1233.000;-1292.000
370.870; -118.225;-1102.000; -923.000
371.001;  -31.975; -378.000; -467.000
371.132;  -99.675; -754.000; -735.000
371.263;  -42.550;  -42.000; -148.000
371.394; -144.525; -841.000; -748.000
371.525;   13.300;  345.000;  225.000
371.657; -130.850; -808.000; -670.000
371.788;   11.300;  103.000;  199.000
371.919;    4.350; -384.000; -304.000
372.050; 1238.600;  -91.000; -156.000
372.181;  379.125; -188.000; -294.000
372.311;   94.975;   42.000; -127.000
372.442;  -59.450; -457.000; -451.000
372.573;  -54.375; -444.000; -340.000
372.704; -142.125;-1008.000; -980.000
372.835;  -34.575; -228.000; -289.000
372.966;  -83.475; -646.000; -554.000
373.097;  -91.600; -575.000; -711.000
373.228; -102.550; -717.000; -542.000
373.359;  -58.225; -824.000; -536.000
373.490;  149.500; -881.000; -727.000
373.620;  237.150;-1001.000; -803.000
373.751;  500.800; -332.000; -396.000
373.882;  205.825; -663.000; -733.000
374.013;  -28.875; -449.000; -262.000
374.143;  -88.475; -581.000; -659.000
374.274; -133.850; -987.000; -908.000
374.405;   53.775; -388.000; -276.000
374.536;  107.100; -526.000; -387.000
374.666;  272.025; -759.000; -807.000
374.797;  -11.350; -817.000; -868.000
374.928;  177.400; -710.000; -560.000
375.058;  189.725; -535.000; -500.000
375.189;    4.475;  -59.000;  -93.000
375.320; -124.300; -928.000;-1034.000
375.450;  -45.250; -625.000; -616.000
375.581;  -47.250; -526.000; -436.000
375.712;  -49.975; -574.000; -250.000
375.842;    5.050; -438.000; -415.000
375.973;  -19.775; -554.000; -513.000
376.103;  -98.175; -665.000; -648.000
376.234; -101.450; -531.000; -552.000
376.364; -121.700; -944.000; -867.000
376.495;  131.500;  925.000;  529.000
376.625;  -63.525; -472.000; -485.000
376.756;  -61.575; -709.000; -678.000
376.886; -128.625;-1178.000;-1026.000
377.017;  146.025;-1048.000;-1061.000
377.147;  664.075; -786.000; -782.000
377.278;   71.550;  174.000;  228.000
377.408; -127.975; -801.000; -815.000
377.538; -105.625; -707.000; -693.000
377.669;  -74.275; -537.000; -613.000
377.799; -115.800; -645.000; -635.000
377.929;  -87.000; -610.000; -428.000
378.060; -124.975; -781.000; -847.000
378.190;  -41.250; -726.000; -531.000
378.320;  -57.075; -401.000; -406.000
378.451;  -36.175; -131.000;  -22.000
378.581;  -35.525;  -67.000; -110.000
378.711;   82.300; 1035.000;  866.000
378.841;  -70.475; -533.000; -675.000
378.972; -124.200; -871.000; -751.000
379.102;  -88.400; -652.000; -579.000
379.232;  -48.275; -126.000;  -73.000
379.362; -126.975;-1001.000; -885.000
379.492;  -69.675; -373.000; -424.000
379.623;   21.825;    0.000;  111.000
379.753; -127.175;-1107.000; -974.000
379.883;   72.950;   59.000;  156.000
380.013;  -90.050;-1081.000;-1017.000
380.143; -119.525;-1097.000;-1056.000
380.273; -109.000; -985.000; -861.000
380.403;   11.200; -344.000; -257.000
380.533;  -47.975; -651.000; -664.000
380.663;    8.325;  173.000;  128.000
380.793; -147.625;-1027.000;-1074.000
380.923;  -44.300; -103.000;  -34.000
381.053; -113.850; -613.000; -623.000
381.183;  -42.875; -106.000; -248.000
381.313;  -68.550; -656.000; -470.000
381.443;  -70.075; -692.000; -473.000
381.573;  -32.275; -402.000; -409.000
381.703;  -87.950;-1249.000;-1095.000
381.833; -178.875;-1454.000;-1336.000
381.963;   13.250; -134.000;  -87.000
382.093;  389.950; -925.000; -909.000
382.223;   78.275; -713.000; -602.000
382.353; -101.125; -801.000; -608.000
382.482;   -5.150;-1091.000; -964.000
382.612;  157.150; -872.000; -644.000
382.742;   66.175; -695.000; -622.000
382.872;  -23.425; -565.000; -551.000
383.002;   15.650;  347.000; -132.000
383.131;  -36.650; -226.000; -160.000
383.261;  -41.050; -706.000; -768.000
383.391;  331.000; -552.000; -377.000
383.521; 5096.875;  451.000;  263.000
383.650; 1534.075; -947.000; -904.000
383.780;   39.775; -783.000; -656.000
383.910;   88.675;  880.000;  802.000
384.039;  -86.400; -794.000; -656.000
384.169;  -95.700;-1205.000;-1017.000
384.299;  -92.275; -650.000; -662.000
384.428; -112.500; -764.000; -680.000
384.558;  -63.100; -308.000; -275.000
384.687;  -89.000; -414.000; -334.000
384.817;  -23.875;   75.000;   -2.000
384.947;  -32.900; -234.000; -141.000
385.076;  140.750;  982.000;  912.000
385.206;   55.225;  369.000;  480.000
385.335;  -77.800; -549.000; -417.000
385.465; -105.025; -655.000; -663.000
385.594;    8.700;  -53.000;  -44.000
385.724;   14.425; -868.000; -838.000
385.853;  -24.000; -296.000; -270.000
385.982;  353.625; -743.000; -787.000
386.112;  627.275;-1052.000; -871.000
386.241;    6.200; -307.000; -312.000
386.371;  -37.625; -174.000;  -87.000
386.500;  -65.725; -825.000; -789.000
386.629;   -6.025; -874.000; -817.000
386.759;   68.100;  -43.000;   68.000
386.888;  -28.725; -170.000; -250.000
387.017;  -93.775; -648.000; -620.000
387.147; -119.700; -771.000; -798.000
387.276;  -80.000; -410.000; -397.000
387.405;  -48.850; -398.000; -342.000
387.535;  -56.675; -452.000; -361.000
387.664;  -88.225; -692.000; -620.000
387.793;  -26.850; -198.000; -113.000
387.922;  141.850;  255.000;  200.000
388.052;  -61.600; -576.000; -423.000
388.181;  -54.300; -342.000; -472.000
388.310; -101.175; -889.000; -710.000
388.439; -115.975; -749.000; -742.000
388.568;   37.175;  365.000;  244.000
388.697;  239.925; -756.000; -653.000
388.826;  -18.475; -768.000; -666.000
388.956;  -39.750; -285.000; -307.000
389.085;  -69.800; -347.000; -287.000
389.214; -119.000; -842.000; -872.000
389.343;  -82.000; -645.000; -413.000
389.472;  556.425;  126.000;  149.000
389.601;  640.825;   91.000;    0.000
389.730;  -24.650; -568.000; -687.000
389.859;   20.250;  226.000;   46.000
389.988;   15.200; -423.000; -408.000
390.117;   17.375; -168.000; -146.000
390.246;  -42.875; -331.000; -320.000
390.375;  -62.675; -673.000; -626.000
390.504;  -85.325; -703.000; -621.000
390.633; -120.950; -672.000; -726.000
390.761; -113.275; -732.000; -645.000
390.890;  -36.325;   -4.000; -130.000
391.019;  -78.750; -421.000; -441.000
391.148; -139.775; -826.000; -855.000
391.277;  -88.575; -576.000; -493.000
391.406; -116.075; -821.000; -805.000
391.534;  -10.650;  574.000; -301.000
391.663;  -94.350; -583.000; -645.000
391.792; -118.475; -673.000; -701.000
391.921;  -10.275;   -3.000;   15.000
392.050;  -15.925; -287.000; -228.000
392.178; -150.650;-1206.000;-1061.000
392.307;  -40.125; -758.000; -712.000
392.436;  -57.375; -427.000; -641.000
392.564;    3.500;  166.000;   -6.000
392.693; -110.525; -860.000; -682.000
392.822;  -12.775; -529.000; -534.000
392.950;  -60.925; -880.000; -714.000
393.079;   52.375; -188.000; -328.000
393.208;  -43.275; -488.000; -511.000
393.336;  -22.350; -170.000; -145.000
393.465;  -54.025; -317.000; -199.000
393.593;   -4.850;   62.000;   79.000
393.722; -145.450;-1121.000; -916.000
393.850;  -33.250; -188.000;  -61.000
393.979; -149.350; -926.000; -805.000
394.107;  -71.850; -517.000; -537.000
394.236;  -58.975; -570.000; -507.000
394.364;   85.525;  383.000;  206.000
394.493;   57.725; -911.000; -767.000
394.621;    0.250; -955.000; -916.000
394.750; 1137.825; -873.000; -923.000
394.878; 4473.775; -247.000; -149.000
395.007; 6533.225; -721.000; -807.000
395.135;  579.450; -790.000; -721.000
395.263;  -54.400;-1038.000;-1040.000
395.392;   -9.250;  -25.000; -107.000
395.520; -132.450; -818.000; -679.000
395.648; -136.450; -865.000; -915.000
395.777;  -77.725; -366.000; -405.000
395.905;  -89.800; -449.000; -564.000
396.033;  -12.800;  217.000;  172.000
396.162;   93.025; -399.000; -453.000
396.290;  121.900;  -17.000;   -2.000
396.418;  -55.025; -555.000; -514.000
396.546; -100.300; -571.000; -466.000
396.674; -138.125; -850.000; -878.000
396.803;  -40.450;  -72.000;  -23.000
396.931;  -40.550; -179.000; -199.000
397.059; -134.225;-1026.000; -989.000
397.187; -139.875;-1026.000; -975.000
397.315; -149.225; -884.000; -649.000
397.443;  -95.475; -592.000; -443.000
397.572; -106.700; -578.000; -424.000
397.700;  -94.900; -607.000; -614.000
397.828;  -35.675;  120.000;  -90.000
397.956;  -40.675; -508.000; -478.000
398.084;  -25.975; -767.000; -626.000
398.212;   -3.125;  137.000;  124.000
398.340;  -32.550;  -56.000;  159.000
398.468;  -51.450; -390.000; -169.000
398.596; -160.275; -993.000; -953.000
398.724; -128.850; -762.000; -767.000
398.852; -151.450;-1024.000; -976.000
398.980;  -92.900; -560.000; -560.000
399.108; -106.250; -982.000; -735.000
399.236;  -13.825;   13.000;    8.000
399.363;  -13.325;  222.000;  196.000
399.491;  -71.175; -404.000; -398.000
399.619; -112.775; -829.000; -800.000
399.747; -102.050; -859.000; -771.000
399.875;   30.600;  220.000;  234.000
400.003;  -59.125; -359.000; -284.000
400.130;  -96.075; -421.000; -341.000
400.258;  -43.400;  -83.000;   38.000
400.386;  -68.325; -352.000; -168.000
400.514; -101.075; -526.000; -587.000
400.641; -146.850; -928.000; -802.000
400.769; -164.275; -979.000; -888.000
400.897; -141.825; -838.000; -793.000
401.025;  -56.500; -166.000; -152.000
401.152;  -22.175;  220.000;   38.000
401.280;  -85.175; -430.000; -429.000
401.408; -126.150; -712.000; -576.000
401.535; -119.650; -735.000; -758.000
401.663; -188.700;-1134.000;-1054.000
401.790;  -96.025; -514.000; -525.000
401.918;    6.950;  436.000;  405.000
402.046;  -30.175;  134.000;  122.000
402.173;  -43.575;  -18.000;    7.000
402.301;  -80.275; -519.000; -397.000
402.428;   12.600;  528.000;  383.000
402.556; -159.875;-1188.000; -913.000
402.683;  -35.675;  -20.000;   -1.000
402.811;  -30.900;  -37.000; -206.000
402.938;  -29.325;   20.000;   27.000
403.066;  -16.400; -574.000; -558.000
403.193;   91.450;  299.000;  239.000
403.321;   52.550; -396.000; -574.000
403.448;  100.450;   83.000;   27.000
403.575;   36.650;  -90.000;  -46.000
403.703; -108.500; -732.000; -557.000
403.830;  -73.000; -531.000; -496.000
403.957; -126.950;-1117.000;-1023.000
404.085;   15.250;  -61.000; -172.000
404.212;  104.900;  -50.000;   63.000
404.339;  428.975; -566.000; -306.000
404.467; 9005.325; -612.000; -524.000
404.594; 5476.025; -287.000; -227.000
404.721;  944.950; -869.000; -764.000
404.848;  102.675; -113.000; -202.000
404.976; -101.800; -856.000; -783.000
405.103;  -17.325;  -14.000;  -82.000
405.230;    1.525;  190.000;  226.000
405.357;   29.950;  117.000;   44.000
405.484;  433.050;  -49.000;    5.000
405.612;  119.750; -548.000; -563.000
405.739;  -57.700; -488.000; -243.000
405.866;   67.325;  669.000;  385.000
405.993;  -67.700; -398.000; -102.000
406.120; -155.125; -801.000; -887.000
406.247;  -74.850; -323.000; -342.000
406.374;   99.000;  540.000;  629.000
406.501;  -88.650; -632.000; -702.000
406.628;  -95.700; -621.000; -589.000
406.755; -123.150; -803.000; -620.000
406.882;  -66.700; -228.000; -277.000
407.009; -118.500; -719.000; -628.000
407.136;  -46.325; -480.000; -401.000
407.263;  -59.925; -939.000; -829.000
407.390; -102.925; -692.000; -614.000
407.517; -187.725;-1139.000;-1187.000
407.644;  -88.350; -332.000; -256.000
407.771;  -86.425; -249.000; -287.000
407.898;  -23.775;  168.000;  328.000
408.025;  -89.400; -421.000; -313.000
408.151;  -23.750;   82.000;  153.000
408.278;  -69.425; -267.000; -216.000
408.405; -139.925; -931.000; -899.000
408.532;  -99.200; -549.000; -542.000
408.659; -116.275; -677.000; -648.000
408.785; -195.600;-1298.000;-1170.000
408.912;  -65.075; -412.000; -296.000
409.039; -116.625; -610.000; -686.000
409.166; -111.150; -591.000; -555.000
409.292; -101.075; -571.000; -534.000
409.419; -124.100; -665.000; -649.000
409.546;  -80.250; -431.000; -192.000
409.672; -122.100; -713.000; -545.000
409.799;  -36.200;  -36.000;   34.000
409.926;  -45.925; -180.000; -179.000
410.052; -188.675;-1127.000;-1091.000
410.179;  -91.125; -368.000; -392.000
410.305;  -88.500; -375.000; -493.000
410.432;  -55.225; -220.000; -333.000
410.558; -106.050; -305.000; -380.000
410.685; -117.850; -688.000; -431.000
410.812; -110.350; -409.000; -588.000
410.938; -139.925; -964.000; -808.000
411.065;  -96.200; -671.000; -645.000
411.191;  -41.775; -189.000; -174.000
411.317; -137.950; -823.000; -742.000
411.444;  -84.400; -317.000; -246.000
411.570;  -82.775; -339.000; -294.000
411.697; -127.275; -758.000; -752.000
411.823; -181.850; -989.000; -999.000
411.949;  -56.250;  -56.000;   17.000
412.076; -127.800; -539.000; -519.000
412.202; -129.725; -758.000; -757.000
412.329; -146.600; -798.000; -752.000
412.455; -128.375; -821.000; -657.000
412.581;  -42.700;  -15.000;  172.000
412.707;  -87.525; -540.000; -457.000
412.834;  -12.675;  156.000;  219.000
412.960; -117.325; -785.000; -784.000
413.086; -117.375; -743.000; -701.000
413.212;   99.300;  604.000;  578.000
413.339; -108.725; -685.000; -701.000
413.465;  -59.150; -364.000; -310.000
413.591; -120.775; -757.000; -474.000
413.717;  -57.175; -358.000; -366.000
413.843; -135.700; -839.000; -861.000
413.969;  -62.025;  -47.000; -292.000
414.096;  -94.875; -679.000; -679.000
414.222;  -27.300;  -33.000;   85.000
414.348;  -77.550; -652.000; -385.000
414.474;   -3.575;   38.000;  -52.000
414.600;  -27.100; -126.000; -144.000
414.726;  -11.325;  -96.000;  -55.000
414.852;  -48.075; -365.000; -342.000
414.978;   27.025;  104.000;  -18.000
415.104;   52.950;   38.000;   80.000
415.230;   28.375; -329.000; -330.000
415.356;   67.575; -409.000; -514.000
415.482;  238.675;   13.000;  -35.000
415.608;  407.850; -247.000; -323.000
415.734; 1310.125;   67.000;   38.000
415.860;27332.050; -875.000; -767.000
415.986;22657.925; -685.000; -607.000
416.111; 2153.700; -798.000; -652.000
416.237;  456.675; -424.000; -571.000
416.363; 1667.175; -765.000; -733.000
416.489; 6762.200; -324.000; -251.000
416.615;  942.900; -707.000; -742.000
416.741;   51.050; -677.000; -784.000
416.866;  -69.000; -673.000; -736.000
416.992; -101.700; -801.000; -818.000
417.118;  -23.525;  -41.000;  -80.000
417.244;  -73.900; -798.000; -531.000
417.369;  -87.200; -801.000; -612.000
417.495;  -14.175; -325.000; -254.000
417.621;  -91.000;-1015.000; -803.000
417.746;    8.175; -579.000; -572.000
417.872;   65.175; -254.000; -144.000
417.998;  105.200; -515.000; -530.000
418.123; 1550.150;-1073.000; -845.000
418.249; 8572.225; -512.000; -601.000
418.374; 1450.625; -916.000; -824.000
418.500;  226.400; -383.000; -482.000
418.626;  163.975;   70.000;  -59.000
418.751;  160.725; -549.000; -448.000
418.877;  310.225; -637.000; -643.000
419.002; 2580.225; -688.000; -560.000
419.128;19501.850; -930.000; -721.000
419.253; 5554.000; -967.000; -837.000
419.379;  763.525; -391.000; -338.000
419.504;  564.775;  325.000;  415.000
419.629;  838.250; -393.000; -212.000
419.755; 5352.400; -317.000; -254.000
419.880;34952.825;  -98.000;   67.000
420.006;17525.750; -280.000; -221.000
420.131;43486.900; -662.000; -775.000
420.256; 7072.600; -315.000; -316.000
420.382;  964.600; -665.000; -687.000
420.507;  159.425; -649.000; -778.000
420.632;   37.300; -337.000; -339.000
420.758;   31.250; -251.000; -425.000
420.883; -103.775; -876.000; -672.000
421.008; -110.500; -775.000; -619.000
421.133; -103.375; -509.000; -467.000
421.259;  -46.500; -325.000; -259.000
421.384; -126.700; -834.000; -693.000
421.509; -120.000;-1052.000; -862.000
421.634;  133.775; -936.000; -820.000
421.759;   71.600; -359.000; -327.000
421.885; -101.475; -717.000; -656.000
422.010;  -99.725; -673.000; -542.000
422.135; -143.850; -695.000; -727.000
422.260;   11.325;  340.000;  280.000
422.385;  -38.800;   12.000;  -98.000
422.510;   -7.675;  151.000;  -26.000
422.635;  -22.500;  -87.000;  -43.000
422.760;  -15.500; -766.000; -791.000
422.885;   26.400;  -57.000;  -80.000
423.010;  -45.625; -112.000; -169.000
423.135; -113.250; -481.000; -561.000
423.260;  -48.025; -150.000; -245.000
423.385;   32.050;  476.000;  222.000
423.510;    1.700;   71.000;  -22.000
423.635;    7.000;  133.000;   45.000
423.760;   43.950;  383.000;  328.000
423.885;   36.225;  336.000;  391.000
424.010;  -11.375;  -68.000;  -13.000
424.135;  -29.200;    5.000;  -33.000
424.259;  -75.825; -654.000; -457.000
424.384;  -49.625; -279.000; -272.000
424.509;  -15.750; -260.000; -186.000
424.634;  -97.275; -761.000; -623.000
424.759;  -40.450; -688.000; -544.000
424.883;    3.250; -506.000; -527.000
425.008;  206.400; -502.000; -410.000
425.133; 2837.675; -679.000; -653.000
425.258; 1555.025; -517.000; -381.000
425.382;  493.725; -867.000; -774.000
425.507; 1143.450; -487.000; -543.000
425.632;  379.575; -802.000; -663.000
425.756;  708.525; -256.000; -146.000
425.881;10068.050; -831.000; -857.000
426.006;31344.675; -604.000; -355.000
426.130; 5178.875; -696.000; -508.000
426.255;  694.650; -611.000; -491.000
426.379;  272.875; -189.000; -577.000
426.504;  514.400;  660.000;  544.000
426.629; 5623.275; -519.000; -466.000
426.753; 4394.275;   64.000;  -46.000
426.878;  546.150; -252.000; -288.000
427.002;  302.800; -651.000; -668.000
427.127; 2080.650;  -35.000; -158.000
427.251;17263.600;  372.000;  401.000
427.375; 5689.600; -191.000; -173.000
427.500; 1279.425; -616.000; -610.000
427.624;  401.400; -234.000; -400.000
427.749;   80.025; -216.000; -225.000
427.873;  -15.475; -499.000; -412.000
427.997;  -42.325; -222.000; -230.000
428.122;   53.425;  795.000;  703.000
428.246;   30.175;  433.000;  434.000
428.371; -149.850; -869.000; -773.000
428.495; -115.000; -624.000; -646.000
428.619;  -55.500; -186.000; -117.000
428.743;   -2.550;   65.000;  132.000
428.868;  -83.550; -732.000; -643.000
428.992;  442.200; -219.000; -326.000
429.116;  168.400; -329.000; -357.000
429.240;  104.525;  419.000;  426.000
429.365;  -53.225; -454.000; -574.000
429.489;  -57.850; -638.000; -647.000
429.613;   27.250; -236.000; -177.000
429.737;   83.625; -563.000; -432.000
429.861;  388.425; -247.000; -133.000
429.985; 7939.900; -425.000; -305.000
430.109;10118.350; -770.000; -908.000
430.234; 1245.325;   76.000;  -50.000
430.358;  158.800; -250.000; -160.000
430.482;  -33.925; -672.000; -564.000
430.606;  -85.200; -655.000; -375.000
430.730;  -44.575; -437.000; -388.000
430.854;  -94.650; -909.000; -835.000
430.978;  -96.950; -795.000; -764.000
431.102;  -86.825; -499.000; -422.000
431.226; -137.975; -874.000; -815.000
431.350;   -1.325;  345.000;  422.000
431.474;  -89.200; -661.000; -373.000
431.597; -162.950;-1060.000; -848.000
431.721;  -81.300; -276.000; -267.000
431.845; -122.700; -704.000; -472.000
431.969;  -75.975; -304.000; -349.000
432.093;  -91.325; -395.000; -317.000
432.217;  -29.800;   32.000;   82.000
432.341; -101.875; -523.000; -518.000
432.464;  -11.750;   96.000;   40.000
432.588;  -28.975; -401.000; -329.000
432.712;   12.500;  -52.000;  -52.000
432.836;   56.225;  213.000;  263.000
432.959;   25.450; -372.000; -311.000
433.083;  151.800;   11.000;    2.000
433.207;  543.025;  285.000;  930.000
433.330; 7611.375; -391.000; -200.000
433.454;10559.675; -654.000; -638.000
433.578; 5806.225;  583.000;  278.000
433.701; 1271.350; -623.000; -675.000
433.825;  142.550; -292.000; -299.000
433.949;   34.625;   28.000;  -72.000
434.072;  -33.775; -410.000; -323.000
434.196;   -4.675; -309.000; -117.000
434.319; 3548.675;25482.000;25124.000
434.443;  861.975; -656.000; -603.000
434.566; 4124.250;  281.000;   62.000
434.690;  907.625; -637.000; -383.000
434.813;  156.475; -251.000; -173.000
434.937;  -44.300; -569.000; -696.000
435.060;  -65.800; -423.000; -332.000
435.184;  -21.175; -492.000; -217.000
435.307;    6.375;  159.000;  102.000
435.431;  -42.875;  -40.000;   24.000
435.554;  -80.875; -399.000; -240.000
435.677;  -80.675; -350.000; -258.000
435.801;  -56.750;  -25.000;   49.000
435.924;  -43.700;    1.000;  -67.000
436.048; -153.225;-1019.000; -732.000
436.171;  -74.875; -240.000;  -66.000
436.294;  -17.350; -248.000; -229.000
436.417;  216.375; -963.000; -849.000
436.541;  -36.825; -814.000; -840.000
436.664;  -53.600; -242.000; -316.000
436.787;  -41.025;   13.000;  113.000
436.910; -119.425; -792.000; -422.000
437.034;  -26.200;  142.000;  143.000
437.157;   -6.850;  -11.000;    0.000
437.280;  -87.275; -392.000; -292.000
437.403; -132.950; -982.000; -869.000
437.526;  -16.750; -903.000; -865.000
437.649;  418.200; -505.000; -332.000
437.772;  -26.125; -692.000; -540.000
437.896;   46.250;  700.000;  544.000
438.019; -108.775; -758.000; -503.000
438.142;  -99.625; -596.000; -506.000
438.265; -118.500; -639.000; -670.000
438.388;    5.900; -520.000; -410.000
438.511;  -86.225; -597.000; -394.000
438.634;  -78.525; -247.000; -125.000
438.757; -140.350; -693.000; -619.000
438.880;  -53.875;  -34.000;  -57.000
439.003;  -96.300; -417.000; -437.000
439.126;  -67.850; -287.000; -167.000
439.248;  -75.850;  -98.000; -139.000
439.371;  -56.350;    9.000;  -53.000
439.494;   17.700;  510.000;  439.000
439.617;  -59.650;   65.000;  -88.000
439.740; -176.250; -968.000; -816.000
439.863; -153.125; -755.000; -595.000
439.986; -120.800; -476.000; -431.000
440.108;  -49.150; -161.000; -112.000
440.231; -173.900; -950.000; -836.000
440.354;  -59.325;  -64.000; -150.000
440.477; -118.925; -566.000; -542.000
440.599;  -88.900; -200.000; -225.000
440.722; -137.325; -709.000; -586.000
440.845;   35.800;  751.000;  928.000
440.968; -114.800; -415.000; -311.000
441.090;  -79.875; -199.000;  -33.000
441.213; -157.500;-1021.000; -825.000
441.336;  -58.125; -159.000;   -5.000
441.458; -104.700; -549.000; -396.000
441.581; -115.300; -628.000; -629.000
441.703;  -85.575; -152.000;   13.000
441.826; -115.900; -557.000; -400.000
441.948;  -57.375;   56.000;   51.000
442.071;   26.400;  555.000;  424.000
442.193; -128.450; -531.000; -485.000
442.316;   -6.050;  152.000;   97.000
442.438;   77.450; -233.000;  -10.000
442.561;   62.925;  272.000;  262.000
442.683;    0.550; -809.000; -522.000
442.806;  222.000;   -8.000;   74.000
442.928; -114.175; -859.000; -604.000
443.051;  -88.775; -577.000; -373.000
443.173;  -99.025; -341.000; -339.000
443.295; -101.950; -263.000; -371.000
443.418;  -94.200; -321.000;  -29.000
443.540;  -41.125; -106.000;   -4.000
443.662; -140.900; -563.000; -465.000
443.785;  -42.400;  335.000;  199.000
443.907;  -98.000; -362.000; -208.000
444.029; -129.275; -767.000; -494.000
444.152; -147.125; -644.000; -554.000
444.274;  -60.350;  -18.000;  -24.000
444.396; -129.250; -461.000; -221.000
444.518; -135.800; -691.000; -454.000
444.640; -111.475; -268.000; -111.000
444.763;  -33.625;  388.000;  249.000
444.885; -126.500; -432.000; -392.000
445.007;  -42.725;   35.000;   86.000
445.129; -130.200; -610.000; -515.000
445.251; -124.175; -372.000; -439.000
445.373; -146.400; -537.000; -386.000
445.495;  -26.450;  242.000;  350.000
445.617;   34.850;  853.000;  753.000
445.739;  -84.875; -215.000;  -97.000
445.861;  -69.925; -245.000; -112.000
445.984;  -83.025; -267.000; -101.000
446.105;  -30.425; -418.000; -251.000
446.227;   95.150; -176.000;  -19.000
446.349;  -84.650; -358.000; -249.000
446.471; -130.550; -615.000; -448.000
446.593;  -89.025; -316.000;   19.000
446.715;  -33.775;  -67.000;   41.000
446.837;   37.875;  697.000;  832.000
446.959; -102.000; -457.000; -478.000
447.081; -138.375; -628.000; -518.000
447.203;   34.925;  862.000;  834.000
447.325;  -90.625; -270.000;   42.000
447.446;  -18.225;  286.000;  530.000
447.568; -161.050; -921.000; -803.000
447.690;  -96.650; -236.000; -245.000
447.812; -150.575; -798.000; -519.000
447.933;  -33.475;  155.000;  127.000
448.055;  -69.075; -306.000; -261.000
448.177;   21.350;   31.000;   79.000
448.299; -110.525; -935.000; -727.000
448.420;  -29.875;  -25.000;  159.000
448.542;  -55.575;   -3.000;   33.000
448.664;  -39.525;  109.000;  322.000
448.785;  -36.800;  265.000;   83.000
448.907;  -99.875; -614.000; -353.000
449.028; -114.325; -771.000; -471.000
449.150;   38.375;  492.000;  589.000
449.272; -170.575;-1044.000; -913.000
449.393;   16.775;  612.000;  694.000
449.515; -146.225; -634.000; -581.000
449.636;  -90.725; -264.000; -155.000
449.758;   42.800;  763.000;  622.000
449.879;  -86.500; -498.000; -396.000
450.001;  -80.975; -149.000;  -49.000
450.122;  -32.600;  -95.000;  162.000
450.244;   -6.025;   37.000;  364.000
450.365;  -76.025; -495.000; -301.000
450.486;   -5.850;   80.000;  268.000
450.608;   54.725;  393.000;  326.000
450.729;  104.725;  578.000;  645.000
450.850;   98.025; -574.000; -466.000
450.972; 1217.900; -552.000; -389.000
451.093; 7945.800;  190.000;  588.000
451.214; 4115.175; -516.000; -337.000
451.336;  687.400;  773.000;  579.000
451.457;  127.925;  264.000;  393.000
451.578;  -29.400; -118.000;  -74.000
451.699;  -98.350; -546.000; -540.000
451.821;  -60.625; -284.000;  -50.000
451.942;    6.900;  278.000;  285.000
452.063;   49.600;  228.000;  419.000
452.184;  808.050;  -54.000;  -49.000
452.305; 1762.400;  103.000;  170.000
452.427;  346.725; -549.000; -301.000
452.548;    2.425;   23.000;   79.000
452.669;  -74.600; -257.000;  -89.000
452.790;  -65.050;    3.000;  -18.000
452.911;  -23.225;  195.000;  259.000
453.032;  -86.400; -289.000;  -60.000
453.153;  -62.300;  -29.000;   81.000
453.274;   45.050;  737.000;  868.000
453.395;  -63.750;  -51.000;  175.000
453.516;   60.575; 1317.000; 1388.000
453.637;  -99.225; -205.000; -150.000
453.758;  -59.075;   15.000;   69.000
453.879; -118.900; -462.000; -250.000
454.000;   48.300; 1086.000;  948.000
454.121; -120.125; -554.000; -326.000
454.242; -108.675; -599.000; -383.000
454.362;  -56.750;  -99.000;  114.000
454.483;  -27.400; -309.000; -229.000
454.604;   58.000;  512.000;  580.000
454.725; -140.450; -627.000; -555.000
454.846; -120.125; -474.000; -406.000
454.967;  -29.050;  230.000;  539.000
455.087;  -57.725;  179.000;  153.000
455.208;    1.975;  554.000;  856.000
455.329;  -38.700;  -22.000;   82.000
455.450;   53.625;  473.000;  633.000
455.570;  -68.550; -234.000; -211.000
455.691;  -53.250;  201.000;  407.000
455.812; -105.100; -270.000;  -92.000
455.932;  -74.475;  107.000;  -97.000
456.053;  -80.350;   36.000;   24.000
456.173; -108.425; -433.000; -355.000
456.294; -142.975; -476.000; -303.000
456.415;  -60.175;  -73.000;   70.000
456.535;  -48.375;  297.000;  273.000
456.656;  -38.325;  132.000;  240.000
456.776;  -76.550;    3.000;  298.000
456.897;  -17.975;  308.000;  513.000
457.017;  -76.800; -153.000;   -3.000
457.138; -122.275; -402.000; -249.000
457.258;  -38.775;  263.000;  224.000
457.379;   -2.300;  509.000;  521.000
457.499;  -36.875;  443.000;  432.000
457.620; -120.450; -407.000; -231.000
457.740;  -93.825; -132.000;  -11.000
457.860;  -50.450;   87.000;   44.000
457.981;  -62.850;  132.000;  124.000
458.101;  -73.550;  -89.000;   40.000
458.221;  -19.175;  336.000;  402.000
458.342;  -63.450;   -4.000;  -37.000
458.462;   47.825;  617.000;  352.000
458.582;   11.875; -302.000; -294.000
458.703;   62.200;  303.000;  154.000
458.823;    7.375;   22.000;  163.000
458.943;   44.300;  341.000;  467.000
459.063;    6.675; 1124.000;  192.000
459.183;  -31.800;  328.000;  313.000
459.304;   14.500;  315.000;  517.000
459.424;  -46.975; -246.000;  -89.000
459.544;  465.850;  388.000;  764.000
459.664; 1320.825;  499.000;  506.000
459.784;  529.825; 1004.000; 1175.000
459.904;   91.200;  867.000;  744.000
460.024;   48.400;  867.000;  684.000
460.144;  -24.950;  449.000;  554.000
460.264;  -17.025;  515.000;  327.000
460.385;  -98.375; -145.000; -119.000
460.505;   21.925;  905.000;  858.000
460.625;  -94.000;  -17.000;  -68.000
460.745;  -32.375;  396.000;  541.000
460.864;  -55.525;  153.000;  469.000
460.984;   28.150;  499.000;  573.000
461.104;  137.825; 1656.000; 1775.000
461.224;   12.600;  657.000;  650.000
461.344;  -44.700;  431.000;  360.000
461.464;  -42.350;  258.000;  513.000
461.584;  -32.225;  283.000;  466.000
461.704;  -72.375;   58.000;  108.000
461.824;  -53.475;  238.000;  259.000
461.943;  -52.700;  191.000;  130.000
462.063;  -67.950;    2.000;  324.000
462.183;   14.100;  639.000;  717.000
462.303;   77.575; 1678.000; 1230.000
462.422;   29.700;  781.000;  840.000
462.542;  -34.600;  271.000;  391.000
462.662;   42.575;  353.000;  380.000
462.782;  324.025;  833.000;  572.000
462.901;  715.475;  545.000;  717.000
463.021;  394.025; 1702.000; 1638.000
463.141;   14.125;  337.000;  770.000
463.260;  -16.825;  614.000;  474.000
463.380;   11.650;  902.000;  884.000
463.499;  -44.300;  342.000;  332.000
463.619;  -38.650;  581.000;  559.000
463.738;   82.400; 1644.000;  903.000
463.858;    6.375;  657.000;  811.000
463.978;  -42.050;  542.000;  396.000
464.097;   47.075;  921.000; 1114.000
464.217;  145.825; 1196.000; 1143.000
464.336;  155.175; 1068.000; 1130.000
464.455;  -44.325;  328.000;  659.000
464.575;    3.975;  597.000;  602.000
464.694;  125.475; 1204.000; 1179.000
464.814;  149.475; 1190.000; 1138.000
464.933;   84.075; 1095.000; 1027.000
465.052;   74.550; 1412.000; 1054.000
465.172;   66.550;  922.000;  799.000
465.291;  127.150; 1376.000; 1320.000
465.410;   14.925;  462.000;  735.000
465.530;   64.975; 1355.000; 1310.000
465.649;   52.800; 1209.000; 1273.000
465.768;  117.050; 1673.000; 1508.000
465.888;   63.750;  941.000; 1174.000
466.007;   78.425; 1335.000; 1440.000
466.126;   -9.575;  721.000;  641.000
466.245;   30.675; 1176.000; 1187.000
466.364;   18.800;  950.000; 1060.000
466.484;   34.725; 1024.000; 1213.000
466.603;   22.950; 1101.000; 1222.000
466.722;   95.725; 1490.000; 1769.000
466.841;   66.650; 1151.000; 1401.000
466.960;   22.225; 1069.000;  972.000
467.079;  121.450; 1971.000; 1786.000
467.198;   45.250; 1238.000; 1181.000
467.317;   69.700; 1768.000; 1162.000
467.436;   78.700; 1709.000; 1261.000
467.555;  108.350; 1796.000; 1746.000
467.674;   58.775; 1227.000; 1329.000
467.793;   44.625; 1376.000; 1374.000
467.912;   77.875; 1658.000; 1539.000
468.031;  129.675; 2038.000; 1930.000
468.150;  126.725; 1842.000; 1837.000
468.269;  173.800; 2313.000; 2090.000
468.388;  173.625; 2168.000; 2339.000
468.507;  227.525; 2884.000; 2903.000
468.626;  260.525; 2555.000; 2541.000
468.744;  142.775; 2018.000; 2174.000
468.863;  201.425; 2312.000; 2523.000
468.982;   84.425; 1503.000; 1555.000
469.101;  197.350; 2788.000; 2692.000
469.220;  152.825; 2333.000; 2176.000
469.338;  216.775; 2935.000; 3051.000
469.457;  198.125; 2719.000; 2545.000
469.576;  367.175; 3953.000; 3784.000
469.695;  241.525; 2877.000; 3066.000
469.813;  418.850; 4148.000; 4192.000
469.932;  393.925; 4255.000; 4485.000
470.051;  430.950; 4075.000; 4161.000
470.169; 1018.750; 4470.000; 4338.000
470.288; 2008.475; 4700.000; 4809.000
470.406; 1157.875; 5059.000; 5194.000
470.525;  669.725; 6101.000; 5787.000
470.644;  642.150; 6847.000; 6794.000
470.762;  794.000; 8397.000; 7873.000
470.881;  917.975; 8651.000; 8464.000
470.999; 1087.050; 9685.000; 9151.000
471.118; 1095.050;11174.000;10711.000

