
Integration time [ms]: 100.000
Averaging Nr. [scans]: 40
Smoothing Nr. [pixels]: 0
Data measured with spectrometer [name]: 2101012U2
Wave   ;Sample   ;Dark     ;Reference
[nm]   ;[counts] ;[counts] ;[counts] 

197.733;   75.050;  516.000;  404.000
197.879;  -80.550; -610.000; -634.000
198.025;  -52.400; -475.000; -420.000
198.171;  -70.775; -602.000; -612.000
198.317;  -26.300; -401.000; -316.000
198.463;  -73.075; -655.000; -404.000
198.609;   42.000;  181.000; -137.000
198.755;  -79.825; -644.000; -410.000
198.901;  -61.375; -505.000; -424.000
199.047;  -53.550; -615.000; -488.000
199.193;  -42.425; -230.000; -468.000
199.339;  -32.450; -222.000; -369.000
199.485;   36.575;  330.000;  271.000
199.631;   21.500;  227.000;  310.000
199.777;  -60.225; -466.000; -398.000
199.923;  -50.650; -610.000; -424.000
200.069;   -3.650; -141.000;  -58.000
200.215;   55.650;  128.000;  453.000
200.361;   52.775;  243.000;  477.000
200.507;  -61.200; -600.000; -373.000
200.653;  -21.300; -371.000; -194.000
200.798;  -37.975; -215.000; -125.000
200.944;   -5.650; -146.000;  -41.000
201.090;   41.250;   61.000;  222.000
201.236;   -4.400; -116.000; -158.000
201.382;  141.425;  874.000;  903.000
201.528;   18.175;  -58.000;  -48.000
201.674;  -45.475; -386.000; -293.000
201.819;  -57.300; -540.000; -439.000
201.965;  -85.375; -699.000; -447.000
202.111;  -11.275; -273.000; -226.000
202.257;  -29.350; -250.000; -238.000
202.402;    8.025;   13.000;  -36.000
202.548;  -38.825; -169.000; -116.000
202.694;   97.100;  410.000; -183.000
202.840;  -65.575; -603.000; -531.000
202.985;  -75.150; -681.000; -639.000
203.131; -113.925; -832.000; -666.000
203.277;  -21.375; -199.000; -262.000
203.423;  -53.375; -434.000; -520.000
203.568;  -43.900; -462.000; -237.000
203.714;  -65.050; -535.000; -542.000
203.860;  -79.125; -682.000; -641.000
204.005;   19.350;  112.000;  167.000
204.151;   70.725;  561.000;  556.000
204.296;  -37.150; -354.000; -221.000
204.442;  -65.300; -600.000; -547.000
204.588;  -88.225; -592.000; -579.000
204.733;   19.100;  178.000;  168.000
204.879; -126.975;-1018.000; -822.000
205.025;   14.000;  -99.000;  126.000
205.170;   13.650;  -17.000;   94.000
205.316;   82.175;  438.000;  661.000
205.461;  -75.050; -698.000; -554.000
205.607;   65.325;  609.000;  665.000
205.752;  -61.900; -626.000; -551.000
205.898;  -49.325; -501.000; -391.000
206.043;  -64.850; -578.000; -506.000
206.189;  -42.500; -243.000; -285.000
206.334;   79.025;  554.000;  606.000
206.480;   87.475;  409.000;  239.000
206.625;  -77.475; -529.000; -552.000
206.771;  -44.700; -451.000; -373.000
206.916;  -29.325; -210.000; -537.000
207.062;  -65.475; -545.000; -591.000
207.207;  -55.350; -546.000; -443.000
207.353;   53.150;  185.000;  460.000
207.498;   22.225;  196.000;   85.000
207.643;  -55.075; -501.000; -370.000
207.789; -122.400;-1069.000; -910.000
207.934; -101.025; -665.000; -713.000
208.080;  -22.975; -154.000;   66.000
208.225;    4.150;  -22.000;  -57.000
208.370;  -84.500; -727.000; -619.000
208.516;  -86.475; -741.000; -487.000
208.661;  -20.350; -127.000;  -69.000
208.806;  -28.400; -165.000; -171.000
208.952; -126.375;-1044.000; -731.000
209.097;   87.250;  378.000;  349.000
209.242;  -55.625; -307.000; -382.000
209.387;   66.475;  392.000;  350.000
209.533;  -43.100; -321.000; -350.000
209.678;   81.700;  472.000;  543.000
209.823;  -47.975; -408.000; -310.000
209.969;  -97.450; -860.000; -757.000
210.114; -101.450; -907.000; -719.000
210.259; -117.125; -939.000; -889.000
210.404;   -2.700; -171.000;  103.000
210.549;   13.150;  108.000;    3.000
210.695;   -8.550;   -3.000;  -95.000
210.840;   30.350;   94.000;   67.000
210.985;  -56.450; -484.000; -303.000
211.130;   79.025;  268.000;  406.000
211.275;   33.550;  207.000;  199.000
211.420;  -57.275; -300.000; -289.000
211.566;  -63.725; -536.000; -489.000
211.711;   30.025;  218.000;  157.000
211.856;  -63.950; -545.000; -519.000
212.001;   12.075;  151.000;   44.000
212.146;   30.550;  153.000;   49.000
212.291;  -24.175; -210.000; -186.000
212.436;  -26.575; -280.000;   -6.000
212.581;  -81.525; -685.000; -653.000
212.726;  -59.100; -487.000; -538.000
212.871;  -37.800; -552.000; -217.000
213.016; -151.400;-1172.000;-1029.000
213.161;   73.325;  406.000;  291.000
213.306;  -67.150; -435.000; -577.000
213.451;  -86.725; -778.000; -689.000
213.596;  -33.600; -455.000; -347.000
213.741;  -68.975; -448.000; -538.000
213.886;  -68.575; -498.000; -517.000
214.031;  -17.925; -294.000; -124.000
214.176;  -46.850; -408.000; -341.000
214.321;  -15.750; -296.000; -157.000
214.466;  -29.500; -163.000;  -43.000
214.611;    5.800;  -61.000;  -10.000
214.756; -107.150; -948.000; -858.000
214.901;  -26.800; -388.000; -226.000
215.046; -118.375; -797.000; -825.000
215.191;   23.825;  128.000;   35.000
215.336;   -3.775; -157.000;  -19.000
215.480;  -76.600; -684.000; -505.000
215.625;  -15.500; -175.000;  -19.000
215.770;  -95.950; -757.000; -662.000
215.915;   -3.275;   -5.000;  -97.000
216.060;    2.650; -113.000;  -21.000
216.205; -111.075; -731.000; -779.000
216.349;  -71.500; -470.000; -533.000
216.494; -124.900; -939.000; -867.000
216.639; -119.800; -823.000; -888.000
216.784;  -89.975; -577.000; -525.000
216.929;   55.350;  392.000;  281.000
217.073;   -7.050; -244.000;  -31.000
217.218;   13.550;   78.000;  -47.000
217.363;  -90.175; -656.000; -618.000
217.507;  -78.000; -623.000; -588.000
217.652; -122.575; -845.000; -874.000
217.797; -100.325; -708.000; -659.000
217.942; -116.650; -856.000; -720.000
218.086;   72.275;  608.000;  539.000
218.231;  -12.575; -174.000;  -26.000
218.376;  -28.100; -337.000; -229.000
218.520;   14.625;  -41.000;   96.000
218.665;  -28.350; -338.000; -204.000
218.810;  -35.925; -275.000; -233.000
218.954;   26.100;  201.000;   35.000
219.099;  -98.425; -713.000; -963.000
219.243;  -76.125; -589.000; -554.000
219.388;  -19.875; -264.000; -136.000
219.532;  -18.000; -116.000; -116.000
219.677;  -82.350; -564.000; -521.000
219.822;  -10.650;   33.000;   89.000
219.966;   -1.625;   17.000;  -99.000
220.111;  -36.875; -328.000;  -40.000
220.255;  -85.100; -797.000; -750.000
220.400;  -33.900; -180.000; -146.000
220.544;  -71.575; -516.000; -450.000
220.689;  -64.775; -422.000; -451.000
220.833;   -5.375; -123.000;  -58.000
220.978;  -54.625; -393.000; -563.000
221.122;   27.450;  319.000;  307.000
221.267; -121.375; -906.000; -837.000
221.411;  -60.700; -478.000; -394.000
221.555;  -13.375; -104.000;  -23.000
221.700;  -28.350; -329.000; -222.000
221.844;   39.500;  255.000;  272.000
221.989;  -36.325; -328.000; -311.000
222.133;  -35.700; -289.000; -307.000
222.277;    0.725;    5.000;   78.000
222.422;   10.775;  227.000;  113.000
222.566;  -35.125; -381.000; -214.000
222.711;  -76.650; -414.000; -479.000
222.855;  -77.525; -643.000; -586.000
222.999;  -87.500; -642.000; -717.000
223.144;  -17.775; -195.000; -194.000
223.288;   59.350;  423.000;  251.000
223.432;   32.900;  184.000;  230.000
223.576;   18.200;  152.000;  -21.000
223.721;   37.150;  364.000;  273.000
223.865;  -61.900; -472.000; -475.000
224.009;  231.575; 1673.000; 1631.000
224.153;  -82.025; -660.000; -671.000
224.298;  -72.375; -531.000; -489.000
224.442;   -6.225;  -74.000;  -33.000
224.586;   -2.575; -169.000; -106.000
224.730; -108.800; -858.000; -670.000
224.875; -109.875; -739.000; -688.000
225.019;   10.525;  102.000;  188.000
225.163;   63.350;  208.000;  341.000
225.307;   22.775;   97.000;  -91.000
225.451;   59.625;  360.000;  481.000
225.595;   29.175;  264.000;  176.000
225.739;   -8.675; -170.000;  -94.000
225.884;   12.900;   86.000;    5.000
226.028;  -97.950; -760.000; -626.000
226.172;  -29.000; -260.000; -273.000
226.316; -115.875; -941.000; -902.000
226.460;  -71.450; -645.000; -493.000
226.604;  -52.600; -406.000; -400.000
226.748; -102.250; -836.000; -733.000
226.892;  -32.250; -227.000; -181.000
227.036;  -44.775; -537.000; -447.000
227.180;  -51.425; -551.000; -375.000
227.324;  -61.550; -561.000; -580.000
227.468; -113.475; -819.000; -717.000
227.612;   -0.175;  242.000;  -28.000
227.756; -112.600; -845.000; -698.000
227.900;   58.950;  342.000;  441.000
228.044;  -56.800; -509.000; -290.000
228.188;   71.775;  448.000;  568.000
228.332;  -86.450; -546.000; -472.000
228.476;  -23.875; -223.000; -149.000
228.620;  -38.400; -210.000; -150.000
228.764;   83.150;  431.000;  349.000
228.908;  -11.700; -155.000;   30.000
229.052;  -48.250; -615.000; -528.000
229.195;   -9.425; -172.000;   13.000
229.339;  -19.450; -235.000; -305.000
229.483;  -24.075;    5.000; -162.000
229.627;   -2.375; -156.000;  139.000
229.771;  -31.150; -218.000; -294.000
229.915;    3.700;  230.000;   79.000
230.059;  -94.700; -648.000; -663.000
230.202;  -33.800; -370.000; -317.000
230.346;  -28.875; -107.000;  107.000
230.490;  -73.825; -489.000; -521.000
230.634; -102.800; -736.000; -553.000
230.777;   60.625;  478.000;  509.000
230.921;  -52.500; -450.000; -359.000
231.065;  -38.750; -246.000; -286.000
231.209;   31.925;  261.000;  265.000
231.352;   31.300;   54.000;   40.000
231.496;   17.450;  568.000;  188.000
231.640;  -82.850; -693.000; -621.000
231.783;   72.825;  546.000;  525.000
231.927;  -45.275; -294.000; -365.000
232.071; -123.525; -962.000; -736.000
232.214; -119.575; -980.000; -764.000
232.358;  -91.675; -683.000; -599.000
232.502;    2.525;  -19.000;    7.000
232.645; -143.825;-1090.000; -927.000
232.789;  -21.725; -257.000; -218.000
232.933;  -42.050; -407.000; -224.000
233.076; -124.700;-1038.000; -897.000
233.220; -106.125; -752.000; -777.000
233.363;  -67.825; -669.000; -477.000
233.507;   74.525;  371.000;  129.000
233.650;  -95.200; -764.000; -834.000
233.794;   57.700;  438.000;  461.000
233.938;  -54.575; -530.000; -362.000
234.081;   -8.475;  -93.000;   31.000
234.225;  -81.575; -631.000; -539.000
234.368; -101.300; -773.000; -723.000
234.512;  -31.225; -385.000; -299.000
234.655;  -85.450; -582.000; -555.000
234.798;  -67.150; -493.000; -466.000
234.942; -130.125; -884.000;-1002.000
235.085;  -77.350; -651.000; -443.000
235.229;  -63.725; -405.000; -410.000
235.372;  -51.525; -247.000; -191.000
235.516;  -70.400; -397.000; -321.000
235.659;   20.225;   92.000;  121.000
235.802;    1.100;  -38.000;  -22.000
235.946;   31.825;  335.000;  215.000
236.089;   21.975;  126.000;  250.000
236.233;   38.600;  275.000;  298.000
236.376;  -39.950; -235.000; -378.000
236.519;  -47.650; -297.000; -319.000
236.663;  -29.125; -215.000; -117.000
236.806; -132.850;-1029.000; -999.000
236.949;   58.875;  543.000;  431.000
237.092;   60.625;  412.000;  391.000
237.236;  -75.225; -589.000; -502.000
237.379;   77.000;  352.000;  428.000
237.522; -119.625; -879.000; -768.000
237.666;  -26.875; -271.000;   18.000
237.809; -119.225; -851.000; -823.000
237.952;   37.325;  469.000;  271.000
238.095;  -63.600; -447.000; -442.000
238.238;   82.375;  688.000;  700.000
238.382;    4.775;  166.000;  103.000
238.525;  -64.875; -598.000; -511.000
238.668; -139.850;-1060.000; -985.000
238.811;  -89.725; -638.000; -643.000
238.954;  -62.375; -483.000; -334.000
239.097;   91.000;  617.000;  664.000
239.241;   19.800;  394.000;  326.000
239.384;  -26.925; -254.000; -214.000
239.527;  -48.925; -424.000; -224.000
239.670; -147.900; -994.000;-1091.000
239.813; -116.575; -696.000; -658.000
239.956;   72.825;  579.000;  473.000
240.099; -106.575; -778.000; -725.000
240.242;   62.275;  428.000;  432.000
240.385;   55.075;  466.000;  450.000
240.528;  -70.100; -706.000; -473.000
240.671;   20.500;  189.000;  134.000
240.814;  -45.725; -441.000; -158.000
240.957; -105.375; -767.000; -578.000
241.100;  -91.625; -779.000; -755.000
241.243; -143.725;-1234.000; -893.000
241.386;  -71.225; -508.000; -379.000
241.529;  -82.800; -735.000; -547.000
241.672;  -61.150; -566.000; -495.000
241.815; -112.175; -832.000; -808.000
241.958;  -29.225; -125.000; -182.000
242.101;  -57.350; -545.000; -390.000
242.244;  -42.675; -270.000; -325.000
242.387;  -45.425; -304.000; -246.000
242.530;   49.725;  470.000;  134.000
242.673;  -31.125; -381.000; -309.000
242.815; -116.125; -925.000; -899.000
242.958;  -57.700; -482.000; -381.000
243.101;   21.025;  132.000;  187.000
243.244;  -83.075; -564.000; -521.000
243.387;  -63.175; -313.000; -316.000
243.530;  -93.250; -657.000; -674.000
243.672;   -7.750;   43.000;  -92.000
243.815;  -40.575; -355.000; -283.000
243.958;    7.775;   98.000;  -26.000
244.101;    2.425;   59.000;  -16.000
244.243;   -6.100;  -47.000;  101.000
244.386; -111.200; -761.000; -630.000
244.529;  -28.875; -132.000; -139.000
244.672; -162.625;-1154.000; -951.000
244.814;  -99.650; -621.000; -794.000
244.957;  -56.350; -380.000; -304.000
245.100;  -83.450; -489.000; -489.000
245.242;  -62.550; -387.000; -374.000
245.385;   -3.225;  -59.000;  -39.000
245.528; -126.700; -871.000; -705.000
245.670;   85.700;  612.000;  634.000
245.813;  -94.150; -599.000; -547.000
245.956;  -38.575; -324.000; -275.000
246.098;  -71.425; -508.000; -650.000
246.241;   13.375;  194.000;   48.000
246.383;  -16.900; -119.000;  -73.000
246.526;  -66.800; -454.000; -525.000
246.669; -129.675; -889.000; -780.000
246.811;   23.250;  172.000;   -1.000
246.954;  -45.450; -512.000; -426.000
247.096;  -30.900;  -84.000;   -6.000
247.239;  -74.575; -482.000; -445.000
247.381;  -77.450; -647.000; -488.000
247.524;   88.025;  645.000;  679.000
247.666;   -3.175;   58.000;   11.000
247.809; -113.575; -887.000; -691.000
247.951;   -1.675;  -75.000;  138.000
248.094;   26.725;  432.000;  308.000
248.236; -165.450;-1262.000;-1238.000
248.378;   -0.950; -356.000;  -81.000
248.521;  -16.950; -334.000; -337.000
248.663;  -26.250; -236.000; -267.000
248.806;  -22.475; -300.000; -266.000
248.948;  -84.925; -886.000; -763.000
249.090;  -53.850; -428.000; -398.000
249.233;  -48.225; -344.000; -381.000
249.375;  -77.300; -474.000; -451.000
249.518;  -12.875;  -83.000; -133.000
249.660;    1.200; -103.000;    3.000
249.802; -171.350;-1303.000;-1189.000
249.945;  -70.325; -612.000; -540.000
250.087; -118.800; -834.000; -768.000
250.229;  -55.700; -362.000; -480.000
250.371;  -70.825; -494.000; -439.000
250.514;  -56.175; -310.000; -244.000
250.656;   -8.425;   69.000;  102.000
250.798; -135.725; -849.000; -800.000
250.940;  -62.525; -322.000; -322.000
251.083;  -26.975; -335.000; -111.000
251.225;   61.200;  338.000;  310.000
251.367;  -50.350; -274.000; -373.000
251.509;  -27.525; -265.000; -210.000
251.651;  -99.050; -731.000; -671.000
251.794;   47.400;  538.000;  632.000
251.936; -109.900; -821.000; -747.000
252.078;  -80.525; -540.000; -461.000
252.220;  -67.825; -645.000; -477.000
252.362;   76.300;  344.000;  462.000
252.504;  -63.850; -677.000; -584.000
252.646; -109.625; -875.000; -722.000
252.788;   -4.200;   14.000; -128.000
252.931;  -44.450; -257.000; -253.000
253.073;  -56.625; -376.000; -317.000
253.215;   -1.250;  141.000;  122.000
253.357;  -21.025;   82.000; -153.000
253.499;  -49.600; -374.000; -234.000
253.641;  -92.250; -749.000; -594.000
253.783;  -85.625; -609.000; -527.000
253.925;  -86.875; -586.000; -591.000
254.067; -108.150; -744.000; -667.000
254.209;  -34.675; -391.000; -259.000
254.351; -120.475; -865.000; -883.000
254.493;  -67.400; -441.000; -417.000
254.635; -132.000; -936.000; -818.000
254.777;  -82.625; -752.000; -687.000
254.918;  -77.450; -512.000; -430.000
255.060;  -57.250; -551.000; -395.000
255.202;  -57.025; -473.000; -261.000
255.344;  -78.050; -658.000; -455.000
255.486;  -71.850; -471.000; -406.000
255.628; -107.100; -780.000; -781.000
255.770; -112.000; -676.000; -536.000
255.912;  -66.875; -559.000; -468.000
256.053;  -95.350; -730.000; -508.000
256.195;  159.775; 1008.000;  903.000
256.337;  -99.900; -861.000; -595.000
256.479;   62.600;  532.000;  416.000
256.621;  -42.475; -394.000; -212.000
256.762; -100.225; -789.000; -742.000
256.904;   50.450;  485.000;  487.000
257.046;  -51.300; -381.000; -271.000
257.188;  -43.200; -351.000; -264.000
257.329;  -80.025; -525.000; -464.000
257.471; -131.900; -939.000; -807.000
257.613;  -69.925; -584.000; -498.000
257.755; -159.575;-1073.000; -982.000
257.896;   19.825;  286.000;  392.000
258.038;  -67.300; -403.000; -352.000
258.180;  -40.675; -354.000; -279.000
258.321;  -93.800; -581.000; -457.000
258.463;   -5.775;  -71.000;  133.000
258.605; -100.950; -562.000; -570.000
258.746; -108.350; -886.000; -772.000
258.888; -144.300;-1026.000;-1020.000
259.029;   24.300;  121.000;   -8.000
259.171;  -77.650; -614.000; -550.000
259.313;   -7.250;  -49.000;  -47.000
259.454;  -55.975; -536.000; -414.000
259.596;  -49.725; -483.000; -390.000
259.737;  -82.050; -590.000; -474.000
259.879;   32.900;  217.000;  311.000
260.020;   85.850;  901.000;  636.000
260.162;  -29.200; -146.000; -253.000
260.303; -113.775; -768.000; -687.000
260.445;  -94.000; -609.000; -613.000
260.586;   28.250;  392.000;  157.000
260.728;  -40.700; -360.000; -248.000
260.869; -118.250; -350.000; -343.000
261.011;   74.550;  706.000;  537.000
261.152;  -73.075; -479.000; -319.000
261.293;  -78.325; -576.000; -595.000
261.435;  -31.725; -219.000; -184.000
261.576;  -54.700; -455.000; -325.000
261.718;   40.775;  420.000;  470.000
261.859; -132.875; -940.000; -949.000
262.000; -137.325; -951.000;-1016.000
262.142;  -31.975;  -52.000;  -60.000
262.283; -122.550; -808.000; -691.000
262.424; -103.875; -666.000; -625.000
262.566; -168.875;-1161.000; -983.000
262.707; -111.400; -840.000; -830.000
262.848; -123.000; -769.000; -726.000
262.990;  -50.600; -362.000; -345.000
263.131;   80.775;  650.000;  681.000
263.272;   -5.425;  -61.000;  -41.000
263.413; -100.025; -589.000; -561.000
263.555;  -68.175; -669.000; -143.000
263.696;  -90.900; -550.000; -641.000
263.837;  -71.200; -449.000; -551.000
263.978;   -6.900;   -5.000;  -77.000
264.119;  -38.875; -283.000; -264.000
264.261; -116.875; -847.000; -630.000
264.402;   11.300;   33.000;   40.000
264.543;  -84.225; -509.000; -524.000
264.684;  -12.100;   61.000;  -50.000
264.825;  -74.500; -816.000; -538.000
264.966;   -4.625;  -84.000;  -67.000
265.107; -109.425; -646.000; -670.000
265.248; -112.675; -825.000; -812.000
265.390;  -12.325;  152.000;   -9.000
265.531;  -34.075; -238.000; -107.000
265.672;  -82.450; -557.000; -630.000
265.813;   54.825;  563.000;  439.000
265.954; -149.675; -959.000; -940.000
266.095;  -28.450; -372.000; -322.000
266.236; -102.325; -686.000; -548.000
266.377;  -48.400; -243.000; -297.000
266.518;  -75.325; -619.000; -547.000
266.659;   37.925;  170.000;  268.000
266.800;   11.225;   83.000;   85.000
266.941;  -87.500; -487.000; -478.000
267.082;   45.275;  354.000;   99.000
267.223;  -49.800; -344.000; -273.000
267.364; -114.025; -892.000; -686.000
267.504;  -19.175;    3.000;  135.000
267.645;    3.900;  160.000;   67.000
267.786;  -31.700; -147.000;  -86.000
267.927;  -68.900; -473.000; -379.000
268.068;  -12.275; -186.000;  -61.000
268.209;  -52.475; -175.000; -413.000
268.350;  -61.350; -388.000; -532.000
268.490;  -88.500; -648.000; -521.000
268.631;   31.525;  127.000;  225.000
268.772; -111.375; -874.000; -647.000
268.913;  -56.575; -328.000; -476.000
269.054;  -21.950; -117.000;   12.000
269.194;  -52.275; -418.000; -402.000
269.335; -146.900;-1137.000;-1074.000
269.476;  -27.800;   33.000;  -35.000
269.617;  -32.725; -347.000; -392.000
269.757;  -94.075; -713.000; -646.000
269.898; -111.275; -856.000; -613.000
270.039;  -67.400; -415.000; -405.000
270.180; -120.500; -952.000; -816.000
270.320;  -30.650; -190.000; -250.000
270.461;  -32.025; -277.000; -249.000
270.602;  -26.425; -186.000; -156.000
270.742; -110.950; -868.000; -943.000
270.883;  -70.250; -442.000; -390.000
271.023;  -59.425; -358.000; -357.000
271.164;  -69.600; -607.000; -528.000
271.305; -104.275; -666.000; -654.000
271.445;  -99.325; -722.000; -683.000
271.586;  -65.775; -462.000; -283.000
271.726;  -47.175; -397.000; -322.000
271.867;  -50.275; -594.000; -534.000
272.008;  148.700; -473.000; -285.000
272.148;  121.975;  462.000;  468.000
272.289;   -3.075; -113.000; -181.000
272.429;   10.525;   19.000;  185.000
272.570; -108.425; -633.000; -737.000
272.710;  -96.450; -825.000; -775.000
272.851;  -29.750;  113.000; -130.000
272.991; -160.175;-1173.000;-1077.000
273.131;  -69.650; -419.000; -459.000
273.272;  -86.175; -683.000; -723.000
273.412;    7.400; -143.000;  -31.000
273.553;  -50.975; -488.000; -507.000
273.693;  118.550;  913.000;  858.000
273.834; -106.650; -894.000; -692.000
273.974;  -87.400; -664.000; -615.000
274.114;  -91.250; -772.000; -560.000
274.255;   82.175;  414.000;  373.000
274.395;    4.925; -180.000; -125.000
274.535;   34.925;  199.000;  350.000
274.676;   30.875;  225.000;   94.000
274.816;   -3.825;  110.000;   34.000
274.956;  -77.250; -624.000; -690.000
275.097;  -66.100;-1014.000; -922.000
275.237; -117.000; -913.000; -803.000
275.377; -111.975; -778.000; -689.000
275.517; -152.775; -878.000; -937.000
275.658;  -59.175; -590.000; -555.000
275.798;  -77.475; -606.000; -413.000
275.938;   15.100;  215.000;  323.000
276.078;  -93.450; -626.000; -395.000
276.218;    3.625;   99.000;  104.000
276.359; -134.525;-1026.000;-1024.000
276.499;  -72.050; -605.000; -446.000
276.639;  -24.725; -305.000; -151.000
276.779;  -44.150; -475.000; -357.000
276.919; -112.400; -783.000; -624.000
277.059;  -34.300; -261.000; -212.000
277.199;  -52.600; -357.000; -259.000
277.340;   40.100;  287.000;  175.000
277.480; -118.875; -840.000; -693.000
277.620;   23.800;  192.000;   16.000
277.760; -197.000;-1533.000;-1294.000
277.900;   16.775;  113.000;   33.000
278.040;   26.325;  137.000;  159.000
278.180;   28.350;  270.000;  170.000
278.320;   -2.625;   21.000;   56.000
278.460;  -81.550; -443.000; -469.000
278.600;  -88.625; -708.000; -598.000
278.740;   44.250;  448.000;  224.000
278.880;  -70.650; -768.000; -791.000
279.020;  -15.700; -194.000; -144.000
279.160;  -96.675; -672.000; -595.000
279.300; -122.275; -926.000; -873.000
279.440; -100.275; -709.000; -622.000
279.579;  -33.325;-1014.000; -929.000
279.719;  -63.000; -410.000; -394.000
279.859;   66.150;   -4.000;   41.000
279.999;   34.200; -208.000;  101.000
280.139;  -26.700; -435.000; -387.000
280.279;  -82.450; -708.000; -745.000
280.419;  -10.575; -229.000; -147.000
280.559;  -30.775; -259.000; -180.000
280.698; -103.575; -790.000; -639.000
280.838; -100.000; -778.000; -800.000
280.978; -105.925; -846.000; -790.000
281.118; -120.925; -811.000; -704.000
281.257;    3.525;   24.000;    6.000
281.397; -123.850;-1094.000; -960.000
281.537;  -90.850; -599.000; -712.000
281.677;  -21.575; -150.000; -101.000
281.816;  -91.950; -700.000; -630.000
281.956;  -29.850; -193.000; -257.000
282.096;  -70.800; -539.000; -396.000
282.235; -107.425; -672.000; -638.000
282.375;  -18.650; -243.000;  -98.000
282.515; -119.125; -715.000; -707.000
282.654;   13.875;   29.000;  106.000
282.794;   27.025;  388.000;  244.000
282.934;  -57.650; -530.000; -491.000
283.073; -133.625;-1030.000; -857.000
283.213;  -69.125; -460.000; -467.000
283.353;  -55.350; -408.000; -349.000
283.492;  -41.100; -264.000; -296.000
283.632;  -41.775; -254.000; -168.000
283.771;  -99.100; -859.000; -730.000
283.911;  -48.125; -369.000; -260.000
284.050; -103.725; -794.000; -748.000
284.190; -157.450;-1229.000;-1096.000
284.329; -148.850;-1055.000; -964.000
284.469;  -81.075; -516.000; -591.000
284.608;  -74.050; -559.000; -598.000
284.748;  -82.600; -614.000; -570.000
284.887;   -6.275;  -87.000;  -20.000
285.027; -120.400; -844.000; -892.000
285.166;  -36.600; -192.000; -249.000
285.306;   -7.625; -116.000;  -33.000
285.445;  -46.775; -229.000; -343.000
285.584;  -85.875; -630.000; -494.000
285.724;  -57.375; -282.000; -322.000
285.863; -118.975; -857.000; -507.000
286.002;  -54.500; -366.000; -276.000
286.142; -103.850; -715.000; -622.000
286.281;  -90.875; -525.000; -493.000
286.420;  -71.250; -554.000; -417.000
286.560;  104.150;  653.000;  623.000
286.699; -129.800; -958.000; -912.000
286.838;  -88.225; -590.000; -591.000
286.978;  -92.575; -533.000; -537.000
287.117; -148.275;-1085.000; -950.000
287.256;  -35.300; -228.000; -211.000
287.395;  -58.000; -197.000; -378.000
287.535;  -59.600; -370.000; -298.000
287.674;  -70.225; -509.000; -484.000
287.813;   65.100;  661.000;  533.000
287.952; -151.125;-1010.000; -871.000
288.091; -159.600;-1049.000; -915.000
288.231;   15.175;   13.000;   15.000
288.370; -178.150;-1217.000;-1200.000
288.509;  -86.700; -728.000; -645.000
288.648;  -88.075; -770.000; -548.000
288.787;  -43.825; -243.000;  -87.000
288.926;  -56.800; -454.000; -475.000
289.065;  122.950;  859.000;  672.000
289.204;  -59.875; -377.000; -217.000
289.344;  -93.025; -791.000; -690.000
289.483;   20.050;  416.000;  304.000
289.622;  -53.525; -291.000; -149.000
289.761;  -17.475; -309.000; -166.000
289.900; -111.200; -785.000; -626.000
290.039;  -14.725;  -12.000;  -95.000
290.178;  -46.350; -274.000; -180.000
290.317;  -91.975; -618.000; -479.000
290.456;  -78.300; -463.000; -451.000
290.595; -148.275; -961.000; -833.000
290.734; -145.450; -904.000; -891.000
290.873;  -79.700; -456.000; -420.000
291.011; -121.750; -833.000; -843.000
291.150; -100.375; -770.000; -682.000
291.289;  -37.300; -343.000; -110.000
291.428; -109.275; -599.000; -480.000
291.567;  -62.225; -370.000; -442.000
291.706;   -1.150;  109.000;  154.000
291.845; -110.650; -597.000; -505.000
291.984; -179.350;-1234.000;-1061.000
292.122;   62.500;  602.000;  582.000
292.261;   37.200;  620.000;  463.000
292.400;   -2.950; -144.000;  211.000
292.539; -128.400; -959.000; -813.000
292.678;  -57.425; -325.000; -300.000
292.816; -157.450;-1136.000; -965.000
292.955; -101.625; -844.000; -684.000
293.094;  -22.250; -173.000; -337.000
293.233;  -65.950; -556.000; -400.000
293.371;  -30.275; -225.000;  -84.000
293.510; -113.700; -866.000; -780.000
293.649; -134.525; -959.000; -924.000
293.787;  -80.350;-1083.000;-1012.000
293.926;  -20.750; -113.000;  -32.000
294.065;  -60.650; -379.000; -290.000
294.203;   54.725;  298.000;  406.000
294.342;   16.375;   74.000;  156.000
294.481; 5567.975;51180.000; -836.000
294.619;  -29.125; -425.000; -582.000
294.758; -159.750;-1230.000;-1137.000
294.896;   51.700; -125.000;    5.000
295.035; -127.725;-1040.000;-1006.000
295.174; -136.025;-1082.000; -954.000
295.312;  -46.550; -323.000; -203.000
295.451;  -15.675; -307.000; -428.000
295.589;  -59.550; -389.000; -518.000
295.728;   11.750; -292.000; -165.000
295.866;   -6.750;  -36.000;  -51.000
296.005;  -68.050; -584.000; -341.000
296.143;  -63.825; -558.000; -596.000
296.282; -112.025; -957.000; -881.000
296.420;  -93.250; -657.000; -557.000
296.559;  -87.525; -892.000; -633.000
296.697;   -7.075; -847.000; -665.000
296.835;   21.850;-1141.000;-1002.000
296.974;   46.450;  -23.000;   39.000
297.112;   -7.900; -443.000; -504.000
297.251;  -94.125; -815.000; -755.000
297.389;   51.900; -576.000; -438.000
297.527;   26.725; -145.000;  -83.000
297.666;  -72.575; -486.000; -438.000
297.804;  -56.175; -404.000; -264.000
297.942;  -11.200; -136.000; -161.000
298.081;   -4.050; -183.000;   63.000
298.219;   44.950;  -17.000;  -19.000
298.357;   33.450; -144.000;  -71.000
298.495;   10.225; -810.000; -812.000
298.634;   63.175;  245.000;  219.000
298.772;   31.575; -220.000; -338.000
298.910;  -45.975; -309.000; -182.000
299.048;   -3.775; -130.000; -153.000
299.187;  -44.375; -350.000; -250.000
299.325;   19.850;   52.000;  122.000
299.463;   24.450; -389.000; -299.000
299.601;   86.825; -327.000; -271.000
299.739; -123.450; -908.000; -883.000
299.877;  -85.325; -791.000; -703.000
300.016;  -57.675;-1095.000; -935.000
300.154;  122.400;  -19.000; -161.000
300.292;   43.125; -428.000; -348.000
300.430;   18.625; -408.000; -291.000
300.568; -106.075; -940.000; -874.000
300.706;  -58.575; -366.000; -469.000
300.844; -101.825;-1108.000; -979.000
300.982;   97.850;  246.000;  282.000
301.120; -122.125; -965.000; -866.000
301.258;  -86.900; -812.000; -705.000
301.396;   33.400;  104.000;  -41.000
301.534;   41.650; -218.000; -293.000
301.672;  -28.725; -664.000; -521.000
301.810;  -10.200; -613.000; -545.000
301.948;   90.250;   53.000;  149.000
302.086;  521.575; -250.000;  -32.000
302.224;  816.500; -610.000; -585.000
302.362;   20.400; -558.000; -622.000
302.500;  -44.675; -923.000; -893.000
302.638;   91.625;  128.000;  245.000
302.776;  -11.700; -352.000; -408.000
302.913;   24.900;  447.000;  236.000
303.051;  -11.550;  -86.000;  -23.000
303.189;   37.625;   90.000;  118.000
303.327;  -41.850; -341.000; -256.000
303.465;  -99.775; -832.000; -588.000
303.603;  -99.475; -805.000; -604.000
303.740;   79.475;  417.000;  241.000
303.878;  -10.250; -800.000; -759.000
304.016; -100.750; -915.000; -790.000
304.154; -137.450;-1123.000;-1152.000
304.291;  -49.750; -505.000; -554.000
304.429;    4.000;  102.000;   74.000
304.567; -139.950; -908.000; -893.000
304.705;  -55.975; -408.000; -515.000
304.842;   70.875; -616.000; -540.000
304.980;   65.750;  215.000;   35.000
305.118;   28.625; -367.000; -365.000
305.255;  -99.000; -945.000; -927.000
305.393;   44.675;  178.000;  239.000
305.531; -108.400;-1173.000; -956.000
305.668;  -71.250; -663.000; -582.000
305.806;   81.550; -358.000; -439.000
305.943;   75.350; -629.000; -637.000
306.081;   57.725; -378.000; -267.000
306.219; -107.500; -863.000; -748.000
306.356;    9.600;  158.000;   27.000
306.494;   98.150;  981.000;  761.000
306.631;   -5.750;  -11.000;  -55.000
306.769;  -16.500; -613.000; -485.000
306.906;  -25.525; -284.000; -258.000
307.044;  -67.100; -473.000; -488.000
307.181;  -64.125; -410.000; -332.000
307.319;    2.625;  112.000;   87.000
307.456; -172.150;-1191.000;-1153.000
307.594; -114.075; -980.000; -727.000
307.731;  -12.825; -371.000; -164.000
307.868;   -8.200;  -15.000;   20.000
308.006; -142.650; -961.000; -847.000
308.143;  -71.125; -618.000; -330.000
308.281;   94.625;  -37.000; -254.000
308.418;  -50.750; -748.000; -640.000
308.555;  -74.875; -400.000; -250.000
308.693;  -90.125; -577.000; -573.000
308.830;  -94.575; -712.000; -657.000
308.967;  -32.525; -215.000;  -95.000
309.105;  -53.475; -507.000; -396.000
309.242;    0.625; -468.000; -367.000
309.379;  193.350; -577.000; -655.000
309.517;  -93.850; -936.000; -948.000
309.654; -107.600; -910.000; -734.000
309.791;  -88.775; -662.000; -580.000
309.928; -137.525; -977.000; -914.000
310.065;  185.775;  819.000;  697.000
310.203;  -20.225; -825.000; -850.000
310.340;  -33.675; -465.000; -321.000
310.477;  -86.450; -412.000; -516.000
310.614;  -79.075; -383.000; -473.000
310.751;  -88.200; -427.000; -518.000
310.889;  -23.175;    1.000;   11.000
311.026; -158.975;-1161.000; -939.000
311.163;  -52.075; -386.000; -380.000
311.300;  -80.775; -512.000; -479.000
311.437;  -92.925; -658.000; -619.000
311.574; -171.850;-1226.000; -985.000
311.711;  -60.925; -595.000; -433.000
311.848;  -45.325; -380.000; -388.000
311.985;   11.875;  270.000;   93.000
312.122; -120.950; -932.000; -762.000
312.259; -127.025; -941.000; -994.000
312.396;  -96.575; -508.000; -551.000
312.533;  -92.400; -812.000; -790.000
312.670; -141.425;-1070.000; -898.000
312.807;  -45.000; -352.000; -367.000
312.944;  -79.125; -513.000; -611.000
313.081;  -54.250; -150.000; -415.000
313.218; -114.200;-1111.000; -867.000
313.355;   -1.775; -531.000; -449.000
313.492;  -18.275; -455.000; -292.000
313.629;  124.825;  815.000;  735.000
313.766; -155.225;-1176.000;-1008.000
313.902;  -29.500; -186.000;   21.000
314.039;  -61.650; -372.000; -289.000
314.176;   22.000;  286.000;  192.000
314.313;  -87.150; -569.000; -473.000
314.450;  -89.425; -788.000; -684.000
314.587;  -73.475; -468.000; -480.000
314.723;   -3.625;  -78.000;  130.000
314.860;   25.600;  318.000;  332.000
314.997;   16.300;  223.000;  142.000
315.134;  -57.025; -385.000; -368.000
315.270;  -40.975; -480.000; -496.000
315.407; -135.950;-1094.000; -967.000
315.544;  -64.075; -657.000; -538.000
315.681;  -69.000; -681.000; -565.000
315.817;   30.550; -133.000; -176.000
315.954;    8.825; -613.000; -392.000
316.091; -140.000;-1045.000;-1023.000
316.227;  -33.000;  -71.000; -179.000
316.364;   -4.125;   23.000;    6.000
316.500;  -55.225; -113.000; -300.000
316.637;  -48.250; -181.000; -302.000
316.774;  -79.550; -625.000; -358.000
316.910; -104.800; -598.000; -629.000
317.047;  -77.125; -487.000; -351.000
317.183;  -57.250; -435.000; -566.000
317.320;  -23.700; -367.000; -321.000
317.456;  -74.050; -733.000; -805.000
317.593;  -86.225; -598.000; -641.000
317.729;  -16.050;  168.000;  -67.000
317.866; -206.675;-1434.000;-1285.000
318.002;  -88.450; -708.000; -948.000
318.139; -112.600; -883.000; -867.000
318.275; -116.850;-1003.000; -738.000
318.412;  -56.850; -517.000; -336.000
318.548;  -50.225; -751.000; -720.000
318.685; -104.475; -985.000; -888.000
318.821; -117.925; -762.000; -735.000
318.957;  -16.600;   34.000;  -23.000
319.094;   30.575;  297.000;  154.000
319.230;  -82.300; -756.000; -742.000
319.367;   95.475; -471.000; -520.000
319.503;   37.375; -538.000; -436.000
319.639; -100.425; -877.000; -793.000
319.775;  -69.925; -750.000; -685.000
319.912;  -60.100; -424.000; -519.000
320.048; -101.175;-1184.000;-1184.000
320.184;   74.825;   59.000;   70.000
320.321;  -63.950; -497.000; -467.000
320.457;   79.900;  475.000;  662.000
320.593;  -54.825; -375.000; -382.000
320.729; -125.725; -732.000; -734.000
320.866;  -67.625; -577.000; -635.000
321.002;  -90.900; -759.000; -809.000
321.138;   -9.100; -135.000; -211.000
321.274;   56.750; -148.000; -115.000
321.410;  -25.200; -585.000; -353.000
321.546;  -63.100;-1011.000; -911.000
321.683;   53.075;  400.000;  185.000
321.819;   -3.150;  -48.000; -117.000
321.955; -122.825; -743.000; -722.000
322.091;  -57.825; -585.000; -540.000
322.227;  -16.625; -382.000; -202.000
322.363;  -29.500; -320.000; -215.000
322.499;  -44.800; -343.000; -331.000
322.635;  147.150;  636.000;  443.000
322.771;   21.850; -139.000;   12.000
322.907;   61.000;  129.000;  327.000
323.043;  -23.000; -115.000; -206.000
323.179;  -40.025; -394.000; -363.000
323.315;   -8.500; -401.000; -371.000
323.451;   60.200; -328.000; -236.000
323.587;   58.600;  -60.000;  -77.000
323.723;   -0.150; -682.000; -601.000
323.859;  -25.325; -258.000;  -76.000
323.995;  -44.750; -467.000; -409.000
324.131; -132.175; -967.000; -892.000
324.267;  -49.800; -254.000; -276.000
324.402; -128.800; -960.000; -983.000
324.538;  -14.675; -279.000; -104.000
324.674;    5.575;  164.000;   77.000
324.810;   93.575;  226.000;  308.000
324.946;  -17.125; -810.000; -658.000
325.082;  -85.925; -568.000; -475.000
325.217;  -14.725;  -62.000;   16.000
325.353; -117.650; -764.000; -659.000
325.489;  -79.425; -540.000; -506.000
325.625;  -80.950; -579.000; -525.000
325.760;   66.650;  517.000;  376.000
325.896;  -19.875; -515.000; -702.000
326.032;  -58.850; -403.000; -352.000
326.168;  -72.400; -462.000; -369.000
326.303;  -56.800; -352.000; -461.000
326.439;  -37.275; -336.000; -276.000
326.575;   10.025; -190.000;  -29.000
326.710;  -16.975; -156.000;  -30.000
326.846;  -27.125;  146.000;  103.000
326.982; -101.225; -530.000; -548.000
327.117;  -82.425; -481.000; -442.000
327.253;  -79.300; -745.000; -742.000
327.388; -161.800;-1137.000;-1153.000
327.524;  -78.375; -811.000; -578.000
327.659;  -30.825;  -58.000;  -22.000
327.795;  -20.900;   69.000;   45.000
327.931;  -78.900; -723.000; -499.000
328.066;  -35.375; -417.000; -276.000
328.202;  -25.450;   12.000; -129.000
328.337;  105.750;  957.000;  713.000
328.473;   44.100;  -12.000;  -74.000
328.608;  -26.350; -256.000; -267.000
328.743;  -93.150; -799.000; -664.000
328.879;   12.475;  214.000;  114.000
329.014;  -37.850; -102.000; -122.000
329.150;  -79.675; -358.000; -483.000
329.285;  -77.875; -465.000; -466.000
329.421;  -62.100; -548.000; -246.000
329.556;  -25.325;  -36.000;   85.000
329.691; -106.850; -633.000; -615.000
329.827;  -83.100; -626.000; -480.000
329.962;  -48.125;  131.000; -301.000
330.097; -100.400; -673.000; -585.000
330.233;  -60.850; -410.000; -223.000
330.368; -127.125; -839.000; -628.000
330.503;  -32.175;    3.000;   98.000
330.638;   14.725;  -93.000; -125.000
330.774;  -68.375; -609.000; -530.000
330.909;  -50.025; -434.000; -244.000
331.044; -101.275; -714.000; -708.000
331.179; -172.900;-1217.000;-1109.000
331.315;   -0.425;   77.000;   20.000
331.450;   16.025;  157.000;  285.000
331.585;  -88.575; -805.000; -706.000
331.720; -104.800; -510.000; -460.000
331.855;  -12.000;  -35.000; -102.000
331.990;  263.150;   62.000;  138.000
332.126;  149.000; -110.000;   71.000
332.261;  -14.850; -379.000; -265.000
332.396;   -2.625; -135.000; -242.000
332.531; -105.050;-1074.000;-1031.000
332.666;   31.650; -519.000; -363.000
332.801; -114.300; -726.000; -807.000
332.936;  -24.525; -192.000; -122.000
333.071; -138.550; -870.000; -817.000
333.206;   14.275;  307.000;  379.000
333.341;   21.050;  344.000;  418.000
333.476;  -98.550; -627.000; -623.000
333.611;  -38.275; -251.000; -173.000
333.746;  -56.025; -381.000; -464.000
333.881; -126.700; -973.000; -935.000
334.016; -134.675; -936.000; -917.000
334.151; -122.525; -746.000; -702.000
334.286;   15.375;  152.000;  186.000
334.421;  -26.750; -125.000; -178.000
334.556;  -80.050; -611.000; -567.000
334.690;  -86.675; -631.000; -577.000
334.825;   45.450;  381.000;   83.000
334.960;  -70.375; -285.000; -413.000
335.095;    0.325;  135.000;  -91.000
335.230;  -95.850; -722.000; -738.000
335.365; -141.400;-1084.000; -990.000
335.499; -161.400;-1108.000;-1037.000
335.634;   14.125;    9.000;  534.000
335.769; -109.875; -755.000; -720.000
335.904;  -60.800; -603.000; -561.000
336.038;  -71.100; -735.000; -657.000
336.173; -136.100;-1206.000;-1194.000
336.308;    2.875; -116.000; -189.000
336.443;   17.875; -544.000; -634.000
336.577;  -75.500; -936.000; -787.000
336.712;   47.800;   -4.000;  -12.000
336.847;  -48.050; -724.000; -607.000
336.981;   39.925; -272.000; -208.000
337.116;  234.950;  615.000;  501.000
337.250;  107.300; -434.000; -421.000
337.385;  262.025; -297.000; -208.000
337.520;   89.550; -632.000; -603.000
337.654;  -43.200; -215.000; -126.000
337.789; -142.625; -989.000; -933.000
337.923;  -42.875; -104.000; -205.000
338.058; -103.925; -673.000; -738.000
338.192;  -58.000; -611.000; -488.000
338.327;  -18.800;  -18.000; -155.000
338.461;  -71.525; -299.000; -469.000
338.596;  -92.500; -780.000; -638.000
338.730; -104.825; -767.000; -803.000
338.865;  105.325;  -46.000; -140.000
338.999;  -53.075; -846.000; -702.000
339.134;  -26.850; -634.000; -536.000
339.268;    9.125; -741.000; -603.000
339.403;  358.150; -740.000; -775.000
339.537;  114.200; -894.000; -820.000
339.671; -120.800; -829.000; -813.000
339.806;  -67.175; -556.000; -512.000
339.940;   18.000; -261.000; -235.000
340.074; -102.750; -685.000; -510.000
340.209;  -55.125; -351.000; -230.000
340.343;  -86.500; -517.000; -573.000
340.477;  143.475;  998.000; 1036.000
340.612;  -69.850;-1033.000; -900.000
340.746;  148.125; -199.000; -243.000
340.880;  -85.275; -924.000; -785.000
341.014;  -22.300;  -45.000; -154.000
341.149; -116.675; -756.000; -718.000
341.283; -118.350; -839.000; -754.000
341.417; -115.900;-1124.000; -938.000
341.551;   80.225; -768.000; -708.000
341.685;  -57.975; -633.000; -611.000
341.820;  -60.875; -562.000; -493.000
341.954;  -55.175; -218.000; -349.000
342.088; -158.150;-1102.000;-1019.000
342.222;   41.850;  565.000;  618.000
342.356;  -61.850; -395.000; -335.000
342.490; -116.550; -880.000; -841.000
342.624;  -49.900; -339.000; -242.000
342.758;  -16.475; -364.000; -312.000
342.892;  -73.375; -710.000; -585.000
343.026;  -47.550;  -58.000; -116.000
343.160;  -67.975; -426.000; -376.000
343.294;  -83.300; -474.000; -337.000
343.428;  -38.900; -488.000; -448.000
343.562;  -16.475; -172.000;  -23.000
343.696;  -37.900; -385.000; -314.000
343.830;  -31.800; -362.000; -356.000
343.964;    0.175; -231.000; -168.000
344.098;  749.300;  199.000;   70.000
344.232;  633.100; -266.000; -127.000
344.366;   66.200; -567.000; -453.000
344.500;   21.175; -665.000; -744.000
344.634;   24.775; -324.000; -164.000
344.768;  -28.400; -531.000; -341.000
344.902;   18.150;  278.000;  256.000
345.035;  -81.550; -556.000; -496.000
345.169; -141.325; -933.000; -656.000
345.303;  -42.200; -308.000; -482.000
345.437;  -88.200; -826.000; -717.000
345.571;  -88.875; -675.000; -594.000
345.704;  -63.875; -309.000; -532.000
345.838;  -16.500; -331.000; -284.000
345.972;  -51.100; -543.000; -495.000
346.106;  171.825; -179.000; -190.000
346.239;  409.125; -312.000; -243.000
346.373;    5.075; -343.000; -302.000
346.507; -132.850; -950.000; -962.000
346.640;  128.975;  -30.000;   13.000
346.774;  -60.050; -650.000; -797.000
346.908;  -21.325; -138.000;  -11.000
347.041; -110.200; -646.000; -593.000
347.175;    1.775;  259.000;   27.000
347.309;  -79.025; -698.000; -628.000
347.442; -115.100; -883.000; -732.000
347.576;  229.875;  670.000;  668.000
347.709;  142.725; -123.000;  -52.000
347.843; -101.725; -933.000; -825.000
347.976;   29.950;  235.000;  294.000
348.110; -187.275;-1268.000;-1186.000
348.243; -117.675; -679.000; -772.000
348.377;   13.150;  -26.000;   60.000
348.510;   61.375;  403.000;  540.000
348.644;  -49.825;  -37.000; -159.000
348.777;  -12.525;  180.000;  191.000
348.911;  -44.725; -142.000; -112.000
349.044;  156.425;  471.000;  448.000
349.178;  103.075;-1069.000;-1006.000
349.311;   74.900;  141.000;  255.000
349.444;   -4.675; -927.000; -813.000
349.578;  -37.025; -347.000; -200.000
349.711; -116.075; -959.000; -862.000
349.845;  -41.750; -661.000; -591.000
349.978; -153.725;-1224.000;-1137.000
350.111;  -93.300; -546.000; -612.000
350.244;  -83.500; -596.000; -700.000
350.378;    1.575; -392.000; -393.000
350.511;  -66.600; -393.000; -426.000
350.644; -113.475; -808.000; -806.000
350.778;    6.675;  168.000;  104.000
350.911;    0.350;  134.000;  140.000
351.044;  -96.950; -685.000; -615.000
351.177;  -48.025; -321.000; -281.000
351.310;  -20.300;    3.000; -131.000
351.444;  -90.775; -888.000; -788.000
351.577;   94.800;  140.000;   90.000
351.710;   85.900;  593.000;  417.000
351.843;  -41.700; -165.000;  -77.000
351.976;  -15.275;  149.000;  -79.000
352.109;  -92.450; -621.000; -612.000
352.242;  -37.450; -464.000; -419.000
352.376;  -80.700; -580.000; -636.000
352.509;  122.975; -437.000; -356.000
352.642;  -11.025; -654.000; -604.000
352.775;   46.600; -141.000;  -98.000
352.908; -124.000; -933.000; -904.000
353.041; -113.600; -814.000; -824.000
353.174;  -73.150; -551.000; -424.000
353.307; -106.825; -753.000; -764.000
353.440;   59.750;  541.000;  453.000
353.573; -134.400; -957.000;-1008.000
353.706;  -51.450; -384.000; -558.000
353.839;  -28.075; -264.000; -220.000
353.971;  -92.125; -657.000; -512.000
354.104;  -93.325; -896.000; -835.000
354.237;  -51.600; -627.000; -662.000
354.370; -103.600; -846.000; -879.000
354.503; -197.975;-1231.000;-1308.000
354.636;  -51.075; -529.000; -348.000
354.769; -125.575; -937.000; -860.000
354.902;  -21.500; -230.000; -139.000
355.034;  -28.250; -164.000; -220.000
355.167;  -18.925; -262.000; -162.000
355.300;  -97.175;-1061.000; -880.000
355.433;  968.750;  -71.000;  -14.000
355.565; 1557.525; -402.000; -384.000
355.698;  387.125; -356.000; -296.000
355.831;  -14.825; -882.000; -801.000
355.964;   56.150; -285.000; -170.000
356.096;  -93.100; -856.000; -843.000
356.229;  -26.650; -523.000; -530.000
356.362;  323.750; -373.000; -266.000
356.494;  602.625; -229.000; -162.000
356.627;  411.825;  269.000;  377.000
356.760;  656.050;  120.000;   53.000
356.892;  986.175; -286.000; -601.000
357.025;  562.100;  403.000;  389.000
357.157;  504.175; -167.000; -179.000
357.290;  710.600; -856.000; -713.000
357.423;  198.050; -667.000; -556.000
357.555;   97.450; -217.000; -228.000
357.688;   95.525; -483.000; -364.000
357.820;  375.150; -870.000; -877.000
357.953; 3324.975; -563.000; -589.000
358.085;  666.125; -632.000; -612.000
358.218;  862.375;-1131.000; -932.000
358.350;  145.425;  -58.000;  312.000
358.483; -155.650;-1300.000;-1187.000
358.615;  -47.725;-1182.000;-1078.000
358.747;  -92.525;-1187.000;-1058.000
358.880;  -14.800; -810.000; -744.000
359.012;   -5.275; -376.000; -202.000
359.145;  -54.800; -480.000; -511.000
359.277;   26.400; -962.000; -913.000
359.409; 2694.150;  536.000;  231.000
359.542;  696.775; -738.000; -688.000
359.674;   56.425;   46.000;   13.000
359.806;  -65.300; -565.000; -438.000
359.939;  -53.600; -617.000; -516.000
360.071;  -15.025; -583.000; -579.000
360.203;  -28.750; -411.000; -364.000
360.335;   41.300;  164.000;  -16.000
360.468;  164.200; -249.000; -307.000
360.600; 2247.225; -547.000; -454.000
360.732; 2945.675; -546.000; -423.000
360.864;  381.175;-1216.000;-1044.000
360.996;  203.575; -516.000; -554.000
361.129;   33.275; -389.000; -598.000
361.261;    4.075;  110.000; -113.000
361.393;  -38.775; -252.000; -214.000
361.525;    7.325;   94.000;  244.000
361.657;  -65.600; -821.000; -703.000
361.789;  -19.325; -139.000; -155.000
361.921;  154.300; -642.000; -593.000
362.053;  213.000;  524.000;  541.000
362.185;   27.000;  288.000;   72.000
362.318; -100.500; -709.000; -705.000
362.450;   99.575;  294.000;  444.000
362.582;   25.050; -913.000; -870.000
362.714;  -43.400; -353.000; -332.000
362.846;  -96.250; -606.000; -490.000
362.978; -127.800; -941.000; -811.000
363.109;   24.475; -161.000; -260.000
363.241;  353.000; -739.000; -749.000
363.373;  399.300; -649.000; -564.000
363.505;  704.125; -186.000;  -91.000
363.637;  137.600; -787.000; -601.000
363.769; -133.575;-1067.000;-1080.000
363.901;  -74.475; -596.000; -654.000
364.033; -127.450;-1103.000;-1062.000
364.165;  -20.825; -283.000; -283.000
364.296;   48.950; -316.000; -177.000
364.428;   62.625;-1344.000;-1220.000
364.560;  -76.525; -679.000; -661.000
364.692;  -77.125; -738.000; -835.000
364.824;  184.825; -588.000; -456.000
364.955;  413.825; -402.000; -564.000
365.087;  993.225;-1097.000; -852.000
365.219;   13.325; -686.000; -816.000
365.351;  -70.525; -526.000; -572.000
365.482;   29.825;  300.000;  240.000
365.614;  -42.500; -402.000; -314.000
365.746; -103.900; -729.000; -752.000
365.877;  -96.850; -706.000; -672.000
366.009;  275.700;  -35.000;  -62.000
366.141;  -95.100;-1249.000;-1134.000
366.272; -109.825; -803.000; -719.000
366.404; -121.850;-1005.000; -874.000
366.535;  -17.775; -139.000;  -12.000
366.667;  -99.125; -644.000; -649.000
366.799;   29.675;  353.000;  203.000
366.930; -125.700; -862.000; -996.000
367.062;  102.575; -639.000; -613.000
367.193;  171.775; -872.000; -842.000
367.325;  -67.250; -580.000; -684.000
367.456;   35.000; -246.000;   31.000
367.588;  159.450; -371.000; -318.000
367.719;   33.450;  -44.000;  -45.000
367.851;  -29.525; -222.000; -241.000
367.982;  -78.350; -875.000; -732.000
368.113;   73.125; -475.000; -358.000
368.245; -137.700; -960.000; -841.000
368.376;  -29.125; -254.000; -302.000
368.508;  -31.275; -188.000; -263.000
368.639; -153.200;-1166.000;-1034.000
368.770;  -38.625; -670.000; -589.000
368.902;  -85.625; -836.000; -926.000
369.033; -122.350; -906.000; -855.000
369.164;  -57.550; -720.000; -653.000
369.296; -113.600; -452.000; -601.000
369.427;  -20.200; -209.000; -144.000
369.558;  -65.250; -593.000; -377.000
369.689;  -94.650; -721.000; -569.000
369.821; -136.825; -951.000; -845.000
369.952;  -20.275;   42.000; -108.000
370.083;  -51.750; -229.000; -108.000
370.214;  -89.125; -735.000; -650.000
370.345;   -7.175;   65.000;   81.000
370.477; -105.550; -810.000; -790.000
370.608;  186.250; -328.000; -264.000
370.739;  -82.950;-1233.000;-1292.000
370.870;  -67.400;-1102.000; -923.000
371.001;   61.300; -378.000; -467.000
371.132;  -89.725; -754.000; -735.000
371.263;  -43.250;  -42.000; -148.000
371.394; -141.450; -841.000; -748.000
371.525;   33.975;  345.000;  225.000
371.657;  -86.400; -808.000; -670.000
371.788;   72.075;  103.000;  199.000
371.919;  135.700; -384.000; -304.000
372.050; 3160.000;  -91.000; -156.000
372.181;  915.125; -188.000; -294.000
372.311;  307.525;   42.000; -127.000
372.442;    6.500; -457.000; -451.000
372.573;  -28.675; -444.000; -340.000
372.704; -131.625;-1008.000; -980.000
372.835;   56.850; -228.000; -289.000
372.966;  -78.900; -646.000; -554.000
373.097;  -69.225; -575.000; -711.000
373.228;  -61.800; -717.000; -542.000
373.359;   75.725; -824.000; -536.000
373.490;  775.825; -881.000; -727.000
373.620;  934.050;-1001.000; -803.000
373.751; 1476.250; -332.000; -396.000
373.882;  652.225; -663.000; -733.000
374.013;   36.475; -449.000; -262.000
374.143;  -54.775; -581.000; -659.000
374.274; -107.700; -987.000; -908.000
374.405;  125.625; -388.000; -276.000
374.536;  348.550; -526.000; -387.000
374.666;  908.350; -759.000; -807.000
374.797;  157.975; -817.000; -868.000
374.928;  686.125; -710.000; -560.000
375.058;  713.050; -535.000; -500.000
375.189;   61.700;  -59.000;  -93.000
375.320; -112.450; -928.000;-1034.000
375.450;  -59.625; -625.000; -616.000
375.581;  -75.400; -526.000; -436.000
375.712;  -38.275; -574.000; -250.000
375.842;  236.825; -438.000; -415.000
375.973;  147.125; -554.000; -513.000
376.103;  -69.300; -665.000; -648.000
376.234;  -97.300; -531.000; -552.000
376.364;  -64.200; -944.000; -867.000
376.495;  274.375;  925.000;  529.000
376.625;  -34.025; -472.000; -485.000
376.756;   18.825; -709.000; -678.000
376.886;  -97.725;-1178.000;-1026.000
377.017;   39.400;-1048.000;-1061.000
377.147;  380.975; -786.000; -782.000
377.278;   53.675;  174.000;  228.000
377.408; -136.875; -801.000; -815.000
377.538; -105.275; -707.000; -693.000
377.669;  -85.200; -537.000; -613.000
377.799; -104.350; -645.000; -635.000
377.929;  -78.300; -610.000; -428.000
378.060; -145.050; -781.000; -847.000
378.190;  -53.025; -726.000; -531.000
378.320;  -52.300; -401.000; -406.000
378.451;  -11.050; -131.000;  -22.000
378.581;  -12.200;  -67.000; -110.000
378.711;  143.600; 1035.000;  866.000
378.841;  -46.800; -533.000; -675.000
378.972;  -97.875; -871.000; -751.000
379.102;  -33.000; -652.000; -579.000
379.232;  -31.725; -126.000;  -73.000
379.362; -118.250;-1001.000; -885.000
379.492;  -25.325; -373.000; -424.000
379.623;   72.800;    0.000;  111.000
379.753; -118.250;-1107.000; -974.000
379.883;  156.900;   59.000;  156.000
380.013;  -33.550;-1081.000;-1017.000
380.143; -118.125;-1097.000;-1056.000
380.273; -111.375; -985.000; -861.000
380.403;  -11.775; -344.000; -257.000
380.533;  -37.025; -651.000; -664.000
380.663;   59.450;  173.000;  128.000
380.793; -118.625;-1027.000;-1074.000
380.923;  -31.025; -103.000;  -34.000
381.053; -104.725; -613.000; -623.000
381.183;  -38.625; -106.000; -248.000
381.313;   10.550; -656.000; -470.000
381.443;   16.800; -692.000; -473.000
381.573;  143.100; -402.000; -409.000
381.703;  166.725;-1249.000;-1095.000
381.833; -148.375;-1454.000;-1336.000
381.963;   86.475; -134.000;  -87.000
382.093; 1199.625; -925.000; -909.000
382.223;  334.900; -713.000; -602.000
382.353;  -38.325; -801.000; -608.000
382.482;  268.350;-1091.000; -964.000
382.612;  652.900; -872.000; -644.000
382.742;  351.850; -695.000; -622.000
382.872;  174.800; -565.000; -551.000
383.002;   43.550;  347.000; -132.000
383.131;  -37.125; -226.000; -160.000
383.261;  -57.200; -706.000; -768.000
383.391;  268.700; -552.000; -377.000
383.521; 3372.850;  451.000;  263.000
383.650;  794.050; -947.000; -904.000
383.780;  -19.025; -783.000; -656.000
383.910;  104.425;  880.000;  802.000
384.039;   -8.975; -794.000; -656.000
384.169;  120.375;-1205.000;-1017.000
384.299;  -60.600; -650.000; -662.000
384.428;  -97.025; -764.000; -680.000
384.558;  -48.250; -308.000; -275.000
384.687;  -59.325; -414.000; -334.000
384.817;   -8.150;   75.000;   -2.000
384.947;   -4.950; -234.000; -141.000
385.076;  257.550;  982.000;  912.000
385.206;   72.300;  369.000;  480.000
385.335;  -58.050; -549.000; -417.000
385.465;  -94.200; -655.000; -663.000
385.594;   98.500;  -53.000;  -44.000
385.724;  305.050; -868.000; -838.000
385.853;   66.725; -296.000; -270.000
385.982; 1149.325; -743.000; -787.000
386.112; 1782.575;-1052.000; -871.000
386.241;   95.000; -307.000; -312.000
386.371;   -5.300; -174.000;  -87.000
386.500;  -19.250; -825.000; -789.000
386.629;   -1.200; -874.000; -817.000
386.759;   71.025;  -43.000;   68.000
386.888;  -21.500; -170.000; -250.000
387.017;  -91.300; -648.000; -620.000
387.147;  -94.750; -771.000; -798.000
387.276;  -21.100; -410.000; -397.000
387.405;   -8.400; -398.000; -342.000
387.535;  -52.325; -452.000; -361.000
387.664;  -75.400; -692.000; -620.000
387.793;   40.600; -198.000; -113.000
387.922;  431.400;  255.000;  200.000
388.052;   -8.050; -576.000; -423.000
388.181;  -11.825; -342.000; -472.000
388.310;  -36.800; -889.000; -710.000
388.439;  -80.575; -749.000; -742.000
388.568;  153.750;  365.000;  244.000
388.697;  855.200; -756.000; -653.000
388.826;  157.725; -768.000; -666.000
388.956;   31.050; -285.000; -307.000
389.085;  -37.125; -347.000; -287.000
389.214; -110.600; -842.000; -872.000
389.343;  -77.225; -645.000; -413.000
389.472;  407.425;  126.000;  149.000
389.601;  507.525;   91.000;    0.000
389.730;  -12.275; -568.000; -687.000
389.859;   50.200;  226.000;   46.000
389.988;  136.800; -423.000; -408.000
390.117;  117.700; -168.000; -146.000
390.246;  -22.875; -331.000; -320.000
390.375;   48.325; -673.000; -626.000
390.504;  -87.625; -703.000; -621.000
390.633; -110.450; -672.000; -726.000
390.761;  -86.000; -732.000; -645.000
390.890;    1.250;   -4.000; -130.000
391.019;  -66.450; -421.000; -441.000
391.148; -125.900; -826.000; -855.000
391.277;  -85.400; -576.000; -493.000
391.406; -100.775; -821.000; -805.000
391.534;   16.625;  574.000; -301.000
391.663;  -83.500; -583.000; -645.000
391.792; -110.025; -673.000; -701.000
391.921;   53.825;   -3.000;   15.000
392.050;  137.900; -287.000; -228.000
392.178;  -84.575;-1206.000;-1061.000
392.307;  106.375; -758.000; -712.000
392.436;   23.725; -427.000; -641.000
392.564;   12.575;  166.000;   -6.000
392.693;  -93.725; -860.000; -682.000
392.822;  141.650; -529.000; -534.000
392.950;   50.025; -880.000; -714.000
393.079;  253.700; -188.000; -328.000
393.208;   -3.025; -488.000; -511.000
393.336;  -19.100; -170.000; -145.000
393.465;  -49.325; -317.000; -199.000
393.593;    1.800;   62.000;   79.000
393.722; -164.675;-1121.000; -916.000
393.850;  -45.925; -188.000;  -61.000
393.979; -161.450; -926.000; -805.000
394.107;  -70.725; -517.000; -537.000
394.236;  -45.375; -570.000; -507.000
394.364;  163.100;  383.000;  206.000
394.493;  200.850; -911.000; -767.000
394.621;  -41.125; -955.000; -916.000
394.750;  766.050; -873.000; -923.000
394.878; 3045.425; -247.000; -149.000
395.007; 4059.500; -721.000; -807.000
395.135;  278.225; -790.000; -721.000
395.263;  -72.925;-1038.000;-1040.000
395.392;   -8.875;  -25.000; -107.000
395.520; -139.100; -818.000; -679.000
395.648; -109.900; -865.000; -915.000
395.777;  -35.250; -366.000; -405.000
395.905;  -56.650; -449.000; -564.000
396.033;    7.375;  217.000;  172.000
396.162;  359.900; -399.000; -453.000
396.290;  327.675;  -17.000;   -2.000
396.418;   47.950; -555.000; -514.000
396.546;  -96.775; -571.000; -466.000
396.674; -114.675; -850.000; -878.000
396.803;   -5.150;  -72.000;  -23.000
396.931;   54.075; -179.000; -199.000
397.059;   -6.550;-1026.000; -989.000
397.187; -124.775;-1026.000; -975.000
397.315; -156.275; -884.000; -649.000
397.443; -101.025; -592.000; -443.000
397.572; -103.900; -578.000; -424.000
397.700;  -47.600; -607.000; -614.000
397.828;  -16.425;  120.000;  -90.000
397.956;  -53.150; -508.000; -478.000
398.084;  -62.300; -767.000; -626.000
398.212;    3.800;  137.000;  124.000
398.340;    3.325;  -56.000;  159.000
398.468;   -2.750; -390.000; -169.000
398.596; -148.025; -993.000; -953.000
398.724; -137.225; -762.000; -767.000
398.852; -158.525;-1024.000; -976.000
398.980;  -83.075; -560.000; -560.000
399.108;  -81.175; -982.000; -735.000
399.236;   22.250;   13.000;    8.000
399.363;   23.475;  222.000;  196.000
399.491;  -75.225; -404.000; -398.000
399.619; -135.250; -829.000; -800.000
399.747; -123.075; -859.000; -771.000
399.875;   68.075;  220.000;  234.000
400.003;  -63.050; -359.000; -284.000
400.130;  -98.750; -421.000; -341.000
400.258;  -28.750;  -83.000;   38.000
400.386;  -60.925; -352.000; -168.000
400.514;  -62.300; -526.000; -587.000
400.641; -119.900; -928.000; -802.000
400.769; -155.225; -979.000; -888.000
400.897; -127.850; -838.000; -793.000
401.025;  -25.400; -166.000; -152.000
401.152;  -13.925;  220.000;   38.000
401.280;  -87.575; -430.000; -429.000
401.408; -117.475; -712.000; -576.000
401.535; -117.775; -735.000; -758.000
401.663; -202.675;-1134.000;-1054.000
401.790;  -94.675; -514.000; -525.000
401.918;   41.250;  436.000;  405.000
402.046;   -9.250;  134.000;  122.000
402.173;  -43.150;  -18.000;    7.000
402.301;  -84.175; -519.000; -397.000
402.428;   38.950;  528.000;  383.000
402.556; -157.225;-1188.000; -913.000
402.683;  -26.500;  -20.000;   -1.000
402.811;  -27.575;  -37.000; -206.000
402.938;  -10.425;   20.000;   27.000
403.066;  147.350; -574.000; -558.000
403.193;  267.525;  299.000;  239.000
403.321;  216.975; -396.000; -574.000
403.448;  274.650;   83.000;   27.000
403.575;  112.825;  -90.000;  -46.000
403.703; -108.350; -732.000; -557.000
403.830;  -77.575; -531.000; -496.000
403.957; -144.750;-1117.000;-1023.000
404.085;    1.850;  -61.000; -172.000
404.212;   87.375;  -50.000;   63.000
404.339;  263.275; -566.000; -306.000
404.467; 6067.550; -612.000; -524.000
404.594; 3739.875; -287.000; -227.000
404.721;  804.375; -869.000; -764.000
404.848;   70.250; -113.000; -202.000
404.976; -107.925; -856.000; -783.000
405.103;  -22.050;  -14.000;  -82.000
405.230;   -3.300;  190.000;  226.000
405.357;   22.350;  117.000;   44.000
405.484;  280.025;  -49.000;    5.000
405.612;   26.800; -548.000; -563.000
405.739;  -72.150; -488.000; -243.000
405.866;   75.525;  669.000;  385.000
405.993;  -49.050; -398.000; -102.000
406.120; -135.925; -801.000; -887.000
406.247;  -63.650; -323.000; -342.000
406.374;  363.475;  540.000;  629.000
406.501;   34.925; -632.000; -702.000
406.628;  -84.700; -621.000; -589.000
406.755; -101.525; -803.000; -620.000
406.882;  -47.725; -228.000; -277.000
407.009; -114.200; -719.000; -628.000
407.136;    2.200; -480.000; -401.000
407.263;   48.350; -939.000; -829.000
407.390; -107.275; -692.000; -614.000
407.517; -181.950;-1139.000;-1187.000
407.644;  -63.075; -332.000; -256.000
407.771;  -76.950; -249.000; -287.000
407.898;    1.400;  168.000;  328.000
408.025;  -71.600; -421.000; -313.000
408.151;    3.050;   82.000;  153.000
408.278;  -72.275; -267.000; -216.000
408.405; -129.575; -931.000; -899.000
408.532;  -72.100; -549.000; -542.000
408.659; -118.425; -677.000; -648.000
408.785; -203.400;-1298.000;-1170.000
408.912;  -66.950; -412.000; -296.000
409.039; -110.325; -610.000; -686.000
409.166; -105.750; -591.000; -555.000
409.292; -116.400; -571.000; -534.000
409.419; -133.825; -665.000; -649.000
409.546;  -90.450; -431.000; -192.000
409.672; -118.325; -713.000; -545.000
409.799;  -28.700;  -36.000;   34.000
409.926;  -37.550; -180.000; -179.000
410.052; -184.925;-1127.000;-1091.000
410.179;  -64.600; -368.000; -392.000
410.305;  -93.800; -375.000; -493.000
410.432;  -47.350; -220.000; -333.000
410.558;  -98.775; -305.000; -380.000
410.685; -113.725; -688.000; -431.000
410.812; -105.275; -409.000; -588.000
410.938; -152.725; -964.000; -808.000
411.065; -104.825; -671.000; -645.000
411.191;  -34.300; -189.000; -174.000
411.317; -136.450; -823.000; -742.000
411.444;  -62.975; -317.000; -246.000
411.570;  -73.375; -339.000; -294.000
411.697; -132.625; -758.000; -752.000
411.823; -176.800; -989.000; -999.000
411.949;  -48.325;  -56.000;   17.000
412.076; -128.700; -539.000; -519.000
412.202; -124.875; -758.000; -757.000
412.329; -150.400; -798.000; -752.000
412.455; -127.550; -821.000; -657.000
412.581;  -26.625;  -15.000;  172.000
412.707;  -86.025; -540.000; -457.000
412.834;    0.600;  156.000;  219.000
412.960;  -90.375; -785.000; -784.000
413.086; -115.100; -743.000; -701.000
413.212;  126.950;  604.000;  578.000
413.339;  -83.625; -685.000; -701.000
413.465;  -15.550; -364.000; -310.000
413.591; -107.225; -757.000; -474.000
413.717;  -56.125; -358.000; -366.000
413.843; -133.100; -839.000; -861.000
413.969;  -69.550;  -47.000; -292.000
414.096; -101.725; -679.000; -679.000
414.222;  -27.425;  -33.000;   85.000
414.348;  -45.675; -652.000; -385.000
414.474;   50.500;   38.000;  -52.000
414.600;  -18.475; -126.000; -144.000
414.726;  -10.925;  -96.000;  -55.000
414.852;  -68.125; -365.000; -342.000
414.978;   21.750;  104.000;  -18.000
415.104;   49.175;   38.000;   80.000
415.230;   11.025; -329.000; -330.000
415.356;   34.350; -409.000; -514.000
415.482;  179.650;   13.000;  -35.000
415.608;  274.300; -247.000; -323.000
415.734;  975.375;   67.000;   38.000
415.860;20586.775; -875.000; -767.000
415.986;14400.975; -685.000; -607.000
416.111; 1226.750; -798.000; -652.000
416.237;  268.325; -424.000; -571.000
416.363; 1185.525; -765.000; -733.000
416.489; 4313.025; -324.000; -251.000
416.615;  457.950; -707.000; -742.000
416.741;  -24.800; -677.000; -784.000
416.866;  -83.300; -673.000; -736.000
416.992; -126.800; -801.000; -818.000
417.118;  -33.675;  -41.000;  -80.000
417.244;  -89.300; -798.000; -531.000
417.369;  -97.550; -801.000; -612.000
417.495;  -14.125; -325.000; -254.000
417.621; -113.575;-1015.000; -803.000
417.746;   -1.100; -579.000; -572.000
417.872;   31.200; -254.000; -144.000
417.998;   58.325; -515.000; -530.000
418.123; 1130.450;-1073.000; -845.000
418.249; 5563.000; -512.000; -601.000
418.374;  744.375; -916.000; -824.000
418.500;  100.650; -383.000; -482.000
418.626;  110.575;   70.000;  -59.000
418.751;  109.650; -549.000; -448.000
418.877;  193.225; -637.000; -643.000
419.002; 1895.075; -688.000; -560.000
419.128;13106.700; -930.000; -721.000
419.253; 3092.150; -967.000; -837.000
419.379;  411.225; -391.000; -338.000
419.504;  390.550;  325.000;  415.000
419.629;  526.775; -393.000; -212.000
419.755; 3868.575; -317.000; -254.000
419.880;22376.075;  -98.000;   67.000
420.006;11935.175; -280.000; -221.000
420.131;30118.900; -662.000; -775.000
420.256; 4198.225; -315.000; -316.000
420.382;  550.575; -665.000; -687.000
420.507;   61.125; -649.000; -778.000
420.632;  103.875; -337.000; -339.000
420.758;  186.925; -251.000; -425.000
420.883;  -85.350; -876.000; -672.000
421.008; -107.625; -775.000; -619.000
421.133;  -93.400; -509.000; -467.000
421.259;  -52.275; -325.000; -259.000
421.384; -119.975; -834.000; -693.000
421.509;  -75.000;-1052.000; -862.000
421.634;  900.775; -936.000; -820.000
421.759;  352.675; -359.000; -327.000
421.885;  -79.100; -717.000; -656.000
422.010;  -84.750; -673.000; -542.000
422.135; -162.200; -695.000; -727.000
422.260;   27.375;  340.000;  280.000
422.385;  -35.125;   12.000;  -98.000
422.510;   -0.575;  151.000;  -26.000
422.635;    3.825;  -87.000;  -43.000
422.760;   68.975; -766.000; -791.000
422.885;   41.375;  -57.000;  -80.000
423.010;  -33.875; -112.000; -169.000
423.135; -109.050; -481.000; -561.000
423.260;  -34.300; -150.000; -245.000
423.385;   40.700;  476.000;  222.000
423.510;   27.875;   71.000;  -22.000
423.635;   51.975;  133.000;   45.000
423.760;   54.925;  383.000;  328.000
423.885;   49.575;  336.000;  391.000
424.010;    0.250;  -68.000;  -13.000
424.135;  -36.400;    5.000;  -33.000
424.259;  -96.175; -654.000; -457.000
424.384;  -62.500; -279.000; -272.000
424.509;  -43.825; -260.000; -186.000
424.634;  -97.300; -761.000; -623.000
424.759;  -36.450; -688.000; -544.000
424.883;  -17.425; -506.000; -527.000
425.008;  157.800; -502.000; -410.000
425.133; 2062.375; -679.000; -653.000
425.258;  932.150; -517.000; -381.000
425.382;  907.650; -867.000; -774.000
425.507; 2264.725; -487.000; -543.000
425.632;  396.950; -802.000; -663.000
425.756;  478.825; -256.000; -146.000
425.881; 7238.025; -831.000; -857.000
426.006;18860.900; -604.000; -355.000
426.130; 2807.025; -696.000; -508.000
426.255;  382.600; -611.000; -491.000
426.379;  166.675; -189.000; -577.000
426.504;  372.900;  660.000;  544.000
426.629; 4195.000; -519.000; -466.000
426.753; 2730.300;   64.000;  -46.000
426.878;  310.025; -252.000; -288.000
427.002;  158.275; -651.000; -668.000
427.127; 1662.050;  -35.000; -158.000
427.251;11885.700;  372.000;  401.000
427.375; 3243.075; -191.000; -173.000
427.500; 2049.825; -616.000; -610.000
427.624;  673.750; -234.000; -400.000
427.749;   67.825; -216.000; -225.000
427.873;  -61.975; -499.000; -412.000
427.997;  -61.900; -222.000; -230.000
428.122;   72.500;  795.000;  703.000
428.246;   46.325;  433.000;  434.000
428.371; -134.350; -869.000; -773.000
428.495; -103.850; -624.000; -646.000
428.619;  -30.800; -186.000; -117.000
428.743;   20.475;   65.000;  132.000
428.868;    2.500; -732.000; -643.000
428.992; 1194.400; -219.000; -326.000
429.116;  443.875; -329.000; -357.000
429.240;  203.450;  419.000;  426.000
429.365;  -28.000; -454.000; -574.000
429.489;  -72.700; -638.000; -647.000
429.613;    1.075; -236.000; -177.000
429.737;   21.850; -563.000; -432.000
429.861;  269.200; -247.000; -133.000
429.985; 5845.250; -425.000; -305.000
430.109; 6224.950; -770.000; -908.000
430.234;  695.850;   76.000;  -50.000
430.358;   56.950; -250.000; -160.000
430.482;  -86.375; -672.000; -564.000
430.606;  -75.500; -655.000; -375.000
430.730;   -8.125; -437.000; -388.000
430.854;   69.925; -909.000; -835.000
430.978; -103.925; -795.000; -764.000
431.102;  -91.850; -499.000; -422.000
431.226; -139.775; -874.000; -815.000
431.350;    9.825;  345.000;  422.000
431.474;  -81.850; -661.000; -373.000
431.597; -153.950;-1060.000; -848.000
431.721;  -81.325; -276.000; -267.000
431.845; -132.000; -704.000; -472.000
431.969;  -81.225; -304.000; -349.000
432.093;  -91.550; -395.000; -317.000
432.217;  -30.700;   32.000;   82.000
432.341; -105.525; -523.000; -518.000
432.464;   -9.225;   96.000;   40.000
432.588;  128.850; -401.000; -329.000
432.712;   58.800;  -52.000;  -52.000
432.836;   44.050;  213.000;  263.000
432.959;  -16.525; -372.000; -311.000
433.083;   89.900;   11.000;    2.000
433.207;  391.350;  285.000;  930.000
433.330; 5354.300; -391.000; -200.000
433.454; 6460.950; -654.000; -638.000
433.578; 3690.150;  583.000;  278.000
433.701;  641.400; -623.000; -675.000
433.825;  110.825; -292.000; -299.000
433.949;  116.625;   28.000;  -72.000
434.072;    3.700; -410.000; -323.000
434.196;  -28.325; -309.000; -117.000
434.319; 3758.775;25482.000;25124.000
434.443;  723.025; -656.000; -603.000
434.566; 2723.950;  281.000;   62.000
434.690;  421.800; -637.000; -383.000
434.813;   36.375; -251.000; -173.000
434.937;  -98.025; -569.000; -696.000
435.060;  -62.350; -423.000; -332.000
435.184;  183.850; -492.000; -217.000
435.307;   93.500;  159.000;  102.000
435.431;  -25.050;  -40.000;   24.000
435.554;  -82.025; -399.000; -240.000
435.677;  -96.800; -350.000; -258.000
435.801;  -49.400;  -25.000;   49.000
435.924;  -29.475;    1.000;  -67.000
436.048; -141.625;-1019.000; -732.000
436.171;  -78.275; -240.000;  -66.000
436.294;  -27.300; -248.000; -229.000
436.417;  102.375; -963.000; -849.000
436.541;  -82.325; -814.000; -840.000
436.664;  -49.150; -242.000; -316.000
436.787;  -27.050;   13.000;  113.000
436.910; -130.475; -792.000; -422.000
437.034;   -2.700;  142.000;  143.000
437.157;   19.850;  -11.000;    0.000
437.280;  -68.375; -392.000; -292.000
437.403; -128.300; -982.000; -869.000
437.526;  437.650; -903.000; -865.000
437.649; 1675.200; -505.000; -332.000
437.772;  207.400; -692.000; -540.000
437.896;   97.900;  700.000;  544.000
438.019; -120.475; -758.000; -503.000
438.142;  -95.775; -596.000; -506.000
438.265;  -48.675; -639.000; -670.000
438.388;  416.425; -520.000; -410.000
438.511;   35.950; -597.000; -394.000
438.634;  -56.625; -247.000; -125.000
438.757; -146.425; -693.000; -619.000
438.880;  -30.500;  -34.000;  -57.000
439.003;  -84.225; -417.000; -437.000
439.126;  -80.725; -287.000; -167.000
439.248;  -70.800;  -98.000; -139.000
439.371;  -58.225;    9.000;  -53.000
439.494;   17.425;  510.000;  439.000
439.617;  -54.475;   65.000;  -88.000
439.740; -180.600; -968.000; -816.000
439.863; -153.925; -755.000; -595.000
439.986; -120.950; -476.000; -431.000
440.108;  -54.775; -161.000; -112.000
440.231; -167.400; -950.000; -836.000
440.354;  -55.900;  -64.000; -150.000
440.477;    9.650; -566.000; -542.000
440.599;  -29.675; -200.000; -225.000
440.722; -125.125; -709.000; -586.000
440.845;   54.900;  751.000;  928.000
440.968; -113.575; -415.000; -311.000
441.090;  -69.725; -199.000;  -33.000
441.213; -178.325;-1021.000; -825.000
441.336;  -73.475; -159.000;   -5.000
441.458;  -89.550; -549.000; -396.000
441.581;  -92.425; -628.000; -629.000
441.703;  -73.750; -152.000;   13.000
441.826; -114.925; -557.000; -400.000
441.948;  -44.500;   56.000;   51.000
442.071;   19.925;  555.000;  424.000
442.193; -129.700; -531.000; -485.000
442.316;    5.600;  152.000;   97.000
442.438;   48.825; -233.000;  -10.000
442.561;   62.225;  272.000;  262.000
442.683;  383.375; -809.000; -522.000
442.806;  862.300;   -8.000;   74.000
442.928;  -30.325; -859.000; -604.000
443.051;  -81.125; -577.000; -373.000
443.173;  -87.625; -341.000; -339.000
443.295; -107.150; -263.000; -371.000
443.418;  -73.575; -321.000;  -29.000
443.540;   -9.375; -106.000;   -4.000
443.662; -116.000; -563.000; -465.000
443.785;  -17.675;  335.000;  199.000
443.907; -116.425; -362.000; -208.000
444.029; -131.775; -767.000; -494.000
444.152; -156.125; -644.000; -554.000
444.274;  -36.725;  -18.000;  -24.000
444.396; -128.375; -461.000; -221.000
444.518; -138.900; -691.000; -454.000
444.640; -100.925; -268.000; -111.000
444.763;  -14.550;  388.000;  249.000
444.885; -114.525; -432.000; -392.000
445.007;  -28.325;   35.000;   86.000
445.129; -127.600; -610.000; -515.000
445.251; -105.250; -372.000; -439.000
445.373; -142.325; -537.000; -386.000
445.495;    5.100;  242.000;  350.000
445.617;   43.050;  853.000;  753.000
445.739;  -59.975; -215.000;  -97.000
445.861;  -45.125; -245.000; -112.000
445.984;  -48.950; -267.000; -101.000
446.105;  118.500; -418.000; -251.000
446.227;  455.625; -176.000;  -19.000
446.349;  -35.950; -358.000; -249.000
446.471; -117.925; -615.000; -448.000
446.593;  -71.450; -316.000;   19.000
446.715;  -23.350;  -67.000;   41.000
446.837;   59.750;  697.000;  832.000
446.959; -101.925; -457.000; -478.000
447.081; -129.250; -628.000; -518.000
447.203;   45.500;  862.000;  834.000
447.325;  -81.100; -270.000;   42.000
447.446;   -6.350;  286.000;  530.000
447.568; -161.875; -921.000; -803.000
447.690;  -92.725; -236.000; -245.000
447.812; -150.700; -798.000; -519.000
447.933;  -40.050;  155.000;  127.000
448.055;  -78.800; -306.000; -261.000
448.177;  101.625;   31.000;   79.000
448.299;   21.300; -935.000; -727.000
448.420;    8.675;  -25.000;  159.000
448.542;  -44.025;   -3.000;   33.000
448.664;  -25.825;  109.000;  322.000
448.785;  -40.175;  265.000;   83.000
448.907;  -98.125; -614.000; -353.000
449.028;  -61.650; -771.000; -471.000
449.150;   47.500;  492.000;  589.000
449.272; -179.125;-1044.000; -913.000
449.393;   13.575;  612.000;  694.000
449.515; -150.225; -634.000; -581.000
449.636;  -64.150; -264.000; -155.000
449.758;   81.100;  763.000;  622.000
449.879;  -90.975; -498.000; -396.000
450.001;  -88.475; -149.000;  -49.000
450.122;  -45.275;  -95.000;  162.000
450.244;  -17.725;   37.000;  364.000
450.365;  -86.250; -495.000; -301.000
450.486;  -28.650;   80.000;  268.000
450.608;   19.200;  393.000;  326.000
450.729;   71.825;  578.000;  645.000
450.850;    1.600; -574.000; -466.000
450.972;  838.050; -552.000; -389.000
451.093; 5241.800;  190.000;  588.000
451.214; 2183.650; -516.000; -337.000
451.336;  384.550;  773.000;  579.000
451.457;   60.850;  264.000;  393.000
451.578;  -45.475; -118.000;  -74.000
451.699; -125.875; -546.000; -540.000
451.821;  -74.350; -284.000;  -50.000
451.942;  -10.650;  278.000;  285.000
452.063;   28.500;  228.000;  419.000
452.184;  591.475;  -54.000;  -49.000
452.305; 1128.100;  103.000;  170.000
452.427;  128.075; -549.000; -301.000
452.548;  -23.025;   23.000;   79.000
452.669;  -66.325; -257.000;  -89.000
452.790;  -65.150;    3.000;  -18.000
452.911;  -19.300;  195.000;  259.000
453.032;  -82.100; -289.000;  -60.000
453.153;  -39.675;  -29.000;   81.000
453.274;   45.450;  737.000;  868.000
453.395;  -64.475;  -51.000;  175.000
453.516;  110.025; 1317.000; 1388.000
453.637;  -81.750; -205.000; -150.000
453.758;  -56.950;   15.000;   69.000
453.879; -121.150; -462.000; -250.000
454.000;   59.025; 1086.000;  948.000
454.121; -130.150; -554.000; -326.000
454.242; -121.400; -599.000; -383.000
454.362;  -80.375;  -99.000;  114.000
454.483;  -43.175; -309.000; -229.000
454.604;   46.725;  512.000;  580.000
454.725; -144.200; -627.000; -555.000
454.846; -137.425; -474.000; -406.000
454.967;  -27.125;  230.000;  539.000
455.087;  -50.975;  179.000;  153.000
455.208;   15.275;  554.000;  856.000
455.329;  -58.375;  -22.000;   82.000
455.450;   34.750;  473.000;  633.000
455.570;  -82.275; -234.000; -211.000
455.691;  -55.550;  201.000;  407.000
455.812; -101.675; -270.000;  -92.000
455.932;  -62.825;  107.000;  -97.000
456.053;  -68.775;   36.000;   24.000
456.173; -127.775; -433.000; -355.000
456.294; -134.550; -476.000; -303.000
456.415;  -51.750;  -73.000;   70.000
456.535;  -36.775;  297.000;  273.000
456.656;  -46.700;  132.000;  240.000
456.776;  -65.450;    3.000;  298.000
456.897;  -22.975;  308.000;  513.000
457.017;  -85.550; -153.000;   -3.000
457.138; -108.150; -402.000; -249.000
457.258;  -37.575;  263.000;  224.000
457.379;  -16.350;  509.000;  521.000
457.499;  -20.700;  443.000;  432.000
457.620; -135.625; -407.000; -231.000
457.740;  -94.425; -132.000;  -11.000
457.860;  -80.225;   87.000;   44.000
457.981;  -56.350;  132.000;  124.000
458.101;  -93.750;  -89.000;   40.000
458.221;  -23.250;  336.000;  402.000
458.342;  -65.600;   -4.000;  -37.000
458.462;   26.525;  617.000;  352.000
458.582;  -50.725; -302.000; -294.000
458.703;   17.625;  303.000;  154.000
458.823;  -23.025;   22.000;  163.000
458.943;   26.775;  341.000;  467.000
459.063;  -20.750; 1124.000;  192.000
459.183;  -19.150;  328.000;  313.000
459.304;    7.075;  315.000;  517.000
459.424;  -55.250; -246.000;  -89.000
459.544;  341.975;  388.000;  764.000
459.664;  867.150;  499.000;  506.000
459.784;  319.625; 1004.000; 1175.000
459.904;   50.500;  867.000;  744.000
460.024;   59.925;  867.000;  684.000
460.144;   -2.200;  449.000;  554.000
460.264;  -23.775;  515.000;  327.000
460.385; -101.975; -145.000; -119.000
460.505;   26.450;  905.000;  858.000
460.625;  -98.825;  -17.000;  -68.000
460.745;  -28.250;  396.000;  541.000
460.864;  -43.325;  153.000;  469.000
460.984;    2.225;  499.000;  573.000
461.104;  136.475; 1656.000; 1775.000
461.224;   11.250;  657.000;  650.000
461.344;  -28.225;  431.000;  360.000
461.464;  -45.225;  258.000;  513.000
461.584;   -9.650;  283.000;  466.000
461.704;  -71.350;   58.000;  108.000
461.824;  -54.275;  238.000;  259.000
461.943;  -56.525;  191.000;  130.000
462.063;  -73.800;    2.000;  324.000
462.183;   16.200;  639.000;  717.000
462.303;   97.275; 1678.000; 1230.000
462.422;   30.950;  781.000;  840.000
462.542;  -37.825;  271.000;  391.000
462.662;   29.050;  353.000;  380.000
462.782;  254.275;  833.000;  572.000
462.901;  493.750;  545.000;  717.000
463.021;  281.050; 1702.000; 1638.000
463.141;   -6.775;  337.000;  770.000
463.260;  -17.800;  614.000;  474.000
463.380;   -9.650;  902.000;  884.000
463.499;  -38.225;  342.000;  332.000
463.619;  -39.375;  581.000;  559.000
463.738;  123.675; 1644.000;  903.000
463.858;   -5.300;  657.000;  811.000
463.978;  -31.200;  542.000;  396.000
464.097;   51.675;  921.000; 1114.000
464.217;  112.700; 1196.000; 1143.000
464.336;  106.050; 1068.000; 1130.000
464.455;  -43.350;  328.000;  659.000
464.575;   36.850;  597.000;  602.000
464.694;  145.550; 1204.000; 1179.000
464.814;  111.650; 1190.000; 1138.000
464.933;   66.400; 1095.000; 1027.000
465.052;   88.475; 1412.000; 1054.000
465.172;   77.625;  922.000;  799.000
465.291;  120.150; 1376.000; 1320.000
465.410;    1.775;  462.000;  735.000
465.530;   77.300; 1355.000; 1310.000
465.649;   57.350; 1209.000; 1273.000
465.768;  131.575; 1673.000; 1508.000
465.888;   33.350;  941.000; 1174.000
466.007;   84.175; 1335.000; 1440.000
466.126;   -6.600;  721.000;  641.000
466.245;   42.600; 1176.000; 1187.000
466.364;   17.725;  950.000; 1060.000
466.484;   39.050; 1024.000; 1213.000
466.603;   26.525; 1101.000; 1222.000
466.722;  108.975; 1490.000; 1769.000
466.841;   58.350; 1151.000; 1401.000
466.960;   38.525; 1069.000;  972.000
467.079;  134.575; 1971.000; 1786.000
467.198;   34.725; 1238.000; 1181.000
467.317;   93.700; 1768.000; 1162.000
467.436;   66.875; 1709.000; 1261.000
467.555;  123.300; 1796.000; 1746.000
467.674;   67.100; 1227.000; 1329.000
467.793;   45.025; 1376.000; 1374.000
467.912;   88.625; 1658.000; 1539.000
468.031;  129.150; 2038.000; 1930.000
468.150;  132.600; 1842.000; 1837.000
468.269;  201.150; 2313.000; 2090.000
468.388;  182.025; 2168.000; 2339.000
468.507;  251.750; 2884.000; 2903.000
468.626;  238.450; 2555.000; 2541.000
468.744;  147.425; 2018.000; 2174.000
468.863;  203.025; 2312.000; 2523.000
468.982;   94.150; 1503.000; 1555.000
469.101;  221.375; 2788.000; 2692.000
469.220;  150.775; 2333.000; 2176.000
469.338;  253.125; 2935.000; 3051.000
469.457;  179.900; 2719.000; 2545.000
469.576;  351.825; 3953.000; 3784.000
469.695;  248.800; 2877.000; 3066.000
469.813;  410.150; 4148.000; 4192.000
469.932;  406.125; 4255.000; 4485.000
470.051;  431.625; 4075.000; 4161.000
470.169;  879.325; 4470.000; 4338.000
470.288; 1517.575; 4700.000; 4809.000
470.406;  878.000; 5059.000; 5194.000
470.525;  642.800; 6101.000; 5787.000
470.644;  686.400; 6847.000; 6794.000
470.762;  823.200; 8397.000; 7873.000
470.881;  932.325; 8651.000; 8464.000
470.999; 1049.050; 9685.000; 9151.000
471.118; 1104.650;11174.000;10711.000

