
Integration time [ms]: 100.000
Averaging Nr. [scans]: 40
Smoothing Nr. [pixels]: 0
Data measured with spectrometer [name]: 2101012U2
Wave   ;Sample   ;Dark     ;Reference
[nm]   ;[counts] ;[counts] ;[counts] 

197.733;   51.750;  516.000;  404.000
197.879;  -74.425; -610.000; -634.000
198.025;  -38.600; -475.000; -420.000
198.171;  -70.850; -602.000; -612.000
198.317;  -21.375; -401.000; -316.000
198.463;  -53.550; -655.000; -404.000
198.609;   18.125;  181.000; -137.000
198.755;  -68.225; -644.000; -410.000
198.901;  -69.100; -505.000; -424.000
199.047;  -60.050; -615.000; -488.000
199.193;  -29.275; -230.000; -468.000
199.339;  -41.075; -222.000; -369.000
199.485;   33.750;  330.000;  271.000
199.631;   11.575;  227.000;  310.000
199.777;  -50.075; -466.000; -398.000
199.923;  -66.650; -610.000; -424.000
200.069;  -20.375; -141.000;  -58.000
200.215;   44.500;  128.000;  453.000
200.361;   36.500;  243.000;  477.000
200.507;  -58.250; -600.000; -373.000
200.653;  -21.550; -371.000; -194.000
200.798;  -43.050; -215.000; -125.000
200.944;   -5.475; -146.000;  -41.000
201.090;   18.150;   61.000;  222.000
201.236;    3.125; -116.000; -158.000
201.382;  114.150;  874.000;  903.000
201.528;    4.250;  -58.000;  -48.000
201.674;  -56.000; -386.000; -293.000
201.819;  -52.825; -540.000; -439.000
201.965;  -77.900; -699.000; -447.000
202.111;  -28.600; -273.000; -226.000
202.257;  -39.425; -250.000; -238.000
202.402;   -4.200;   13.000;  -36.000
202.548;  -33.775; -169.000; -116.000
202.694;   82.000;  410.000; -183.000
202.840;  -70.200; -603.000; -531.000
202.985;  -71.950; -681.000; -639.000
203.131; -100.700; -832.000; -666.000
203.277;  -17.850; -199.000; -262.000
203.423;  -41.275; -434.000; -520.000
203.568;  -36.450; -462.000; -237.000
203.714;  -70.525; -535.000; -542.000
203.860;  -74.000; -682.000; -641.000
204.005;    6.500;  112.000;  167.000
204.151;   63.925;  561.000;  556.000
204.296;  -35.200; -354.000; -221.000
204.442;  -63.925; -600.000; -547.000
204.588;  -82.375; -592.000; -579.000
204.733;   13.200;  178.000;  168.000
204.879; -121.025;-1018.000; -822.000
205.025;    5.225;  -99.000;  126.000
205.170;    0.450;  -17.000;   94.000
205.316;   76.150;  438.000;  661.000
205.461;  -72.700; -698.000; -554.000
205.607;   70.700;  609.000;  665.000
205.752;  -64.575; -626.000; -551.000
205.898;  -43.375; -501.000; -391.000
206.043;  -55.850; -578.000; -506.000
206.189;  -53.375; -243.000; -285.000
206.334;   62.500;  554.000;  606.000
206.480;   80.900;  409.000;  239.000
206.625;  -84.625; -529.000; -552.000
206.771;  -49.850; -451.000; -373.000
206.916;  -17.725; -210.000; -537.000
207.062;  -57.575; -545.000; -591.000
207.207;  -68.750; -546.000; -443.000
207.353;   47.150;  185.000;  460.000
207.498;   12.700;  196.000;   85.000
207.643;  -42.375; -501.000; -370.000
207.789; -122.000;-1069.000; -910.000
207.934;  -81.400; -665.000; -713.000
208.080;  -30.650; -154.000;   66.000
208.225;  -16.350;  -22.000;  -57.000
208.370;  -67.050; -727.000; -619.000
208.516;  -72.425; -741.000; -487.000
208.661;  -31.575; -127.000;  -69.000
208.806;  -27.750; -165.000; -171.000
208.952; -121.075;-1044.000; -731.000
209.097;   73.925;  378.000;  349.000
209.242;  -47.300; -307.000; -382.000
209.387;   59.600;  392.000;  350.000
209.533;  -49.475; -321.000; -350.000
209.678;   73.650;  472.000;  543.000
209.823;  -46.800; -408.000; -310.000
209.969;  -86.700; -860.000; -757.000
210.114; -108.075; -907.000; -719.000
210.259; -108.400; -939.000; -889.000
210.404;  -24.150; -171.000;  103.000
210.549;    5.325;  108.000;    3.000
210.695;  -10.925;   -3.000;  -95.000
210.840;   25.025;   94.000;   67.000
210.985;  -57.500; -484.000; -303.000
211.130;   62.350;  268.000;  406.000
211.275;   15.175;  207.000;  199.000
211.420;  -49.300; -300.000; -289.000
211.566;  -73.650; -536.000; -489.000
211.711;   19.225;  218.000;  157.000
211.856;  -64.625; -545.000; -519.000
212.001;    1.600;  151.000;   44.000
212.146;   24.800;  153.000;   49.000
212.291;  -17.100; -210.000; -186.000
212.436;  -28.800; -280.000;   -6.000
212.581;  -78.825; -685.000; -653.000
212.726;  -67.250; -487.000; -538.000
212.871;  -50.450; -552.000; -217.000
213.016; -140.350;-1172.000;-1029.000
213.161;   47.875;  406.000;  291.000
213.306;  -65.575; -435.000; -577.000
213.451;  -90.250; -778.000; -689.000
213.596;  -50.650; -455.000; -347.000
213.741;  -59.050; -448.000; -538.000
213.886;  -77.625; -498.000; -517.000
214.031;  -38.025; -294.000; -124.000
214.176;  -45.675; -408.000; -341.000
214.321;  -32.775; -296.000; -157.000
214.466;  -15.800; -163.000;  -43.000
214.611;   -1.500;  -61.000;  -10.000
214.756; -110.050; -948.000; -858.000
214.901;  -28.550; -388.000; -226.000
215.046; -105.975; -797.000; -825.000
215.191;   11.900;  128.000;   35.000
215.336;  -23.275; -157.000;  -19.000
215.480;  -63.575; -684.000; -505.000
215.625;  -14.000; -175.000;  -19.000
215.770;  -75.375; -757.000; -662.000
215.915;   -9.900;   -5.000;  -97.000
216.060;   -9.500; -113.000;  -21.000
216.205; -100.375; -731.000; -779.000
216.349;  -67.025; -470.000; -533.000
216.494; -133.825; -939.000; -867.000
216.639; -111.500; -823.000; -888.000
216.784;  -91.425; -577.000; -525.000
216.929;   32.175;  392.000;  281.000
217.073;  -16.275; -244.000;  -31.000
217.218;    5.675;   78.000;  -47.000
217.363;  -91.375; -656.000; -618.000
217.507;  -69.500; -623.000; -588.000
217.652; -124.725; -845.000; -874.000
217.797;  -80.225; -708.000; -659.000
217.942; -107.525; -856.000; -720.000
218.086;   64.450;  608.000;  539.000
218.231;  -28.325; -174.000;  -26.000
218.376;  -23.200; -337.000; -229.000
218.520;   -6.025;  -41.000;   96.000
218.665;  -27.350; -338.000; -204.000
218.810;  -38.900; -275.000; -233.000
218.954;    7.950;  201.000;   35.000
219.099;  -95.225; -713.000; -963.000
219.243;  -69.650; -589.000; -554.000
219.388;  -30.850; -264.000; -136.000
219.532;  -10.175; -116.000; -116.000
219.677;  -64.725; -564.000; -521.000
219.822;    3.775;   33.000;   89.000
219.966;    8.650;   17.000;  -99.000
220.111;  -29.350; -328.000;  -40.000
220.255; -101.725; -797.000; -750.000
220.400;  -28.200; -180.000; -146.000
220.544;  -67.200; -516.000; -450.000
220.689;  -61.575; -422.000; -451.000
220.833;  -21.500; -123.000;  -58.000
220.978;  -48.500; -393.000; -563.000
221.122;    8.425;  319.000;  307.000
221.267; -118.225; -906.000; -837.000
221.411;  -65.250; -478.000; -394.000
221.555;  -10.825; -104.000;  -23.000
221.700;  -44.275; -329.000; -222.000
221.844;   26.075;  255.000;  272.000
221.989;  -42.150; -328.000; -311.000
222.133;  -35.225; -289.000; -307.000
222.277;   -5.825;    5.000;   78.000
222.422;   12.200;  227.000;  113.000
222.566;  -36.250; -381.000; -214.000
222.711;  -53.750; -414.000; -479.000
222.855;  -81.475; -643.000; -586.000
222.999;  -77.375; -642.000; -717.000
223.144;  -21.275; -195.000; -194.000
223.288;   49.925;  423.000;  251.000
223.432;   20.550;  184.000;  230.000
223.576;    2.450;  152.000;  -21.000
223.721;   41.250;  364.000;  273.000
223.865;  -66.800; -472.000; -475.000
224.009;  197.900; 1673.000; 1631.000
224.153;  -84.100; -660.000; -671.000
224.298;  -53.650; -531.000; -489.000
224.442;  -13.275;  -74.000;  -33.000
224.586;  -20.350; -169.000; -106.000
224.730;  -84.650; -858.000; -670.000
224.875;  -94.950; -739.000; -688.000
225.019;   11.025;  102.000;  188.000
225.163;   59.875;  208.000;  341.000
225.307;    2.250;   97.000;  -91.000
225.451;   32.150;  360.000;  481.000
225.595;   17.700;  264.000;  176.000
225.739;  -24.825; -170.000;  -94.000
225.884;   -4.125;   86.000;    5.000
226.028; -103.275; -760.000; -626.000
226.172;  -40.325; -260.000; -273.000
226.316; -110.525; -941.000; -902.000
226.460;  -62.700; -645.000; -493.000
226.604;  -56.575; -406.000; -400.000
226.748;  -85.325; -836.000; -733.000
226.892;  -34.775; -227.000; -181.000
227.036;  -47.000; -537.000; -447.000
227.180;  -59.450; -551.000; -375.000
227.324;  -80.550; -561.000; -580.000
227.468; -100.900; -819.000; -717.000
227.612;    8.225;  242.000;  -28.000
227.756;  -92.500; -845.000; -698.000
227.900;   41.000;  342.000;  441.000
228.044;  -62.425; -509.000; -290.000
228.188;   55.275;  448.000;  568.000
228.332;  -77.675; -546.000; -472.000
228.476;  -28.250; -223.000; -149.000
228.620;  -36.025; -210.000; -150.000
228.764;   60.175;  431.000;  349.000
228.908;  -26.525; -155.000;   30.000
229.052;  -62.925; -615.000; -528.000
229.195;  -15.125; -172.000;   13.000
229.339;  -29.500; -235.000; -305.000
229.483;  -24.150;    5.000; -162.000
229.627;  -14.675; -156.000;  139.000
229.771;  -57.400; -218.000; -294.000
229.915;   11.000;  230.000;   79.000
230.059;  -92.675; -648.000; -663.000
230.202;  -45.625; -370.000; -317.000
230.346;  -29.125; -107.000;  107.000
230.490;  -67.675; -489.000; -521.000
230.634; -100.000; -736.000; -553.000
230.777;   66.625;  478.000;  509.000
230.921;  -51.050; -450.000; -359.000
231.065;  -48.250; -246.000; -286.000
231.209;   18.400;  261.000;  265.000
231.352;   19.675;   54.000;   40.000
231.496;    7.825;  568.000;  188.000
231.640;  -69.825; -693.000; -621.000
231.783;   49.900;  546.000;  525.000
231.927;  -44.700; -294.000; -365.000
232.071; -108.325; -962.000; -736.000
232.214; -119.200; -980.000; -764.000
232.358;  -90.350; -683.000; -599.000
232.502;   -7.875;  -19.000;    7.000
232.645; -137.625;-1090.000; -927.000
232.789;  -29.800; -257.000; -218.000
232.933;  -33.650; -407.000; -224.000
233.076; -115.550;-1038.000; -897.000
233.220; -111.100; -752.000; -777.000
233.363;  -72.025; -669.000; -477.000
233.507;   53.775;  371.000;  129.000
233.650;  -96.950; -764.000; -834.000
233.794;   33.925;  438.000;  461.000
233.938;  -64.300; -530.000; -362.000
234.081;  -23.725;  -93.000;   31.000
234.225;  -71.400; -631.000; -539.000
234.368; -113.175; -773.000; -723.000
234.512;  -38.975; -385.000; -299.000
234.655;  -88.375; -582.000; -555.000
234.798;  -66.675; -493.000; -466.000
234.942; -127.525; -884.000;-1002.000
235.085;  -70.625; -651.000; -443.000
235.229;  -60.950; -405.000; -410.000
235.372;  -48.100; -247.000; -191.000
235.516;  -62.050; -397.000; -321.000
235.659;   12.000;   92.000;  121.000
235.802;  -16.125;  -38.000;  -22.000
235.946;   15.650;  335.000;  215.000
236.089;   14.975;  126.000;  250.000
236.233;   36.175;  275.000;  298.000
236.376;  -37.900; -235.000; -378.000
236.519;  -53.975; -297.000; -319.000
236.663;  -22.475; -215.000; -117.000
236.806; -136.600;-1029.000; -999.000
236.949;   43.000;  543.000;  431.000
237.092;   44.975;  412.000;  391.000
237.236;  -96.075; -589.000; -502.000
237.379;   72.675;  352.000;  428.000
237.522; -103.725; -879.000; -768.000
237.666;  -20.300; -271.000;   18.000
237.809; -121.925; -851.000; -823.000
237.952;   22.450;  469.000;  271.000
238.095;  -60.300; -447.000; -442.000
238.238;   66.850;  688.000;  700.000
238.382;  -21.225;  166.000;  103.000
238.525;  -73.525; -598.000; -511.000
238.668; -131.425;-1060.000; -985.000
238.811;  -89.300; -638.000; -643.000
238.954;  -63.325; -483.000; -334.000
239.097;   74.400;  617.000;  664.000
239.241;   26.625;  394.000;  326.000
239.384;  -26.200; -254.000; -214.000
239.527;  -62.400; -424.000; -224.000
239.670; -133.400; -994.000;-1091.000
239.813; -119.000; -696.000; -658.000
239.956;   71.500;  579.000;  473.000
240.099; -108.775; -778.000; -725.000
240.242;   51.600;  428.000;  432.000
240.385;   35.075;  466.000;  450.000
240.528;  -80.375; -706.000; -473.000
240.671;    4.650;  189.000;  134.000
240.814;  -41.675; -441.000; -158.000
240.957;  -94.150; -767.000; -578.000
241.100;  -91.475; -779.000; -755.000
241.243; -149.500;-1234.000; -893.000
241.386;  -70.975; -508.000; -379.000
241.529;  -93.375; -735.000; -547.000
241.672;  -56.125; -566.000; -495.000
241.815; -106.425; -832.000; -808.000
241.958;  -24.425; -125.000; -182.000
242.101;  -77.400; -545.000; -390.000
242.244;  -45.375; -270.000; -325.000
242.387;  -51.575; -304.000; -246.000
242.530;   58.425;  470.000;  134.000
242.673;  -50.100; -381.000; -309.000
242.815; -119.325; -925.000; -899.000
242.958;  -62.850; -482.000; -381.000
243.101;    7.150;  132.000;  187.000
243.244;  -92.725; -564.000; -521.000
243.387;  -46.450; -313.000; -316.000
243.530;  -99.725; -657.000; -674.000
243.672;    8.300;   43.000;  -92.000
243.815;  -51.800; -355.000; -283.000
243.958;  -10.100;   98.000;  -26.000
244.101;   -1.825;   59.000;  -16.000
244.243;  -16.475;  -47.000;  101.000
244.386; -107.475; -761.000; -630.000
244.529;  -24.475; -132.000; -139.000
244.672; -144.650;-1154.000; -951.000
244.814;  -97.575; -621.000; -794.000
244.957;  -48.800; -380.000; -304.000
245.100;  -70.500; -489.000; -489.000
245.242;  -62.075; -387.000; -374.000
245.385;   -8.750;  -59.000;  -39.000
245.528; -114.650; -871.000; -705.000
245.670;   80.925;  612.000;  634.000
245.813;  -95.525; -599.000; -547.000
245.956;  -30.800; -324.000; -275.000
246.098;  -80.375; -508.000; -650.000
246.241;    0.400;  194.000;   48.000
246.383;  -16.900; -119.000;  -73.000
246.526;  -68.850; -454.000; -525.000
246.669; -116.425; -889.000; -780.000
246.811;   -7.075;  172.000;   -1.000
246.954;  -54.050; -512.000; -426.000
247.096;  -33.725;  -84.000;   -6.000
247.239;  -68.775; -482.000; -445.000
247.381;  -80.175; -647.000; -488.000
247.524;   68.875;  645.000;  679.000
247.666;  -11.950;   58.000;   11.000
247.809;  -98.375; -887.000; -691.000
247.951;  -16.550;  -75.000;  138.000
248.094;    7.825;  432.000;  308.000
248.236; -147.550;-1262.000;-1238.000
248.378;  -47.200; -356.000;  -81.000
248.521;  -47.400; -334.000; -337.000
248.663;  -45.400; -236.000; -267.000
248.806;  -47.800; -300.000; -266.000
248.948; -128.325; -886.000; -763.000
249.090;  -60.050; -428.000; -398.000
249.233;  -78.300; -344.000; -381.000
249.375;  -61.025; -474.000; -451.000
249.518;  -43.350;  -83.000; -133.000
249.660;  -16.625; -103.000;    3.000
249.802; -157.175;-1303.000;-1189.000
249.945;  -70.975; -612.000; -540.000
250.087; -103.700; -834.000; -768.000
250.229;  -49.300; -362.000; -480.000
250.371;  -64.800; -494.000; -439.000
250.514;  -46.375; -310.000; -244.000
250.656;  -61.700;   69.000;  102.000
250.798; -115.775; -849.000; -800.000
250.940;  -58.650; -322.000; -322.000
251.083;  -32.825; -335.000; -111.000
251.225;   38.025;  338.000;  310.000
251.367;  -41.825; -274.000; -373.000
251.509;  -49.300; -265.000; -210.000
251.651;  -91.125; -731.000; -671.000
251.794;   34.400;  538.000;  632.000
251.936; -110.150; -821.000; -747.000
252.078;  -84.025; -540.000; -461.000
252.220;  -71.450; -645.000; -477.000
252.362;   23.350;  344.000;  462.000
252.504;  -94.800; -677.000; -584.000
252.646; -109.100; -875.000; -722.000
252.788;   -9.775;   14.000; -128.000
252.931;  -47.350; -257.000; -253.000
253.073;  -53.175; -376.000; -317.000
253.215;  -19.875;  141.000;  122.000
253.357;  -22.275;   82.000; -153.000
253.499;  -48.675; -374.000; -234.000
253.641;  -94.975; -749.000; -594.000
253.783;  -99.150; -609.000; -527.000
253.925;  -88.325; -586.000; -591.000
254.067; -108.625; -744.000; -667.000
254.209;  -44.225; -391.000; -259.000
254.351; -136.950; -865.000; -883.000
254.493;  -57.875; -441.000; -417.000
254.635; -142.175; -936.000; -818.000
254.777;  -92.500; -752.000; -687.000
254.918;  -83.025; -512.000; -430.000
255.060;  -63.750; -551.000; -395.000
255.202;  -61.550; -473.000; -261.000
255.344;  -85.850; -658.000; -455.000
255.486;  -68.850; -471.000; -406.000
255.628; -105.975; -780.000; -781.000
255.770;  -96.800; -676.000; -536.000
255.912;  -65.975; -559.000; -468.000
256.053;  -97.050; -730.000; -508.000
256.195;  129.625; 1008.000;  903.000
256.337;  -98.700; -861.000; -595.000
256.479;   38.525;  532.000;  416.000
256.621;  -49.100; -394.000; -212.000
256.762;  -96.800; -789.000; -742.000
256.904;   31.525;  485.000;  487.000
257.046;  -48.400; -381.000; -271.000
257.188;  -49.900; -351.000; -264.000
257.329;  -70.125; -525.000; -464.000
257.471; -119.775; -939.000; -807.000
257.613;  -68.050; -584.000; -498.000
257.755; -148.850;-1073.000; -982.000
257.896;   23.950;  286.000;  392.000
258.038;  -81.900; -403.000; -352.000
258.180;  -48.425; -354.000; -279.000
258.321;  -93.500; -581.000; -457.000
258.463;  -12.425;  -71.000;  133.000
258.605;  -90.050; -562.000; -570.000
258.746; -109.075; -886.000; -772.000
258.888; -136.350;-1026.000;-1020.000
259.029;   11.325;  121.000;   -8.000
259.171;  -95.225; -614.000; -550.000
259.313;  -11.375;  -49.000;  -47.000
259.454;  -80.775; -536.000; -414.000
259.596;  -69.075; -483.000; -390.000
259.737;  -70.425; -590.000; -474.000
259.879;   14.600;  217.000;  311.000
260.020;   51.600;  901.000;  636.000
260.162;  -34.000; -146.000; -253.000
260.303; -110.700; -768.000; -687.000
260.445;  -93.400; -609.000; -613.000
260.586;   14.975;  392.000;  157.000
260.728;  -58.550; -360.000; -248.000
260.869;  -93.925; -350.000; -343.000
261.011;   68.675;  706.000;  537.000
261.152;  -72.450; -479.000; -319.000
261.293;  -81.225; -576.000; -595.000
261.435;  -28.850; -219.000; -184.000
261.576;  -61.525; -455.000; -325.000
261.718;   38.925;  420.000;  470.000
261.859; -132.075; -940.000; -949.000
262.000; -128.675; -951.000;-1016.000
262.142;  -42.675;  -52.000;  -60.000
262.283; -121.000; -808.000; -691.000
262.424;  -93.675; -666.000; -625.000
262.566; -142.900;-1161.000; -983.000
262.707; -115.700; -840.000; -830.000
262.848; -111.400; -769.000; -726.000
262.990;  -56.325; -362.000; -345.000
263.131;   59.325;  650.000;  681.000
263.272;  -21.525;  -61.000;  -41.000
263.413;  -99.600; -589.000; -561.000
263.555;  -62.400; -669.000; -143.000
263.696;  -83.975; -550.000; -641.000
263.837;  -71.300; -449.000; -551.000
263.978;   -8.175;   -5.000;  -77.000
264.119;  -57.200; -283.000; -264.000
264.261; -116.150; -847.000; -630.000
264.402;   -1.950;   33.000;   40.000
264.543;  -99.475; -509.000; -524.000
264.684;   -9.825;   61.000;  -50.000
264.825;  -80.150; -816.000; -538.000
264.966;  -18.825;  -84.000;  -67.000
265.107; -104.350; -646.000; -670.000
265.248; -118.250; -825.000; -812.000
265.390;  -25.375;  152.000;   -9.000
265.531;  -31.950; -238.000; -107.000
265.672;  -84.875; -557.000; -630.000
265.813;   38.900;  563.000;  439.000
265.954; -134.125; -959.000; -940.000
266.095;  -20.575; -372.000; -322.000
266.236; -106.775; -686.000; -548.000
266.377;  -47.525; -243.000; -297.000
266.518;  -73.025; -619.000; -547.000
266.659;   15.875;  170.000;  268.000
266.800;    5.100;   83.000;   85.000
266.941;  -85.000; -487.000; -478.000
267.082;    1.525;  354.000;   99.000
267.223;  -52.075; -344.000; -273.000
267.364; -118.800; -892.000; -686.000
267.504;  -21.825;    3.000;  135.000
267.645;   -8.725;  160.000;   67.000
267.786;  -38.925; -147.000;  -86.000
267.927;  -79.700; -473.000; -379.000
268.068;  -25.400; -186.000;  -61.000
268.209;  -52.675; -175.000; -413.000
268.350;  -62.250; -388.000; -532.000
268.490;  -96.600; -648.000; -521.000
268.631;   15.800;  127.000;  225.000
268.772; -106.875; -874.000; -647.000
268.913;  -66.625; -328.000; -476.000
269.054;  -29.475; -117.000;   12.000
269.194;  -60.150; -418.000; -402.000
269.335; -148.275;-1137.000;-1074.000
269.476;  -23.400;   33.000;  -35.000
269.617;  -57.850; -347.000; -392.000
269.757;  -97.900; -713.000; -646.000
269.898; -111.075; -856.000; -613.000
270.039;  -71.125; -415.000; -405.000
270.180; -134.500; -952.000; -816.000
270.320;  -32.925; -190.000; -250.000
270.461;  -51.450; -277.000; -249.000
270.602;  -28.050; -186.000; -156.000
270.742; -129.350; -868.000; -943.000
270.883;  -62.125; -442.000; -390.000
271.023;  -82.075; -358.000; -357.000
271.164;  -82.825; -607.000; -528.000
271.305; -124.950; -666.000; -654.000
271.445; -102.700; -722.000; -683.000
271.586;  -81.100; -462.000; -283.000
271.726;  -58.425; -397.000; -322.000
271.867;  -83.475; -594.000; -534.000
272.008;  -42.975; -473.000; -285.000
272.148;   34.075;  462.000;  468.000
272.289;  -17.475; -113.000; -181.000
272.429;   -1.650;   19.000;  185.000
272.570; -106.875; -633.000; -737.000
272.710; -116.100; -825.000; -775.000
272.851;  -41.625;  113.000; -130.000
272.991; -161.975;-1173.000;-1077.000
273.131;  -75.525; -419.000; -459.000
273.272;  -97.900; -683.000; -723.000
273.412;  -31.550; -143.000;  -31.000
273.553;  -71.975; -488.000; -507.000
273.693;   86.750;  913.000;  858.000
273.834; -132.825; -894.000; -692.000
273.974;  -92.475; -664.000; -615.000
274.114; -104.575; -772.000; -560.000
274.255;   31.725;  414.000;  373.000
274.395;  -43.925; -180.000; -125.000
274.535;    0.325;  199.000;  350.000
274.676;   -2.875;  225.000;   94.000
274.816;  -15.725;  110.000;   34.000
274.956;  -97.625; -624.000; -690.000
275.097; -134.475;-1014.000; -922.000
275.237; -132.000; -913.000; -803.000
275.377;  -97.700; -778.000; -689.000
275.517; -155.325; -878.000; -937.000
275.658;  -89.650; -590.000; -555.000
275.798;  -93.025; -606.000; -413.000
275.938;    4.225;  215.000;  323.000
276.078;  -86.850; -626.000; -395.000
276.218;   -3.475;   99.000;  104.000
276.359; -143.575;-1026.000;-1024.000
276.499;  -81.575; -605.000; -446.000
276.639;  -44.450; -305.000; -151.000
276.779;  -70.950; -475.000; -357.000
276.919; -106.075; -783.000; -624.000
277.059;  -34.850; -261.000; -212.000
277.199;  -55.575; -357.000; -259.000
277.340;   26.400;  287.000;  175.000
277.480; -113.350; -840.000; -693.000
277.620;   10.800;  192.000;   16.000
277.760; -194.200;-1533.000;-1294.000
277.900;  -26.400;  113.000;   33.000
278.040;  -11.850;  137.000;  159.000
278.180;    9.950;  270.000;  170.000
278.320;  -23.925;   21.000;   56.000
278.460;  -71.425; -443.000; -469.000
278.600; -104.700; -708.000; -598.000
278.740;   39.150;  448.000;  224.000
278.880; -135.675; -768.000; -791.000
279.020;  -50.100; -194.000; -144.000
279.160;  -95.550; -672.000; -595.000
279.300; -125.350; -926.000; -873.000
279.440; -109.700; -709.000; -622.000
279.579; -133.575;-1014.000; -929.000
279.719;  -79.625; -410.000; -394.000
279.859;    8.525;   -4.000;   41.000
279.999;  -46.900; -208.000;  101.000
280.139;  -65.500; -435.000; -387.000
280.279; -110.925; -708.000; -745.000
280.419;  -28.325; -229.000; -147.000
280.559;  -51.500; -259.000; -180.000
280.698; -117.075; -790.000; -639.000
280.838; -116.750; -778.000; -800.000
280.978; -115.550; -846.000; -790.000
281.118; -112.600; -811.000; -704.000
281.257;   -7.500;   24.000;    6.000
281.397; -173.625;-1094.000; -960.000
281.537; -117.775; -599.000; -712.000
281.677;  -45.900; -150.000; -101.000
281.816;  -99.225; -700.000; -630.000
281.956;  -38.900; -193.000; -257.000
282.096;  -81.800; -539.000; -396.000
282.235; -114.400; -672.000; -638.000
282.375;  -45.725; -243.000;  -98.000
282.515; -120.400; -715.000; -707.000
282.654;   -6.625;   29.000;  106.000
282.794;    1.475;  388.000;  244.000
282.934;  -63.825; -530.000; -491.000
283.073; -146.925;-1030.000; -857.000
283.213;  -62.475; -460.000; -467.000
283.353;  -68.250; -408.000; -349.000
283.492;  -45.725; -264.000; -296.000
283.632;  -73.500; -254.000; -168.000
283.771; -103.050; -859.000; -730.000
283.911;  -71.625; -369.000; -260.000
284.050; -113.100; -794.000; -748.000
284.190; -153.575;-1229.000;-1096.000
284.329; -147.950;-1055.000; -964.000
284.469;  -99.025; -516.000; -591.000
284.608;  -69.625; -559.000; -598.000
284.748;  -84.450; -614.000; -570.000
284.887;  -23.250;  -87.000;  -20.000
285.027; -138.325; -844.000; -892.000
285.166;  -47.750; -192.000; -249.000
285.306;  -31.425; -116.000;  -33.000
285.445;  -47.575; -229.000; -343.000
285.584; -103.650; -630.000; -494.000
285.724;  -52.575; -282.000; -322.000
285.863; -113.000; -857.000; -507.000
286.002;  -74.825; -366.000; -276.000
286.142; -119.650; -715.000; -622.000
286.281;  -85.550; -525.000; -493.000
286.420;  -94.025; -554.000; -417.000
286.560;   72.350;  653.000;  623.000
286.699; -142.075; -958.000; -912.000
286.838;  -95.400; -590.000; -591.000
286.978; -101.450; -533.000; -537.000
287.117; -142.250;-1085.000; -950.000
287.256;  -60.625; -228.000; -211.000
287.395;  -69.225; -197.000; -378.000
287.535;  -55.575; -370.000; -298.000
287.674;  -90.250; -509.000; -484.000
287.813;   32.950;  661.000;  533.000
287.952; -138.675;-1010.000; -871.000
288.091; -155.100;-1049.000; -915.000
288.231;  -22.350;   13.000;   15.000
288.370; -184.625;-1217.000;-1200.000
288.509;  -92.750; -728.000; -645.000
288.648; -114.100; -770.000; -548.000
288.787;  -55.750; -243.000;  -87.000
288.926;  -73.375; -454.000; -475.000
289.065;   80.425;  859.000;  672.000
289.204;  -65.475; -377.000; -217.000
289.344; -124.450; -791.000; -690.000
289.483;    1.000;  416.000;  304.000
289.622;  -49.900; -291.000; -149.000
289.761;  -27.775; -309.000; -166.000
289.900; -111.925; -785.000; -626.000
290.039;  -32.100;  -12.000;  -95.000
290.178;  -51.475; -274.000; -180.000
290.317; -103.525; -618.000; -479.000
290.456;  -73.025; -463.000; -451.000
290.595; -123.225; -961.000; -833.000
290.734; -135.175; -904.000; -891.000
290.873;  -74.975; -456.000; -420.000
291.011; -115.300; -833.000; -843.000
291.150; -118.800; -770.000; -682.000
291.289;  -34.100; -343.000; -110.000
291.428; -111.900; -599.000; -480.000
291.567;  -58.200; -370.000; -442.000
291.706;  -42.700;  109.000;  154.000
291.845;  -91.225; -597.000; -505.000
291.984; -177.625;-1234.000;-1061.000
292.122;   43.025;  602.000;  582.000
292.261;   29.225;  620.000;  463.000
292.400;  -14.025; -144.000;  211.000
292.539; -136.575; -959.000; -813.000
292.678;  -55.825; -325.000; -300.000
292.816; -165.025;-1136.000; -965.000
292.955; -121.975; -844.000; -684.000
293.094;  -52.750; -173.000; -337.000
293.233;  -75.700; -556.000; -400.000
293.371;  -45.500; -225.000;  -84.000
293.510; -115.875; -866.000; -780.000
293.649; -149.600; -959.000; -924.000
293.787; -153.050;-1083.000;-1012.000
293.926;  -36.100; -113.000;  -32.000
294.065;  -71.375; -379.000; -290.000
294.203;   17.925;  298.000;  406.000
294.342;  -15.925;   74.000;  156.000
294.481; 5146.600;51180.000; -836.000
294.619;  -48.000; -425.000; -582.000
294.758; -164.850;-1230.000;-1137.000
294.896;  -34.375; -125.000;    5.000
295.035; -147.925;-1040.000;-1006.000
295.174; -147.175;-1082.000; -954.000
295.312;  -65.350; -323.000; -203.000
295.451;  -60.350; -307.000; -428.000
295.589;  -90.550; -389.000; -518.000
295.728;  -25.800; -292.000; -165.000
295.866;  -32.100;  -36.000;  -51.000
296.005;  -92.400; -584.000; -341.000
296.143;  -99.025; -558.000; -596.000
296.282; -129.575; -957.000; -881.000
296.420;  -88.275; -657.000; -557.000
296.559; -114.725; -892.000; -633.000
296.697; -113.550; -847.000; -665.000
296.835; -155.150;-1141.000;-1002.000
296.974;   -9.425;  -23.000;   39.000
297.112;  -88.975; -443.000; -504.000
297.251; -127.625; -815.000; -755.000
297.389;  -84.525; -576.000; -438.000
297.527;  -46.975; -145.000;  -83.000
297.666;  -82.875; -486.000; -438.000
297.804;  -77.975; -404.000; -264.000
297.942;  -36.925; -136.000; -161.000
298.081;  -31.975; -183.000;   63.000
298.219;  -24.825;  -17.000;  -19.000
298.357;  -59.525; -144.000;  -71.000
298.495; -118.025; -810.000; -812.000
298.634;  -12.475;  245.000;  219.000
298.772;  -58.000; -220.000; -338.000
298.910;  -63.350; -309.000; -182.000
299.048;  -41.950; -130.000; -153.000
299.187;  -69.175; -350.000; -250.000
299.325;  -15.025;   52.000;  122.000
299.463;  -77.175; -389.000; -299.000
299.601;  -59.800; -327.000; -271.000
299.739; -145.725; -908.000; -883.000
299.877; -104.075; -791.000; -703.000
300.016; -163.200;-1095.000; -935.000
300.154;  -37.425;  -19.000; -161.000
300.292;  -75.275; -428.000; -348.000
300.430;  -60.000; -408.000; -291.000
300.568; -128.550; -940.000; -874.000
300.706;  -77.750; -366.000; -469.000
300.844; -163.550;-1108.000; -979.000
300.982;   20.900;  246.000;  282.000
301.120; -146.500; -965.000; -866.000
301.258; -107.950; -812.000; -705.000
301.396;  -21.550;  104.000;  -41.000
301.534;  -65.450; -218.000; -293.000
301.672;  -91.750; -664.000; -521.000
301.810; -103.275; -613.000; -545.000
301.948;  -21.825;   53.000;  149.000
302.086;  -42.925; -250.000;  -32.000
302.224; -107.725; -610.000; -585.000
302.362; -105.175; -558.000; -622.000
302.500; -137.525; -923.000; -893.000
302.638;  -14.075;  128.000;  245.000
302.776;  -55.550; -352.000; -408.000
302.913;   24.700;  447.000;  236.000
303.051;  -49.150;  -86.000;  -23.000
303.189;  -11.650;   90.000;  118.000
303.327;  -68.500; -341.000; -256.000
303.465; -100.750; -832.000; -588.000
303.603; -115.325; -805.000; -604.000
303.740;   13.225;  417.000;  241.000
303.878; -122.450; -800.000; -759.000
304.016; -116.650; -915.000; -790.000
304.154; -165.400;-1123.000;-1152.000
304.291;  -86.600; -505.000; -554.000
304.429;  -29.600;  102.000;   74.000
304.567; -147.700; -908.000; -893.000
304.705;  -99.100; -408.000; -515.000
304.842;  -99.325; -616.000; -540.000
304.980;  -19.275;  215.000;   35.000
305.118;  -78.725; -367.000; -365.000
305.255; -140.550; -945.000; -927.000
305.393;    5.950;  178.000;  239.000
305.531; -153.600;-1173.000; -956.000
305.668;  -86.250; -663.000; -582.000
305.806;  -80.975; -358.000; -439.000
305.943; -103.975; -629.000; -637.000
306.081;  -74.525; -378.000; -267.000
306.219; -123.150; -863.000; -748.000
306.356;  -20.800;  158.000;   27.000
306.494;   63.650;  981.000;  761.000
306.631;  -36.525;  -11.000;  -55.000
306.769;  -47.325; -613.000; -485.000
306.906;  -68.600; -284.000; -258.000
307.044;  -87.075; -473.000; -488.000
307.181;  -70.875; -410.000; -332.000
307.319;    1.250;  112.000;   87.000
307.456; -174.600;-1191.000;-1153.000
307.594; -120.150; -980.000; -727.000
307.731;  -60.950; -371.000; -164.000
307.868;  -25.475;  -15.000;   20.000
308.006; -142.925; -961.000; -847.000
308.143;  -86.775; -618.000; -330.000
308.281;  -42.725;  -37.000; -254.000
308.418; -116.325; -748.000; -640.000
308.555; -107.125; -400.000; -250.000
308.693;  -99.850; -577.000; -573.000
308.830; -125.625; -712.000; -657.000
308.967;  -34.475; -215.000;  -95.000
309.105;  -84.125; -507.000; -396.000
309.242;  -67.325; -468.000; -367.000
309.379; -118.125; -577.000; -655.000
309.517; -139.775; -936.000; -948.000
309.654; -130.225; -910.000; -734.000
309.791; -105.425; -662.000; -580.000
309.928; -145.650; -977.000; -914.000
310.065;   73.650;  819.000;  697.000
310.203; -135.800; -825.000; -850.000
310.340;  -86.900; -465.000; -321.000
310.477; -102.075; -412.000; -516.000
310.614;  -75.125; -383.000; -473.000
310.751;  -85.200; -427.000; -518.000
310.889;  -43.175;    1.000;   11.000
311.026; -151.625;-1161.000; -939.000
311.163;  -78.225; -386.000; -380.000
311.300;  -90.550; -512.000; -479.000
311.437; -101.950; -658.000; -619.000
311.574; -171.250;-1226.000; -985.000
311.711;  -90.975; -595.000; -433.000
311.848;  -77.150; -380.000; -388.000
311.985;    0.100;  270.000;   93.000
312.122; -131.025; -932.000; -762.000
312.259; -137.050; -941.000; -994.000
312.396; -103.200; -508.000; -551.000
312.533; -112.450; -812.000; -790.000
312.670; -162.300;-1070.000; -898.000
312.807;  -44.750; -352.000; -367.000
312.944; -107.125; -513.000; -611.000
313.081;  -76.725; -150.000; -415.000
313.218; -146.675;-1111.000; -867.000
313.355;  -89.300; -531.000; -449.000
313.492;  -57.875; -455.000; -292.000
313.629;   55.075;  815.000;  735.000
313.766; -177.250;-1176.000;-1008.000
313.902;  -35.700; -186.000;   21.000
314.039;  -66.850; -372.000; -289.000
314.176;    4.225;  286.000;  192.000
314.313; -113.675; -569.000; -473.000
314.450; -112.825; -788.000; -684.000
314.587;  -90.275; -468.000; -480.000
314.723;  -25.625;  -78.000;  130.000
314.860;    5.800;  318.000;  332.000
314.997;  -12.950;  223.000;  142.000
315.134;  -80.800; -385.000; -368.000
315.270;  -84.250; -480.000; -496.000
315.407; -166.300;-1094.000; -967.000
315.544; -101.725; -657.000; -538.000
315.681; -106.050; -681.000; -565.000
315.817;  -41.650; -133.000; -176.000
315.954; -102.525; -613.000; -392.000
316.091; -156.675;-1045.000;-1023.000
316.227;  -55.925;  -71.000; -179.000
316.364;  -30.125;   23.000;    6.000
316.500;  -68.050; -113.000; -300.000
316.637;  -61.100; -181.000; -302.000
316.774;  -97.800; -625.000; -358.000
316.910; -102.225; -598.000; -629.000
317.047;  -93.675; -487.000; -351.000
317.183;  -79.975; -435.000; -566.000
317.320;  -98.475; -367.000; -321.000
317.456; -120.675; -733.000; -805.000
317.593; -112.950; -598.000; -641.000
317.729;  -20.700;  168.000;  -67.000
317.866; -203.625;-1434.000;-1285.000
318.002; -111.225; -708.000; -948.000
318.139; -138.475; -883.000; -867.000
318.275; -130.600;-1003.000; -738.000
318.412;  -89.450; -517.000; -336.000
318.548; -109.225; -751.000; -720.000
318.685; -148.700; -985.000; -888.000
318.821; -121.900; -762.000; -735.000
318.957;  -45.550;   34.000;  -23.000
319.094;   12.375;  297.000;  154.000
319.230; -128.325; -756.000; -742.000
319.367;  -81.800; -471.000; -520.000
319.503; -100.625; -538.000; -436.000
319.639; -124.125; -877.000; -793.000
319.775; -124.475; -750.000; -685.000
319.912;  -88.925; -424.000; -519.000
320.048; -184.275;-1184.000;-1184.000
320.184;   -9.025;   59.000;   70.000
320.321;  -82.900; -497.000; -467.000
320.457;   25.900;  475.000;  662.000
320.593;  -96.875; -375.000; -382.000
320.729; -119.225; -732.000; -734.000
320.866;  -99.350; -577.000; -635.000
321.002; -112.925; -759.000; -809.000
321.138;  -68.775; -135.000; -211.000
321.274;  -26.525; -148.000; -115.000
321.410; -104.125; -585.000; -353.000
321.546; -155.750;-1011.000; -911.000
321.683;   -1.750;  400.000;  185.000
321.819;  -37.650;  -48.000; -117.000
321.955; -129.775; -743.000; -722.000
322.091;  -95.625; -585.000; -540.000
322.227;  -74.075; -382.000; -202.000
322.363;  -62.300; -320.000; -215.000
322.499;  -77.700; -343.000; -331.000
322.635;   41.700;  636.000;  443.000
322.771;  -53.025; -139.000;   12.000
322.907;   17.200;  129.000;  327.000
323.043;  -74.500; -115.000; -206.000
323.179;  -74.600; -394.000; -363.000
323.315;  -96.375; -401.000; -371.000
323.451;  -71.425; -328.000; -236.000
323.587;  -65.200;  -60.000;  -77.000
323.723; -109.625; -682.000; -601.000
323.859;  -51.050; -258.000;  -76.000
323.995;  -80.200; -467.000; -409.000
324.131; -143.350; -967.000; -892.000
324.267;  -58.975; -254.000; -276.000
324.402; -162.400; -960.000; -983.000
324.538;  -65.075; -279.000; -104.000
324.674;  -33.225;  164.000;   77.000
324.810;  -22.825;  226.000;  308.000
324.946;  -74.725; -810.000; -658.000
325.082;  -96.325; -568.000; -475.000
325.217;  -42.425;  -62.000;   16.000
325.353; -129.325; -764.000; -659.000
325.489;  -92.475; -540.000; -506.000
325.625;  -91.775; -579.000; -525.000
325.760;   -1.425;  517.000;  376.000
325.896;  -89.600; -515.000; -702.000
326.032;  -80.400; -403.000; -352.000
326.168;  -92.875; -462.000; -369.000
326.303;  -93.525; -352.000; -461.000
326.439;  -52.275; -336.000; -276.000
326.575;  -49.550; -190.000;  -29.000
326.710;  -41.700; -156.000;  -30.000
326.846;  -44.025;  146.000;  103.000
326.982;  -97.100; -530.000; -548.000
327.117;  -90.375; -481.000; -442.000
327.253; -118.375; -745.000; -742.000
327.388; -158.850;-1137.000;-1153.000
327.524; -113.625; -811.000; -578.000
327.659;  -53.500;  -58.000;  -22.000
327.795;  -31.875;   69.000;   45.000
327.931; -101.950; -723.000; -499.000
328.066;  -66.400; -417.000; -276.000
328.202;  -68.850;   12.000; -129.000
328.337;   50.850;  957.000;  713.000
328.473;   -2.150;  -12.000;  -74.000
328.608;  -58.950; -256.000; -267.000
328.743; -132.500; -799.000; -664.000
328.879;  -14.575;  214.000;  114.000
329.014;  -61.325; -102.000; -122.000
329.150;  -94.950; -358.000; -483.000
329.285;  -93.775; -465.000; -466.000
329.421;  -78.325; -548.000; -246.000
329.556;  -46.125;  -36.000;   85.000
329.691; -105.875; -633.000; -615.000
329.827;  -95.800; -626.000; -480.000
329.962;  -60.050;  131.000; -301.000
330.097; -115.525; -673.000; -585.000
330.233;  -66.400; -410.000; -223.000
330.368; -139.550; -839.000; -628.000
330.503;  -35.950;    3.000;   98.000
330.638;  -36.875;  -93.000; -125.000
330.774;  -96.625; -609.000; -530.000
330.909;  -66.625; -434.000; -244.000
331.044; -108.300; -714.000; -708.000
331.179; -174.725;-1217.000;-1109.000
331.315;  -13.900;   77.000;   20.000
331.450;   -7.300;  157.000;  285.000
331.585; -107.000; -805.000; -706.000
331.720; -113.950; -510.000; -460.000
331.855;  -36.325;  -35.000; -102.000
331.990;  -31.225;   62.000;  138.000
332.126;  -42.400; -110.000;   71.000
332.261;  -79.900; -379.000; -265.000
332.396;  -73.250; -135.000; -242.000
332.531; -174.375;-1074.000;-1031.000
332.666;  -70.650; -519.000; -363.000
332.801; -125.775; -726.000; -807.000
332.936;  -43.825; -192.000; -122.000
333.071; -143.900; -870.000; -817.000
333.206;  -14.450;  307.000;  379.000
333.341;   -9.800;  344.000;  418.000
333.476; -104.575; -627.000; -623.000
333.611;  -64.275; -251.000; -173.000
333.746;  -71.325; -381.000; -464.000
333.881; -141.075; -973.000; -935.000
334.016; -147.725; -936.000; -917.000
334.151; -131.900; -746.000; -702.000
334.286;  -19.575;  152.000;  186.000
334.421;  -53.200; -125.000; -178.000
334.556; -104.775; -611.000; -567.000
334.690; -113.400; -631.000; -577.000
334.825;   13.575;  381.000;   83.000
334.960;  -97.075; -285.000; -413.000
335.095;  -28.000;  135.000;  -91.000
335.230; -128.575; -722.000; -738.000
335.365; -160.275;-1084.000; -990.000
335.499; -174.475;-1108.000;-1037.000
335.634;  -33.100;    9.000;  534.000
335.769; -125.925; -755.000; -720.000
335.904; -109.150; -603.000; -561.000
336.038; -126.100; -735.000; -657.000
336.173; -179.425;-1206.000;-1194.000
336.308;  -67.675; -116.000; -189.000
336.443;  -91.175; -544.000; -634.000
336.577; -148.375; -936.000; -787.000
336.712;  -43.525;   -4.000;  -12.000
336.847; -122.900; -724.000; -607.000
336.981;  -79.600; -272.000; -208.000
337.116;   26.725;  615.000;  501.000
337.250;  -90.850; -434.000; -421.000
337.385;  -82.375; -297.000; -208.000
337.520; -114.925; -632.000; -603.000
337.654;  -78.625; -215.000; -126.000
337.789; -156.275; -989.000; -933.000
337.923;  -60.200; -104.000; -205.000
338.058; -130.050; -673.000; -738.000
338.192; -109.050; -611.000; -488.000
338.327;  -33.500;  -18.000; -155.000
338.461; -105.825; -299.000; -469.000
338.596; -115.725; -780.000; -638.000
338.730; -130.950; -767.000; -803.000
338.865;  -33.225;  -46.000; -140.000
338.999; -147.100; -846.000; -702.000
339.134; -113.550; -634.000; -536.000
339.268; -123.475; -741.000; -603.000
339.403; -138.825; -740.000; -775.000
339.537; -140.350; -894.000; -820.000
339.671; -151.800; -829.000; -813.000
339.806; -116.525; -556.000; -512.000
339.940;  -37.725; -261.000; -235.000
340.074; -121.050; -685.000; -510.000
340.209;  -69.850; -351.000; -230.000
340.343;  -96.475; -517.000; -573.000
340.477;   94.450;  998.000; 1036.000
340.612; -148.875;-1033.000; -900.000
340.746;  -74.850; -199.000; -243.000
340.880; -154.225; -924.000; -785.000
341.014;  -51.825;  -45.000; -154.000
341.149; -137.475; -756.000; -718.000
341.283; -129.600; -839.000; -754.000
341.417; -164.675;-1124.000; -938.000
341.551; -116.475; -768.000; -708.000
341.685; -127.000; -633.000; -611.000
341.820; -108.000; -562.000; -493.000
341.954;  -90.475; -218.000; -349.000
342.088; -157.300;-1102.000;-1019.000
342.222;   30.300;  565.000;  618.000
342.356;  -90.425; -395.000; -335.000
342.490; -146.850; -880.000; -841.000
342.624;  -70.325; -339.000; -242.000
342.758;  -79.000; -364.000; -312.000
342.892; -117.725; -710.000; -585.000
343.026;  -60.450;  -58.000; -116.000
343.160;  -71.025; -426.000; -376.000
343.294;  -98.500; -474.000; -337.000
343.428; -105.600; -488.000; -448.000
343.562;  -60.875; -172.000;  -23.000
343.696;  -81.675; -385.000; -314.000
343.830;  -81.225; -362.000; -356.000
343.964;  -47.850; -231.000; -168.000
344.098;  -40.175;  199.000;   70.000
344.232;  -60.225; -266.000; -127.000
344.366; -118.400; -567.000; -453.000
344.500; -120.250; -665.000; -744.000
344.634;  -62.750; -324.000; -164.000
344.768;  -88.775; -531.000; -341.000
344.902;  -23.600;  278.000;  256.000
345.035;  -94.800; -556.000; -496.000
345.169; -147.350; -933.000; -656.000
345.303;  -76.100; -308.000; -482.000
345.437; -139.950; -826.000; -717.000
345.571; -114.925; -675.000; -594.000
345.704;  -94.825; -309.000; -532.000
345.838;  -67.175; -331.000; -284.000
345.972; -106.475; -543.000; -495.000
346.106;  -35.625; -179.000; -190.000
346.239;  -75.575; -312.000; -243.000
346.373;  -80.600; -343.000; -302.000
346.507; -157.850; -950.000; -962.000
346.640;  -45.475;  -30.000;   13.000
346.774; -128.325; -650.000; -797.000
346.908;  -54.225; -138.000;  -11.000
347.041; -118.700; -646.000; -593.000
347.175;  -26.750;  259.000;   27.000
347.309; -126.600; -698.000; -628.000
347.442; -139.775; -883.000; -732.000
347.576;   26.775;  670.000;  668.000
347.709;  -43.025; -123.000;  -52.000
347.843; -149.550; -933.000; -825.000
347.976;    3.800;  235.000;  294.000
348.110; -193.025;-1268.000;-1186.000
348.243; -110.500; -679.000; -772.000
348.377;  -36.650;  -26.000;   60.000
348.510;   15.875;  403.000;  540.000
348.644;  -71.275;  -37.000; -159.000
348.777;  -32.475;  180.000;  191.000
348.911;  -73.500; -142.000; -112.000
349.044;   24.100;  471.000;  448.000
349.178; -165.400;-1069.000;-1006.000
349.311;   -9.075;  141.000;  255.000
349.444; -152.225; -927.000; -813.000
349.578;  -71.050; -347.000; -200.000
349.711; -157.075; -959.000; -862.000
349.845; -110.125; -661.000; -591.000
349.978; -180.275;-1224.000;-1137.000
350.111; -106.425; -546.000; -612.000
350.244; -135.075; -596.000; -700.000
350.378;  -82.125; -392.000; -393.000
350.511;  -89.525; -393.000; -426.000
350.644; -139.075; -808.000; -806.000
350.778;  -40.925;  168.000;  104.000
350.911;  -22.325;  134.000;  140.000
351.044; -125.850; -685.000; -615.000
351.177;  -77.900; -321.000; -281.000
351.310;  -48.650;    3.000; -131.000
351.444; -138.900; -888.000; -788.000
351.577;  -28.675;  140.000;   90.000
351.710;   39.025;  593.000;  417.000
351.843;  -55.825; -165.000;  -77.000
351.976;  -30.475;  149.000;  -79.000
352.109; -121.125; -621.000; -612.000
352.242;  -93.975; -464.000; -419.000
352.376; -119.575; -580.000; -636.000
352.509;  -92.450; -437.000; -356.000
352.642; -161.000; -654.000; -604.000
352.775;  -58.650; -141.000;  -98.000
352.908; -153.175; -933.000; -904.000
353.041; -137.750; -814.000; -824.000
353.174;  -99.100; -551.000; -424.000
353.307; -141.250; -753.000; -764.000
353.440;   18.350;  541.000;  453.000
353.573; -142.850; -957.000;-1008.000
353.706; -144.300; -384.000; -558.000
353.839;  -70.150; -264.000; -220.000
353.971; -112.775; -657.000; -512.000
354.104; -146.925; -896.000; -835.000
354.237; -108.825; -627.000; -662.000
354.370; -125.200; -846.000; -879.000
354.503; -208.075;-1231.000;-1308.000
354.636;  -85.375; -529.000; -348.000
354.769; -157.275; -937.000; -860.000
354.902;  -76.750; -230.000; -139.000
355.034;  -80.700; -164.000; -220.000
355.167;  -55.800; -262.000; -162.000
355.300; -162.600;-1061.000; -880.000
355.433;  -44.525;  -71.000;  -14.000
355.565; -103.025; -402.000; -384.000
355.698;  -71.225; -356.000; -296.000
355.831; -150.175; -882.000; -801.000
355.964;  -65.900; -285.000; -170.000
356.096; -157.550; -856.000; -843.000
356.229; -101.975; -523.000; -530.000
356.362;  -89.550; -373.000; -266.000
356.494;  -58.800; -229.000; -162.000
356.627;   -7.850;  269.000;  377.000
356.760;  -29.950;  120.000;   53.000
356.892; -104.275; -286.000; -601.000
357.025;   14.775;  403.000;  389.000
357.157;  -66.825; -167.000; -179.000
357.290; -150.675; -856.000; -713.000
357.423; -127.450; -667.000; -556.000
357.555;  -60.200; -217.000; -228.000
357.688; -107.925; -483.000; -364.000
357.820; -141.425; -870.000; -877.000
357.953; -116.075; -563.000; -589.000
358.085; -126.975; -632.000; -612.000
358.218; -154.450;-1131.000; -932.000
358.350;  -35.875;  -58.000;  312.000
358.483; -196.475;-1300.000;-1187.000
358.615; -163.925;-1182.000;-1078.000
358.747; -193.200;-1187.000;-1058.000
358.880; -143.575; -810.000; -744.000
359.012;  -93.375; -376.000; -202.000
359.145; -105.550; -480.000; -511.000
359.277; -157.500; -962.000; -913.000
359.409;    8.350;  536.000;  231.000
359.542; -143.975; -738.000; -688.000
359.674;  -36.650;   46.000;   13.000
359.806; -113.525; -565.000; -438.000
359.939; -104.875; -617.000; -516.000
360.071; -120.175; -583.000; -579.000
360.203;  -74.050; -411.000; -364.000
360.335;  -45.275;  164.000;  -16.000
360.468;  -59.025; -249.000; -307.000
360.600; -124.800; -547.000; -454.000
360.732; -115.375; -546.000; -423.000
360.864; -191.225;-1216.000;-1044.000
360.996;  -93.100; -516.000; -554.000
361.129; -112.525; -389.000; -598.000
361.261;  -59.800;  110.000; -113.000
361.393;  -77.750; -252.000; -214.000
361.525;  -28.875;   94.000;  244.000
361.657; -138.375; -821.000; -703.000
361.789;  -56.200; -139.000; -155.000
361.921; -122.950; -642.000; -593.000
362.053;   15.250;  524.000;  541.000
362.185;  -32.375;  288.000;   72.000
362.318; -131.625; -709.000; -705.000
362.450;  -16.625;  294.000;  444.000
362.582; -157.800; -913.000; -870.000
362.714;  -86.725; -353.000; -332.000
362.846; -116.750; -606.000; -490.000
362.978; -164.675; -941.000; -811.000
363.109;  -86.575; -161.000; -260.000
363.241; -134.550; -739.000; -749.000
363.373; -104.800; -649.000; -564.000
363.505;  -61.600; -186.000;  -91.000
363.637; -124.400; -787.000; -601.000
363.769; -187.000;-1067.000;-1080.000
363.901; -121.250; -596.000; -654.000
364.033; -182.200;-1103.000;-1062.000
364.165;  -52.225; -283.000; -283.000
364.296;  -93.200; -316.000; -177.000
364.428; -203.400;-1344.000;-1220.000
364.560; -130.225; -679.000; -661.000
364.692; -110.300; -738.000; -835.000
364.824; -115.925; -588.000; -456.000
364.955;  -82.325; -402.000; -564.000
365.087; -173.875;-1097.000; -852.000
365.219; -116.725; -686.000; -816.000
365.351; -119.325; -526.000; -572.000
365.482;  -11.275;  300.000;  240.000
365.614;  -97.750; -402.000; -314.000
365.746; -121.725; -729.000; -752.000
365.877; -134.275; -706.000; -672.000
366.009;  -49.750;  -35.000;  -62.000
366.141; -189.550;-1249.000;-1134.000
366.272; -141.925; -803.000; -719.000
366.404; -150.275;-1005.000; -874.000
366.535;  -51.100; -139.000;  -12.000
366.667; -130.350; -644.000; -649.000
366.799;   -5.800;  353.000;  203.000
366.930; -171.350; -862.000; -996.000
367.062; -103.275; -639.000; -613.000
367.193; -155.000; -872.000; -842.000
367.325; -101.100; -580.000; -684.000
367.456;  -69.900; -246.000;   31.000
367.588;  -77.950; -371.000; -318.000
367.719;  -63.375;  -44.000;  -45.000
367.851;  -67.550; -222.000; -241.000
367.982; -161.875; -875.000; -732.000
368.113;  -87.100; -475.000; -358.000
368.245; -172.800; -960.000; -841.000
368.376;  -62.350; -254.000; -302.000
368.508;  -83.025; -188.000; -263.000
368.639; -166.650;-1166.000;-1034.000
368.770; -129.100; -670.000; -589.000
368.902; -144.000; -836.000; -926.000
369.033; -154.625; -906.000; -855.000
369.164; -119.650; -720.000; -653.000
369.296; -143.825; -452.000; -601.000
369.427;  -64.750; -209.000; -144.000
369.558; -100.325; -593.000; -377.000
369.689; -124.275; -721.000; -569.000
369.821; -159.300; -951.000; -845.000
369.952;  -49.225;   42.000; -108.000
370.083;  -79.350; -229.000; -108.000
370.214; -133.050; -735.000; -650.000
370.345;  -52.275;   65.000;   81.000
370.477; -155.850; -810.000; -790.000
370.608;  -86.475; -328.000; -264.000
370.739; -181.250;-1233.000;-1292.000
370.870; -168.125;-1102.000; -923.000
371.001;  -93.775; -378.000; -467.000
371.132; -134.700; -754.000; -735.000
371.263;  -58.275;  -42.000; -148.000
371.394; -152.725; -841.000; -748.000
371.525;   -4.000;  345.000;  225.000
371.657; -136.650; -808.000; -670.000
371.788;   -9.025;  103.000;  199.000
371.919;  -89.225; -384.000; -304.000
372.050;  -46.900;  -91.000; -156.000
372.181;  -51.125; -188.000; -294.000
372.311;  -49.725;   42.000; -127.000
372.442;  -94.375; -457.000; -451.000
372.573;  -63.100; -444.000; -340.000
372.704; -175.050;-1008.000; -980.000
372.835;  -75.000; -228.000; -289.000
372.966; -135.025; -646.000; -554.000
373.097; -131.200; -575.000; -711.000
373.228; -121.250; -717.000; -542.000
373.359; -128.900; -824.000; -536.000
373.490; -160.325; -881.000; -727.000
373.620; -168.725;-1001.000; -803.000
373.751; -103.725; -332.000; -396.000
373.882; -125.450; -663.000; -733.000
374.013;  -85.050; -449.000; -262.000
374.143; -124.000; -581.000; -659.000
374.274; -177.350; -987.000; -908.000
374.405;  -89.800; -388.000; -276.000
374.536; -112.125; -526.000; -387.000
374.666; -128.150; -759.000; -807.000
374.797; -155.075; -817.000; -868.000
374.928; -125.550; -710.000; -560.000
375.058; -121.950; -535.000; -500.000
375.189;  -59.250;  -59.000;  -93.000
375.320; -180.875; -928.000;-1034.000
375.450; -114.825; -625.000; -616.000
375.581; -106.875; -526.000; -436.000
375.712;  -85.675; -574.000; -250.000
375.842;  -97.175; -438.000; -415.000
375.973; -114.650; -554.000; -513.000
376.103; -134.550; -665.000; -648.000
376.234; -114.975; -531.000; -552.000
376.364; -170.675; -944.000; -867.000
376.495;   57.175;  925.000;  529.000
376.625; -112.225; -472.000; -485.000
376.756; -124.675; -709.000; -678.000
376.886; -195.825;-1178.000;-1026.000
377.017; -168.975;-1048.000;-1061.000
377.147; -162.850; -786.000; -782.000
377.278;  -24.150;  174.000;  228.000
377.408; -147.075; -801.000; -815.000
377.538; -120.850; -707.000; -693.000
377.669; -120.625; -537.000; -613.000
377.799; -137.775; -645.000; -635.000
377.929; -114.050; -610.000; -428.000
378.060; -167.825; -781.000; -847.000
378.190; -138.075; -726.000; -531.000
378.320;  -93.725; -401.000; -406.000
378.451;  -48.725; -131.000;  -22.000
378.581;  -49.600;  -67.000; -110.000
378.711;   49.000; 1035.000;  866.000
378.841; -117.725; -533.000; -675.000
378.972; -143.175; -871.000; -751.000
379.102; -115.800; -652.000; -579.000
379.232;  -82.175; -126.000;  -73.000
379.362; -167.175;-1001.000; -885.000
379.492; -112.000; -373.000; -424.000
379.623;  -40.350;    0.000;  111.000
379.753; -172.800;-1107.000; -974.000
379.883;  -33.750;   59.000;  156.000
380.013; -189.025;-1081.000;-1017.000
380.143; -186.525;-1097.000;-1056.000
380.273; -155.450; -985.000; -861.000
380.403;  -82.850; -344.000; -257.000
380.533; -146.225; -651.000; -664.000
380.663;  -25.850;  173.000;  128.000
380.793; -186.650;-1027.000;-1074.000
380.923;  -73.750; -103.000;  -34.000
381.053; -133.400; -613.000; -623.000
381.183;  -64.625; -106.000; -248.000
381.313; -126.400; -656.000; -470.000
381.443; -112.875; -692.000; -473.000
381.573; -102.325; -402.000; -409.000
381.703; -194.150;-1249.000;-1095.000
381.833; -218.475;-1454.000;-1336.000
381.963;  -39.250; -134.000;  -87.000
382.093; -164.750; -925.000; -909.000
382.223; -128.850; -713.000; -602.000
382.353; -134.750; -801.000; -608.000
382.482; -169.775;-1091.000; -964.000
382.612; -137.925; -872.000; -644.000
382.742; -129.000; -695.000; -622.000
382.872; -104.475; -565.000; -551.000
383.002;  -46.175;  347.000; -132.000
383.131;  -89.150; -226.000; -160.000
383.261; -135.025; -706.000; -768.000
383.391; -109.800; -552.000; -377.000
383.521;   -0.250;  451.000;  263.000
383.650; -167.300; -947.000; -904.000
383.780; -122.125; -783.000; -656.000
383.910;   34.800;  880.000;  802.000
384.039; -152.175; -794.000; -656.000
384.169; -195.300;-1205.000;-1017.000
384.299; -108.725; -650.000; -662.000
384.428; -135.550; -764.000; -680.000
384.558;  -86.100; -308.000; -275.000
384.687;  -89.600; -414.000; -334.000
384.817;  -40.075;   75.000;   -2.000
384.947;  -77.000; -234.000; -141.000
385.076;   66.675;  982.000;  912.000
385.206;  -14.850;  369.000;  480.000
385.335;  -97.025; -549.000; -417.000
385.465; -129.175; -655.000; -663.000
385.594;  -61.300;  -53.000;  -44.000
385.724; -155.750; -868.000; -838.000
385.853;  -78.550; -296.000; -270.000
385.982; -151.500; -743.000; -787.000
386.112; -161.000;-1052.000; -871.000
386.241;  -99.425; -307.000; -312.000
386.371;  -73.900; -174.000;  -87.000
386.500; -157.725; -825.000; -789.000
386.629; -137.675; -874.000; -817.000
386.759;  -59.500;  -43.000;   68.000
386.888;  -78.975; -170.000; -250.000
387.017; -119.975; -648.000; -620.000
387.147; -144.425; -771.000; -798.000
387.276; -127.175; -410.000; -397.000
387.405;  -90.450; -398.000; -342.000
387.535; -106.625; -452.000; -361.000
387.664; -127.375; -692.000; -620.000
387.793;  -74.900; -198.000; -113.000
387.922;  -22.475;  255.000;  200.000
388.052; -110.575; -576.000; -423.000
388.181;  -91.275; -342.000; -472.000
388.310; -150.450; -889.000; -710.000
388.439; -155.150; -749.000; -742.000
388.568;  -25.175;  365.000;  244.000
388.697; -131.375; -756.000; -653.000
388.826; -123.400; -768.000; -666.000
388.956;  -73.500; -285.000; -307.000
389.085;  -87.475; -347.000; -287.000
389.214; -146.900; -842.000; -872.000
389.343; -120.725; -645.000; -413.000
389.472;  -17.950;  126.000;  149.000
389.601;  -42.850;   91.000;    0.000
389.730; -112.800; -568.000; -687.000
389.859;  -39.400;  226.000;   46.000
389.988;  -96.275; -423.000; -408.000
390.117;  -86.250; -168.000; -146.000
390.246;  -90.125; -331.000; -320.000
390.375; -134.200; -673.000; -626.000
390.504; -130.700; -703.000; -621.000
390.633; -151.450; -672.000; -726.000
390.761; -130.600; -732.000; -645.000
390.890;  -62.900;   -4.000; -130.000
391.019;  -99.625; -421.000; -441.000
391.148; -159.325; -826.000; -855.000
391.277; -114.425; -576.000; -493.000
391.406; -157.100; -821.000; -805.000
391.534;  -41.025;  574.000; -301.000
391.663; -119.500; -583.000; -645.000
391.792; -133.625; -673.000; -701.000
391.921;  -56.650;   -3.000;   15.000
392.050;  -90.750; -287.000; -228.000
392.178; -191.075;-1206.000;-1061.000
392.307; -142.925; -758.000; -712.000
392.436; -125.850; -427.000; -641.000
392.564;  -43.425;  166.000;   -6.000
392.693; -150.500; -860.000; -682.000
392.822; -121.125; -529.000; -534.000
392.950; -161.050; -880.000; -714.000
393.079; -102.875; -188.000; -328.000
393.208; -122.775; -488.000; -511.000
393.336;  -74.200; -170.000; -145.000
393.465;  -69.525; -317.000; -199.000
393.593;  -42.650;   62.000;   79.000
393.722; -182.500;-1121.000; -916.000
393.850;  -71.075; -188.000;  -61.000
393.979; -172.875; -926.000; -805.000
394.107; -106.625; -517.000; -537.000
394.236; -123.775; -570.000; -507.000
394.364;  -16.900;  383.000;  206.000
394.493; -172.475; -911.000; -767.000
394.621; -159.525; -955.000; -916.000
394.750; -165.825; -873.000; -923.000
394.878;  -82.500; -247.000; -149.000
395.007; -148.750; -721.000; -807.000
395.135; -143.425; -790.000; -721.000
395.263; -183.700;-1038.000;-1040.000
395.392;  -54.400;  -25.000; -107.000
395.520; -162.925; -818.000; -679.000
395.648; -149.875; -865.000; -915.000
395.777; -121.625; -366.000; -405.000
395.905; -113.375; -449.000; -564.000
396.033;  -46.150;  217.000;  172.000
396.162;  -89.350; -399.000; -453.000
396.290;  -85.500;  -17.000;   -2.000
396.418; -123.925; -555.000; -514.000
396.546; -124.950; -571.000; -466.000
396.674; -155.650; -850.000; -878.000
396.803;  -51.325;  -72.000;  -23.000
396.931;  -67.975; -179.000; -199.000
397.059; -188.400;-1026.000; -989.000
397.187; -165.675;-1026.000; -975.000
397.315; -150.750; -884.000; -649.000
397.443; -128.850; -592.000; -443.000
397.572; -118.175; -578.000; -424.000
397.700; -132.425; -607.000; -614.000
397.828;  -72.475;  120.000;  -90.000
397.956; -103.550; -508.000; -478.000
398.084; -137.600; -767.000; -626.000
398.212;  -33.300;  137.000;  124.000
398.340;  -50.300;  -56.000;  159.000
398.468;  -98.675; -390.000; -169.000
398.596; -169.775; -993.000; -953.000
398.724; -139.900; -762.000; -767.000
398.852; -179.175;-1024.000; -976.000
398.980; -110.225; -560.000; -560.000
399.108; -143.075; -982.000; -735.000
399.236;  -48.925;   13.000;    8.000
399.363;  -35.050;  222.000;  196.000
399.491; -101.850; -404.000; -398.000
399.619; -167.050; -829.000; -800.000
399.747; -153.325; -859.000; -771.000
399.875;   -4.850;  220.000;  234.000
400.003; -102.900; -359.000; -284.000
400.130; -114.725; -421.000; -341.000
400.258;  -46.250;  -83.000;   38.000
400.386;  -87.750; -352.000; -168.000
400.514; -109.775; -526.000; -587.000
400.641; -170.825; -928.000; -802.000
400.769; -160.125; -979.000; -888.000
400.897; -142.325; -838.000; -793.000
401.025;  -73.325; -166.000; -152.000
401.152;  -38.150;  220.000;   38.000
401.280; -105.575; -430.000; -429.000
401.408; -139.225; -712.000; -576.000
401.535; -133.800; -735.000; -758.000
401.663; -198.900;-1134.000;-1054.000
401.790; -119.350; -514.000; -525.000
401.918;  -15.875;  436.000;  405.000
402.046;  -54.000;  134.000;  122.000
402.173;  -63.225;  -18.000;    7.000
402.301; -110.625; -519.000; -397.000
402.428;   -8.925;  528.000;  383.000
402.556; -176.475;-1188.000; -913.000
402.683;  -69.050;  -20.000;   -1.000
402.811;  -72.100;  -37.000; -206.000
402.938;  -52.450;   20.000;   27.000
403.066; -120.650; -574.000; -558.000
403.193;  -46.600;  299.000;  239.000
403.321; -107.550; -396.000; -574.000
403.448;  -51.575;   83.000;   27.000
403.575;  -59.275;  -90.000;  -46.000
403.703; -131.800; -732.000; -557.000
403.830; -111.800; -531.000; -496.000
403.957; -191.625;-1117.000;-1023.000
404.085;  -82.100;  -61.000; -172.000
404.212;  -43.750;  -50.000;   63.000
404.339;  -94.650; -566.000; -306.000
404.467; -113.675; -612.000; -524.000
404.594;  -80.125; -287.000; -227.000
404.721; -144.075; -869.000; -764.000
404.848;  -81.300; -113.000; -202.000
404.976; -164.875; -856.000; -783.000
405.103;  -60.950;  -14.000;  -82.000
405.230;  -43.175;  190.000;  226.000
405.357;  -51.900;  117.000;   44.000
405.484;  -67.475;  -49.000;    5.000
405.612; -116.725; -548.000; -563.000
405.739;  -98.275; -488.000; -243.000
405.866;    7.000;  669.000;  385.000
405.993;  -87.700; -398.000; -102.000
406.120; -150.250; -801.000; -887.000
406.247;  -99.175; -323.000; -342.000
406.374;   16.625;  540.000;  629.000
406.501; -135.000; -632.000; -702.000
406.628; -123.425; -621.000; -589.000
406.755; -132.050; -803.000; -620.000
406.882;  -82.700; -228.000; -277.000
407.009; -137.800; -719.000; -628.000
407.136;  -95.325; -480.000; -401.000
407.263; -165.525; -939.000; -829.000
407.390; -125.775; -692.000; -614.000
407.517; -206.925;-1139.000;-1187.000
407.644; -108.775; -332.000; -256.000
407.771; -174.400; -249.000; -287.000
407.898;  -24.025;  168.000;  328.000
408.025; -111.525; -421.000; -313.000
408.151;  -39.575;   82.000;  153.000
408.278;  -90.575; -267.000; -216.000
408.405; -161.300; -931.000; -899.000
408.532; -126.625; -549.000; -542.000
408.659; -144.225; -677.000; -648.000
408.785; -203.875;-1298.000;-1170.000
408.912;  -89.075; -412.000; -296.000
409.039; -124.825; -610.000; -686.000
409.166; -117.725; -591.000; -555.000
409.292; -129.800; -571.000; -534.000
409.419; -115.700; -665.000; -649.000
409.546;  -98.025; -431.000; -192.000
409.672; -136.050; -713.000; -545.000
409.799;  -68.875;  -36.000;   34.000
409.926;  -82.925; -180.000; -179.000
410.052; -198.975;-1127.000;-1091.000
410.179;  -97.775; -368.000; -392.000
410.305;  -87.000; -375.000; -493.000
410.432;  -81.100; -220.000; -333.000
410.558; -114.225; -305.000; -380.000
410.685; -136.950; -688.000; -431.000
410.812; -127.250; -409.000; -588.000
410.938; -154.725; -964.000; -808.000
411.065; -145.000; -671.000; -645.000
411.191;  -85.325; -189.000; -174.000
411.317; -162.500; -823.000; -742.000
411.444;  -82.000; -317.000; -246.000
411.570;  -98.475; -339.000; -294.000
411.697; -137.700; -758.000; -752.000
411.823; -183.300; -989.000; -999.000
411.949;  -67.150;  -56.000;   17.000
412.076; -139.725; -539.000; -519.000
412.202; -146.775; -758.000; -757.000
412.329; -153.500; -798.000; -752.000
412.455; -152.800; -821.000; -657.000
412.581;  -52.175;  -15.000;  172.000
412.707; -121.600; -540.000; -457.000
412.834;  -44.025;  156.000;  219.000
412.960; -142.950; -785.000; -784.000
413.086; -147.775; -743.000; -701.000
413.212;    5.225;  604.000;  578.000
413.339; -138.450; -685.000; -701.000
413.465; -108.100; -364.000; -310.000
413.591; -162.650; -757.000; -474.000
413.717;  -98.100; -358.000; -366.000
413.843; -169.450; -839.000; -861.000
413.969; -103.725;  -47.000; -292.000
414.096; -137.725; -679.000; -679.000
414.222;  -46.550;  -33.000;   85.000
414.348; -135.350; -652.000; -385.000
414.474;  -60.250;   38.000;  -52.000
414.600;  -82.950; -126.000; -144.000
414.726;  -71.725;  -96.000;  -55.000
414.852; -113.625; -365.000; -342.000
414.978;  -39.925;  104.000;  -18.000
415.104;  -64.450;   38.000;   80.000
415.230;  -91.375; -329.000; -330.000
415.356; -126.350; -409.000; -514.000
415.482;  -60.500;   13.000;  -35.000
415.608;  -85.925; -247.000; -323.000
415.734;  -54.375;   67.000;   38.000
415.860; -165.925; -875.000; -767.000
415.986; -135.000; -685.000; -607.000
416.111; -148.000; -798.000; -652.000
416.237; -121.325; -424.000; -571.000
416.363; -152.925; -765.000; -733.000
416.489; -105.900; -324.000; -251.000
416.615; -158.500; -707.000; -742.000
416.741; -139.075; -677.000; -784.000
416.866; -153.425; -673.000; -736.000
416.992; -149.800; -801.000; -818.000
417.118;  -92.975;  -41.000;  -80.000
417.244; -144.025; -798.000; -531.000
417.369; -149.850; -801.000; -612.000
417.495; -107.175; -325.000; -254.000
417.621; -186.475;-1015.000; -803.000
417.746; -105.275; -579.000; -572.000
417.872;  -86.425; -254.000; -144.000
417.998; -119.300; -515.000; -530.000
418.123; -183.125;-1073.000; -845.000
418.249; -107.700; -512.000; -601.000
418.374; -170.750; -916.000; -824.000
418.500; -104.775; -383.000; -482.000
418.626;  -50.475;   70.000;  -59.000
418.751; -114.025; -549.000; -448.000
418.877; -145.875; -637.000; -643.000
419.002; -139.200; -688.000; -560.000
419.128; -166.425; -930.000; -721.000
419.253; -165.400; -967.000; -837.000
419.379; -135.975; -391.000; -338.000
419.504;  -21.300;  325.000;  415.000
419.629;  -93.225; -393.000; -212.000
419.755;  -82.150; -317.000; -254.000
419.880; -101.150;  -98.000;   67.000
420.006;  -98.350; -280.000; -221.000
420.131; -143.200; -662.000; -775.000
420.256;  -95.050; -315.000; -316.000
420.382; -149.900; -665.000; -687.000
420.507; -144.825; -649.000; -778.000
420.632; -111.700; -337.000; -339.000
420.758;  -76.025; -251.000; -425.000
420.883; -155.050; -876.000; -672.000
421.008; -135.325; -775.000; -619.000
421.133; -122.100; -509.000; -467.000
421.259;  -83.850; -325.000; -259.000
421.384; -165.525; -834.000; -693.000
421.509; -157.275;-1052.000; -862.000
421.634; -179.150; -936.000; -820.000
421.759; -104.925; -359.000; -327.000
421.885; -144.700; -717.000; -656.000
422.010; -123.025; -673.000; -542.000
422.135; -175.825; -695.000; -727.000
422.260;   -5.775;  340.000;  280.000
422.385;  -80.925;   12.000;  -98.000
422.510;  -48.225;  151.000;  -26.000
422.635;  -57.800;  -87.000;  -43.000
422.760; -131.575; -766.000; -791.000
422.885;  -59.150;  -57.000;  -80.000
423.010;  -76.750; -112.000; -169.000
423.135; -124.350; -481.000; -561.000
423.260;  -78.325; -150.000; -245.000
423.385;  -35.550;  476.000;  222.000
423.510;  -39.875;   71.000;  -22.000
423.635;  -61.275;  133.000;   45.000
423.760;  -20.875;  383.000;  328.000
423.885;  -25.275;  336.000;  391.000
424.010;  -58.900;  -68.000;  -13.000
424.135;  -67.250;    5.000;  -33.000
424.259; -119.075; -654.000; -457.000
424.384; -103.050; -279.000; -272.000
424.509;  -81.150; -260.000; -186.000
424.634; -145.125; -761.000; -623.000
424.759; -121.675; -688.000; -544.000
424.883; -135.800; -506.000; -527.000
425.008; -129.425; -502.000; -410.000
425.133; -150.250; -679.000; -653.000
425.258; -125.950; -517.000; -381.000
425.382; -157.025; -867.000; -774.000
425.507; -118.950; -487.000; -543.000
425.632; -159.475; -802.000; -663.000
425.756;  -95.400; -256.000; -146.000
425.881; -156.925; -831.000; -857.000
426.006; -116.225; -604.000; -355.000
426.130; -161.550; -696.000; -508.000
426.255; -131.175; -611.000; -491.000
426.379;  -98.450; -189.000; -577.000
426.504;   26.425;  660.000;  544.000
426.629; -141.900; -519.000; -466.000
426.753;  -64.625;   64.000;  -46.000
426.878;  -95.275; -252.000; -288.000
427.002; -121.450; -651.000; -668.000
427.127;  -80.200;  -35.000; -158.000
427.251;  -14.650;  372.000;  401.000
427.375;  -95.150; -191.000; -173.000
427.500; -114.575; -616.000; -610.000
427.624;  -96.300; -234.000; -400.000
427.749;  -94.200; -216.000; -225.000
427.873; -118.775; -499.000; -412.000
427.997;  -87.900; -222.000; -230.000
428.122;   17.100;  795.000;  703.000
428.246;   -3.150;  433.000;  434.000
428.371; -162.225; -869.000; -773.000
428.495; -140.175; -624.000; -646.000
428.619;  -94.275; -186.000; -117.000
428.743;  -40.550;   65.000;  132.000
428.868; -156.750; -732.000; -643.000
428.992;  -98.250; -219.000; -326.000
429.116; -117.425; -329.000; -357.000
429.240;  -20.475;  419.000;  426.000
429.365; -118.475; -454.000; -574.000
429.489; -136.975; -638.000; -647.000
429.613;  -80.700; -236.000; -177.000
429.737; -129.800; -563.000; -432.000
429.861; -104.525; -247.000; -133.000
429.985; -105.825; -425.000; -305.000
430.109; -178.750; -770.000; -908.000
430.234;  -42.475;   76.000;  -50.000
430.358; -106.350; -250.000; -160.000
430.482; -143.700; -672.000; -564.000
430.606; -147.800; -655.000; -375.000
430.730; -118.750; -437.000; -388.000
430.854; -164.300; -909.000; -835.000
430.978; -143.175; -795.000; -764.000
431.102; -137.675; -499.000; -422.000
431.226; -172.775; -874.000; -815.000
431.350;  -33.775;  345.000;  422.000
431.474; -124.625; -661.000; -373.000
431.597; -183.025;-1060.000; -848.000
431.721;  -97.275; -276.000; -267.000
431.845; -155.975; -704.000; -472.000
431.969; -102.175; -304.000; -349.000
432.093; -105.575; -395.000; -317.000
432.217;  -40.350;   32.000;   82.000
432.341; -138.025; -523.000; -518.000
432.464;  -76.675;   96.000;   40.000
432.588; -131.050; -401.000; -329.000
432.712;  -75.475;  -52.000;  -52.000
432.836;  -37.650;  213.000;  263.000
432.959; -114.750; -372.000; -311.000
433.083;  -85.075;   11.000;    2.000
433.207;   -2.250;  285.000;  930.000
433.330; -100.025; -391.000; -200.000
433.454; -139.300; -654.000; -638.000
433.578;   -0.850;  583.000;  278.000
433.701; -145.775; -623.000; -675.000
433.825; -119.975; -292.000; -299.000
433.949;  -69.525;   28.000;  -72.000
434.072; -120.250; -410.000; -323.000
434.196;  -74.600; -309.000; -117.000
434.319; 3331.000;25482.000;25124.000
434.443; -145.100; -656.000; -603.000
434.566;  -59.400;  281.000;   62.000
434.690; -134.600; -637.000; -383.000
434.813; -105.050; -251.000; -173.000
434.937; -132.775; -569.000; -696.000
435.060; -108.350; -423.000; -332.000
435.184; -112.500; -492.000; -217.000
435.307;  -68.500;  159.000;  102.000
435.431;  -64.400;  -40.000;   24.000
435.554; -102.475; -399.000; -240.000
435.677; -124.100; -350.000; -258.000
435.801;  -78.350;  -25.000;   49.000
435.924;  -63.600;    1.000;  -67.000
436.048; -193.375;-1019.000; -732.000
436.171; -101.825; -240.000;  -66.000
436.294; -106.100; -248.000; -229.000
436.417; -184.250; -963.000; -849.000
436.541; -162.025; -814.000; -840.000
436.664;  -82.575; -242.000; -316.000
436.787;  -72.925;   13.000;  113.000
436.910; -142.575; -792.000; -422.000
437.034;  -53.025;  142.000;  143.000
437.157;  -62.900;  -11.000;    0.000
437.280; -116.700; -392.000; -292.000
437.403; -165.350; -982.000; -869.000
437.526; -184.700; -903.000; -865.000
437.649; -118.925; -505.000; -332.000
437.772; -161.800; -692.000; -540.000
437.896;   -8.400;  700.000;  544.000
438.019; -160.125; -758.000; -503.000
438.142; -130.000; -596.000; -506.000
438.265; -154.675; -639.000; -670.000
438.388; -117.950; -520.000; -410.000
438.511; -130.700; -597.000; -394.000
438.634;  -97.325; -247.000; -125.000
438.757; -152.775; -693.000; -619.000
438.880;  -70.875;  -34.000;  -57.000
439.003; -124.050; -417.000; -437.000
439.126;  -84.225; -287.000; -167.000
439.248;  -81.450;  -98.000; -139.000
439.371;  -65.175;    9.000;  -53.000
439.494;   14.075;  510.000;  439.000
439.617;  -65.700;   65.000;  -88.000
439.740; -185.400; -968.000; -816.000
439.863; -152.575; -755.000; -595.000
439.986; -136.925; -476.000; -431.000
440.108;  -88.025; -161.000; -112.000
440.231; -190.900; -950.000; -836.000
440.354;  -80.625;  -64.000; -150.000
440.477; -134.350; -566.000; -542.000
440.599; -123.300; -200.000; -225.000
440.722; -144.150; -709.000; -586.000
440.845;   36.800;  751.000;  928.000
440.968; -123.375; -415.000; -311.000
441.090;  -94.825; -199.000;  -33.000
441.213; -180.750;-1021.000; -825.000
441.336;  -77.050; -159.000;   -5.000
441.458; -118.475; -549.000; -396.000
441.581; -148.875; -628.000; -629.000
441.703;  -90.325; -152.000;   13.000
441.826; -127.600; -557.000; -400.000
441.948;  -70.475;   56.000;   51.000
442.071;   -6.625;  555.000;  424.000
442.193; -147.000; -531.000; -485.000
442.316;  -46.650;  152.000;   97.000
442.438;  -98.725; -233.000;  -10.000
442.561;  -37.900;  272.000;  262.000
442.683; -169.025; -809.000; -522.000
442.806;  -55.825;   -8.000;   74.000
442.928; -167.825; -859.000; -604.000
443.051; -134.000; -577.000; -373.000
443.173; -121.775; -341.000; -339.000
443.295; -124.700; -263.000; -371.000
443.418; -108.225; -321.000;  -29.000
443.540;  -83.100; -106.000;   -4.000
443.662; -142.025; -563.000; -465.000
443.785;  -35.975;  335.000;  199.000
443.907; -116.450; -362.000; -208.000
444.029; -137.475; -767.000; -494.000
444.152; -150.400; -644.000; -554.000
444.274;  -62.975;  -18.000;  -24.000
444.396; -129.625; -461.000; -221.000
444.518; -140.575; -691.000; -454.000
444.640; -123.600; -268.000; -111.000
444.763;  -45.250;  388.000;  249.000
444.885; -127.750; -432.000; -392.000
445.007;  -54.125;   35.000;   86.000
445.129; -144.800; -610.000; -515.000
445.251; -119.750; -372.000; -439.000
445.373; -145.425; -537.000; -386.000
445.495;  -27.100;  242.000;  350.000
445.617;    8.475;  853.000;  753.000
445.739; -105.225; -215.000;  -97.000
445.861;  -90.250; -245.000; -112.000
445.984;  -99.625; -267.000; -101.000
446.105; -110.275; -418.000; -251.000
446.227;  -88.525; -176.000;  -19.000
446.349; -138.825; -358.000; -249.000
446.471; -130.100; -615.000; -448.000
446.593; -111.150; -316.000;   19.000
446.715;  -78.350;  -67.000;   41.000
446.837;   28.575;  697.000;  832.000
446.959; -135.325; -457.000; -478.000
447.081; -151.700; -628.000; -518.000
447.203;   36.975;  862.000;  834.000
447.325; -114.475; -270.000;   42.000
447.446;  -38.275;  286.000;  530.000
447.568; -179.925; -921.000; -803.000
447.690; -118.025; -236.000; -245.000
447.812; -166.900; -798.000; -519.000
447.933;  -59.200;  155.000;  127.000
448.055;  -90.850; -306.000; -261.000
448.177;  -48.950;   31.000;   79.000
448.299; -192.775; -935.000; -727.000
448.420;  -55.350;  -25.000;  159.000
448.542;  -74.200;   -3.000;   33.000
448.664;  -37.250;  109.000;  322.000
448.785;  -44.850;  265.000;   83.000
448.907; -128.125; -614.000; -353.000
449.028; -158.900; -771.000; -471.000
449.150;    0.725;  492.000;  589.000
449.272; -191.475;-1044.000; -913.000
449.393;   -1.375;  612.000;  694.000
449.515; -164.875; -634.000; -581.000
449.636; -104.825; -264.000; -155.000
449.758;   19.150;  763.000;  622.000
449.879; -122.200; -498.000; -396.000
450.001; -101.150; -149.000;  -49.000
450.122;  -71.775;  -95.000;  162.000
450.244;  -56.600;   37.000;  364.000
450.365; -127.450; -495.000; -301.000
450.486;  -80.425;   80.000;  268.000
450.608;  -32.975;  393.000;  326.000
450.729;  -21.375;  578.000;  645.000
450.850; -134.050; -574.000; -466.000
450.972; -149.275; -552.000; -389.000
451.093;  -27.150;  190.000;  588.000
451.214; -121.750; -516.000; -337.000
451.336;   19.975;  773.000;  579.000
451.457;  -43.050;  264.000;  393.000
451.578;  -78.625; -118.000;  -74.000
451.699; -144.950; -546.000; -540.000
451.821;  -89.075; -284.000;  -50.000
451.942;  -42.450;  278.000;  285.000
452.063;  -30.175;  228.000;  419.000
452.184; -102.000;  -54.000;  -49.000
452.305;  -36.850;  103.000;  170.000
452.427; -133.175; -549.000; -301.000
452.548;  -77.925;   23.000;   79.000
452.669; -108.625; -257.000;  -89.000
452.790;  -96.925;    3.000;  -18.000
452.911;  -47.650;  195.000;  259.000
453.032;  -97.900; -289.000;  -60.000
453.153;  -75.950;  -29.000;   81.000
453.274;   26.175;  737.000;  868.000
453.395;  -73.225;  -51.000;  175.000
453.516;   67.025; 1317.000; 1388.000
453.637; -110.950; -205.000; -150.000
453.758;  -71.375;   15.000;   69.000
453.879; -115.300; -462.000; -250.000
454.000;   38.750; 1086.000;  948.000
454.121; -146.750; -554.000; -326.000
454.242; -143.775; -599.000; -383.000
454.362;  -79.725;  -99.000;  114.000
454.483; -103.025; -309.000; -229.000
454.604;  -33.825;  512.000;  580.000
454.725; -153.175; -627.000; -555.000
454.846; -133.025; -474.000; -406.000
454.967;  -32.350;  230.000;  539.000
455.087;  -49.800;  179.000;  153.000
455.208;  -17.225;  554.000;  856.000
455.329;  -84.275;  -22.000;   82.000
455.450;  -19.600;  473.000;  633.000
455.570; -110.875; -234.000; -211.000
455.691;  -65.725;  201.000;  407.000
455.812; -119.525; -270.000;  -92.000
455.932;  -76.825;  107.000;  -97.000
456.053;  -99.875;   36.000;   24.000
456.173; -124.975; -433.000; -355.000
456.294; -147.775; -476.000; -303.000
456.415;  -83.550;  -73.000;   70.000
456.535;  -45.025;  297.000;  273.000
456.656;  -57.250;  132.000;  240.000
456.776;  -86.525;    3.000;  298.000
456.897;  -36.225;  308.000;  513.000
457.017;  -94.525; -153.000;   -3.000
457.138; -123.625; -402.000; -249.000
457.258;  -57.100;  263.000;  224.000
457.379;  -38.100;  509.000;  521.000
457.499;  -28.350;  443.000;  432.000
457.620; -133.775; -407.000; -231.000
457.740; -111.925; -132.000;  -11.000
457.860;  -72.650;   87.000;   44.000
457.981;  -74.925;  132.000;  124.000
458.101; -112.250;  -89.000;   40.000
458.221;  -43.250;  336.000;  402.000
458.342;  -83.700;   -4.000;  -37.000
458.462;  -19.025;  617.000;  352.000
458.582; -104.550; -302.000; -294.000
458.703;  -64.700;  303.000;  154.000
458.823;  -77.850;   22.000;  163.000
458.943;  -37.750;  341.000;  467.000
459.063;  -73.775; 1124.000;  192.000
459.183;  -53.550;  328.000;  313.000
459.304;  -23.425;  315.000;  517.000
459.424;  -97.225; -246.000;  -89.000
459.544;  -11.850;  388.000;  764.000
459.664;  -24.175;  499.000;  506.000
459.784;   19.000; 1004.000; 1175.000
459.904;   13.325;  867.000;  744.000
460.024;   15.925;  867.000;  684.000
460.144;  -24.225;  449.000;  554.000
460.264;  -26.775;  515.000;  327.000
460.385;  -95.575; -145.000; -119.000
460.505;   35.950;  905.000;  858.000
460.625;  -97.100;  -17.000;  -68.000
460.745;  -30.075;  396.000;  541.000
460.864;  -59.000;  153.000;  469.000
460.984;  -33.875;  499.000;  573.000
461.104;   94.925; 1656.000; 1775.000
461.224;  -13.400;  657.000;  650.000
461.344;  -50.500;  431.000;  360.000
461.464;  -47.625;  258.000;  513.000
461.584;  -57.000;  283.000;  466.000
461.704;  -83.075;   58.000;  108.000
461.824;  -78.850;  238.000;  259.000
461.943;  -52.575;  191.000;  130.000
462.063;  -87.350;    2.000;  324.000
462.183;    1.050;  639.000;  717.000
462.303;   56.850; 1678.000; 1230.000
462.422;    5.775;  781.000;  840.000
462.542;  -78.975;  271.000;  391.000
462.662;  -30.600;  353.000;  380.000
462.782;   -7.425;  833.000;  572.000
462.901;  -30.400;  545.000;  717.000
463.021;  110.650; 1702.000; 1638.000
463.141;  -33.225;  337.000;  770.000
463.260;  -35.125;  614.000;  474.000
463.380;    0.500;  902.000;  884.000
463.499;  -46.500;  342.000;  332.000
463.619;  -37.575;  581.000;  559.000
463.738;   91.950; 1644.000;  903.000
463.858;   -7.800;  657.000;  811.000
463.978;  -51.025;  542.000;  396.000
464.097;   23.900;  921.000; 1114.000
464.217;   38.650; 1196.000; 1143.000
464.336;   46.675; 1068.000; 1130.000
464.455;  -48.775;  328.000;  659.000
464.575;   -9.675;  597.000;  602.000
464.694;   48.375; 1204.000; 1179.000
464.814;   36.800; 1190.000; 1138.000
464.933;   33.775; 1095.000; 1027.000
465.052;   63.075; 1412.000; 1054.000
465.172;  -10.025;  922.000;  799.000
465.291;   59.600; 1376.000; 1320.000
465.410;   -7.150;  462.000;  735.000
465.530;   68.775; 1355.000; 1310.000
465.649;   35.750; 1209.000; 1273.000
465.768;   96.350; 1673.000; 1508.000
465.888;   18.125;  941.000; 1174.000
466.007;   66.700; 1335.000; 1440.000
466.126;   -8.875;  721.000;  641.000
466.245;   48.800; 1176.000; 1187.000
466.364;    4.950;  950.000; 1060.000
466.484;   30.200; 1024.000; 1213.000
466.603;   28.850; 1101.000; 1222.000
466.722;   98.850; 1490.000; 1769.000
466.841;   42.700; 1151.000; 1401.000
466.960;   19.200; 1069.000;  972.000
467.079;  118.875; 1971.000; 1786.000
467.198;   23.375; 1238.000; 1181.000
467.317;   68.500; 1768.000; 1162.000
467.436;   56.425; 1709.000; 1261.000
467.555;  124.700; 1796.000; 1746.000
467.674;   55.700; 1227.000; 1329.000
467.793;   44.175; 1376.000; 1374.000
467.912;   73.025; 1658.000; 1539.000
468.031;  118.475; 2038.000; 1930.000
468.150;  102.300; 1842.000; 1837.000
468.269;  165.400; 2313.000; 2090.000
468.388;  168.900; 2168.000; 2339.000
468.507;  239.400; 2884.000; 2903.000
468.626;  224.950; 2555.000; 2541.000
468.744;  123.825; 2018.000; 2174.000
468.863;  191.075; 2312.000; 2523.000
468.982;   81.100; 1503.000; 1555.000
469.101;  216.375; 2788.000; 2692.000
469.220;  140.750; 2333.000; 2176.000
469.338;  246.700; 2935.000; 3051.000
469.457;  167.900; 2719.000; 2545.000
469.576;  317.550; 3953.000; 3784.000
469.695;  215.975; 2877.000; 3066.000
469.813;  387.575; 4148.000; 4192.000
469.932;  369.350; 4255.000; 4485.000
470.051;  316.550; 4075.000; 4161.000
470.169;  390.275; 4470.000; 4338.000
470.288;  419.050; 4700.000; 4809.000
470.406;  451.900; 5059.000; 5194.000
470.525;  573.075; 6101.000; 5787.000
470.644;  599.625; 6847.000; 6794.000
470.762;  786.175; 8397.000; 7873.000
470.881;  816.025; 8651.000; 8464.000
470.999;  918.175; 9685.000; 9151.000
471.118; 1055.300;11174.000;10711.000

