
Integration time [ms]: 100.000
Averaging Nr. [scans]: 40
Smoothing Nr. [pixels]: 0
Data measured with spectrometer [name]: 2101012U2
Wave   ;Sample   ;Dark     ;Reference
[nm]   ;[counts] ;[counts] ;[counts] 

197.733;   63.625;  516.000;  404.000
197.879;  -75.050; -610.000; -634.000
198.025;  -42.525; -475.000; -420.000
198.171;  -65.550; -602.000; -612.000
198.317;  -28.775; -401.000; -316.000
198.463;  -49.100; -655.000; -404.000
198.609;   11.625;  181.000; -137.000
198.755;  -69.950; -644.000; -410.000
198.901;  -64.475; -505.000; -424.000
199.047;  -60.275; -615.000; -488.000
199.193;  -37.625; -230.000; -468.000
199.339;  -52.300; -222.000; -369.000
199.485;   37.825;  330.000;  271.000
199.631;   18.525;  227.000;  310.000
199.777;  -54.475; -466.000; -398.000
199.923;  -62.200; -610.000; -424.000
200.069;    1.200; -141.000;  -58.000
200.215;   47.825;  128.000;  453.000
200.361;   25.975;  243.000;  477.000
200.507;  -60.300; -600.000; -373.000
200.653;  -26.175; -371.000; -194.000
200.798;  -39.675; -215.000; -125.000
200.944;    2.175; -146.000;  -41.000
201.090;   38.225;   61.000;  222.000
201.236;    2.450; -116.000; -158.000
201.382;  113.475;  874.000;  903.000
201.528;   -2.825;  -58.000;  -48.000
201.674;  -68.175; -386.000; -293.000
201.819;  -45.025; -540.000; -439.000
201.965;  -85.825; -699.000; -447.000
202.111;  -22.775; -273.000; -226.000
202.257;  -31.750; -250.000; -238.000
202.402;   13.675;   13.000;  -36.000
202.548;  -16.075; -169.000; -116.000
202.694;   74.550;  410.000; -183.000
202.840;  -66.800; -603.000; -531.000
202.985;  -66.975; -681.000; -639.000
203.131; -103.225; -832.000; -666.000
203.277;  -21.775; -199.000; -262.000
203.423;  -48.700; -434.000; -520.000
203.568;  -38.925; -462.000; -237.000
203.714;  -60.250; -535.000; -542.000
203.860;  -59.200; -682.000; -641.000
204.005;    5.350;  112.000;  167.000
204.151;   71.675;  561.000;  556.000
204.296;  -64.000; -354.000; -221.000
204.442;  -69.775; -600.000; -547.000
204.588;  -66.700; -592.000; -579.000
204.733;   10.350;  178.000;  168.000
204.879; -118.325;-1018.000; -822.000
205.025;   14.850;  -99.000;  126.000
205.170;   -0.600;  -17.000;   94.000
205.316;   79.000;  438.000;  661.000
205.461;  -86.325; -698.000; -554.000
205.607;   86.000;  609.000;  665.000
205.752;  -89.800; -626.000; -551.000
205.898;  -49.400; -501.000; -391.000
206.043;  -50.725; -578.000; -506.000
206.189;  -40.700; -243.000; -285.000
206.334;   77.225;  554.000;  606.000
206.480;   77.475;  409.000;  239.000
206.625;  -86.025; -529.000; -552.000
206.771;  -45.450; -451.000; -373.000
206.916;  -16.525; -210.000; -537.000
207.062;  -71.350; -545.000; -591.000
207.207;  -63.925; -546.000; -443.000
207.353;   51.675;  185.000;  460.000
207.498;    9.350;  196.000;   85.000
207.643;  -42.425; -501.000; -370.000
207.789; -115.075;-1069.000; -910.000
207.934;  -87.050; -665.000; -713.000
208.080;  -27.450; -154.000;   66.000
208.225;  -15.050;  -22.000;  -57.000
208.370;  -82.400; -727.000; -619.000
208.516;  -68.325; -741.000; -487.000
208.661;  -34.025; -127.000;  -69.000
208.806;  -21.700; -165.000; -171.000
208.952; -105.300;-1044.000; -731.000
209.097;   63.225;  378.000;  349.000
209.242;  -47.325; -307.000; -382.000
209.387;   70.400;  392.000;  350.000
209.533;  -50.025; -321.000; -350.000
209.678;   78.250;  472.000;  543.000
209.823;  -58.625; -408.000; -310.000
209.969;  -98.775; -860.000; -757.000
210.114; -101.550; -907.000; -719.000
210.259;  -98.125; -939.000; -889.000
210.404;  -20.825; -171.000;  103.000
210.549;   14.850;  108.000;    3.000
210.695;  -14.150;   -3.000;  -95.000
210.840;   24.650;   94.000;   67.000
210.985;  -54.050; -484.000; -303.000
211.130;   66.700;  268.000;  406.000
211.275;   16.075;  207.000;  199.000
211.420;  -45.175; -300.000; -289.000
211.566;  -66.750; -536.000; -489.000
211.711;   22.225;  218.000;  157.000
211.856;  -73.675; -545.000; -519.000
212.001;   13.950;  151.000;   44.000
212.146;   30.675;  153.000;   49.000
212.291;  -31.600; -210.000; -186.000
212.436;  -25.775; -280.000;   -6.000
212.581;  -88.650; -685.000; -653.000
212.726;  -80.550; -487.000; -538.000
212.871;  -42.875; -552.000; -217.000
213.016; -147.375;-1172.000;-1029.000
213.161;   58.250;  406.000;  291.000
213.306;  -73.450; -435.000; -577.000
213.451;  -91.300; -778.000; -689.000
213.596;  -40.350; -455.000; -347.000
213.741;  -56.500; -448.000; -538.000
213.886;  -87.375; -498.000; -517.000
214.031;  -18.925; -294.000; -124.000
214.176;  -50.600; -408.000; -341.000
214.321;  -17.900; -296.000; -157.000
214.466;  -27.075; -163.000;  -43.000
214.611;    6.325;  -61.000;  -10.000
214.756; -122.450; -948.000; -858.000
214.901;  -22.650; -388.000; -226.000
215.046; -126.600; -797.000; -825.000
215.191;   19.200;  128.000;   35.000
215.336;   -2.800; -157.000;  -19.000
215.480;  -58.425; -684.000; -505.000
215.625;  -16.325; -175.000;  -19.000
215.770;  -74.325; -757.000; -662.000
215.915;   -1.150;   -5.000;  -97.000
216.060;   -4.200; -113.000;  -21.000
216.205; -103.725; -731.000; -779.000
216.349;  -65.450; -470.000; -533.000
216.494; -135.675; -939.000; -867.000
216.639; -106.725; -823.000; -888.000
216.784;  -82.600; -577.000; -525.000
216.929;   40.400;  392.000;  281.000
217.073;  -18.425; -244.000;  -31.000
217.218;    0.425;   78.000;  -47.000
217.363;  -86.850; -656.000; -618.000
217.507;  -83.875; -623.000; -588.000
217.652; -129.350; -845.000; -874.000
217.797;  -76.175; -708.000; -659.000
217.942; -116.350; -856.000; -720.000
218.086;   74.625;  608.000;  539.000
218.231;  -21.375; -174.000;  -26.000
218.376;  -24.850; -337.000; -229.000
218.520;   -3.300;  -41.000;   96.000
218.665;  -31.825; -338.000; -204.000
218.810;  -40.325; -275.000; -233.000
218.954;   11.825;  201.000;   35.000
219.099; -111.775; -713.000; -963.000
219.243;  -56.525; -589.000; -554.000
219.388;  -48.850; -264.000; -136.000
219.532;   -6.500; -116.000; -116.000
219.677;  -78.675; -564.000; -521.000
219.822;    9.200;   33.000;   89.000
219.966;    6.400;   17.000;  -99.000
220.111;  -29.625; -328.000;  -40.000
220.255;  -85.650; -797.000; -750.000
220.400;  -24.125; -180.000; -146.000
220.544;  -72.650; -516.000; -450.000
220.689;  -43.600; -422.000; -451.000
220.833;  -35.625; -123.000;  -58.000
220.978;  -44.975; -393.000; -563.000
221.122;   12.975;  319.000;  307.000
221.267;  -92.075; -906.000; -837.000
221.411;  -61.350; -478.000; -394.000
221.555;   -8.550; -104.000;  -23.000
221.700;  -49.825; -329.000; -222.000
221.844;   30.600;  255.000;  272.000
221.989;  -54.875; -328.000; -311.000
222.133;  -41.875; -289.000; -307.000
222.277;  -14.150;    5.000;   78.000
222.422;   13.900;  227.000;  113.000
222.566;  -43.275; -381.000; -214.000
222.711;  -41.925; -414.000; -479.000
222.855;  -80.550; -643.000; -586.000
222.999;  -81.200; -642.000; -717.000
223.144;  -27.900; -195.000; -194.000
223.288;   47.150;  423.000;  251.000
223.432;   18.200;  184.000;  230.000
223.576;   17.275;  152.000;  -21.000
223.721;   42.625;  364.000;  273.000
223.865;  -60.300; -472.000; -475.000
224.009;  215.450; 1673.000; 1631.000
224.153;  -72.625; -660.000; -671.000
224.298;  -71.475; -531.000; -489.000
224.442;  -11.150;  -74.000;  -33.000
224.586;    3.025; -169.000; -106.000
224.730;  -91.425; -858.000; -670.000
224.875; -103.600; -739.000; -688.000
225.019;    7.850;  102.000;  188.000
225.163;   54.375;  208.000;  341.000
225.307;   28.150;   97.000;  -91.000
225.451;   43.400;  360.000;  481.000
225.595;   30.225;  264.000;  176.000
225.739;  -28.200; -170.000;  -94.000
225.884;   -5.775;   86.000;    5.000
226.028;  -96.000; -760.000; -626.000
226.172;  -37.975; -260.000; -273.000
226.316; -112.475; -941.000; -902.000
226.460;  -70.900; -645.000; -493.000
226.604;  -64.450; -406.000; -400.000
226.748;  -97.325; -836.000; -733.000
226.892;  -27.025; -227.000; -181.000
227.036;  -55.750; -537.000; -447.000
227.180;  -53.375; -551.000; -375.000
227.324;  -46.200; -561.000; -580.000
227.468; -113.975; -819.000; -717.000
227.612;    8.550;  242.000;  -28.000
227.756;  -95.450; -845.000; -698.000
227.900;   49.900;  342.000;  441.000
228.044;  -65.200; -509.000; -290.000
228.188;   61.575;  448.000;  568.000
228.332;  -85.200; -546.000; -472.000
228.476;  -32.700; -223.000; -149.000
228.620;  -36.050; -210.000; -150.000
228.764;   74.800;  431.000;  349.000
228.908;  -18.150; -155.000;   30.000
229.052;  -52.125; -615.000; -528.000
229.195;  -12.625; -172.000;   13.000
229.339;  -40.575; -235.000; -305.000
229.483;  -20.700;    5.000; -162.000
229.627;    7.100; -156.000;  139.000
229.771;  -46.875; -218.000; -294.000
229.915;    0.000;  230.000;   79.000
230.059;  -85.225; -648.000; -663.000
230.202;  -38.950; -370.000; -317.000
230.346;  -16.100; -107.000;  107.000
230.490;  -53.975; -489.000; -521.000
230.634;  -96.225; -736.000; -553.000
230.777;   65.575;  478.000;  509.000
230.921;  -54.700; -450.000; -359.000
231.065;  -44.175; -246.000; -286.000
231.209;    3.900;  261.000;  265.000
231.352;   23.025;   54.000;   40.000
231.496;   21.100;  568.000;  188.000
231.640;  -80.350; -693.000; -621.000
231.783;   65.325;  546.000;  525.000
231.927;  -33.600; -294.000; -365.000
232.071; -114.300; -962.000; -736.000
232.214;  -89.825; -980.000; -764.000
232.358;  -99.925; -683.000; -599.000
232.502;   -1.625;  -19.000;    7.000
232.645; -135.525;-1090.000; -927.000
232.789;  -20.325; -257.000; -218.000
232.933;  -44.900; -407.000; -224.000
233.076; -117.350;-1038.000; -897.000
233.220; -108.375; -752.000; -777.000
233.363;  -78.675; -669.000; -477.000
233.507;   39.400;  371.000;  129.000
233.650;  -83.200; -764.000; -834.000
233.794;   52.775;  438.000;  461.000
233.938;  -80.375; -530.000; -362.000
234.081;  -18.975;  -93.000;   31.000
234.225;  -62.750; -631.000; -539.000
234.368; -105.475; -773.000; -723.000
234.512;  -49.725; -385.000; -299.000
234.655;  -98.475; -582.000; -555.000
234.798;  -62.550; -493.000; -466.000
234.942; -125.150; -884.000;-1002.000
235.085;  -64.300; -651.000; -443.000
235.229;  -67.950; -405.000; -410.000
235.372;  -54.900; -247.000; -191.000
235.516;  -71.075; -397.000; -321.000
235.659;   24.925;   92.000;  121.000
235.802;  -19.250;  -38.000;  -22.000
235.946;   29.950;  335.000;  215.000
236.089;   23.325;  126.000;  250.000
236.233;   57.675;  275.000;  298.000
236.376;  -51.950; -235.000; -378.000
236.519;  -41.825; -297.000; -319.000
236.663;  -25.650; -215.000; -117.000
236.806; -132.125;-1029.000; -999.000
236.949;   42.750;  543.000;  431.000
237.092;   61.075;  412.000;  391.000
237.236;  -87.175; -589.000; -502.000
237.379;   56.325;  352.000;  428.000
237.522; -113.800; -879.000; -768.000
237.666;   -1.200; -271.000;   18.000
237.809; -131.775; -851.000; -823.000
237.952;   26.375;  469.000;  271.000
238.095;  -70.675; -447.000; -442.000
238.238;   83.575;  688.000;  700.000
238.382;  -10.950;  166.000;  103.000
238.525;  -66.100; -598.000; -511.000
238.668; -139.475;-1060.000; -985.000
238.811;  -76.575; -638.000; -643.000
238.954;  -50.450; -483.000; -334.000
239.097;   85.825;  617.000;  664.000
239.241;   15.400;  394.000;  326.000
239.384;  -35.225; -254.000; -214.000
239.527;  -67.550; -424.000; -224.000
239.670; -136.800; -994.000;-1091.000
239.813; -104.875; -696.000; -658.000
239.956;   75.675;  579.000;  473.000
240.099; -114.175; -778.000; -725.000
240.242;   69.125;  428.000;  432.000
240.385;   50.900;  466.000;  450.000
240.528;  -66.575; -706.000; -473.000
240.671;   17.775;  189.000;  134.000
240.814;  -42.525; -441.000; -158.000
240.957;  -99.100; -767.000; -578.000
241.100;  -87.275; -779.000; -755.000
241.243; -144.225;-1234.000; -893.000
241.386;  -60.150; -508.000; -379.000
241.529;  -86.825; -735.000; -547.000
241.672;  -71.075; -566.000; -495.000
241.815; -119.300; -832.000; -808.000
241.958;  -26.575; -125.000; -182.000
242.101;  -84.250; -545.000; -390.000
242.244;  -48.950; -270.000; -325.000
242.387;  -44.025; -304.000; -246.000
242.530;   59.625;  470.000;  134.000
242.673;  -32.775; -381.000; -309.000
242.815; -118.550; -925.000; -899.000
242.958;  -76.500; -482.000; -381.000
243.101;   13.425;  132.000;  187.000
243.244;  -75.725; -564.000; -521.000
243.387;  -47.400; -313.000; -316.000
243.530; -105.625; -657.000; -674.000
243.672;    0.400;   43.000;  -92.000
243.815;  -65.650; -355.000; -283.000
243.958;   -3.775;   98.000;  -26.000
244.101;    3.175;   59.000;  -16.000
244.243;  -19.450;  -47.000;  101.000
244.386; -108.750; -761.000; -630.000
244.529;  -35.750; -132.000; -139.000
244.672; -149.200;-1154.000; -951.000
244.814;  -92.400; -621.000; -794.000
244.957;  -53.500; -380.000; -304.000
245.100;  -65.300; -489.000; -489.000
245.242;  -72.025; -387.000; -374.000
245.385;   -7.800;  -59.000;  -39.000
245.528; -122.500; -871.000; -705.000
245.670;  103.325;  612.000;  634.000
245.813;  -95.725; -599.000; -547.000
245.956;  -33.575; -324.000; -275.000
246.098;  -72.925; -508.000; -650.000
246.241;   -6.450;  194.000;   48.000
246.383;  -29.025; -119.000;  -73.000
246.526;  -81.550; -454.000; -525.000
246.669; -111.600; -889.000; -780.000
246.811;   15.125;  172.000;   -1.000
246.954;  -62.800; -512.000; -426.000
247.096;  -25.600;  -84.000;   -6.000
247.239;  -57.325; -482.000; -445.000
247.381;  -73.550; -647.000; -488.000
247.524;   78.225;  645.000;  679.000
247.666;  -14.325;   58.000;   11.000
247.809; -115.200; -887.000; -691.000
247.951;  -11.850;  -75.000;  138.000
248.094;   32.950;  432.000;  308.000
248.236; -150.150;-1262.000;-1238.000
248.378;  -13.925; -356.000;  -81.000
248.521;  -32.100; -334.000; -337.000
248.663;  -31.600; -236.000; -267.000
248.806;  -36.750; -300.000; -266.000
248.948; -116.625; -886.000; -763.000
249.090;  -51.225; -428.000; -398.000
249.233;  -61.150; -344.000; -381.000
249.375;  -53.225; -474.000; -451.000
249.518;  -14.450;  -83.000; -133.000
249.660;  -16.175; -103.000;    3.000
249.802; -160.500;-1303.000;-1189.000
249.945;  -89.900; -612.000; -540.000
250.087; -106.100; -834.000; -768.000
250.229;  -40.300; -362.000; -480.000
250.371;  -74.250; -494.000; -439.000
250.514;  -58.250; -310.000; -244.000
250.656;   -5.425;   69.000;  102.000
250.798; -120.900; -849.000; -800.000
250.940;  -66.650; -322.000; -322.000
251.083;  -37.025; -335.000; -111.000
251.225;   41.125;  338.000;  310.000
251.367;  -45.950; -274.000; -373.000
251.509;  -36.125; -265.000; -210.000
251.651;  -98.700; -731.000; -671.000
251.794;   48.750;  538.000;  632.000
251.936; -113.825; -821.000; -747.000
252.078;  -74.175; -540.000; -461.000
252.220;  -70.075; -645.000; -477.000
252.362;   46.500;  344.000;  462.000
252.504;  -89.650; -677.000; -584.000
252.646; -121.725; -875.000; -722.000
252.788;   -4.275;   14.000; -128.000
252.931;  -41.875; -257.000; -253.000
253.073;  -37.800; -376.000; -317.000
253.215;  -15.125;  141.000;  122.000
253.357;   -7.050;   82.000; -153.000
253.499;  -39.200; -374.000; -234.000
253.641;  -87.400; -749.000; -594.000
253.783;  -90.825; -609.000; -527.000
253.925;  -89.600; -586.000; -591.000
254.067; -122.800; -744.000; -667.000
254.209;  -30.150; -391.000; -259.000
254.351; -136.275; -865.000; -883.000
254.493;  -69.600; -441.000; -417.000
254.635; -132.350; -936.000; -818.000
254.777;  -90.025; -752.000; -687.000
254.918;  -66.600; -512.000; -430.000
255.060;  -65.500; -551.000; -395.000
255.202;  -58.525; -473.000; -261.000
255.344;  -74.225; -658.000; -455.000
255.486;  -83.425; -471.000; -406.000
255.628;  -97.575; -780.000; -781.000
255.770;  -93.900; -676.000; -536.000
255.912;  -67.275; -559.000; -468.000
256.053;  -95.675; -730.000; -508.000
256.195;  153.325; 1008.000;  903.000
256.337; -101.850; -861.000; -595.000
256.479;   64.525;  532.000;  416.000
256.621;  -48.550; -394.000; -212.000
256.762;  -89.275; -789.000; -742.000
256.904;   48.875;  485.000;  487.000
257.046;  -37.850; -381.000; -271.000
257.188;  -36.300; -351.000; -264.000
257.329;  -69.975; -525.000; -464.000
257.471; -123.075; -939.000; -807.000
257.613;  -57.600; -584.000; -498.000
257.755; -142.100;-1073.000; -982.000
257.896;   15.550;  286.000;  392.000
258.038;  -72.700; -403.000; -352.000
258.180;  -38.700; -354.000; -279.000
258.321;  -86.550; -581.000; -457.000
258.463;   -9.925;  -71.000;  133.000
258.605;  -89.675; -562.000; -570.000
258.746;  -92.300; -886.000; -772.000
258.888; -143.375;-1026.000;-1020.000
259.029;   19.200;  121.000;   -8.000
259.171;  -92.200; -614.000; -550.000
259.313;   -1.925;  -49.000;  -47.000
259.454;  -84.675; -536.000; -414.000
259.596;  -70.000; -483.000; -390.000
259.737;  -77.325; -590.000; -474.000
259.879;   29.075;  217.000;  311.000
260.020;   71.200;  901.000;  636.000
260.162;  -34.700; -146.000; -253.000
260.303; -121.025; -768.000; -687.000
260.445;  -78.850; -609.000; -613.000
260.586;   23.825;  392.000;  157.000
260.728;  -39.950; -360.000; -248.000
260.869;  -66.275; -350.000; -343.000
261.011;   79.825;  706.000;  537.000
261.152;  -60.100; -479.000; -319.000
261.293;  -77.400; -576.000; -595.000
261.435;  -33.700; -219.000; -184.000
261.576;  -52.725; -455.000; -325.000
261.718;   54.825;  420.000;  470.000
261.859; -117.800; -940.000; -949.000
262.000; -130.550; -951.000;-1016.000
262.142;  -13.525;  -52.000;  -60.000
262.283; -127.100; -808.000; -691.000
262.424;  -87.500; -666.000; -625.000
262.566; -151.425;-1161.000; -983.000
262.707; -117.250; -840.000; -830.000
262.848; -125.650; -769.000; -726.000
262.990;  -40.750; -362.000; -345.000
263.131;   64.050;  650.000;  681.000
263.272;   -5.575;  -61.000;  -41.000
263.413;  -94.650; -589.000; -561.000
263.555;  -67.300; -669.000; -143.000
263.696;  -89.825; -550.000; -641.000
263.837;  -54.525; -449.000; -551.000
263.978;  -17.175;   -5.000;  -77.000
264.119;  -39.400; -283.000; -264.000
264.261; -123.300; -847.000; -630.000
264.402;   -0.425;   33.000;   40.000
264.543;  -88.575; -509.000; -524.000
264.684;    0.125;   61.000;  -50.000
264.825;  -68.925; -816.000; -538.000
264.966;  -12.150;  -84.000;  -67.000
265.107; -105.575; -646.000; -670.000
265.248; -118.700; -825.000; -812.000
265.390;  -11.900;  152.000;   -9.000
265.531;  -19.350; -238.000; -107.000
265.672;  -85.700; -557.000; -630.000
265.813;   51.350;  563.000;  439.000
265.954; -133.350; -959.000; -940.000
266.095;  -12.975; -372.000; -322.000
266.236;  -97.450; -686.000; -548.000
266.377;  -40.475; -243.000; -297.000
266.518;  -71.150; -619.000; -547.000
266.659;   27.450;  170.000;  268.000
266.800;    3.150;   83.000;   85.000
266.941;  -89.325; -487.000; -478.000
267.082;    5.825;  354.000;   99.000
267.223;  -64.975; -344.000; -273.000
267.364; -119.375; -892.000; -686.000
267.504;    1.650;    3.000;  135.000
267.645;    8.325;  160.000;   67.000
267.786;  -19.025; -147.000;  -86.000
267.927;  -73.650; -473.000; -379.000
268.068;  -30.675; -186.000;  -61.000
268.209;  -50.850; -175.000; -413.000
268.350;  -69.525; -388.000; -532.000
268.490;  -82.500; -648.000; -521.000
268.631;   34.875;  127.000;  225.000
268.772; -105.200; -874.000; -647.000
268.913;  -67.900; -328.000; -476.000
269.054;  -17.450; -117.000;   12.000
269.194;  -55.925; -418.000; -402.000
269.335; -159.450;-1137.000;-1074.000
269.476;   -4.775;   33.000;  -35.000
269.617;  -47.125; -347.000; -392.000
269.757;  -80.500; -713.000; -646.000
269.898; -103.675; -856.000; -613.000
270.039;  -64.375; -415.000; -405.000
270.180; -129.875; -952.000; -816.000
270.320;  -18.725; -190.000; -250.000
270.461;  -38.350; -277.000; -249.000
270.602;   -6.675; -186.000; -156.000
270.742; -118.250; -868.000; -943.000
270.883;  -51.750; -442.000; -390.000
271.023;  -53.750; -358.000; -357.000
271.164;  -75.100; -607.000; -528.000
271.305; -103.125; -666.000; -654.000
271.445;  -79.375; -722.000; -683.000
271.586;  -80.725; -462.000; -283.000
271.726;  -51.225; -397.000; -322.000
271.867;  -69.825; -594.000; -534.000
272.008;   58.500; -473.000; -285.000
272.148;   73.275;  462.000;  468.000
272.289;   -4.575; -113.000; -181.000
272.429;    6.100;   19.000;  185.000
272.570; -104.025; -633.000; -737.000
272.710; -113.550; -825.000; -775.000
272.851;  -18.700;  113.000; -130.000
272.991; -156.150;-1173.000;-1077.000
273.131;  -84.500; -419.000; -459.000
273.272; -112.075; -683.000; -723.000
273.412;   -3.050; -143.000;  -31.000
273.553;  -65.475; -488.000; -507.000
273.693;  119.500;  913.000;  858.000
273.834; -121.075; -894.000; -692.000
273.974;  -81.850; -664.000; -615.000
274.114;  -98.975; -772.000; -560.000
274.255;   63.900;  414.000;  373.000
274.395;  -32.875; -180.000; -125.000
274.535;   35.325;  199.000;  350.000
274.676;   12.625;  225.000;   94.000
274.816;   -1.450;  110.000;   34.000
274.956; -105.100; -624.000; -690.000
275.097;  -93.725;-1014.000; -922.000
275.237; -118.900; -913.000; -803.000
275.377;  -93.350; -778.000; -689.000
275.517; -146.000; -878.000; -937.000
275.658;  -66.200; -590.000; -555.000
275.798;  -81.875; -606.000; -413.000
275.938;   19.300;  215.000;  323.000
276.078;  -86.875; -626.000; -395.000
276.218;    8.950;   99.000;  104.000
276.359; -131.475;-1026.000;-1024.000
276.499;  -77.650; -605.000; -446.000
276.639;  -32.175; -305.000; -151.000
276.779;  -53.525; -475.000; -357.000
276.919; -104.125; -783.000; -624.000
277.059;  -23.325; -261.000; -212.000
277.199;  -31.875; -357.000; -259.000
277.340;   42.325;  287.000;  175.000
277.480; -118.975; -840.000; -693.000
277.620;   26.750;  192.000;   16.000
277.760; -188.225;-1533.000;-1294.000
277.900;    6.575;  113.000;   33.000
278.040;    3.525;  137.000;  159.000
278.180;   15.150;  270.000;  170.000
278.320;    2.150;   21.000;   56.000
278.460;  -62.400; -443.000; -469.000
278.600;  -96.575; -708.000; -598.000
278.740;   40.000;  448.000;  224.000
278.880; -101.725; -768.000; -791.000
279.020;   -8.800; -194.000; -144.000
279.160;  -88.525; -672.000; -595.000
279.300; -116.025; -926.000; -873.000
279.440;  -88.575; -709.000; -622.000
279.579;  -76.375;-1014.000; -929.000
279.719;  -61.775; -410.000; -394.000
279.859;   45.000;   -4.000;   41.000
279.999;  -18.325; -208.000;  101.000
280.139;  -40.850; -435.000; -387.000
280.279;  -96.500; -708.000; -745.000
280.419;  -22.750; -229.000; -147.000
280.559;  -42.550; -259.000; -180.000
280.698;  -81.175; -790.000; -639.000
280.838; -112.400; -778.000; -800.000
280.978;  -86.200; -846.000; -790.000
281.118; -100.875; -811.000; -704.000
281.257;    4.675;   24.000;    6.000
281.397; -147.075;-1094.000; -960.000
281.537;  -95.725; -599.000; -712.000
281.677;  -33.625; -150.000; -101.000
281.816;  -74.700; -700.000; -630.000
281.956;  -37.925; -193.000; -257.000
282.096;  -49.875; -539.000; -396.000
282.235; -108.225; -672.000; -638.000
282.375;  -21.150; -243.000;  -98.000
282.515; -116.075; -715.000; -707.000
282.654;   11.100;   29.000;  106.000
282.794;   19.350;  388.000;  244.000
282.934;  -52.975; -530.000; -491.000
283.073; -124.400;-1030.000; -857.000
283.213;  -57.975; -460.000; -467.000
283.353;  -53.550; -408.000; -349.000
283.492;  -30.625; -264.000; -296.000
283.632;  -41.750; -254.000; -168.000
283.771;  -90.125; -859.000; -730.000
283.911;  -56.150; -369.000; -260.000
284.050;  -97.150; -794.000; -748.000
284.190; -142.050;-1229.000;-1096.000
284.329; -127.975;-1055.000; -964.000
284.469;  -73.675; -516.000; -591.000
284.608;  -68.450; -559.000; -598.000
284.748;  -72.150; -614.000; -570.000
284.887;  -12.125;  -87.000;  -20.000
285.027; -125.850; -844.000; -892.000
285.166;  -20.750; -192.000; -249.000
285.306;  -20.675; -116.000;  -33.000
285.445;  -33.825; -229.000; -343.000
285.584;  -91.900; -630.000; -494.000
285.724;  -35.275; -282.000; -322.000
285.863; -101.700; -857.000; -507.000
286.002;  -52.150; -366.000; -276.000
286.142; -115.200; -715.000; -622.000
286.281;  -68.675; -525.000; -493.000
286.420;  -92.725; -554.000; -417.000
286.560;   96.175;  653.000;  623.000
286.699; -131.725; -958.000; -912.000
286.838;  -85.575; -590.000; -591.000
286.978;  -97.975; -533.000; -537.000
287.117; -126.550;-1085.000; -950.000
287.256;  -30.025; -228.000; -211.000
287.395;  -50.275; -197.000; -378.000
287.535;  -69.275; -370.000; -298.000
287.674;  -77.650; -509.000; -484.000
287.813;   38.925;  661.000;  533.000
287.952; -117.150;-1010.000; -871.000
288.091; -140.400;-1049.000; -915.000
288.231;    5.700;   13.000;   15.000
288.370; -160.450;-1217.000;-1200.000
288.509;  -89.525; -728.000; -645.000
288.648;  -89.250; -770.000; -548.000
288.787;  -36.100; -243.000;  -87.000
288.926;  -73.325; -454.000; -475.000
289.065;   96.450;  859.000;  672.000
289.204;  -55.975; -377.000; -217.000
289.344;  -93.275; -791.000; -690.000
289.483;    4.275;  416.000;  304.000
289.622;  -28.225; -291.000; -149.000
289.761;   -9.900; -309.000; -166.000
289.900; -103.150; -785.000; -626.000
290.039;  -11.300;  -12.000;  -95.000
290.178;  -41.675; -274.000; -180.000
290.317;  -81.950; -618.000; -479.000
290.456;  -54.850; -463.000; -451.000
290.595; -133.025; -961.000; -833.000
290.734; -125.825; -904.000; -891.000
290.873;  -74.950; -456.000; -420.000
291.011; -113.975; -833.000; -843.000
291.150; -105.250; -770.000; -682.000
291.289;  -37.825; -343.000; -110.000
291.428;  -96.550; -599.000; -480.000
291.567;  -62.875; -370.000; -442.000
291.706;   -9.350;  109.000;  154.000
291.845;  -73.300; -597.000; -505.000
291.984; -178.650;-1234.000;-1061.000
292.122;   63.400;  602.000;  582.000
292.261;   42.525;  620.000;  463.000
292.400;    1.150; -144.000;  211.000
292.539; -120.975; -959.000; -813.000
292.678;  -30.000; -325.000; -300.000
292.816; -153.825;-1136.000; -965.000
292.955;  -90.225; -844.000; -684.000
293.094;  -29.575; -173.000; -337.000
293.233;  -62.275; -556.000; -400.000
293.371;  -40.150; -225.000;  -84.000
293.510;  -94.500; -866.000; -780.000
293.649; -124.750; -959.000; -924.000
293.787; -111.775;-1083.000;-1012.000
293.926;  -25.500; -113.000;  -32.000
294.065;  -40.500; -379.000; -290.000
294.203;   27.575;  298.000;  406.000
294.342;   31.375;   74.000;  156.000
294.481; 6635.025;51180.000; -836.000
294.619;  -21.125; -425.000; -582.000
294.758; -143.675;-1230.000;-1137.000
294.896;   27.200; -125.000;    5.000
295.035; -128.975;-1040.000;-1006.000
295.174; -125.500;-1082.000; -954.000
295.312;  -43.175; -323.000; -203.000
295.451;  -32.050; -307.000; -428.000
295.589;  -65.275; -389.000; -518.000
295.728;    6.375; -292.000; -165.000
295.866;   -6.275;  -36.000;  -51.000
296.005;  -70.750; -584.000; -341.000
296.143;  -80.925; -558.000; -596.000
296.282;  -98.600; -957.000; -881.000
296.420;  -85.375; -657.000; -557.000
296.559; -106.375; -892.000; -633.000
296.697;  -47.475; -847.000; -665.000
296.835;  -62.275;-1141.000;-1002.000
296.974;   12.000;  -23.000;   39.000
297.112;  -17.450; -443.000; -504.000
297.251;  -94.100; -815.000; -755.000
297.389;   -4.075; -576.000; -438.000
297.527;    5.825; -145.000;  -83.000
297.666;  -51.900; -486.000; -438.000
297.804;  -55.400; -404.000; -264.000
297.942;   -3.025; -136.000; -161.000
298.081;   -1.950; -183.000;   63.000
298.219;   25.275;  -17.000;  -19.000
298.357;    3.325; -144.000;  -71.000
298.495;  -50.075; -810.000; -812.000
298.634;   18.025;  245.000;  219.000
298.772;  -13.400; -220.000; -338.000
298.910;  -50.375; -309.000; -182.000
299.048;  -12.925; -130.000; -153.000
299.187;  -37.400; -350.000; -250.000
299.325;   -1.025;   52.000;  122.000
299.463;  -15.075; -389.000; -299.000
299.601;   15.150; -327.000; -271.000
299.739; -136.225; -908.000; -883.000
299.877;  -82.450; -791.000; -703.000
300.016;  -97.875;-1095.000; -935.000
300.154;   46.325;  -19.000; -161.000
300.292;  -40.225; -428.000; -348.000
300.430;  -17.225; -408.000; -291.000
300.568; -112.825; -940.000; -874.000
300.706;  -55.300; -366.000; -469.000
300.844; -115.325;-1108.000; -979.000
300.982;   80.300;  246.000;  282.000
301.120; -122.450; -965.000; -866.000
301.258;  -77.425; -812.000; -705.000
301.396;   -0.150;  104.000;  -41.000
301.534;   -6.425; -218.000; -293.000
301.672;  -78.750; -664.000; -521.000
301.810;  -60.275; -613.000; -545.000
301.948;   22.900;   53.000;  149.000
302.086;  242.700; -250.000;  -32.000
302.224;  311.450; -610.000; -585.000
302.362;  -47.600; -558.000; -622.000
302.500;  -79.950; -923.000; -893.000
302.638;   40.500;  128.000;  245.000
302.776;  -31.200; -352.000; -408.000
302.913;   38.975;  447.000;  236.000
303.051;   -6.925;  -86.000;  -23.000
303.189;   14.950;   90.000;  118.000
303.327;  -43.675; -341.000; -256.000
303.465;  -77.950; -832.000; -588.000
303.603;  -98.150; -805.000; -604.000
303.740;   54.975;  417.000;  241.000
303.878;  -61.100; -800.000; -759.000
304.016;  -90.775; -915.000; -790.000
304.154; -141.300;-1123.000;-1152.000
304.291;  -55.100; -505.000; -554.000
304.429;   -1.750;  102.000;   74.000
304.567; -128.925; -908.000; -893.000
304.705;  -71.925; -408.000; -515.000
304.842;   -6.875; -616.000; -540.000
304.980;   29.725;  215.000;   35.000
305.118;  -13.700; -367.000; -365.000
305.255; -116.375; -945.000; -927.000
305.393;   45.800;  178.000;  239.000
305.531; -135.950;-1173.000; -956.000
305.668;  -80.250; -663.000; -582.000
305.806;   38.600; -358.000; -439.000
305.943;    0.125; -629.000; -637.000
306.081;  -10.175; -378.000; -267.000
306.219; -103.050; -863.000; -748.000
306.356;   10.550;  158.000;   27.000
306.494;  134.625;  981.000;  761.000
306.631;    5.700;  -11.000;  -55.000
306.769;  -17.400; -613.000; -485.000
306.906;  -16.900; -284.000; -258.000
307.044;  -48.925; -473.000; -488.000
307.181;  -59.175; -410.000; -332.000
307.319;   31.100;  112.000;   87.000
307.456; -162.075;-1191.000;-1153.000
307.594; -102.075; -980.000; -727.000
307.731;  -24.975; -371.000; -164.000
307.868;  -12.075;  -15.000;   20.000
308.006; -117.100; -961.000; -847.000
308.143;  -66.525; -618.000; -330.000
308.281;   59.750;  -37.000; -254.000
308.418;  -46.825; -748.000; -640.000
308.555;  -61.450; -400.000; -250.000
308.693;  -69.075; -577.000; -573.000
308.830; -110.000; -712.000; -657.000
308.967;   -4.425; -215.000;  -95.000
309.105;  -39.275; -507.000; -396.000
309.242;    7.450; -468.000; -367.000
309.379;  108.275; -577.000; -655.000
309.517;  -94.550; -936.000; -948.000
309.654;  -87.700; -910.000; -734.000
309.791;  -57.250; -662.000; -580.000
309.928; -106.475; -977.000; -914.000
310.065;  143.575;  819.000;  697.000
310.203;  -52.325; -825.000; -850.000
310.340;  -29.850; -465.000; -321.000
310.477;  -69.250; -412.000; -516.000
310.614;  -58.900; -383.000; -473.000
310.751;  -64.475; -427.000; -518.000
310.889;  -13.000;    1.000;   11.000
311.026; -150.375;-1161.000; -939.000
311.163;  -40.200; -386.000; -380.000
311.300;  -66.275; -512.000; -479.000
311.437;  -68.125; -658.000; -619.000
311.574; -141.075;-1226.000; -985.000
311.711;  -48.375; -595.000; -433.000
311.848;  -33.575; -380.000; -388.000
311.985;   30.425;  270.000;   93.000
312.122; -111.000; -932.000; -762.000
312.259; -106.550; -941.000; -994.000
312.396;  -64.000; -508.000; -551.000
312.533;  -67.325; -812.000; -790.000
312.670; -123.700;-1070.000; -898.000
312.807;   -5.775; -352.000; -367.000
312.944;  -59.275; -513.000; -611.000
313.081;  -17.175; -150.000; -415.000
313.218;  -77.075;-1111.000; -867.000
313.355;    2.125; -531.000; -449.000
313.492;   -1.225; -455.000; -292.000
313.629;  144.175;  815.000;  735.000
313.766; -133.675;-1176.000;-1008.000
313.902;   -3.550; -186.000;   21.000
314.039;  -45.325; -372.000; -289.000
314.176;   54.275;  286.000;  192.000
314.313;  -61.375; -569.000; -473.000
314.450;  -69.250; -788.000; -684.000
314.587;  -43.725; -468.000; -480.000
314.723;   25.100;  -78.000;  130.000
314.860;   39.350;  318.000;  332.000
314.997;   52.400;  223.000;  142.000
315.134;  -27.225; -385.000; -368.000
315.270;    6.775; -480.000; -496.000
315.407; -102.425;-1094.000; -967.000
315.544;  -29.875; -657.000; -538.000
315.681;  -50.000; -681.000; -565.000
315.817;   75.375; -133.000; -176.000
315.954;   87.450; -613.000; -392.000
316.091; -107.125;-1045.000;-1023.000
316.227;  -25.600;  -71.000; -179.000
316.364;    3.050;   23.000;    6.000
316.500;  -43.500; -113.000; -300.000
316.637;  -40.600; -181.000; -302.000
316.774;  -86.650; -625.000; -358.000
316.910;  -80.225; -598.000; -629.000
317.047;  -55.400; -487.000; -351.000
317.183;  -59.350; -435.000; -566.000
317.320;   21.525; -367.000; -321.000
317.456;  -29.825; -733.000; -805.000
317.593;  -84.450; -598.000; -641.000
317.729;    2.825;  168.000;  -67.000
317.866; -184.000;-1434.000;-1285.000
318.002;  -96.525; -708.000; -948.000
318.139; -109.375; -883.000; -867.000
318.275; -106.775;-1003.000; -738.000
318.412;  -70.125; -517.000; -336.000
318.548;  -63.300; -751.000; -720.000
318.685;  -98.525; -985.000; -888.000
318.821;  -90.950; -762.000; -735.000
318.957;  -28.225;   34.000;  -23.000
319.094;   30.725;  297.000;  154.000
319.230;  -89.275; -756.000; -742.000
319.367;   20.900; -471.000; -520.000
319.503;   -8.925; -538.000; -436.000
319.639; -101.650; -877.000; -793.000
319.775;  -86.900; -750.000; -685.000
319.912;  -68.325; -424.000; -519.000
320.048; -101.800;-1184.000;-1184.000
320.184;   93.950;   59.000;   70.000
320.321;  -47.900; -497.000; -467.000
320.457;   72.825;  475.000;  662.000
320.593;  -67.900; -375.000; -382.000
320.729;  -96.400; -732.000; -734.000
320.866;  -70.625; -577.000; -635.000
321.002;  -98.525; -759.000; -809.000
321.138;  -40.450; -135.000; -211.000
321.274;   16.875; -148.000; -115.000
321.410;  -54.850; -585.000; -353.000
321.546;  -85.475;-1011.000; -911.000
321.683;   21.450;  400.000;  185.000
321.819;  -29.825;  -48.000; -117.000
321.955; -114.925; -743.000; -722.000
322.091;  -68.300; -585.000; -540.000
322.227;  -40.075; -382.000; -202.000
322.363;  -42.375; -320.000; -215.000
322.499;  -70.200; -343.000; -331.000
322.635;  108.275;  636.000;  443.000
322.771;  -16.750; -139.000;   12.000
322.907;   41.250;  129.000;  327.000
323.043;  -39.950; -115.000; -206.000
323.179;  -50.900; -394.000; -363.000
323.315;  -47.825; -401.000; -371.000
323.451;   31.125; -328.000; -236.000
323.587;   52.750;  -60.000;  -77.000
323.723;  -36.900; -682.000; -601.000
323.859;  -28.550; -258.000;  -76.000
323.995;  -42.875; -467.000; -409.000
324.131; -132.000; -967.000; -892.000
324.267;  -31.400; -254.000; -276.000
324.402; -136.775; -960.000; -983.000
324.538;  -18.225; -279.000; -104.000
324.674;   -5.225;  164.000;   77.000
324.810;   53.475;  226.000;  308.000
324.946;  -34.400; -810.000; -658.000
325.082;  -63.000; -568.000; -475.000
325.217;  -16.350;  -62.000;   16.000
325.353; -106.800; -764.000; -659.000
325.489;  -90.500; -540.000; -506.000
325.625;  -65.150; -579.000; -525.000
325.760;   93.725;  517.000;  376.000
325.896;    8.550; -515.000; -702.000
326.032;  -54.425; -403.000; -352.000
326.168;  -53.950; -462.000; -369.000
326.303;  -67.425; -352.000; -461.000
326.439;  -12.275; -336.000; -276.000
326.575;    1.400; -190.000;  -29.000
326.710;  -21.325; -156.000;  -30.000
326.846;   -6.475;  146.000;  103.000
326.982;  -97.025; -530.000; -548.000
327.117;  -63.100; -481.000; -442.000
327.253;  -88.200; -745.000; -742.000
327.388; -166.550;-1137.000;-1153.000
327.524;  -65.775; -811.000; -578.000
327.659;  -23.275;  -58.000;  -22.000
327.795;    1.200;   69.000;   45.000
327.931;  -85.275; -723.000; -499.000
328.066;  -14.075; -417.000; -276.000
328.202;  -37.825;   12.000; -129.000
328.337;   90.750;  957.000;  713.000
328.473;   42.650;  -12.000;  -74.000
328.608;  -25.700; -256.000; -267.000
328.743; -108.025; -799.000; -664.000
328.879;   22.500;  214.000;  114.000
329.014;  -40.525; -102.000; -122.000
329.150;  -72.825; -358.000; -483.000
329.285;  -88.825; -465.000; -466.000
329.421;  -49.450; -548.000; -246.000
329.556;  -31.850;  -36.000;   85.000
329.691;  -91.850; -633.000; -615.000
329.827;  -80.100; -626.000; -480.000
329.962;  -50.775;  131.000; -301.000
330.097;  -85.825; -673.000; -585.000
330.233;  -43.725; -410.000; -223.000
330.368; -120.975; -839.000; -628.000
330.503;   -6.075;    3.000;   98.000
330.638;  -18.325;  -93.000; -125.000
330.774;  -81.700; -609.000; -530.000
330.909;  -62.350; -434.000; -244.000
331.044;  -99.200; -714.000; -708.000
331.179; -167.825;-1217.000;-1109.000
331.315;   11.725;   77.000;   20.000
331.450;   13.925;  157.000;  285.000
331.585;  -96.325; -805.000; -706.000
331.720;  -87.625; -510.000; -460.000
331.855;   -0.800;  -35.000; -102.000
331.990;  382.075;   62.000;  138.000
332.126;  223.600; -110.000;   71.000
332.261;   23.375; -379.000; -265.000
332.396;   17.525; -135.000; -242.000
332.531;  -53.975;-1074.000;-1031.000
332.666;   93.625; -519.000; -363.000
332.801;  -86.950; -726.000; -807.000
332.936;  -34.575; -192.000; -122.000
333.071; -130.725; -870.000; -817.000
333.206;   20.525;  307.000;  379.000
333.341;   21.200;  344.000;  418.000
333.476;  -70.550; -627.000; -623.000
333.611;  -37.100; -251.000; -173.000
333.746;  -43.475; -381.000; -464.000
333.881; -106.875; -973.000; -935.000
334.016; -103.925; -936.000; -917.000
334.151; -124.525; -746.000; -702.000
334.286;   25.525;  152.000;  186.000
334.421;  -12.775; -125.000; -178.000
334.556;  -49.850; -611.000; -567.000
334.690;  -71.900; -631.000; -577.000
334.825;   57.575;  381.000;   83.000
334.960;  -54.050; -285.000; -413.000
335.095;   21.225;  135.000;  -91.000
335.230;  -81.825; -722.000; -738.000
335.365; -104.900;-1084.000; -990.000
335.499; -116.575;-1108.000;-1037.000
335.634;   53.350;    9.000;  534.000
335.769;  -59.475; -755.000; -720.000
335.904;  -19.000; -603.000; -561.000
336.038;  -13.300; -735.000; -657.000
336.173;  -70.475;-1206.000;-1194.000
336.308;   51.625; -116.000; -189.000
336.443;   99.475; -544.000; -634.000
336.577;   -7.325; -936.000; -787.000
336.712;  119.775;   -4.000;  -12.000
336.847;   18.825; -724.000; -607.000
336.981;  122.375; -272.000; -208.000
337.116;  400.500;  615.000;  501.000
337.250;  203.050; -434.000; -421.000
337.385;  412.950; -297.000; -208.000
337.520;  192.525; -632.000; -603.000
337.654;  -14.475; -215.000; -126.000
337.789; -118.250; -989.000; -933.000
337.923;  -51.350; -104.000; -205.000
338.058;  -96.925; -673.000; -738.000
338.192;  -63.900; -611.000; -488.000
338.327;   -8.650;  -18.000; -155.000
338.461;  -62.850; -299.000; -469.000
338.596;  -80.675; -780.000; -638.000
338.730;  -81.325; -767.000; -803.000
338.865;  147.725;  -46.000; -140.000
338.999;    1.700; -846.000; -702.000
339.134;    7.150; -634.000; -536.000
339.268;   31.375; -741.000; -603.000
339.403;  510.475; -740.000; -775.000
339.537;  235.700; -894.000; -820.000
339.671;  -98.150; -829.000; -813.000
339.806;  -18.250; -556.000; -512.000
339.940;   25.300; -261.000; -235.000
340.074; -104.475; -685.000; -510.000
340.209;  -41.125; -351.000; -230.000
340.343; -102.175; -517.000; -573.000
340.477;  122.125;  998.000; 1036.000
340.612;   -9.575;-1033.000; -900.000
340.746;  227.500; -199.000; -243.000
340.880;  -99.425; -924.000; -785.000
341.014;  -16.400;  -45.000; -154.000
341.149; -115.950; -756.000; -718.000
341.283; -109.400; -839.000; -754.000
341.417; -128.675;-1124.000; -938.000
341.551;   -9.575; -768.000; -708.000
341.685;  -58.625; -633.000; -611.000
341.820;  -57.175; -562.000; -493.000
341.954;  -59.075; -218.000; -349.000
342.088; -149.075;-1102.000;-1019.000
342.222;   45.900;  565.000;  618.000
342.356;  -72.575; -395.000; -335.000
342.490; -123.400; -880.000; -841.000
342.624;  -56.075; -339.000; -242.000
342.758;  -48.875; -364.000; -312.000
342.892;  -85.750; -710.000; -585.000
343.026;  -43.875;  -58.000; -116.000
343.160;  -57.575; -426.000; -376.000
343.294;  -78.425; -474.000; -337.000
343.428;  -62.450; -488.000; -448.000
343.562;  -40.850; -172.000;  -23.000
343.696;  -46.225; -385.000; -314.000
343.830;  -42.700; -362.000; -356.000
343.964;  -13.575; -231.000; -168.000
344.098;  400.650;  199.000;   70.000
344.232;  331.075; -266.000; -127.000
344.366;   63.725; -567.000; -453.000
344.500;  -30.525; -665.000; -744.000
344.634;  -27.275; -324.000; -164.000
344.768;  -68.950; -531.000; -341.000
344.902;   13.150;  278.000;  256.000
345.035;  -79.600; -556.000; -496.000
345.169; -130.225; -933.000; -656.000
345.303;  -62.050; -308.000; -482.000
345.437; -105.825; -826.000; -717.000
345.571;  -62.825; -675.000; -594.000
345.704;  -72.700; -309.000; -532.000
345.838;  -29.100; -331.000; -284.000
345.972;  -69.600; -543.000; -495.000
346.106;  247.950; -179.000; -190.000
346.239;  477.975; -312.000; -243.000
346.373;   -1.975; -343.000; -302.000
346.507; -141.525; -950.000; -962.000
346.640;   49.900;  -30.000;   13.000
346.774;  -97.900; -650.000; -797.000
346.908;  -36.875; -138.000;  -11.000
347.041;  -85.825; -646.000; -593.000
347.175;   -7.425;  259.000;   27.000
347.309;  -92.450; -698.000; -628.000
347.442; -116.525; -883.000; -732.000
347.576;  154.550;  670.000;  668.000
347.709;   53.375; -123.000;  -52.000
347.843; -113.225; -933.000; -825.000
347.976;   19.625;  235.000;  294.000
348.110; -170.575;-1268.000;-1186.000
348.243;  -96.600; -679.000; -772.000
348.377;   -0.625;  -26.000;   60.000
348.510;   53.850;  403.000;  540.000
348.644;  -50.300;  -37.000; -159.000
348.777;   -6.025;  180.000;  191.000
348.911;  -40.525; -142.000; -112.000
349.044;   88.050;  471.000;  448.000
349.178;   -3.775;-1069.000;-1006.000
349.311;  103.675;  141.000;  255.000
349.444;   13.325; -927.000; -813.000
349.578;  -13.175; -347.000; -200.000
349.711; -125.025; -959.000; -862.000
349.845;  -55.000; -661.000; -591.000
349.978; -146.525;-1224.000;-1137.000
350.111;  -80.825; -546.000; -612.000
350.244;  -96.125; -596.000; -700.000
350.378;  -55.050; -392.000; -393.000
350.511;  -66.975; -393.000; -426.000
350.644; -103.775; -808.000; -806.000
350.778;   14.450;  168.000;  104.000
350.911;    3.075;  134.000;  140.000
351.044;  -91.400; -685.000; -615.000
351.177;  -35.225; -321.000; -281.000
351.310;  -25.000;    3.000; -131.000
351.444;  -89.525; -888.000; -788.000
351.577;   63.100;  140.000;   90.000
351.710;   84.350;  593.000;  417.000
351.843;  -34.925; -165.000;  -77.000
351.976;   -5.200;  149.000;  -79.000
352.109; -106.400; -621.000; -612.000
352.242;  -44.150; -464.000; -419.000
352.376;  -92.325; -580.000; -636.000
352.509;   46.350; -437.000; -356.000
352.642;  -70.700; -654.000; -604.000
352.775;   21.575; -141.000;  -98.000
352.908; -103.550; -933.000; -904.000
353.041;  -89.700; -814.000; -824.000
353.174;  -48.325; -551.000; -424.000
353.307;  -80.775; -753.000; -764.000
353.440;   78.400;  541.000;  453.000
353.573;  -68.100; -957.000;-1008.000
353.706;  -39.850; -384.000; -558.000
353.839;  -15.400; -264.000; -220.000
353.971;  -89.525; -657.000; -512.000
354.104;  -90.125; -896.000; -835.000
354.237;  -57.325; -627.000; -662.000
354.370;  -89.925; -846.000; -879.000
354.503; -158.825;-1231.000;-1308.000
354.636;  -12.250; -529.000; -348.000
354.769; -107.200; -937.000; -860.000
354.902;   -8.450; -230.000; -139.000
355.034;   -3.800; -164.000; -220.000
355.167;   -7.525; -262.000; -162.000
355.300;  -62.375;-1061.000; -880.000
355.433; 1441.900;  -71.000;  -14.000
355.565; 2250.200; -402.000; -384.000
355.698;  576.650; -356.000; -296.000
355.831;   -7.450; -882.000; -801.000
355.964;   36.300; -285.000; -170.000
356.096;  -58.900; -856.000; -843.000
356.229;   12.475; -523.000; -530.000
356.362;  515.350; -373.000; -266.000
356.494;  890.725; -229.000; -162.000
356.627;  367.375;  269.000;  377.000
356.760;  867.650;  120.000;   53.000
356.892; 1484.375; -286.000; -601.000
357.025;  411.825;  403.000;  389.000
357.157;  295.575; -167.000; -179.000
357.290; 1112.550; -856.000; -713.000
357.423;  364.700; -667.000; -556.000
357.555;  153.825; -217.000; -228.000
357.688;  205.075; -483.000; -364.000
357.820;  266.725; -870.000; -877.000
357.953; 1889.850; -563.000; -589.000
358.085;  322.025; -632.000; -612.000
358.218;  226.975;-1131.000; -932.000
358.350;   74.050;  -58.000;  312.000
358.483; -153.075;-1300.000;-1187.000
358.615; -110.875;-1182.000;-1078.000
358.747; -146.500;-1187.000;-1058.000
358.880;  -43.800; -810.000; -744.000
359.012;  -26.800; -376.000; -202.000
359.145;  -50.225; -480.000; -511.000
359.277;  -34.750; -962.000; -913.000
359.409; 1570.475;  536.000;  231.000
359.542;  367.950; -738.000; -688.000
359.674;   17.050;   46.000;   13.000
359.806;  -81.850; -565.000; -438.000
359.939;  -37.500; -617.000; -516.000
360.071;   26.975; -583.000; -579.000
360.203;  -19.325; -411.000; -364.000
360.335;   12.425;  164.000;  -16.000
360.468;  103.900; -249.000; -307.000
360.600; 1496.625; -547.000; -454.000
360.732; 3969.825; -546.000; -423.000
360.864;  589.325;-1216.000;-1044.000
360.996;   85.900; -516.000; -554.000
361.129;  -48.950; -389.000; -598.000
361.261;    1.150;  110.000; -113.000
361.393;  -60.850; -252.000; -214.000
361.525;   15.500;   94.000;  244.000
361.657; -112.750; -821.000; -703.000
361.789;  -11.875; -139.000; -155.000
361.921;  -20.725; -642.000; -593.000
362.053;  123.825;  524.000;  541.000
362.185;    2.150;  288.000;   72.000
362.318; -112.775; -709.000; -705.000
362.450;   40.175;  294.000;  444.000
362.582;  -59.200; -913.000; -870.000
362.714;  -58.725; -353.000; -332.000
362.846;  -75.450; -606.000; -490.000
362.978; -144.375; -941.000; -811.000
363.109;  -13.725; -161.000; -260.000
363.241;  178.075; -739.000; -749.000
363.373;  615.825; -649.000; -564.000
363.505;  991.650; -186.000;  -91.000
363.637;  227.600; -787.000; -601.000
363.769; -128.675;-1067.000;-1080.000
363.901;  -71.425; -596.000; -654.000
364.033; -140.525;-1103.000;-1062.000
364.165;  -22.025; -283.000; -283.000
364.296;   83.850; -316.000; -177.000
364.428;  187.900;-1344.000;-1220.000
364.560;  -68.400; -679.000; -661.000
364.692;  -84.575; -738.000; -835.000
364.824;   29.125; -588.000; -456.000
364.955;  477.225; -402.000; -564.000
365.087; 1549.225;-1097.000; -852.000
365.219;   95.800; -686.000; -816.000
365.351;  -70.450; -526.000; -572.000
365.482;   21.700;  300.000;  240.000
365.614;  -56.150; -402.000; -314.000
365.746; -110.575; -729.000; -752.000
365.877;  -88.125; -706.000; -672.000
366.009;  397.150;  -35.000;  -62.000
366.141;  -33.225;-1249.000;-1134.000
366.272;  -93.550; -803.000; -719.000
366.404; -114.675;-1005.000; -874.000
366.535;  -19.825; -139.000;  -12.000
366.667; -111.700; -644.000; -649.000
366.799;   24.925;  353.000;  203.000
366.930; -134.575; -862.000; -996.000
367.062;  173.050; -639.000; -613.000
367.193;  316.225; -872.000; -842.000
367.325;  -56.725; -580.000; -684.000
367.456;   15.875; -246.000;   31.000
367.588;  265.825; -371.000; -318.000
367.719;   35.675;  -44.000;  -45.000
367.851;  -30.025; -222.000; -241.000
367.982; -104.900; -875.000; -732.000
368.113;    9.875; -475.000; -358.000
368.245; -140.375; -960.000; -841.000
368.376;  -28.425; -254.000; -302.000
368.508;  -47.550; -188.000; -263.000
368.639; -153.625;-1166.000;-1034.000
368.770;  -72.375; -670.000; -589.000
368.902; -106.850; -836.000; -926.000
369.033; -128.800; -906.000; -855.000
369.164;  -27.425; -720.000; -653.000
369.296; -104.275; -452.000; -601.000
369.427;  -25.050; -209.000; -144.000
369.558;  -74.900; -593.000; -377.000
369.689;  -88.800; -721.000; -569.000
369.821; -125.450; -951.000; -845.000
369.952;  -30.000;   42.000; -108.000
370.083;  -63.650; -229.000; -108.000
370.214;  -94.000; -735.000; -650.000
370.345;  -18.125;   65.000;   81.000
370.477;  -91.300; -810.000; -790.000
370.608;   53.950; -328.000; -264.000
370.739; -116.300;-1233.000;-1292.000
370.870; -105.825;-1102.000; -923.000
371.001;   -5.500; -378.000; -467.000
371.132;  -98.200; -754.000; -735.000
371.263;  -33.475;  -42.000; -148.000
371.394; -124.125; -841.000; -748.000
371.525;   23.150;  345.000;  225.000
371.657; -115.250; -808.000; -670.000
371.788;   33.750;  103.000;  199.000
371.919;   37.625; -384.000; -304.000
372.050; 1629.950;  -91.000; -156.000
372.181;  507.025; -188.000; -294.000
372.311;  160.300;   42.000; -127.000
372.442;  -44.075; -457.000; -451.000
372.573;  -55.925; -444.000; -340.000
372.704; -136.650;-1008.000; -980.000
372.835;   -4.800; -228.000; -289.000
372.966;  -77.400; -646.000; -554.000
373.097;  -74.150; -575.000; -711.000
373.228;  -83.525; -717.000; -542.000
373.359;  -13.150; -824.000; -536.000
373.490;  267.750; -881.000; -727.000
373.620;  378.025;-1001.000; -803.000
373.751;  736.175; -332.000; -396.000
373.882;  311.950; -663.000; -733.000
374.013;  -17.150; -449.000; -262.000
374.143;  -54.500; -581.000; -659.000
374.274; -126.875; -987.000; -908.000
374.405;   84.200; -388.000; -276.000
374.536;  159.725; -526.000; -387.000
374.666;  431.225; -759.000; -807.000
374.797;   29.075; -817.000; -868.000
374.928;  291.500; -710.000; -560.000
375.058;  295.275; -535.000; -500.000
375.189;   21.175;  -59.000;  -93.000
375.320; -107.225; -928.000;-1034.000
375.450;  -34.600; -625.000; -616.000
375.581;  -49.800; -526.000; -436.000
375.712;  -25.575; -574.000; -250.000
375.842;   33.725; -438.000; -415.000
375.973;   19.950; -554.000; -513.000
376.103; -102.175; -665.000; -648.000
376.234;  -82.600; -531.000; -552.000
376.364; -108.250; -944.000; -867.000
376.495;  163.750;  925.000;  529.000
376.625;  -64.375; -472.000; -485.000
376.756;  -42.750; -709.000; -678.000
376.886; -127.175;-1178.000;-1026.000
377.017;  158.525;-1048.000;-1061.000
377.147;  609.025; -786.000; -782.000
377.278;  123.100;  174.000;  228.000
377.408; -110.675; -801.000; -815.000
377.538;  -97.400; -707.000; -693.000
377.669;  -84.425; -537.000; -613.000
377.799; -102.225; -645.000; -635.000
377.929;  -76.700; -610.000; -428.000
378.060; -119.450; -781.000; -847.000
378.190;  -30.075; -726.000; -531.000
378.320;  -30.625; -401.000; -406.000
378.451;  -22.125; -131.000;  -22.000
378.581;  -15.350;  -67.000; -110.000
378.711;  100.575; 1035.000;  866.000
378.841;  -57.100; -533.000; -675.000
378.972;  -97.700; -871.000; -751.000
379.102;  -47.375; -652.000; -579.000
379.232;  -30.900; -126.000;  -73.000
379.362; -110.625;-1001.000; -885.000
379.492;  -52.725; -373.000; -424.000
379.623;   52.150;    0.000;  111.000
379.753;  -99.775;-1107.000; -974.000
379.883;  117.400;   59.000;  156.000
380.013;  -73.175;-1081.000;-1017.000
380.143; -108.725;-1097.000;-1056.000
380.273; -100.650; -985.000; -861.000
380.403;   35.825; -344.000; -257.000
380.533;  -28.975; -651.000; -664.000
380.663;   27.550;  173.000;  128.000
380.793; -151.400;-1027.000;-1074.000
380.923;  -31.775; -103.000;  -34.000
381.053; -112.950; -613.000; -623.000
381.183;  -38.825; -106.000; -248.000
381.313;  -49.625; -656.000; -470.000
381.443;  -41.025; -692.000; -473.000
381.573;   -9.850; -402.000; -409.000
381.703;  -48.325;-1249.000;-1095.000
381.833; -178.900;-1454.000;-1336.000
381.963;   41.300; -134.000;  -87.000
382.093;  515.150; -925.000; -909.000
382.223;  148.225; -713.000; -602.000
382.353;  -85.250; -801.000; -608.000
382.482;   52.350;-1091.000; -964.000
382.612;  252.600; -872.000; -644.000
382.742;  127.725; -695.000; -622.000
382.872;   23.625; -565.000; -551.000
383.002;   25.950;  347.000; -132.000
383.131;  -22.150; -226.000; -160.000
383.261;  -43.050; -706.000; -768.000
383.391;  305.800; -552.000; -377.000
383.521; 4664.300;  451.000;  263.000
383.650; 1378.075; -947.000; -904.000
383.780;   27.150; -783.000; -656.000
383.910;   96.150;  880.000;  802.000
384.039;  -64.125; -794.000; -656.000
384.169;  -55.050;-1205.000;-1017.000
384.299;  -70.175; -650.000; -662.000
384.428; -120.675; -764.000; -680.000
384.558;  -41.750; -308.000; -275.000
384.687;  -73.825; -414.000; -334.000
384.817;   -8.500;   75.000;   -2.000
384.947;  -31.725; -234.000; -141.000
385.076;  168.125;  982.000;  912.000
385.206;   59.400;  369.000;  480.000
385.335;  -61.650; -549.000; -417.000
385.465;  -99.725; -655.000; -663.000
385.594;   39.675;  -53.000;  -44.000
385.724;   87.125; -868.000; -838.000
385.853;    0.650; -296.000; -270.000
385.982;  490.225; -743.000; -787.000
386.112;  889.375;-1052.000; -871.000
386.241;   30.650; -307.000; -312.000
386.371;   -8.450; -174.000;  -87.000
386.500;  -47.025; -825.000; -789.000
386.629;   -2.350; -874.000; -817.000
386.759;   75.200;  -43.000;   68.000
386.888;  -24.600; -170.000; -250.000
387.017;  -88.050; -648.000; -620.000
387.147; -100.975; -771.000; -798.000
387.276;  -63.650; -410.000; -397.000
387.405;  -37.700; -398.000; -342.000
387.535;  -70.500; -452.000; -361.000
387.664;  -64.175; -692.000; -620.000
387.793;  -16.175; -198.000; -113.000
387.922;  216.350;  255.000;  200.000
388.052;  -56.550; -576.000; -423.000
388.181;  -41.675; -342.000; -472.000
388.310;  -83.900; -889.000; -710.000
388.439; -100.425; -749.000; -742.000
388.568;   72.875;  365.000;  244.000
388.697;  362.625; -756.000; -653.000
388.826;   13.850; -768.000; -666.000
388.956;  -27.450; -285.000; -307.000
389.085;  -62.650; -347.000; -287.000
389.214; -110.425; -842.000; -872.000
389.343;  -73.200; -645.000; -413.000
389.472;  527.000;  126.000;  149.000
389.601;  627.300;   91.000;    0.000
389.730;  -16.825; -568.000; -687.000
389.859;   25.700;  226.000;   46.000
389.988;   55.675; -423.000; -408.000
390.117;   39.300; -168.000; -146.000
390.246;  -50.550; -331.000; -320.000
390.375;  -46.725; -673.000; -626.000
390.504;  -84.975; -703.000; -621.000
390.633; -114.575; -672.000; -726.000
390.761; -104.100; -732.000; -645.000
390.890;  -22.375;   -4.000; -130.000
391.019;  -55.500; -421.000; -441.000
391.148; -128.000; -826.000; -855.000
391.277;  -87.975; -576.000; -493.000
391.406; -112.150; -821.000; -805.000
391.534;    8.775;  574.000; -301.000
391.663; -103.075; -583.000; -645.000
391.792; -102.425; -673.000; -701.000
391.921;    3.925;   -3.000;   15.000
392.050;   24.275; -287.000; -228.000
392.178; -121.650;-1206.000;-1061.000
392.307;  -16.250; -758.000; -712.000
392.436;  -21.075; -427.000; -641.000
392.564;    2.225;  166.000;   -6.000
392.693; -109.050; -860.000; -682.000
392.822;   31.925; -529.000; -534.000
392.950;  -26.925; -880.000; -714.000
393.079;   95.650; -188.000; -328.000
393.208;  -51.650; -488.000; -511.000
393.336;  -30.525; -170.000; -145.000
393.465;  -52.275; -317.000; -199.000
393.593;   -3.025;   62.000;   79.000
393.722; -148.500;-1121.000; -916.000
393.850;  -42.875; -188.000;  -61.000
393.979; -132.000; -926.000; -805.000
394.107;  -69.800; -517.000; -537.000
394.236;  -41.900; -570.000; -507.000
394.364;  129.175;  383.000;  206.000
394.493;  118.300; -911.000; -767.000
394.621;   11.225; -955.000; -916.000
394.750; 1092.750; -873.000; -923.000
394.878; 4340.700; -247.000; -149.000
395.007; 6313.175; -721.000; -807.000
395.135;  554.975; -790.000; -721.000
395.263;  -69.150;-1038.000;-1040.000
395.392;   -8.575;  -25.000; -107.000
395.520; -127.700; -818.000; -679.000
395.648; -127.350; -865.000; -915.000
395.777;  -75.600; -366.000; -405.000
395.905;  -68.450; -449.000; -564.000
396.033;   -8.575;  217.000;  172.000
396.162;  192.400; -399.000; -453.000
396.290;  197.275;  -17.000;   -2.000
396.418;  -54.125; -555.000; -514.000
396.546;  -80.675; -571.000; -466.000
396.674; -131.650; -850.000; -878.000
396.803;  -19.625;  -72.000;  -23.000
396.931;  -14.650; -179.000; -199.000
397.059; -120.475;-1026.000; -989.000
397.187; -135.725;-1026.000; -975.000
397.315; -138.550; -884.000; -649.000
397.443; -102.225; -592.000; -443.000
397.572;  -90.775; -578.000; -424.000
397.700;  -91.400; -607.000; -614.000
397.828;  -25.850;  120.000;  -90.000
397.956;  -38.975; -508.000; -478.000
398.084;  -26.850; -767.000; -626.000
398.212;   13.250;  137.000;  124.000
398.340;  -25.225;  -56.000;  159.000
398.468;  -30.350; -390.000; -169.000
398.596; -136.425; -993.000; -953.000
398.724; -129.900; -762.000; -767.000
398.852; -163.525;-1024.000; -976.000
398.980;  -76.150; -560.000; -560.000
399.108;  -86.325; -982.000; -735.000
399.236;   -6.750;   13.000;    8.000
399.363;   -5.275;  222.000;  196.000
399.491;  -58.125; -404.000; -398.000
399.619; -120.950; -829.000; -800.000
399.747; -102.325; -859.000; -771.000
399.875;   41.675;  220.000;  234.000
400.003;  -74.450; -359.000; -284.000
400.130; -101.400; -421.000; -341.000
400.258;  -32.550;  -83.000;   38.000
400.386;  -79.250; -352.000; -168.000
400.514;  -83.950; -526.000; -587.000
400.641; -134.625; -928.000; -802.000
400.769; -152.050; -979.000; -888.000
400.897; -119.550; -838.000; -793.000
401.025;  -33.600; -166.000; -152.000
401.152;    0.600;  220.000;   38.000
401.280;  -79.200; -430.000; -429.000
401.408; -126.325; -712.000; -576.000
401.535; -114.425; -735.000; -758.000
401.663; -181.575;-1134.000;-1054.000
401.790;  -96.325; -514.000; -525.000
401.918;   27.175;  436.000;  405.000
402.046;  -25.925;  134.000;  122.000
402.173;  -29.725;  -18.000;    7.000
402.301;  -77.450; -519.000; -397.000
402.428;   20.050;  528.000;  383.000
402.556; -150.750;-1188.000; -913.000
402.683;  -42.950;  -20.000;   -1.000
402.811;  -25.800;  -37.000; -206.000
402.938;  -13.275;   20.000;   27.000
403.066;   23.625; -574.000; -558.000
403.193;  138.750;  299.000;  239.000
403.321;   89.450; -396.000; -574.000
403.448;  141.225;   83.000;   27.000
403.575;   68.700;  -90.000;  -46.000
403.703; -104.700; -732.000; -557.000
403.830;  -46.875; -531.000; -496.000
403.957; -122.100;-1117.000;-1023.000
404.085;   21.550;  -61.000; -172.000
404.212;   94.525;  -50.000;   63.000
404.339;  422.775; -566.000; -306.000
404.467; 8748.375; -612.000; -524.000
404.594; 5362.600; -287.000; -227.000
404.721;  970.250; -869.000; -764.000
404.848;  110.550; -113.000; -202.000
404.976; -104.350; -856.000; -783.000
405.103;   -5.075;  -14.000;  -82.000
405.230;    0.575;  190.000;  226.000
405.357;   43.375;  117.000;   44.000
405.484;  410.300;  -49.000;    5.000
405.612;  115.600; -548.000; -563.000
405.739;  -53.975; -488.000; -243.000
405.866;   90.725;  669.000;  385.000
405.993;  -36.550; -398.000; -102.000
406.120; -138.325; -801.000; -887.000
406.247;  -86.150; -323.000; -342.000
406.374;  157.350;  540.000;  629.000
406.501;  -63.700; -632.000; -702.000
406.628;  -93.450; -621.000; -589.000
406.755; -118.750; -803.000; -620.000
406.882;  -67.050; -228.000; -277.000
407.009; -118.900; -719.000; -628.000
407.136;  -24.625; -480.000; -401.000
407.263;  -40.325; -939.000; -829.000
407.390;  -88.875; -692.000; -614.000
407.517; -181.525;-1139.000;-1187.000
407.644;  -84.225; -332.000; -256.000
407.771;  -77.800; -249.000; -287.000
407.898;   -6.325;  168.000;  328.000
408.025;  -70.325; -421.000; -313.000
408.151;   -6.125;   82.000;  153.000
408.278;  -72.925; -267.000; -216.000
408.405; -135.925; -931.000; -899.000
408.532;  -94.850; -549.000; -542.000
408.659; -102.875; -677.000; -648.000
408.785; -197.600;-1298.000;-1170.000
408.912;  -69.000; -412.000; -296.000
409.039; -116.175; -610.000; -686.000
409.166; -108.200; -591.000; -555.000
409.292; -109.975; -571.000; -534.000
409.419; -118.700; -665.000; -649.000
409.546;  -88.350; -431.000; -192.000
409.672; -113.800; -713.000; -545.000
409.799;  -40.750;  -36.000;   34.000
409.926;  -54.525; -180.000; -179.000
410.052; -186.025;-1127.000;-1091.000
410.179;  -75.975; -368.000; -392.000
410.305;  -91.850; -375.000; -493.000
410.432;  -32.650; -220.000; -333.000
410.558;  -94.075; -305.000; -380.000
410.685;  -95.700; -688.000; -431.000
410.812; -115.150; -409.000; -588.000
410.938; -134.725; -964.000; -808.000
411.065; -119.400; -671.000; -645.000
411.191;  -26.100; -189.000; -174.000
411.317; -124.975; -823.000; -742.000
411.444;  -78.050; -317.000; -246.000
411.570;  -79.275; -339.000; -294.000
411.697; -125.550; -758.000; -752.000
411.823; -180.350; -989.000; -999.000
411.949;  -54.550;  -56.000;   17.000
412.076; -117.175; -539.000; -519.000
412.202; -122.825; -758.000; -757.000
412.329; -131.750; -798.000; -752.000
412.455; -122.575; -821.000; -657.000
412.581;  -42.850;  -15.000;  172.000
412.707;  -93.325; -540.000; -457.000
412.834;   -9.875;  156.000;  219.000
412.960;  -90.475; -785.000; -784.000
413.086; -119.325; -743.000; -701.000
413.212;  109.825;  604.000;  578.000
413.339;  -91.450; -685.000; -701.000
413.465;  -60.900; -364.000; -310.000
413.591; -110.750; -757.000; -474.000
413.717;  -58.750; -358.000; -366.000
413.843; -134.700; -839.000; -861.000
413.969;  -63.050;  -47.000; -292.000
414.096;  -96.650; -679.000; -679.000
414.222;  -15.200;  -33.000;   85.000
414.348;  -73.575; -652.000; -385.000
414.474;   22.225;   38.000;  -52.000
414.600;  -17.500; -126.000; -144.000
414.726;   -9.475;  -96.000;  -55.000
414.852;  -46.425; -365.000; -342.000
414.978;   43.425;  104.000;  -18.000
415.104;   53.750;   38.000;   80.000
415.230;   43.700; -329.000; -330.000
415.356;   63.325; -409.000; -514.000
415.482;  223.375;   13.000;  -35.000
415.608;  390.350; -247.000; -323.000
415.734; 1345.525;   67.000;   38.000
415.860;27741.200; -875.000; -767.000
415.986;22619.700; -685.000; -607.000
416.111; 2093.825; -798.000; -652.000
416.237;  456.775; -424.000; -571.000
416.363; 1630.025; -765.000; -733.000
416.489; 6546.900; -324.000; -251.000
416.615;  866.900; -707.000; -742.000
416.741;   46.400; -677.000; -784.000
416.866;  -62.250; -673.000; -736.000
416.992; -102.250; -801.000; -818.000
417.118;  -35.675;  -41.000;  -80.000
417.244;  -65.575; -798.000; -531.000
417.369;  -81.100; -801.000; -612.000
417.495;   -5.550; -325.000; -254.000
417.621;  -83.200;-1015.000; -803.000
417.746;    5.475; -579.000; -572.000
417.872;   66.125; -254.000; -144.000
417.998;  119.475; -515.000; -530.000
418.123; 1527.800;-1073.000; -845.000
418.249; 8363.275; -512.000; -601.000
418.374; 1410.800; -916.000; -824.000
418.500;  215.400; -383.000; -482.000
418.626;  149.525;   70.000;  -59.000
418.751;  163.550; -549.000; -448.000
418.877;  297.300; -637.000; -643.000
419.002; 2544.975; -688.000; -560.000
419.128;19009.125; -930.000; -721.000
419.253; 5285.975; -967.000; -837.000
419.379;  735.675; -391.000; -338.000
419.504;  587.075;  325.000;  415.000
419.629;  804.150; -393.000; -212.000
419.755; 5166.050; -317.000; -254.000
419.880;33371.475;  -98.000;   67.000
420.006;16943.825; -280.000; -221.000
420.131;42501.550; -662.000; -775.000
420.256; 6770.625; -315.000; -316.000
420.382;  923.225; -665.000; -687.000
420.507;  157.325; -649.000; -778.000
420.632;   50.975; -337.000; -339.000
420.758;   92.525; -251.000; -425.000
420.883; -103.275; -876.000; -672.000
421.008;  -96.350; -775.000; -619.000
421.133;  -96.875; -509.000; -467.000
421.259;  -61.100; -325.000; -259.000
421.384; -124.050; -834.000; -693.000
421.509; -119.950;-1052.000; -862.000
421.634;  334.500; -936.000; -820.000
421.759;  169.950; -359.000; -327.000
421.885;  -97.575; -717.000; -656.000
422.010;  -89.625; -673.000; -542.000
422.135; -152.950; -695.000; -727.000
422.260;   15.400;  340.000;  280.000
422.385;  -41.175;   12.000;  -98.000
422.510;   -6.575;  151.000;  -26.000
422.635;  -15.900;  -87.000;  -43.000
422.760;    5.775; -766.000; -791.000
422.885;   29.050;  -57.000;  -80.000
423.010;  -39.850; -112.000; -169.000
423.135;  -99.600; -481.000; -561.000
423.260;  -34.325; -150.000; -245.000
423.385;   45.000;  476.000;  222.000
423.510;    6.950;   71.000;  -22.000
423.635;   24.100;  133.000;   45.000
423.760;   37.225;  383.000;  328.000
423.885;   23.250;  336.000;  391.000
424.010;    0.825;  -68.000;  -13.000
424.135;  -34.750;    5.000;  -33.000
424.259;  -83.875; -654.000; -457.000
424.384;  -48.000; -279.000; -272.000
424.509;  -17.100; -260.000; -186.000
424.634;  -86.975; -761.000; -623.000
424.759;  -37.225; -688.000; -544.000
424.883;   -5.350; -506.000; -527.000
425.008;  215.175; -502.000; -410.000
425.133; 2808.200; -679.000; -653.000
425.258; 1513.625; -517.000; -381.000
425.382;  592.750; -867.000; -774.000
425.507; 1424.850; -487.000; -543.000
425.632;  411.175; -802.000; -663.000
425.756;  656.550; -256.000; -146.000
425.881; 9479.625; -831.000; -857.000
426.006;29029.375; -604.000; -355.000
426.130; 4753.150; -696.000; -508.000
426.255;  655.500; -611.000; -491.000
426.379;  244.825; -189.000; -577.000
426.504;  509.625;  660.000;  544.000
426.629; 5761.550; -519.000; -466.000
426.753; 4447.525;   64.000;  -46.000
426.878;  549.125; -252.000; -288.000
427.002;  313.825; -651.000; -668.000
427.127; 2089.275;  -35.000; -158.000
427.251;16872.400;  372.000;  401.000
427.375; 5395.050; -191.000; -173.000
427.500; 1531.875; -616.000; -610.000
427.624;  489.700; -234.000; -400.000
427.749;   86.900; -216.000; -225.000
427.873;  -19.975; -499.000; -412.000
427.997;  -42.775; -222.000; -230.000
428.122;   65.525;  795.000;  703.000
428.246;   50.500;  433.000;  434.000
428.371; -131.700; -869.000; -773.000
428.495; -100.600; -624.000; -646.000
428.619;  -43.725; -186.000; -117.000
428.743;   10.650;   65.000;  132.000
428.868;  -58.150; -732.000; -643.000
428.992;  644.825; -219.000; -326.000
429.116;  250.250; -329.000; -357.000
429.240;  143.775;  419.000;  426.000
429.365;  -32.100; -454.000; -574.000
429.489;  -44.200; -638.000; -647.000
429.613;   29.500; -236.000; -177.000
429.737;   72.175; -563.000; -432.000
429.861;  389.250; -247.000; -133.000
429.985; 7891.725; -425.000; -305.000
430.109; 9828.325; -770.000; -908.000
430.234; 1194.450;   76.000;  -50.000
430.358;  142.050; -250.000; -160.000
430.482;  -22.350; -672.000; -564.000
430.606;  -65.150; -655.000; -375.000
430.730;  -54.525; -437.000; -388.000
430.854;  -59.075; -909.000; -835.000
430.978;  -99.675; -795.000; -764.000
431.102;  -79.425; -499.000; -422.000
431.226; -119.175; -874.000; -815.000
431.350;   13.725;  345.000;  422.000
431.474;  -85.850; -661.000; -373.000
431.597; -170.950;-1060.000; -848.000
431.721;  -78.850; -276.000; -267.000
431.845; -120.300; -704.000; -472.000
431.969;  -80.725; -304.000; -349.000
432.093;  -84.825; -395.000; -317.000
432.217;   -6.300;   32.000;   82.000
432.341;  -78.375; -523.000; -518.000
432.464;    1.075;   96.000;   40.000
432.588;  -17.100; -401.000; -329.000
432.712;   37.825;  -52.000;  -52.000
432.836;   55.350;  213.000;  263.000
432.959;   26.100; -372.000; -311.000
433.083;  169.275;   11.000;    2.000
433.207;  569.875;  285.000;  930.000
433.330; 7452.850; -391.000; -200.000
433.454;10291.575; -654.000; -638.000
433.578; 5677.725;  583.000;  278.000
433.701; 1223.525; -623.000; -675.000
433.825;  153.900; -292.000; -299.000
433.949;   69.300;   28.000;  -72.000
434.072;  -18.300; -410.000; -323.000
434.196;  -11.775; -309.000; -117.000
434.319; 3548.025;25482.000;25124.000
434.443;  869.025; -656.000; -603.000
434.566; 3970.600;  281.000;   62.000
434.690;  834.775; -637.000; -383.000
434.813;  131.775; -251.000; -173.000
434.937;  -29.500; -569.000; -696.000
435.060;  -75.600; -423.000; -332.000
435.184;   17.850; -492.000; -217.000
435.307;   35.750;  159.000;  102.000
435.431;  -31.350;  -40.000;   24.000
435.554;  -82.175; -399.000; -240.000
435.677;  -90.500; -350.000; -258.000
435.801;  -44.750;  -25.000;   49.000
435.924;  -36.725;    1.000;  -67.000
436.048; -164.350;-1019.000; -732.000
436.171;  -63.600; -240.000;  -66.000
436.294;  -20.650; -248.000; -229.000
436.417;  208.375; -963.000; -849.000
436.541;  -42.775; -814.000; -840.000
436.664;  -45.975; -242.000; -316.000
436.787;  -42.675;   13.000;  113.000
436.910; -103.475; -792.000; -422.000
437.034;    0.525;  142.000;  143.000
437.157;    7.375;  -11.000;    0.000
437.280;  -79.925; -392.000; -292.000
437.403; -128.050; -982.000; -869.000
437.526;  100.150; -903.000; -865.000
437.649;  779.550; -505.000; -332.000
437.772;   73.925; -692.000; -540.000
437.896;   64.775;  700.000;  544.000
438.019; -110.400; -758.000; -503.000
438.142;  -93.650; -596.000; -506.000
438.265; -124.825; -639.000; -670.000
438.388;   71.450; -520.000; -410.000
438.511;  -53.650; -597.000; -394.000
438.634;  -70.750; -247.000; -125.000
438.757; -146.950; -693.000; -619.000
438.880;  -43.950;  -34.000;  -57.000
439.003;  -96.875; -417.000; -437.000
439.126;  -78.175; -287.000; -167.000
439.248;  -75.975;  -98.000; -139.000
439.371;  -43.025;    9.000;  -53.000
439.494;    1.350;  510.000;  439.000
439.617;  -57.850;   65.000;  -88.000
439.740; -176.650; -968.000; -816.000
439.863; -143.150; -755.000; -595.000
439.986; -114.800; -476.000; -431.000
440.108;  -38.975; -161.000; -112.000
440.231; -164.625; -950.000; -836.000
440.354;  -67.725;  -64.000; -150.000
440.477; -112.475; -566.000; -542.000
440.599;  -62.925; -200.000; -225.000
440.722; -129.100; -709.000; -586.000
440.845;   56.625;  751.000;  928.000
440.968; -120.700; -415.000; -311.000
441.090;  -70.550; -199.000;  -33.000
441.213; -162.550;-1021.000; -825.000
441.336;  -52.875; -159.000;   -5.000
441.458;  -91.350; -549.000; -396.000
441.581; -115.050; -628.000; -629.000
441.703;  -83.175; -152.000;   13.000
441.826;  -99.925; -557.000; -400.000
441.948;  -63.025;   56.000;   51.000
442.071;   14.550;  555.000;  424.000
442.193; -125.025; -531.000; -485.000
442.316;   12.125;  152.000;   97.000
442.438;   77.675; -233.000;  -10.000
442.561;   65.750;  272.000;  262.000
442.683;  129.200; -809.000; -522.000
442.806;  419.825;   -8.000;   74.000
442.928;  -90.375; -859.000; -604.000
443.051;  -79.975; -577.000; -373.000
443.173;  -93.250; -341.000; -339.000
443.295;  -99.700; -263.000; -371.000
443.418;  -91.475; -321.000;  -29.000
443.540;  -33.050; -106.000;   -4.000
443.662; -137.025; -563.000; -465.000
443.785;   -7.200;  335.000;  199.000
443.907;  -97.425; -362.000; -208.000
444.029; -119.475; -767.000; -494.000
444.152; -147.650; -644.000; -554.000
444.274;  -41.900;  -18.000;  -24.000
444.396; -129.500; -461.000; -221.000
444.518; -132.925; -691.000; -454.000
444.640; -111.575; -268.000; -111.000
444.763;  -29.225;  388.000;  249.000
444.885; -119.450; -432.000; -392.000
445.007;  -49.550;   35.000;   86.000
445.129; -126.575; -610.000; -515.000
445.251; -103.775; -372.000; -439.000
445.373; -143.475; -537.000; -386.000
445.495;    2.500;  242.000;  350.000
445.617;   33.425;  853.000;  753.000
445.739;  -86.875; -215.000;  -97.000
445.861;  -64.275; -245.000; -112.000
445.984;  -66.175; -267.000; -101.000
446.105;   15.200; -418.000; -251.000
446.227;  194.100; -176.000;  -19.000
446.349;  -69.825; -358.000; -249.000
446.471; -115.875; -615.000; -448.000
446.593;  -90.475; -316.000;   19.000
446.715;  -41.550;  -67.000;   41.000
446.837;   48.400;  697.000;  832.000
446.959; -108.125; -457.000; -478.000
447.081; -137.825; -628.000; -518.000
447.203;   43.125;  862.000;  834.000
447.325;  -96.475; -270.000;   42.000
447.446;   -6.325;  286.000;  530.000
447.568; -156.875; -921.000; -803.000
447.690;  -90.425; -236.000; -245.000
447.812; -153.550; -798.000; -519.000
447.933;  -30.025;  155.000;  127.000
448.055;  -66.275; -306.000; -261.000
448.177;   52.625;   31.000;   79.000
448.299;  -66.150; -935.000; -727.000
448.420;  -12.600;  -25.000;  159.000
448.542;  -52.425;   -3.000;   33.000
448.664;  -28.550;  109.000;  322.000
448.785;  -32.075;  265.000;   83.000
448.907;  -95.575; -614.000; -353.000
449.028; -105.100; -771.000; -471.000
449.150;   31.325;  492.000;  589.000
449.272; -189.725;-1044.000; -913.000
449.393;   28.475;  612.000;  694.000
449.515; -144.375; -634.000; -581.000
449.636;  -69.700; -264.000; -155.000
449.758;   49.675;  763.000;  622.000
449.879; -100.725; -498.000; -396.000
450.001;  -77.800; -149.000;  -49.000
450.122;  -42.400;  -95.000;  162.000
450.244;  -21.450;   37.000;  364.000
450.365;  -72.100; -495.000; -301.000
450.486;  -25.975;   80.000;  268.000
450.608;   43.350;  393.000;  326.000
450.729;   97.650;  578.000;  645.000
450.850;   88.125; -574.000; -466.000
450.972; 1188.775; -552.000; -389.000
451.093; 7730.875;  190.000;  588.000
451.214; 3872.100; -516.000; -337.000
451.336;  644.850;  773.000;  579.000
451.457;   94.325;  264.000;  393.000
451.578;  -22.500; -118.000;  -74.000
451.699; -102.950; -546.000; -540.000
451.821;  -53.000; -284.000;  -50.000
451.942;    7.200;  278.000;  285.000
452.063;   53.875;  228.000;  419.000
452.184;  785.550;  -54.000;  -49.000
452.305; 1683.875;  103.000;  170.000
452.427;  313.150; -549.000; -301.000
452.548;   -3.600;   23.000;   79.000
452.669;  -54.750; -257.000;  -89.000
452.790;  -53.425;    3.000;  -18.000
452.911;  -27.775;  195.000;  259.000
453.032;  -80.900; -289.000;  -60.000
453.153;  -59.825;  -29.000;   81.000
453.274;   43.350;  737.000;  868.000
453.395;  -78.150;  -51.000;  175.000
453.516;   98.000; 1317.000; 1388.000
453.637;  -97.075; -205.000; -150.000
453.758;  -54.225;   15.000;   69.000
453.879; -118.275; -462.000; -250.000
454.000;   55.475; 1086.000;  948.000
454.121; -133.200; -554.000; -326.000
454.242; -124.500; -599.000; -383.000
454.362;  -59.350;  -99.000;  114.000
454.483;   16.475; -309.000; -229.000
454.604;   40.850;  512.000;  580.000
454.725; -124.575; -627.000; -555.000
454.846; -126.750; -474.000; -406.000
454.967;  -24.225;  230.000;  539.000
455.087;  -49.625;  179.000;  153.000
455.208;   11.350;  554.000;  856.000
455.329;  -62.875;  -22.000;   82.000
455.450;   43.425;  473.000;  633.000
455.570;  -63.325; -234.000; -211.000
455.691;  -39.350;  201.000;  407.000
455.812; -109.800; -270.000;  -92.000
455.932;  -78.375;  107.000;  -97.000
456.053;  -80.000;   36.000;   24.000
456.173; -108.475; -433.000; -355.000
456.294; -119.725; -476.000; -303.000
456.415;  -68.875;  -73.000;   70.000
456.535;  -53.025;  297.000;  273.000
456.656;  -45.000;  132.000;  240.000
456.776;  -75.525;    3.000;  298.000
456.897;  -10.525;  308.000;  513.000
457.017;  -75.975; -153.000;   -3.000
457.138; -101.475; -402.000; -249.000
457.258;  -49.050;  263.000;  224.000
457.379;   -7.175;  509.000;  521.000
457.499;  -29.925;  443.000;  432.000
457.620; -119.475; -407.000; -231.000
457.740; -105.450; -132.000;  -11.000
457.860;  -57.900;   87.000;   44.000
457.981;  -42.500;  132.000;  124.000
458.101;  -72.300;  -89.000;   40.000
458.221;  -23.575;  336.000;  402.000
458.342;  -46.225;   -4.000;  -37.000
458.462;   27.975;  617.000;  352.000
458.582;   14.750; -302.000; -294.000
458.703;   43.500;  303.000;  154.000
458.823;   15.375;   22.000;  163.000
458.943;   45.050;  341.000;  467.000
459.063;   11.975; 1124.000;  192.000
459.183;  -22.400;  328.000;  313.000
459.304;    8.725;  315.000;  517.000
459.424;  -44.800; -246.000;  -89.000
459.544;  454.450;  388.000;  764.000
459.664; 1265.025;  499.000;  506.000
459.784;  494.100; 1004.000; 1175.000
459.904;   86.375;  867.000;  744.000
460.024;   63.950;  867.000;  684.000
460.144;  -17.050;  449.000;  554.000
460.264;   -5.175;  515.000;  327.000
460.385;  -87.525; -145.000; -119.000
460.505;   33.375;  905.000;  858.000
460.625; -100.275;  -17.000;  -68.000
460.745;   -6.150;  396.000;  541.000
460.864;  -37.475;  153.000;  469.000
460.984;   33.225;  499.000;  573.000
461.104;  153.025; 1656.000; 1775.000
461.224;    5.425;  657.000;  650.000
461.344;  -25.325;  431.000;  360.000
461.464;  -39.400;  258.000;  513.000
461.584;  -36.900;  283.000;  466.000
461.704;  -64.675;   58.000;  108.000
461.824;  -62.175;  238.000;  259.000
461.943;  -37.975;  191.000;  130.000
462.063;  -71.525;    2.000;  324.000
462.183;   23.500;  639.000;  717.000
462.303;   89.100; 1678.000; 1230.000
462.422;   30.650;  781.000;  840.000
462.542;  -38.325;  271.000;  391.000
462.662;   36.375;  353.000;  380.000
462.782;  325.950;  833.000;  572.000
462.901;  728.150;  545.000;  717.000
463.021;  378.875; 1702.000; 1638.000
463.141;   11.825;  337.000;  770.000
463.260;   -3.100;  614.000;  474.000
463.380;   -1.425;  902.000;  884.000
463.499;  -35.100;  342.000;  332.000
463.619;  -31.300;  581.000;  559.000
463.738;  115.475; 1644.000;  903.000
463.858;   -4.650;  657.000;  811.000
463.978;  -34.200;  542.000;  396.000
464.097;   54.575;  921.000; 1114.000
464.217;  122.575; 1196.000; 1143.000
464.336;  138.800; 1068.000; 1130.000
464.455;  -32.175;  328.000;  659.000
464.575;   22.525;  597.000;  602.000
464.694;  129.300; 1204.000; 1179.000
464.814;  145.925; 1190.000; 1138.000
464.933;   81.325; 1095.000; 1027.000
465.052;   94.225; 1412.000; 1054.000
465.172;   65.075;  922.000;  799.000
465.291;  113.375; 1376.000; 1320.000
465.410;    0.500;  462.000;  735.000
465.530;   70.025; 1355.000; 1310.000
465.649;   44.450; 1209.000; 1273.000
465.768;  137.775; 1673.000; 1508.000
465.888;   69.150;  941.000; 1174.000
466.007;   96.250; 1335.000; 1440.000
466.126;  -10.075;  721.000;  641.000
466.245;   45.400; 1176.000; 1187.000
466.364;   14.450;  950.000; 1060.000
466.484;   55.250; 1024.000; 1213.000
466.603;   33.550; 1101.000; 1222.000
466.722;   99.150; 1490.000; 1769.000
466.841;   61.025; 1151.000; 1401.000
466.960;   29.600; 1069.000;  972.000
467.079;  129.300; 1971.000; 1786.000
467.198;   41.250; 1238.000; 1181.000
467.317;   70.700; 1768.000; 1162.000
467.436;   74.850; 1709.000; 1261.000
467.555;  120.550; 1796.000; 1746.000
467.674;   52.825; 1227.000; 1329.000
467.793;   50.050; 1376.000; 1374.000
467.912;   80.100; 1658.000; 1539.000
468.031;  137.725; 2038.000; 1930.000
468.150;  125.050; 1842.000; 1837.000
468.269;  184.075; 2313.000; 2090.000
468.388;  190.375; 2168.000; 2339.000
468.507;  238.075; 2884.000; 2903.000
468.626;  278.600; 2555.000; 2541.000
468.744;  125.250; 2018.000; 2174.000
468.863;  192.000; 2312.000; 2523.000
468.982;  101.500; 1503.000; 1555.000
469.101;  215.525; 2788.000; 2692.000
469.220;  143.650; 2333.000; 2176.000
469.338;  262.150; 2935.000; 3051.000
469.457;  198.075; 2719.000; 2545.000
469.576;  335.950; 3953.000; 3784.000
469.695;  245.000; 2877.000; 3066.000
469.813;  407.275; 4148.000; 4192.000
469.932;  404.800; 4255.000; 4485.000
470.051;  443.550; 4075.000; 4161.000
470.169; 1028.950; 4470.000; 4338.000
470.288; 1989.075; 4700.000; 4809.000
470.406; 1165.150; 5059.000; 5194.000
470.525;  645.000; 6101.000; 5787.000
470.644;  659.900; 6847.000; 6794.000
470.762;  811.100; 8397.000; 7873.000
470.881;  926.125; 8651.000; 8464.000
470.999; 1078.650; 9685.000; 9151.000
471.118; 1133.525;11174.000;10711.000

