
Integration time [ms]: 100.000
Averaging Nr. [scans]: 40
Smoothing Nr. [pixels]: 0
Data measured with spectrometer [name]: 2101012U2
Wave   ;Sample   ;Dark     ;Reference
[nm]   ;[counts] ;[counts] ;[counts] 

197.733;   70.375;  516.000;  404.000
197.879;  -86.475; -610.000; -634.000
198.025;  -46.700; -475.000; -420.000
198.171;  -75.475; -602.000; -612.000
198.317;  -33.725; -401.000; -316.000
198.463;  -67.775; -655.000; -404.000
198.609;   21.175;  181.000; -137.000
198.755;  -77.125; -644.000; -410.000
198.901;  -50.300; -505.000; -424.000
199.047;  -73.450; -615.000; -488.000
199.193;  -37.475; -230.000; -468.000
199.339;  -38.375; -222.000; -369.000
199.485;   40.550;  330.000;  271.000
199.631;   15.000;  227.000;  310.000
199.777;  -40.175; -466.000; -398.000
199.923;  -68.850; -610.000; -424.000
200.069;   15.225; -141.000;  -58.000
200.215;   50.700;  128.000;  453.000
200.361;   47.200;  243.000;  477.000
200.507;  -63.150; -600.000; -373.000
200.653;  -23.050; -371.000; -194.000
200.798;  -37.525; -215.000; -125.000
200.944;  -13.100; -146.000;  -41.000
201.090;   38.600;   61.000;  222.000
201.236;    5.675; -116.000; -158.000
201.382;  125.925;  874.000;  903.000
201.528;   10.350;  -58.000;  -48.000
201.674;  -41.350; -386.000; -293.000
201.819;  -57.250; -540.000; -439.000
201.965;  -96.025; -699.000; -447.000
202.111;  -20.025; -273.000; -226.000
202.257;  -46.850; -250.000; -238.000
202.402;   15.250;   13.000;  -36.000
202.548;  -35.500; -169.000; -116.000
202.694;   88.850;  410.000; -183.000
202.840;  -79.550; -603.000; -531.000
202.985;  -67.300; -681.000; -639.000
203.131; -105.375; -832.000; -666.000
203.277;   -4.475; -199.000; -262.000
203.423;  -59.900; -434.000; -520.000
203.568;  -38.200; -462.000; -237.000
203.714;  -74.150; -535.000; -542.000
203.860;  -83.400; -682.000; -641.000
204.005;   -2.550;  112.000;  167.000
204.151;   85.000;  561.000;  556.000
204.296;  -54.925; -354.000; -221.000
204.442;  -75.750; -600.000; -547.000
204.588;  -66.050; -592.000; -579.000
204.733;   22.100;  178.000;  168.000
204.879; -131.200;-1018.000; -822.000
205.025;   -0.025;  -99.000;  126.000
205.170;   -2.500;  -17.000;   94.000
205.316;   81.225;  438.000;  661.000
205.461;  -85.825; -698.000; -554.000
205.607;   76.275;  609.000;  665.000
205.752;  -87.250; -626.000; -551.000
205.898;  -46.300; -501.000; -391.000
206.043;  -78.275; -578.000; -506.000
206.189;  -49.400; -243.000; -285.000
206.334;   76.650;  554.000;  606.000
206.480;   86.325;  409.000;  239.000
206.625;  -88.625; -529.000; -552.000
206.771;  -34.675; -451.000; -373.000
206.916;  -25.250; -210.000; -537.000
207.062;  -59.400; -545.000; -591.000
207.207;  -62.425; -546.000; -443.000
207.353;   49.700;  185.000;  460.000
207.498;   15.200;  196.000;   85.000
207.643;  -50.950; -501.000; -370.000
207.789; -129.775;-1069.000; -910.000
207.934;  -93.725; -665.000; -713.000
208.080;  -29.025; -154.000;   66.000
208.225;   -6.475;  -22.000;  -57.000
208.370;  -88.775; -727.000; -619.000
208.516;  -70.525; -741.000; -487.000
208.661;  -46.875; -127.000;  -69.000
208.806;  -16.975; -165.000; -171.000
208.952; -125.750;-1044.000; -731.000
209.097;   85.025;  378.000;  349.000
209.242;  -50.525; -307.000; -382.000
209.387;   68.050;  392.000;  350.000
209.533;  -57.825; -321.000; -350.000
209.678;   89.900;  472.000;  543.000
209.823;  -55.400; -408.000; -310.000
209.969; -102.625; -860.000; -757.000
210.114;  -95.350; -907.000; -719.000
210.259; -103.725; -939.000; -889.000
210.404;  -10.175; -171.000;  103.000
210.549;    8.350;  108.000;    3.000
210.695;  -35.075;   -3.000;  -95.000
210.840;   26.925;   94.000;   67.000
210.985;  -61.150; -484.000; -303.000
211.130;   74.725;  268.000;  406.000
211.275;    6.550;  207.000;  199.000
211.420;  -49.150; -300.000; -289.000
211.566;  -75.075; -536.000; -489.000
211.711;   28.450;  218.000;  157.000
211.856;  -67.375; -545.000; -519.000
212.001;   11.700;  151.000;   44.000
212.146;   21.950;  153.000;   49.000
212.291;  -17.600; -210.000; -186.000
212.436;  -39.325; -280.000;   -6.000
212.581;  -66.000; -685.000; -653.000
212.726;  -74.375; -487.000; -538.000
212.871;  -37.775; -552.000; -217.000
213.016; -148.525;-1172.000;-1029.000
213.161;   70.200;  406.000;  291.000
213.306;  -71.275; -435.000; -577.000
213.451;  -85.125; -778.000; -689.000
213.596;  -56.725; -455.000; -347.000
213.741;  -60.900; -448.000; -538.000
213.886;  -77.625; -498.000; -517.000
214.031;  -31.550; -294.000; -124.000
214.176;  -51.925; -408.000; -341.000
214.321;  -18.650; -296.000; -157.000
214.466;  -31.100; -163.000;  -43.000
214.611;    3.100;  -61.000;  -10.000
214.756; -126.425; -948.000; -858.000
214.901;  -11.700; -388.000; -226.000
215.046; -127.200; -797.000; -825.000
215.191;   16.275;  128.000;   35.000
215.336;  -16.525; -157.000;  -19.000
215.480;  -51.125; -684.000; -505.000
215.625;  -15.050; -175.000;  -19.000
215.770;  -92.000; -757.000; -662.000
215.915;  -10.100;   -5.000;  -97.000
216.060;   -0.100; -113.000;  -21.000
216.205; -114.350; -731.000; -779.000
216.349;  -62.175; -470.000; -533.000
216.494; -133.975; -939.000; -867.000
216.639; -108.450; -823.000; -888.000
216.784; -102.050; -577.000; -525.000
216.929;   53.575;  392.000;  281.000
217.073;  -26.075; -244.000;  -31.000
217.218;    3.425;   78.000;  -47.000
217.363;  -83.650; -656.000; -618.000
217.507;  -74.575; -623.000; -588.000
217.652; -124.175; -845.000; -874.000
217.797;  -80.175; -708.000; -659.000
217.942; -112.350; -856.000; -720.000
218.086;   72.150;  608.000;  539.000
218.231;  -29.275; -174.000;  -26.000
218.376;  -38.850; -337.000; -229.000
218.520;    3.200;  -41.000;   96.000
218.665;  -24.825; -338.000; -204.000
218.810;  -51.950; -275.000; -233.000
218.954;   23.775;  201.000;   35.000
219.099; -127.100; -713.000; -963.000
219.243;  -69.350; -589.000; -554.000
219.388;  -35.025; -264.000; -136.000
219.532;   -3.325; -116.000; -116.000
219.677;  -76.600; -564.000; -521.000
219.822;    7.900;   33.000;   89.000
219.966;    4.800;   17.000;  -99.000
220.111;  -29.200; -328.000;  -40.000
220.255; -104.800; -797.000; -750.000
220.400;  -18.225; -180.000; -146.000
220.544;  -69.800; -516.000; -450.000
220.689;  -53.300; -422.000; -451.000
220.833;  -28.225; -123.000;  -58.000
220.978;  -43.975; -393.000; -563.000
221.122;   25.950;  319.000;  307.000
221.267; -118.025; -906.000; -837.000
221.411;  -76.525; -478.000; -394.000
221.555;    0.750; -104.000;  -23.000
221.700;  -50.575; -329.000; -222.000
221.844;   36.400;  255.000;  272.000
221.989;  -64.525; -328.000; -311.000
222.133;  -36.825; -289.000; -307.000
222.277;  -25.350;    5.000;   78.000
222.422;   12.350;  227.000;  113.000
222.566;  -41.025; -381.000; -214.000
222.711;  -40.275; -414.000; -479.000
222.855;  -83.725; -643.000; -586.000
222.999;  -81.675; -642.000; -717.000
223.144;  -30.600; -195.000; -194.000
223.288;   51.550;  423.000;  251.000
223.432;   16.125;  184.000;  230.000
223.576;   16.925;  152.000;  -21.000
223.721;   43.075;  364.000;  273.000
223.865;  -56.500; -472.000; -475.000
224.009;  229.875; 1673.000; 1631.000
224.153;  -75.175; -660.000; -671.000
224.298;  -83.975; -531.000; -489.000
224.442;  -22.850;  -74.000;  -33.000
224.586;   -6.975; -169.000; -106.000
224.730;  -98.300; -858.000; -670.000
224.875; -114.975; -739.000; -688.000
225.019;   24.075;  102.000;  188.000
225.163;   58.900;  208.000;  341.000
225.307;   18.900;   97.000;  -91.000
225.451;   42.775;  360.000;  481.000
225.595;   33.525;  264.000;  176.000
225.739;  -34.475; -170.000;  -94.000
225.884;   15.975;   86.000;    5.000
226.028; -106.650; -760.000; -626.000
226.172;  -38.050; -260.000; -273.000
226.316; -123.850; -941.000; -902.000
226.460;  -58.475; -645.000; -493.000
226.604;  -54.375; -406.000; -400.000
226.748; -108.825; -836.000; -733.000
226.892;  -36.800; -227.000; -181.000
227.036;  -47.925; -537.000; -447.000
227.180;  -60.425; -551.000; -375.000
227.324;  -72.650; -561.000; -580.000
227.468; -116.850; -819.000; -717.000
227.612;    1.975;  242.000;  -28.000
227.756; -103.925; -845.000; -698.000
227.900;   56.175;  342.000;  441.000
228.044;  -62.500; -509.000; -290.000
228.188;   54.200;  448.000;  568.000
228.332;  -90.925; -546.000; -472.000
228.476;  -38.775; -223.000; -149.000
228.620;  -30.475; -210.000; -150.000
228.764;   64.475;  431.000;  349.000
228.908;  -32.100; -155.000;   30.000
229.052;  -63.100; -615.000; -528.000
229.195;  -19.950; -172.000;   13.000
229.339;  -24.125; -235.000; -305.000
229.483;  -27.900;    5.000; -162.000
229.627;    2.475; -156.000;  139.000
229.771;  -37.900; -218.000; -294.000
229.915;    2.825;  230.000;   79.000
230.059; -105.000; -648.000; -663.000
230.202;  -28.500; -370.000; -317.000
230.346;  -14.875; -107.000;  107.000
230.490;  -66.250; -489.000; -521.000
230.634; -107.200; -736.000; -553.000
230.777;   74.700;  478.000;  509.000
230.921;  -54.100; -450.000; -359.000
231.065;  -34.175; -246.000; -286.000
231.209;   27.750;  261.000;  265.000
231.352;    9.025;   54.000;   40.000
231.496;    6.975;  568.000;  188.000
231.640;  -80.475; -693.000; -621.000
231.783;   49.650;  546.000;  525.000
231.927;  -47.200; -294.000; -365.000
232.071; -125.250; -962.000; -736.000
232.214; -115.025; -980.000; -764.000
232.358; -103.850; -683.000; -599.000
232.502;    3.475;  -19.000;    7.000
232.645; -143.025;-1090.000; -927.000
232.789;  -18.225; -257.000; -218.000
232.933;  -39.800; -407.000; -224.000
233.076; -114.675;-1038.000; -897.000
233.220; -120.600; -752.000; -777.000
233.363;  -76.000; -669.000; -477.000
233.507;   48.025;  371.000;  129.000
233.650;  -88.000; -764.000; -834.000
233.794;   38.475;  438.000;  461.000
233.938;  -54.125; -530.000; -362.000
234.081;  -19.425;  -93.000;   31.000
234.225;  -61.075; -631.000; -539.000
234.368; -115.225; -773.000; -723.000
234.512;  -47.775; -385.000; -299.000
234.655; -105.325; -582.000; -555.000
234.798;  -81.625; -493.000; -466.000
234.942; -126.350; -884.000;-1002.000
235.085;  -83.775; -651.000; -443.000
235.229;  -75.300; -405.000; -410.000
235.372;  -43.775; -247.000; -191.000
235.516;  -61.975; -397.000; -321.000
235.659;   30.225;   92.000;  121.000
235.802;  -11.025;  -38.000;  -22.000
235.946;   36.875;  335.000;  215.000
236.089;   18.450;  126.000;  250.000
236.233;   65.000;  275.000;  298.000
236.376;  -49.250; -235.000; -378.000
236.519;  -43.650; -297.000; -319.000
236.663;  -17.975; -215.000; -117.000
236.806; -135.150;-1029.000; -999.000
236.949;   53.350;  543.000;  431.000
237.092;   65.350;  412.000;  391.000
237.236;  -89.350; -589.000; -502.000
237.379;   69.050;  352.000;  428.000
237.522; -115.075; -879.000; -768.000
237.666;   -5.100; -271.000;   18.000
237.809; -130.125; -851.000; -823.000
237.952;   33.050;  469.000;  271.000
238.095;  -78.700; -447.000; -442.000
238.238;   85.100;  688.000;  700.000
238.382;   -1.350;  166.000;  103.000
238.525;  -67.075; -598.000; -511.000
238.668; -147.225;-1060.000; -985.000
238.811;  -85.475; -638.000; -643.000
238.954;  -64.275; -483.000; -334.000
239.097;   94.100;  617.000;  664.000
239.241;   22.950;  394.000;  326.000
239.384;  -48.175; -254.000; -214.000
239.527;  -69.250; -424.000; -224.000
239.670; -141.500; -994.000;-1091.000
239.813; -118.100; -696.000; -658.000
239.956;   72.750;  579.000;  473.000
240.099; -118.425; -778.000; -725.000
240.242;   50.425;  428.000;  432.000
240.385;   37.475;  466.000;  450.000
240.528;  -75.050; -706.000; -473.000
240.671;   11.150;  189.000;  134.000
240.814;  -51.150; -441.000; -158.000
240.957; -113.400; -767.000; -578.000
241.100;  -81.325; -779.000; -755.000
241.243; -132.075;-1234.000; -893.000
241.386;  -61.325; -508.000; -379.000
241.529;  -94.575; -735.000; -547.000
241.672;  -66.075; -566.000; -495.000
241.815; -121.150; -832.000; -808.000
241.958;  -25.425; -125.000; -182.000
242.101;  -80.025; -545.000; -390.000
242.244;  -37.025; -270.000; -325.000
242.387;  -32.050; -304.000; -246.000
242.530;   63.000;  470.000;  134.000
242.673;  -52.425; -381.000; -309.000
242.815; -121.500; -925.000; -899.000
242.958;  -80.400; -482.000; -381.000
243.101;    1.100;  132.000;  187.000
243.244;  -87.400; -564.000; -521.000
243.387;  -43.825; -313.000; -316.000
243.530;  -93.400; -657.000; -674.000
243.672;   -1.575;   43.000;  -92.000
243.815;  -49.850; -355.000; -283.000
243.958;   13.075;   98.000;  -26.000
244.101;    3.175;   59.000;  -16.000
244.243;  -12.525;  -47.000;  101.000
244.386; -110.150; -761.000; -630.000
244.529;  -32.475; -132.000; -139.000
244.672; -158.575;-1154.000; -951.000
244.814;  -88.650; -621.000; -794.000
244.957;  -70.000; -380.000; -304.000
245.100;  -82.300; -489.000; -489.000
245.242;  -64.775; -387.000; -374.000
245.385;   -6.575;  -59.000;  -39.000
245.528; -121.650; -871.000; -705.000
245.670;   87.925;  612.000;  634.000
245.813;  -89.675; -599.000; -547.000
245.956;  -24.550; -324.000; -275.000
246.098;  -82.025; -508.000; -650.000
246.241;   11.375;  194.000;   48.000
246.383;  -15.725; -119.000;  -73.000
246.526;  -68.025; -454.000; -525.000
246.669; -122.525; -889.000; -780.000
246.811;   24.525;  172.000;   -1.000
246.954;  -72.950; -512.000; -426.000
247.096;  -11.225;  -84.000;   -6.000
247.239;  -82.475; -482.000; -445.000
247.381;  -64.075; -647.000; -488.000
247.524;   89.850;  645.000;  679.000
247.666;  -10.800;   58.000;   11.000
247.809; -118.775; -887.000; -691.000
247.951;    0.050;  -75.000;  138.000
248.094;   15.150;  432.000;  308.000
248.236; -155.625;-1262.000;-1238.000
248.378;   -2.500; -356.000;  -81.000
248.521;  -30.575; -334.000; -337.000
248.663;  -47.525; -236.000; -267.000
248.806;  -18.450; -300.000; -266.000
248.948;  -97.875; -886.000; -763.000
249.090;  -44.000; -428.000; -398.000
249.233;  -52.275; -344.000; -381.000
249.375;  -67.850; -474.000; -451.000
249.518;  -19.250;  -83.000; -133.000
249.660;   -2.800; -103.000;    3.000
249.802; -173.925;-1303.000;-1189.000
249.945;  -80.000; -612.000; -540.000
250.087; -114.450; -834.000; -768.000
250.229;  -44.750; -362.000; -480.000
250.371;  -86.125; -494.000; -439.000
250.514;  -45.925; -310.000; -244.000
250.656;  -70.150;   69.000;  102.000
250.798; -112.225; -849.000; -800.000
250.940;  -68.675; -322.000; -322.000
251.083;  -30.500; -335.000; -111.000
251.225;   59.525;  338.000;  310.000
251.367;  -43.000; -274.000; -373.000
251.509;  -41.675; -265.000; -210.000
251.651;  -98.725; -731.000; -671.000
251.794;   70.525;  538.000;  632.000
251.936; -108.800; -821.000; -747.000
252.078;  -94.875; -540.000; -461.000
252.220;  -64.275; -645.000; -477.000
252.362;   76.050;  344.000;  462.000
252.504;  -63.975; -677.000; -584.000
252.646; -123.475; -875.000; -722.000
252.788;   -2.075;   14.000; -128.000
252.931;  -44.350; -257.000; -253.000
253.073;  -45.000; -376.000; -317.000
253.215;   -9.875;  141.000;  122.000
253.357;   -9.075;   82.000; -153.000
253.499;  -61.100; -374.000; -234.000
253.641;  -82.525; -749.000; -594.000
253.783; -109.275; -609.000; -527.000
253.925;  -86.800; -586.000; -591.000
254.067; -130.675; -744.000; -667.000
254.209;  -31.550; -391.000; -259.000
254.351; -139.625; -865.000; -883.000
254.493;  -65.075; -441.000; -417.000
254.635; -131.550; -936.000; -818.000
254.777; -103.400; -752.000; -687.000
254.918;  -70.550; -512.000; -430.000
255.060;  -61.275; -551.000; -395.000
255.202;  -64.375; -473.000; -261.000
255.344;  -69.450; -658.000; -455.000
255.486;  -86.375; -471.000; -406.000
255.628; -114.650; -780.000; -781.000
255.770; -100.375; -676.000; -536.000
255.912;  -71.975; -559.000; -468.000
256.053;  -98.250; -730.000; -508.000
256.195;  153.675; 1008.000;  903.000
256.337; -100.375; -861.000; -595.000
256.479;   66.975;  532.000;  416.000
256.621;  -59.825; -394.000; -212.000
256.762; -105.150; -789.000; -742.000
256.904;   36.125;  485.000;  487.000
257.046;  -43.350; -381.000; -271.000
257.188;  -59.575; -351.000; -264.000
257.329;  -73.575; -525.000; -464.000
257.471; -125.600; -939.000; -807.000
257.613;  -63.100; -584.000; -498.000
257.755; -151.575;-1073.000; -982.000
257.896;   20.725;  286.000;  392.000
258.038;  -65.100; -403.000; -352.000
258.180;  -64.275; -354.000; -279.000
258.321;  -86.650; -581.000; -457.000
258.463;  -14.800;  -71.000;  133.000
258.605; -105.125; -562.000; -570.000
258.746; -104.875; -886.000; -772.000
258.888; -145.250;-1026.000;-1020.000
259.029;   11.950;  121.000;   -8.000
259.171;  -93.975; -614.000; -550.000
259.313;    0.050;  -49.000;  -47.000
259.454;  -84.975; -536.000; -414.000
259.596;  -56.675; -483.000; -390.000
259.737;  -86.375; -590.000; -474.000
259.879;   39.025;  217.000;  311.000
260.020;   81.925;  901.000;  636.000
260.162;  -15.925; -146.000; -253.000
260.303; -127.500; -768.000; -687.000
260.445;  -85.100; -609.000; -613.000
260.586;   34.975;  392.000;  157.000
260.728;  -51.525; -360.000; -248.000
260.869; -108.625; -350.000; -343.000
261.011;   84.875;  706.000;  537.000
261.152;  -62.525; -479.000; -319.000
261.293;  -82.750; -576.000; -595.000
261.435;  -41.300; -219.000; -184.000
261.576;  -42.600; -455.000; -325.000
261.718;   28.425;  420.000;  470.000
261.859; -118.575; -940.000; -949.000
262.000; -131.675; -951.000;-1016.000
262.142;  -24.475;  -52.000;  -60.000
262.283; -122.325; -808.000; -691.000
262.424;  -96.550; -666.000; -625.000
262.566; -168.500;-1161.000; -983.000
262.707; -117.050; -840.000; -830.000
262.848; -128.850; -769.000; -726.000
262.990;  -55.500; -362.000; -345.000
263.131;   76.725;  650.000;  681.000
263.272;  -12.400;  -61.000;  -41.000
263.413;  -82.400; -589.000; -561.000
263.555;  -72.825; -669.000; -143.000
263.696;  -94.025; -550.000; -641.000
263.837;  -62.725; -449.000; -551.000
263.978;   -2.250;   -5.000;  -77.000
264.119;  -38.900; -283.000; -264.000
264.261; -124.175; -847.000; -630.000
264.402;    0.125;   33.000;   40.000
264.543;  -71.900; -509.000; -524.000
264.684;   -7.725;   61.000;  -50.000
264.825;  -83.300; -816.000; -538.000
264.966;   -3.025;  -84.000;  -67.000
265.107; -111.050; -646.000; -670.000
265.248; -123.100; -825.000; -812.000
265.390;  -13.225;  152.000;   -9.000
265.531;  -21.075; -238.000; -107.000
265.672;  -93.150; -557.000; -630.000
265.813;   73.575;  563.000;  439.000
265.954; -140.625; -959.000; -940.000
266.095;  -16.900; -372.000; -322.000
266.236; -102.100; -686.000; -548.000
266.377;  -50.350; -243.000; -297.000
266.518;  -76.125; -619.000; -547.000
266.659;   36.850;  170.000;  268.000
266.800;   10.400;   83.000;   85.000
266.941;  -83.875; -487.000; -478.000
267.082;    4.100;  354.000;   99.000
267.223;  -46.275; -344.000; -273.000
267.364; -114.875; -892.000; -686.000
267.504;  -17.975;    3.000;  135.000
267.645;  -18.875;  160.000;   67.000
267.786;  -29.900; -147.000;  -86.000
267.927;  -75.850; -473.000; -379.000
268.068;  -18.475; -186.000;  -61.000
268.209;  -57.200; -175.000; -413.000
268.350;  -52.300; -388.000; -532.000
268.490;  -91.025; -648.000; -521.000
268.631;   36.225;  127.000;  225.000
268.772; -108.575; -874.000; -647.000
268.913;  -48.550; -328.000; -476.000
269.054;  -28.225; -117.000;   12.000
269.194;  -38.750; -418.000; -402.000
269.335; -162.150;-1137.000;-1074.000
269.476;  -27.975;   33.000;  -35.000
269.617;  -45.950; -347.000; -392.000
269.757; -101.750; -713.000; -646.000
269.898;  -98.975; -856.000; -613.000
270.039;  -61.400; -415.000; -405.000
270.180; -132.325; -952.000; -816.000
270.320;  -23.525; -190.000; -250.000
270.461;  -44.325; -277.000; -249.000
270.602;  -10.175; -186.000; -156.000
270.742; -129.225; -868.000; -943.000
270.883;  -61.375; -442.000; -390.000
271.023;  -73.550; -358.000; -357.000
271.164;  -66.000; -607.000; -528.000
271.305; -111.925; -666.000; -654.000
271.445;  -96.700; -722.000; -683.000
271.586;  -78.125; -462.000; -283.000
271.726;  -51.675; -397.000; -322.000
271.867;  -55.200; -594.000; -534.000
272.008;  170.575; -473.000; -285.000
272.148;  126.975;  462.000;  468.000
272.289;    8.325; -113.000; -181.000
272.429;    7.375;   19.000;  185.000
272.570;  -91.750; -633.000; -737.000
272.710; -109.975; -825.000; -775.000
272.851;  -28.500;  113.000; -130.000
272.991; -164.025;-1173.000;-1077.000
273.131;  -67.400; -419.000; -459.000
273.272; -110.600; -683.000; -723.000
273.412;   -1.600; -143.000;  -31.000
273.553;  -66.050; -488.000; -507.000
273.693;  132.650;  913.000;  858.000
273.834; -108.825; -894.000; -692.000
273.974;  -76.650; -664.000; -615.000
274.114; -105.200; -772.000; -560.000
274.255;   71.375;  414.000;  373.000
274.395;   -0.025; -180.000; -125.000
274.535;   34.950;  199.000;  350.000
274.676;    9.850;  225.000;   94.000
274.816;    6.500;  110.000;   34.000
274.956;  -90.075; -624.000; -690.000
275.097;  -62.200;-1014.000; -922.000
275.237; -115.175; -913.000; -803.000
275.377;  -99.225; -778.000; -689.000
275.517; -156.875; -878.000; -937.000
275.658;  -63.225; -590.000; -555.000
275.798;  -78.375; -606.000; -413.000
275.938;   28.775;  215.000;  323.000
276.078; -101.750; -626.000; -395.000
276.218;   19.975;   99.000;  104.000
276.359; -138.525;-1026.000;-1024.000
276.499;  -72.575; -605.000; -446.000
276.639;  -44.525; -305.000; -151.000
276.779;  -46.650; -475.000; -357.000
276.919; -106.900; -783.000; -624.000
277.059;  -18.350; -261.000; -212.000
277.199;  -50.725; -357.000; -259.000
277.340;   45.350;  287.000;  175.000
277.480; -100.550; -840.000; -693.000
277.620;   22.000;  192.000;   16.000
277.760; -196.000;-1533.000;-1294.000
277.900;   16.125;  113.000;   33.000
278.040;    2.600;  137.000;  159.000
278.180;   42.700;  270.000;  170.000
278.320;   -8.650;   21.000;   56.000
278.460;  -65.650; -443.000; -469.000
278.600; -104.950; -708.000; -598.000
278.740;   41.400;  448.000;  224.000
278.880;  -54.625; -768.000; -791.000
279.020;   -6.600; -194.000; -144.000
279.160; -100.050; -672.000; -595.000
279.300; -118.700; -926.000; -873.000
279.440;  -88.725; -709.000; -622.000
279.579;  -25.975;-1014.000; -929.000
279.719;  -61.925; -410.000; -394.000
279.859;   79.175;   -4.000;   41.000
279.999;   15.300; -208.000;  101.000
280.139;  -19.175; -435.000; -387.000
280.279;  -87.700; -708.000; -745.000
280.419;  -22.000; -229.000; -147.000
280.559;  -45.575; -259.000; -180.000
280.698;  -77.425; -790.000; -639.000
280.838; -108.225; -778.000; -800.000
280.978; -105.325; -846.000; -790.000
281.118; -130.475; -811.000; -704.000
281.257;    5.550;   24.000;    6.000
281.397; -127.450;-1094.000; -960.000
281.537;  -93.000; -599.000; -712.000
281.677;  -31.975; -150.000; -101.000
281.816;  -86.150; -700.000; -630.000
281.956;  -30.500; -193.000; -257.000
282.096;  -76.750; -539.000; -396.000
282.235; -118.425; -672.000; -638.000
282.375;  -30.125; -243.000;  -98.000
282.515; -111.350; -715.000; -707.000
282.654;   23.075;   29.000;  106.000
282.794;   10.350;  388.000;  244.000
282.934;  -48.050; -530.000; -491.000
283.073; -145.400;-1030.000; -857.000
283.213;  -58.800; -460.000; -467.000
283.353;  -53.400; -408.000; -349.000
283.492;  -38.350; -264.000; -296.000
283.632;  -49.075; -254.000; -168.000
283.771;  -98.575; -859.000; -730.000
283.911;  -54.250; -369.000; -260.000
284.050; -107.000; -794.000; -748.000
284.190; -167.975;-1229.000;-1096.000
284.329; -134.675;-1055.000; -964.000
284.469;  -83.650; -516.000; -591.000
284.608;  -66.675; -559.000; -598.000
284.748;  -88.150; -614.000; -570.000
284.887;    7.250;  -87.000;  -20.000
285.027; -128.175; -844.000; -892.000
285.166;  -27.525; -192.000; -249.000
285.306;    8.650; -116.000;  -33.000
285.445;  -47.425; -229.000; -343.000
285.584;  -89.875; -630.000; -494.000
285.724;  -44.550; -282.000; -322.000
285.863; -113.000; -857.000; -507.000
286.002;  -60.300; -366.000; -276.000
286.142; -108.300; -715.000; -622.000
286.281;  -72.250; -525.000; -493.000
286.420;  -90.575; -554.000; -417.000
286.560;   91.650;  653.000;  623.000
286.699; -153.200; -958.000; -912.000
286.838;  -79.125; -590.000; -591.000
286.978;  -93.025; -533.000; -537.000
287.117; -127.325;-1085.000; -950.000
287.256;  -47.175; -228.000; -211.000
287.395;  -52.225; -197.000; -378.000
287.535;  -48.375; -370.000; -298.000
287.674;  -83.850; -509.000; -484.000
287.813;   41.600;  661.000;  533.000
287.952; -127.150;-1010.000; -871.000
288.091; -154.825;-1049.000; -915.000
288.231;   11.675;   13.000;   15.000
288.370; -186.875;-1217.000;-1200.000
288.509;  -90.700; -728.000; -645.000
288.648;  -96.575; -770.000; -548.000
288.787;  -42.650; -243.000;  -87.000
288.926;  -77.150; -454.000; -475.000
289.065;  117.525;  859.000;  672.000
289.204;  -61.525; -377.000; -217.000
289.344; -108.450; -791.000; -690.000
289.483;   18.250;  416.000;  304.000
289.622;  -25.150; -291.000; -149.000
289.761;  -27.625; -309.000; -166.000
289.900; -110.350; -785.000; -626.000
290.039;  -25.150;  -12.000;  -95.000
290.178;  -38.725; -274.000; -180.000
290.317;  -90.825; -618.000; -479.000
290.456;  -69.750; -463.000; -451.000
290.595; -158.225; -961.000; -833.000
290.734; -142.275; -904.000; -891.000
290.873;  -83.650; -456.000; -420.000
291.011; -109.525; -833.000; -843.000
291.150; -121.500; -770.000; -682.000
291.289;  -20.275; -343.000; -110.000
291.428; -103.000; -599.000; -480.000
291.567;  -63.425; -370.000; -442.000
291.706;  -11.475;  109.000;  154.000
291.845;  -80.325; -597.000; -505.000
291.984; -176.125;-1234.000;-1061.000
292.122;   64.800;  602.000;  582.000
292.261;   44.700;  620.000;  463.000
292.400;   -8.400; -144.000;  211.000
292.539; -127.850; -959.000; -813.000
292.678;  -48.975; -325.000; -300.000
292.816; -165.900;-1136.000; -965.000
292.955;  -89.100; -844.000; -684.000
293.094;  -36.275; -173.000; -337.000
293.233;  -58.500; -556.000; -400.000
293.371;  -37.950; -225.000;  -84.000
293.510; -107.550; -866.000; -780.000
293.649; -129.025; -959.000; -924.000
293.787;  -66.650;-1083.000;-1012.000
293.926;  -16.075; -113.000;  -32.000
294.065;  -52.600; -379.000; -290.000
294.203;   48.900;  298.000;  406.000
294.342;    6.725;   74.000;  156.000
294.481; 5445.650;51180.000; -836.000
294.619;  -37.425; -425.000; -582.000
294.758; -147.025;-1230.000;-1137.000
294.896;   70.075; -125.000;    5.000
295.035; -140.175;-1040.000;-1006.000
295.174; -122.675;-1082.000; -954.000
295.312;  -50.950; -323.000; -203.000
295.451;  -17.075; -307.000; -428.000
295.589;  -66.325; -389.000; -518.000
295.728;   10.275; -292.000; -165.000
295.866;    5.575;  -36.000;  -51.000
296.005;  -61.000; -584.000; -341.000
296.143;  -89.975; -558.000; -596.000
296.282; -103.700; -957.000; -881.000
296.420;  -90.475; -657.000; -557.000
296.559;  -88.875; -892.000; -633.000
296.697;    1.800; -847.000; -665.000
296.835;   39.700;-1141.000;-1002.000
296.974;   48.550;  -23.000;   39.000
297.112;    8.825; -443.000; -504.000
297.251;  -90.525; -815.000; -755.000
297.389;   77.150; -576.000; -438.000
297.527;   24.125; -145.000;  -83.000
297.666;  -53.075; -486.000; -438.000
297.804;  -69.575; -404.000; -264.000
297.942;   -5.775; -136.000; -161.000
298.081;  -20.725; -183.000;   63.000
298.219;   62.950;  -17.000;  -19.000
298.357;   40.550; -144.000;  -71.000
298.495;   18.100; -810.000; -812.000
298.634;   58.975;  245.000;  219.000
298.772;   44.075; -220.000; -338.000
298.910;  -38.325; -309.000; -182.000
299.048;   -9.875; -130.000; -153.000
299.187;  -34.125; -350.000; -250.000
299.325;    2.875;   52.000;  122.000
299.463;   39.500; -389.000; -299.000
299.601;   94.100; -327.000; -271.000
299.739; -117.125; -908.000; -883.000
299.877;  -88.625; -791.000; -703.000
300.016;  -57.550;-1095.000; -935.000
300.154;  150.325;  -19.000; -161.000
300.292;   30.350; -428.000; -348.000
300.430;   39.700; -408.000; -291.000
300.568; -110.375; -940.000; -874.000
300.706;  -57.850; -366.000; -469.000
300.844;  -81.800;-1108.000; -979.000
300.982;  123.950;  246.000;  282.000
301.120; -121.525; -965.000; -866.000
301.258;  -76.025; -812.000; -705.000
301.396;   19.000;  104.000;  -41.000
301.534;   59.175; -218.000; -293.000
301.672;  -15.500; -664.000; -521.000
301.810;   16.225; -613.000; -545.000
301.948;  103.250;   53.000;  149.000
302.086;  601.500; -250.000;  -32.000
302.224;  900.275; -610.000; -585.000
302.362;   38.300; -558.000; -622.000
302.500;  -39.100; -923.000; -893.000
302.638;   98.025;  128.000;  245.000
302.776;  -22.125; -352.000; -408.000
302.913;   57.825;  447.000;  236.000
303.051;  -25.075;  -86.000;  -23.000
303.189;   50.050;   90.000;  118.000
303.327;  -42.900; -341.000; -256.000
303.465;  -92.100; -832.000; -588.000
303.603;  -96.325; -805.000; -604.000
303.740;   96.750;  417.000;  241.000
303.878;    1.025; -800.000; -759.000
304.016;  -93.975; -915.000; -790.000
304.154; -131.500;-1123.000;-1152.000
304.291;  -28.675; -505.000; -554.000
304.429;    8.825;  102.000;   74.000
304.567; -118.750; -908.000; -893.000
304.705;  -69.100; -408.000; -515.000
304.842;   84.475; -616.000; -540.000
304.980;   41.500;  215.000;   35.000
305.118;   33.150; -367.000; -365.000
305.255;  -98.575; -945.000; -927.000
305.393;   45.800;  178.000;  239.000
305.531;  -99.425;-1173.000; -956.000
305.668;  -70.100; -663.000; -582.000
305.806;  102.750; -358.000; -439.000
305.943;  103.325; -629.000; -637.000
306.081;   48.875; -378.000; -267.000
306.219;  -98.725; -863.000; -748.000
306.356;    5.700;  158.000;   27.000
306.494;  103.325;  981.000;  761.000
306.631;  -13.750;  -11.000;  -55.000
306.769;    7.500; -613.000; -485.000
306.906;  -29.900; -284.000; -258.000
307.044;  -70.300; -473.000; -488.000
307.181;  -68.525; -410.000; -332.000
307.319;    8.150;  112.000;   87.000
307.456; -174.975;-1191.000;-1153.000
307.594; -102.500; -980.000; -727.000
307.731;   -6.250; -371.000; -164.000
307.868;  -11.900;  -15.000;   20.000
308.006; -138.825; -961.000; -847.000
308.143;  -80.200; -618.000; -330.000
308.281;  102.725;  -37.000; -254.000
308.418;  -20.950; -748.000; -640.000
308.555;  -63.150; -400.000; -250.000
308.693;  -82.375; -577.000; -573.000
308.830; -126.325; -712.000; -657.000
308.967;  -19.600; -215.000;  -95.000
309.105;  -52.000; -507.000; -396.000
309.242;   22.225; -468.000; -367.000
309.379;  246.150; -577.000; -655.000
309.517;  -68.150; -936.000; -948.000
309.654; -107.800; -910.000; -734.000
309.791;  -76.200; -662.000; -580.000
309.928; -136.050; -977.000; -914.000
310.065;  167.200;  819.000;  697.000
310.203;  -22.850; -825.000; -850.000
310.340;  -17.150; -465.000; -321.000
310.477;  -86.600; -412.000; -516.000
310.614;  -64.775; -383.000; -473.000
310.751;  -79.075; -427.000; -518.000
310.889;  -16.475;    1.000;   11.000
311.026; -165.550;-1161.000; -939.000
311.163;  -51.550; -386.000; -380.000
311.300;  -87.150; -512.000; -479.000
311.437;  -73.225; -658.000; -619.000
311.574; -173.375;-1226.000; -985.000
311.711;  -59.250; -595.000; -433.000
311.848;  -46.400; -380.000; -388.000
311.985;    4.200;  270.000;   93.000
312.122; -110.600; -932.000; -762.000
312.259; -118.750; -941.000; -994.000
312.396;  -82.325; -508.000; -551.000
312.533;  -91.400; -812.000; -790.000
312.670; -145.000;-1070.000; -898.000
312.807;  -39.200; -352.000; -367.000
312.944;  -88.925; -513.000; -611.000
313.081;  -37.700; -150.000; -415.000
313.218; -112.075;-1111.000; -867.000
313.355;   -2.250; -531.000; -449.000
313.492;   -8.525; -455.000; -292.000
313.629;  108.325;  815.000;  735.000
313.766; -168.000;-1176.000;-1008.000
313.902;  -29.425; -186.000;   21.000
314.039;  -45.350; -372.000; -289.000
314.176;   25.225;  286.000;  192.000
314.313;  -84.900; -569.000; -473.000
314.450;  -79.525; -788.000; -684.000
314.587;  -50.300; -468.000; -480.000
314.723;   -7.950;  -78.000;  130.000
314.860;   19.850;  318.000;  332.000
314.997;   25.375;  223.000;  142.000
315.134;  -41.925; -385.000; -368.000
315.270;  -35.950; -480.000; -496.000
315.407; -127.250;-1094.000; -967.000
315.544;  -53.000; -657.000; -538.000
315.681;  -71.225; -681.000; -565.000
315.817;   28.825; -133.000; -176.000
315.954;    5.100; -613.000; -392.000
316.091; -126.250;-1045.000;-1023.000
316.227;  -35.350;  -71.000; -179.000
316.364;   -9.375;   23.000;    6.000
316.500;  -57.500; -113.000; -300.000
316.637;  -49.500; -181.000; -302.000
316.774;  -96.975; -625.000; -358.000
316.910;  -98.300; -598.000; -629.000
317.047;  -62.550; -487.000; -351.000
317.183;  -36.625; -435.000; -566.000
317.320;  -22.750; -367.000; -321.000
317.456;  -74.325; -733.000; -805.000
317.593; -100.500; -598.000; -641.000
317.729;    2.600;  168.000;  -67.000
317.866; -207.900;-1434.000;-1285.000
318.002; -105.975; -708.000; -948.000
318.139;  -98.950; -883.000; -867.000
318.275; -108.100;-1003.000; -738.000
318.412;  -74.200; -517.000; -336.000
318.548;  -39.575; -751.000; -720.000
318.685; -101.800; -985.000; -888.000
318.821;  -98.975; -762.000; -735.000
318.957;  -15.625;   34.000;  -23.000
319.094;   42.025;  297.000;  154.000
319.230;  -64.300; -756.000; -742.000
319.367;  113.275; -471.000; -520.000
319.503;   46.325; -538.000; -436.000
319.639;  -96.750; -877.000; -793.000
319.775;  -67.425; -750.000; -685.000
319.912;  -49.050; -424.000; -519.000
320.048; -106.925;-1184.000;-1184.000
320.184;   84.900;   59.000;   70.000
320.321;  -62.875; -497.000; -467.000
320.457;   53.775;  475.000;  662.000
320.593;  -71.700; -375.000; -382.000
320.729;  -98.850; -732.000; -734.000
320.866;  -85.250; -577.000; -635.000
321.002;  -85.675; -759.000; -809.000
321.138;  -16.375; -135.000; -211.000
321.274;   79.150; -148.000; -115.000
321.410;  -30.850; -585.000; -353.000
321.546;  -29.525;-1011.000; -911.000
321.683;   48.675;  400.000;  185.000
321.819;    0.425;  -48.000; -117.000
321.955; -113.875; -743.000; -722.000
322.091;  -43.625; -585.000; -540.000
322.227;   -7.050; -382.000; -202.000
322.363;  -21.650; -320.000; -215.000
322.499;  -54.425; -343.000; -331.000
322.635;  167.650;  636.000;  443.000
322.771;   20.575; -139.000;   12.000
322.907;   91.425;  129.000;  327.000
323.043;  -21.750; -115.000; -206.000
323.179;  -34.825; -394.000; -363.000
323.315;    5.200; -401.000; -371.000
323.451;   80.800; -328.000; -236.000
323.587;   50.725;  -60.000;  -77.000
323.723;    3.575; -682.000; -601.000
323.859;  -15.850; -258.000;  -76.000
323.995;  -36.325; -467.000; -409.000
324.131; -127.700; -967.000; -892.000
324.267;  -36.650; -254.000; -276.000
324.402; -139.400; -960.000; -983.000
324.538;  -24.200; -279.000; -104.000
324.674;    8.200;  164.000;   77.000
324.810;  116.725;  226.000;  308.000
324.946;  -11.775; -810.000; -658.000
325.082;  -71.500; -568.000; -475.000
325.217;  -32.400;  -62.000;   16.000
325.353;  -90.425; -764.000; -659.000
325.489;  -99.025; -540.000; -506.000
325.625;  -85.450; -579.000; -525.000
325.760;   58.850;  517.000;  376.000
325.896;  -24.500; -515.000; -702.000
326.032;  -64.725; -403.000; -352.000
326.168;  -60.000; -462.000; -369.000
326.303;  -59.600; -352.000; -461.000
326.439;  -46.500; -336.000; -276.000
326.575;   -6.575; -190.000;  -29.000
326.710;   -3.625; -156.000;  -30.000
326.846;  -13.575;  146.000;  103.000
326.982;  -89.700; -530.000; -548.000
327.117;  -87.450; -481.000; -442.000
327.253;  -83.650; -745.000; -742.000
327.388; -132.850;-1137.000;-1153.000
327.524;  -59.450; -811.000; -578.000
327.659;  -47.625;  -58.000;  -22.000
327.795;   -9.025;   69.000;   45.000
327.931;  -90.300; -723.000; -499.000
328.066;  -29.650; -417.000; -276.000
328.202;  -26.350;   12.000; -129.000
328.337;  101.700;  957.000;  713.000
328.473;   28.500;  -12.000;  -74.000
328.608;  -32.350; -256.000; -267.000
328.743; -100.200; -799.000; -664.000
328.879;   14.575;  214.000;  114.000
329.014;  -45.750; -102.000; -122.000
329.150;  -85.950; -358.000; -483.000
329.285;  -85.775; -465.000; -466.000
329.421;  -59.775; -548.000; -246.000
329.556;  -28.450;  -36.000;   85.000
329.691; -111.525; -633.000; -615.000
329.827;  -83.450; -626.000; -480.000
329.962;  -33.525;  131.000; -301.000
330.097; -103.200; -673.000; -585.000
330.233;  -51.275; -410.000; -223.000
330.368; -126.125; -839.000; -628.000
330.503;  -16.250;    3.000;   98.000
330.638;    5.650;  -93.000; -125.000
330.774;  -68.675; -609.000; -530.000
330.909;  -53.875; -434.000; -244.000
331.044;  -95.075; -714.000; -708.000
331.179; -171.550;-1217.000;-1109.000
331.315;    7.850;   77.000;   20.000
331.450;    8.025;  157.000;  285.000
331.585;  -89.050; -805.000; -706.000
331.720;  -90.625; -510.000; -460.000
331.855;   -8.475;  -35.000; -102.000
331.990;  246.225;   62.000;  138.000
332.126;  126.600; -110.000;   71.000
332.261;  -20.025; -379.000; -265.000
332.396;    2.275; -135.000; -242.000
332.531;  -95.125;-1074.000;-1031.000
332.666;   43.300; -519.000; -363.000
332.801; -112.950; -726.000; -807.000
332.936;  -33.825; -192.000; -122.000
333.071; -153.400; -870.000; -817.000
333.206;    3.025;  307.000;  379.000
333.341;   18.875;  344.000;  418.000
333.476;  -94.100; -627.000; -623.000
333.611;  -49.450; -251.000; -173.000
333.746;  -52.700; -381.000; -464.000
333.881; -122.150; -973.000; -935.000
334.016; -127.475; -936.000; -917.000
334.151; -134.150; -746.000; -702.000
334.286;   28.525;  152.000;  186.000
334.421;  -32.425; -125.000; -178.000
334.556;  -87.050; -611.000; -567.000
334.690;  -95.850; -631.000; -577.000
334.825;   52.700;  381.000;   83.000
334.960;  -78.100; -285.000; -413.000
335.095;   -0.975;  135.000;  -91.000
335.230; -104.625; -722.000; -738.000
335.365; -141.650;-1084.000; -990.000
335.499; -144.950;-1108.000;-1037.000
335.634;   13.625;    9.000;  534.000
335.769; -117.700; -755.000; -720.000
335.904;  -69.450; -603.000; -561.000
336.038;  -63.025; -735.000; -657.000
336.173; -123.225;-1206.000;-1194.000
336.308;   -0.675; -116.000; -189.000
336.443;   29.550; -544.000; -634.000
336.577;  -90.700; -936.000; -787.000
336.712;   61.625;   -4.000;  -12.000
336.847;  -33.875; -724.000; -607.000
336.981;   54.025; -272.000; -208.000
337.116;  283.325;  615.000;  501.000
337.250;  149.525; -434.000; -421.000
337.385;  248.075; -297.000; -208.000
337.520;   79.700; -632.000; -603.000
337.654;  -48.750; -215.000; -126.000
337.789; -136.725; -989.000; -933.000
337.923;  -36.725; -104.000; -205.000
338.058;  -92.225; -673.000; -738.000
338.192;  -49.500; -611.000; -488.000
338.327;  -25.150;  -18.000; -155.000
338.461;  -72.200; -299.000; -469.000
338.596;  -95.350; -780.000; -638.000
338.730; -107.625; -767.000; -803.000
338.865;   97.450;  -46.000; -140.000
338.999;  -60.875; -846.000; -702.000
339.134;  -32.825; -634.000; -536.000
339.268;   10.700; -741.000; -603.000
339.403;  356.425; -740.000; -775.000
339.537;  110.200; -894.000; -820.000
339.671; -110.250; -829.000; -813.000
339.806;  -62.000; -556.000; -512.000
339.940;    3.375; -261.000; -235.000
340.074;  -87.925; -685.000; -510.000
340.209;  -45.350; -351.000; -230.000
340.343;  -91.825; -517.000; -573.000
340.477;  156.225;  998.000; 1036.000
340.612;  -54.950;-1033.000; -900.000
340.746;  136.350; -199.000; -243.000
340.880;  -69.450; -924.000; -785.000
341.014;  -15.825;  -45.000; -154.000
341.149; -122.900; -756.000; -718.000
341.283; -107.625; -839.000; -754.000
341.417; -107.400;-1124.000; -938.000
341.551;  132.850; -768.000; -708.000
341.685;  -49.750; -633.000; -611.000
341.820;  -49.150; -562.000; -493.000
341.954;  -56.800; -218.000; -349.000
342.088; -152.050;-1102.000;-1019.000
342.222;   40.625;  565.000;  618.000
342.356;  -81.900; -395.000; -335.000
342.490; -104.650; -880.000; -841.000
342.624;  -60.950; -339.000; -242.000
342.758;  -19.050; -364.000; -312.000
342.892;  -50.225; -710.000; -585.000
343.026;  -33.850;  -58.000; -116.000
343.160;  -63.100; -426.000; -376.000
343.294;  -95.625; -474.000; -337.000
343.428;  -27.050; -488.000; -448.000
343.562;  -13.975; -172.000;  -23.000
343.696;  -30.725; -385.000; -314.000
343.830;  -34.550; -362.000; -356.000
343.964;   18.175; -231.000; -168.000
344.098;  866.725;  199.000;   70.000
344.232;  725.725; -266.000; -127.000
344.366;   90.900; -567.000; -453.000
344.500;   44.000; -665.000; -744.000
344.634;   21.550; -324.000; -164.000
344.768;  -21.200; -531.000; -341.000
344.902;    9.425;  278.000;  256.000
345.035;  -80.350; -556.000; -496.000
345.169; -138.150; -933.000; -656.000
345.303;  -39.550; -308.000; -482.000
345.437;  -74.125; -826.000; -717.000
345.571;  -79.025; -675.000; -594.000
345.704;  -65.825; -309.000; -532.000
345.838;  -17.975; -331.000; -284.000
345.972;  -50.675; -543.000; -495.000
346.106;  171.250; -179.000; -190.000
346.239;  417.475; -312.000; -243.000
346.373;    4.300; -343.000; -302.000
346.507; -164.550; -950.000; -962.000
346.640;  144.300;  -30.000;   13.000
346.774;  -64.425; -650.000; -797.000
346.908;  -20.250; -138.000;  -11.000
347.041; -111.375; -646.000; -593.000
347.175;   -3.575;  259.000;   27.000
347.309;  -73.350; -698.000; -628.000
347.442;  -90.825; -883.000; -732.000
347.576;  259.500;  670.000;  668.000
347.709;  188.350; -123.000;  -52.000
347.843; -102.300; -933.000; -825.000
347.976;   25.050;  235.000;  294.000
348.110; -181.825;-1268.000;-1186.000
348.243;  -95.625; -679.000; -772.000
348.377;    4.100;  -26.000;   60.000
348.510;   48.025;  403.000;  540.000
348.644;  -35.950;  -37.000; -159.000
348.777;   -5.150;  180.000;  191.000
348.911;  -71.375; -142.000; -112.000
349.044;  165.325;  471.000;  448.000
349.178;  131.375;-1069.000;-1006.000
349.311;  114.775;  141.000;  255.000
349.444;  -24.125; -927.000; -813.000
349.578;  -22.375; -347.000; -200.000
349.711; -123.200; -959.000; -862.000
349.845;   -1.050; -661.000; -591.000
349.978; -162.150;-1224.000;-1137.000
350.111;  -84.100; -546.000; -612.000
350.244;  -87.275; -596.000; -700.000
350.378;    8.450; -392.000; -393.000
350.511;  -80.000; -393.000; -426.000
350.644; -109.050; -808.000; -806.000
350.778;    2.700;  168.000;  104.000
350.911;   -3.600;  134.000;  140.000
351.044;  -94.100; -685.000; -615.000
351.177;  -18.325; -321.000; -281.000
351.310;  -24.275;    3.000; -131.000
351.444;  -69.250; -888.000; -788.000
351.577;   96.550;  140.000;   90.000
351.710;   86.250;  593.000;  417.000
351.843;  -40.625; -165.000;  -77.000
351.976;    1.675;  149.000;  -79.000
352.109; -104.800; -621.000; -612.000
352.242;  -29.400; -464.000; -419.000
352.376;  -61.425; -580.000; -636.000
352.509;  151.800; -437.000; -356.000
352.642;    1.100; -654.000; -604.000
352.775;   58.125; -141.000;  -98.000
352.908; -122.100; -933.000; -904.000
353.041;  -96.400; -814.000; -824.000
353.174;  -61.900; -551.000; -424.000
353.307;  -88.700; -753.000; -764.000
353.440;   62.975;  541.000;  453.000
353.573; -124.675; -957.000;-1008.000
353.706;  -40.725; -384.000; -558.000
353.839;  -22.650; -264.000; -220.000
353.971;  -90.525; -657.000; -512.000
354.104;  -81.025; -896.000; -835.000
354.237;  -53.350; -627.000; -662.000
354.370;  -87.500; -846.000; -879.000
354.503; -192.350;-1231.000;-1308.000
354.636;  -32.175; -529.000; -348.000
354.769; -143.200; -937.000; -860.000
354.902;  -17.725; -230.000; -139.000
355.034;  -32.025; -164.000; -220.000
355.167;  -10.225; -262.000; -162.000
355.300; -102.675;-1061.000; -880.000
355.433;  968.900;  -71.000;  -14.000
355.565; 1518.975; -402.000; -384.000
355.698;  376.450; -356.000; -296.000
355.831;  -13.575; -882.000; -801.000
355.964;   70.050; -285.000; -170.000
356.096;  -89.000; -856.000; -843.000
356.229;   -6.100; -523.000; -530.000
356.362;  306.900; -373.000; -266.000
356.494;  618.075; -229.000; -162.000
356.627;  450.950;  269.000;  377.000
356.760;  642.375;  120.000;   53.000
356.892;  939.225; -286.000; -601.000
357.025;  637.550;  403.000;  389.000
357.157;  565.325; -167.000; -179.000
357.290;  660.775; -856.000; -713.000
357.423;  194.650; -667.000; -556.000
357.555;  110.225; -217.000; -228.000
357.688;  111.125; -483.000; -364.000
357.820;  423.725; -870.000; -877.000
357.953; 3580.525; -563.000; -589.000
358.085;  772.975; -632.000; -612.000
358.218; 1043.325;-1131.000; -932.000
358.350;  203.125;  -58.000;  312.000
358.483; -125.225;-1300.000;-1187.000
358.615;  -45.225;-1182.000;-1078.000
358.747;  -64.750;-1187.000;-1058.000
358.880;   21.375; -810.000; -744.000
359.012;  -10.125; -376.000; -202.000
359.145;  -31.175; -480.000; -511.000
359.277;   55.525; -962.000; -913.000
359.409; 2963.825;  536.000;  231.000
359.542;  773.775; -738.000; -688.000
359.674;   55.025;   46.000;   13.000
359.806;  -67.125; -565.000; -438.000
359.939;  -51.750; -617.000; -516.000
360.071;  -22.175; -583.000; -579.000
360.203;  -23.400; -411.000; -364.000
360.335;   30.125;  164.000;  -16.000
360.468;  172.100; -249.000; -307.000
360.600; 2373.625; -547.000; -454.000
360.732; 2829.625; -546.000; -423.000
360.864;  378.275;-1216.000;-1044.000
360.996;  251.100; -516.000; -554.000
361.129;   16.025; -389.000; -598.000
361.261;    5.750;  110.000; -113.000
361.393;  -48.975; -252.000; -214.000
361.525;   27.400;   94.000;  244.000
361.657;  -55.550; -821.000; -703.000
361.789;   -2.350; -139.000; -155.000
361.921;  188.775; -642.000; -593.000
362.053;  253.025;  524.000;  541.000
362.185;   54.525;  288.000;   72.000
362.318;  -88.900; -709.000; -705.000
362.450;   77.125;  294.000;  444.000
362.582;   77.100; -913.000; -870.000
362.714;  -47.625; -353.000; -332.000
362.846;  -76.225; -606.000; -490.000
362.978; -136.675; -941.000; -811.000
363.109;   37.875; -161.000; -260.000
363.241;  404.050; -739.000; -749.000
363.373;  417.225; -649.000; -564.000
363.505;  661.300; -186.000;  -91.000
363.637;  142.950; -787.000; -601.000
363.769; -126.400;-1067.000;-1080.000
363.901;  -71.525; -596.000; -654.000
364.033; -133.775;-1103.000;-1062.000
364.165;   -4.475; -283.000; -283.000
364.296;   52.250; -316.000; -177.000
364.428;   60.925;-1344.000;-1220.000
364.560;  -78.125; -679.000; -661.000
364.692;  -54.775; -738.000; -835.000
364.824;  220.950; -588.000; -456.000
364.955;  443.275; -402.000; -564.000
365.087;  931.650;-1097.000; -852.000
365.219;   25.075; -686.000; -816.000
365.351;  -75.275; -526.000; -572.000
365.482;   46.775;  300.000;  240.000
365.614;  -52.300; -402.000; -314.000
365.746;  -98.450; -729.000; -752.000
365.877;  -94.500; -706.000; -672.000
366.009;  259.550;  -35.000;  -62.000
366.141;  -88.200;-1249.000;-1134.000
366.272; -107.600; -803.000; -719.000
366.404; -113.100;-1005.000; -874.000
366.535;   -3.400; -139.000;  -12.000
366.667; -102.900; -644.000; -649.000
366.799;   28.675;  353.000;  203.000
366.930; -126.250; -862.000; -996.000
367.062;  121.325; -639.000; -613.000
367.193;  144.300; -872.000; -842.000
367.325;  -60.950; -580.000; -684.000
367.456;   44.675; -246.000;   31.000
367.588;  152.575; -371.000; -318.000
367.719;   18.350;  -44.000;  -45.000
367.851;  -19.400; -222.000; -241.000
367.982;  -73.150; -875.000; -732.000
368.113;   92.225; -475.000; -358.000
368.245; -119.425; -960.000; -841.000
368.376;  -29.175; -254.000; -302.000
368.508;  -37.550; -188.000; -263.000
368.639; -138.025;-1166.000;-1034.000
368.770;  -45.200; -670.000; -589.000
368.902;  -71.950; -836.000; -926.000
369.033; -101.875; -906.000; -855.000
369.164;  -54.400; -720.000; -653.000
369.296; -113.825; -452.000; -601.000
369.427;   -7.650; -209.000; -144.000
369.558;  -57.875; -593.000; -377.000
369.689;  -75.625; -721.000; -569.000
369.821; -138.175; -951.000; -845.000
369.952;  -22.975;   42.000; -108.000
370.083;  -47.000; -229.000; -108.000
370.214;  -77.750; -735.000; -650.000
370.345;  -14.025;   65.000;   81.000
370.477;  -97.725; -810.000; -790.000
370.608;  215.025; -328.000; -264.000
370.739;  -52.675;-1233.000;-1292.000
370.870;  -58.250;-1102.000; -923.000
371.001;   69.925; -378.000; -467.000
371.132;  -89.900; -754.000; -735.000
371.263;  -30.175;  -42.000; -148.000
371.394; -144.350; -841.000; -748.000
371.525;   25.050;  345.000;  225.000
371.657; -107.300; -808.000; -670.000
371.788;   58.200;  103.000;  199.000
371.919;  144.825; -384.000; -304.000
372.050; 3452.400;  -91.000; -156.000
372.181; 1046.950; -188.000; -294.000
372.311;  339.975;   42.000; -127.000
372.442;   13.000; -457.000; -451.000
372.573;  -25.900; -444.000; -340.000
372.704; -134.750;-1008.000; -980.000
372.835;   73.700; -228.000; -289.000
372.966;  -83.800; -646.000; -554.000
373.097;  -66.625; -575.000; -711.000
373.228;  -46.875; -717.000; -542.000
373.359;  118.875; -824.000; -536.000
373.490;  873.050; -881.000; -727.000
373.620; 1099.550;-1001.000; -803.000
373.751; 1667.250; -332.000; -396.000
373.882;  739.800; -663.000; -733.000
374.013;   41.200; -449.000; -262.000
374.143;  -44.075; -581.000; -659.000
374.274; -120.700; -987.000; -908.000
374.405;  171.900; -388.000; -276.000
374.536;  395.450; -526.000; -387.000
374.666; 1048.550; -759.000; -807.000
374.797;  211.350; -817.000; -868.000
374.928;  792.700; -710.000; -560.000
375.058;  819.025; -535.000; -500.000
375.189;   67.450;  -59.000;  -93.000
375.320; -113.675; -928.000;-1034.000
375.450;  -36.050; -625.000; -616.000
375.581;  -69.300; -526.000; -436.000
375.712;  -41.500; -574.000; -250.000
375.842;  283.225; -438.000; -415.000
375.973;  190.675; -554.000; -513.000
376.103;  -60.900; -665.000; -648.000
376.234;  -85.125; -531.000; -552.000
376.364;  -53.350; -944.000; -867.000
376.495;  328.425;  925.000;  529.000
376.625;  -19.700; -472.000; -485.000
376.756;   47.350; -709.000; -678.000
376.886;  -75.025;-1178.000;-1026.000
377.017;   53.775;-1048.000;-1061.000
377.147;  363.875; -786.000; -782.000
377.278;   58.450;  174.000;  228.000
377.408; -141.900; -801.000; -815.000
377.538; -106.300; -707.000; -693.000
377.669;  -80.825; -537.000; -613.000
377.799;  -94.850; -645.000; -635.000
377.929;  -75.450; -610.000; -428.000
378.060; -129.950; -781.000; -847.000
378.190;  -56.050; -726.000; -531.000
378.320;  -53.875; -401.000; -406.000
378.451;  -16.725; -131.000;  -22.000
378.581;   -8.775;  -67.000; -110.000
378.711;  131.750; 1035.000;  866.000
378.841;  -11.225; -533.000; -675.000
378.972;  -94.175; -871.000; -751.000
379.102;   -6.000; -652.000; -579.000
379.232;  -20.600; -126.000;  -73.000
379.362; -117.875;-1001.000; -885.000
379.492;   -0.400; -373.000; -424.000
379.623;  102.050;    0.000;  111.000
379.753; -114.025;-1107.000; -974.000
379.883;  173.675;   59.000;  156.000
380.013;  -12.800;-1081.000;-1017.000
380.143; -113.975;-1097.000;-1056.000
380.273; -110.600; -985.000; -861.000
380.403;  -15.525; -344.000; -257.000
380.533;  -31.400; -651.000; -664.000
380.663;   60.950;  173.000;  128.000
380.793; -116.975;-1027.000;-1074.000
380.923;  -21.225; -103.000;  -34.000
381.053; -105.475; -613.000; -623.000
381.183;  -23.925; -106.000; -248.000
381.313;    9.450; -656.000; -470.000
381.443;   37.675; -692.000; -473.000
381.573;  166.650; -402.000; -409.000
381.703;  254.700;-1249.000;-1095.000
381.833; -144.725;-1454.000;-1336.000
381.963;  103.650; -134.000;  -87.000
382.093; 1351.600; -925.000; -909.000
382.223;  408.150; -713.000; -602.000
382.353;  -32.125; -801.000; -608.000
382.482;  346.150;-1091.000; -964.000
382.612;  705.025; -872.000; -644.000
382.742;  416.275; -695.000; -622.000
382.872;  233.225; -565.000; -551.000
383.002;   69.950;  347.000; -132.000
383.131;  -35.300; -226.000; -160.000
383.261;  -43.525; -706.000; -768.000
383.391;  278.450; -552.000; -377.000
383.521; 3224.450;  451.000;  263.000
383.650;  760.625; -947.000; -904.000
383.780;  -22.425; -783.000; -656.000
383.910;  102.050;  880.000;  802.000
384.039;    3.800; -794.000; -656.000
384.169;  182.150;-1205.000;-1017.000
384.299;  -20.500; -650.000; -662.000
384.428; -112.850; -764.000; -680.000
384.558;  -54.900; -308.000; -275.000
384.687;  -58.525; -414.000; -334.000
384.817;    8.600;   75.000;   -2.000
384.947;    6.475; -234.000; -141.000
385.076;  276.075;  982.000;  912.000
385.206;   81.050;  369.000;  480.000
385.335;  -47.850; -549.000; -417.000
385.465;  -86.100; -655.000; -663.000
385.594;  122.000;  -53.000;  -44.000
385.724;  392.150; -868.000; -838.000
385.853;  104.175; -296.000; -270.000
385.982; 1266.150; -743.000; -787.000
386.112; 2032.100;-1052.000; -871.000
386.241;  146.875; -307.000; -312.000
386.371;    4.250; -174.000;  -87.000
386.500;  -12.675; -825.000; -789.000
386.629;   32.575; -874.000; -817.000
386.759;   58.575;  -43.000;   68.000
386.888;   -7.625; -170.000; -250.000
387.017;  -93.350; -648.000; -620.000
387.147;  -91.050; -771.000; -798.000
387.276;   -6.325; -410.000; -397.000
387.405;    5.750; -398.000; -342.000
387.535;  -43.050; -452.000; -361.000
387.664;  -76.350; -692.000; -620.000
387.793;   44.150; -198.000; -113.000
387.922;  481.750;  255.000;  200.000
388.052;   -8.775; -576.000; -423.000
388.181;   -9.075; -342.000; -472.000
388.310;  -36.550; -889.000; -710.000
388.439;  -54.300; -749.000; -742.000
388.568;  161.625;  365.000;  244.000
388.697;  989.175; -756.000; -653.000
388.826;  184.675; -768.000; -666.000
388.956;   44.550; -285.000; -307.000
389.085;  -41.325; -347.000; -287.000
389.214; -111.050; -842.000; -872.000
389.343;  -84.950; -645.000; -413.000
389.472;  395.950;  126.000;  149.000
389.601;  500.550;   91.000;    0.000
389.730;    7.150; -568.000; -687.000
389.859;   40.950;  226.000;   46.000
389.988;  174.025; -423.000; -408.000
390.117;  127.925; -168.000; -146.000
390.246;   -9.150; -331.000; -320.000
390.375;   68.125; -673.000; -626.000
390.504;  -67.375; -703.000; -621.000
390.633; -117.875; -672.000; -726.000
390.761;  -68.650; -732.000; -645.000
390.890;    2.000;   -4.000; -130.000
391.019;  -37.275; -421.000; -441.000
391.148; -142.125; -826.000; -855.000
391.277;  -77.475; -576.000; -493.000
391.406;  -99.875; -821.000; -805.000
391.534;    3.575;  574.000; -301.000
391.663;  -77.850; -583.000; -645.000
391.792;  -85.575; -673.000; -701.000
391.921;   71.725;   -3.000;   15.000
392.050;  167.475; -287.000; -228.000
392.178;  -63.325;-1206.000;-1061.000
392.307;  124.225; -758.000; -712.000
392.436;   53.475; -427.000; -641.000
392.564;    6.050;  166.000;   -6.000
392.693; -103.125; -860.000; -682.000
392.822;  168.175; -529.000; -534.000
392.950;   68.300; -880.000; -714.000
393.079;  301.700; -188.000; -328.000
393.208;   23.475; -488.000; -511.000
393.336;    2.900; -170.000; -145.000
393.465;  -56.050; -317.000; -199.000
393.593;   -4.375;   62.000;   79.000
393.722; -153.950;-1121.000; -916.000
393.850;  -30.200; -188.000;  -61.000
393.979; -165.550; -926.000; -805.000
394.107;  -73.125; -517.000; -537.000
394.236;  -31.075; -570.000; -507.000
394.364;  196.350;  383.000;  206.000
394.493;  274.350; -911.000; -767.000
394.621;  -27.450; -955.000; -916.000
394.750;  701.275; -873.000; -923.000
394.878; 2963.875; -247.000; -149.000
395.007; 4045.275; -721.000; -807.000
395.135;  312.650; -790.000; -721.000
395.263; -101.275;-1038.000;-1040.000
395.392;   -1.925;  -25.000; -107.000
395.520; -152.775; -818.000; -679.000
395.648;  -93.450; -865.000; -915.000
395.777;  -27.325; -366.000; -405.000
395.905;  -55.775; -449.000; -564.000
396.033;    0.375;  217.000;  172.000
396.162;  482.450; -399.000; -453.000
396.290;  428.075;  -17.000;   -2.000
396.418;   77.900; -555.000; -514.000
396.546;  -83.675; -571.000; -466.000
396.674;  -91.150; -850.000; -878.000
396.803;    3.300;  -72.000;  -23.000
396.931;   80.475; -179.000; -199.000
397.059;   19.600;-1026.000; -989.000
397.187; -115.900;-1026.000; -975.000
397.315; -122.800; -884.000; -649.000
397.443;  -92.075; -592.000; -443.000
397.572;  -98.650; -578.000; -424.000
397.700;  -10.625; -607.000; -614.000
397.828;   -4.600;  120.000;  -90.000
397.956;  -52.175; -508.000; -478.000
398.084;  -72.925; -767.000; -626.000
398.212;   28.850;  137.000;  124.000
398.340;   -2.900;  -56.000;  159.000
398.468;    1.075; -390.000; -169.000
398.596; -137.775; -993.000; -953.000
398.724; -129.500; -762.000; -767.000
398.852; -177.550;-1024.000; -976.000
398.980;  -74.125; -560.000; -560.000
399.108;  -84.525; -982.000; -735.000
399.236;   49.425;   13.000;    8.000
399.363;    1.100;  222.000;  196.000
399.491;  -73.625; -404.000; -398.000
399.619; -133.025; -829.000; -800.000
399.747; -103.550; -859.000; -771.000
399.875;   60.825;  220.000;  234.000
400.003;  -62.400; -359.000; -284.000
400.130;  -90.850; -421.000; -341.000
400.258;  -22.875;  -83.000;   38.000
400.386;  -72.225; -352.000; -168.000
400.514;  -50.225; -526.000; -587.000
400.641; -103.550; -928.000; -802.000
400.769; -142.625; -979.000; -888.000
400.897; -127.775; -838.000; -793.000
401.025;  -17.500; -166.000; -152.000
401.152;   -5.500;  220.000;   38.000
401.280;  -84.950; -430.000; -429.000
401.408; -110.350; -712.000; -576.000
401.535; -103.450; -735.000; -758.000
401.663; -201.300;-1134.000;-1054.000
401.790;  -82.550; -514.000; -525.000
401.918;   24.700;  436.000;  405.000
402.046;  -23.825;  134.000;  122.000
402.173;  -50.450;  -18.000;    7.000
402.301;  -72.800; -519.000; -397.000
402.428;   28.325;  528.000;  383.000
402.556; -143.150;-1188.000; -913.000
402.683;  -49.975;  -20.000;   -1.000
402.811;  -32.275;  -37.000; -206.000
402.938;  -21.775;   20.000;   27.000
403.066;  173.650; -574.000; -558.000
403.193;  315.950;  299.000;  239.000
403.321;  239.875; -396.000; -574.000
403.448;  301.100;   83.000;   27.000
403.575;  142.500;  -90.000;  -46.000
403.703; -113.325; -732.000; -557.000
403.830;  -55.450; -531.000; -496.000
403.957; -155.150;-1117.000;-1023.000
404.085;    2.375;  -61.000; -172.000
404.212;   97.625;  -50.000;   63.000
404.339;  261.400; -566.000; -306.000
404.467; 5830.975; -612.000; -524.000
404.594; 3804.050; -287.000; -227.000
404.721;  849.725; -869.000; -764.000
404.848;   83.525; -113.000; -202.000
404.976; -108.725; -856.000; -783.000
405.103;   -0.600;  -14.000;  -82.000
405.230;  -17.525;  190.000;  226.000
405.357;   16.700;  117.000;   44.000
405.484;  256.750;  -49.000;    5.000
405.612;   61.650; -548.000; -563.000
405.739;  -77.500; -488.000; -243.000
405.866;   77.325;  669.000;  385.000
405.993;  -43.450; -398.000; -102.000
406.120; -141.700; -801.000; -887.000
406.247;  -77.175; -323.000; -342.000
406.374;  406.100;  540.000;  629.000
406.501;   86.775; -632.000; -702.000
406.628;  -80.950; -621.000; -589.000
406.755; -101.225; -803.000; -620.000
406.882;  -43.200; -228.000; -277.000
407.009; -116.300; -719.000; -628.000
407.136;   37.400; -480.000; -401.000
407.263;  110.175; -939.000; -829.000
407.390;  -86.525; -692.000; -614.000
407.517; -192.850;-1139.000;-1187.000
407.644;  -48.900; -332.000; -256.000
407.771;  -90.100; -249.000; -287.000
407.898;    4.425;  168.000;  328.000
408.025;  -82.825; -421.000; -313.000
408.151;   -7.475;   82.000;  153.000
408.278;  -73.575; -267.000; -216.000
408.405; -129.275; -931.000; -899.000
408.532;  -77.475; -549.000; -542.000
408.659; -122.975; -677.000; -648.000
408.785; -209.225;-1298.000;-1170.000
408.912;  -72.100; -412.000; -296.000
409.039; -119.725; -610.000; -686.000
409.166; -101.250; -591.000; -555.000
409.292; -119.900; -571.000; -534.000
409.419; -122.025; -665.000; -649.000
409.546;  -98.500; -431.000; -192.000
409.672; -112.975; -713.000; -545.000
409.799;  -24.425;  -36.000;   34.000
409.926;  -46.775; -180.000; -179.000
410.052; -177.050;-1127.000;-1091.000
410.179;  -68.375; -368.000; -392.000
410.305;  -88.825; -375.000; -493.000
410.432;  -57.175; -220.000; -333.000
410.558;  -99.450; -305.000; -380.000
410.685; -112.575; -688.000; -431.000
410.812; -108.000; -409.000; -588.000
410.938; -144.075; -964.000; -808.000
411.065; -104.025; -671.000; -645.000
411.191;  -30.250; -189.000; -174.000
411.317; -135.125; -823.000; -742.000
411.444;  -64.150; -317.000; -246.000
411.570;  -83.725; -339.000; -294.000
411.697; -132.025; -758.000; -752.000
411.823; -183.425; -989.000; -999.000
411.949;  -36.125;  -56.000;   17.000
412.076; -131.225; -539.000; -519.000
412.202; -115.350; -758.000; -757.000
412.329; -143.225; -798.000; -752.000
412.455; -114.175; -821.000; -657.000
412.581;  -28.425;  -15.000;  172.000
412.707;  -74.725; -540.000; -457.000
412.834;    7.800;  156.000;  219.000
412.960;  -97.550; -785.000; -784.000
413.086; -114.925; -743.000; -701.000
413.212;  122.875;  604.000;  578.000
413.339;  -74.900; -685.000; -701.000
413.465;  -11.050; -364.000; -310.000
413.591; -105.650; -757.000; -474.000
413.717;  -61.875; -358.000; -366.000
413.843; -134.475; -839.000; -861.000
413.969;  -50.600;  -47.000; -292.000
414.096; -101.225; -679.000; -679.000
414.222;   -8.625;  -33.000;   85.000
414.348;  -52.450; -652.000; -385.000
414.474;   91.250;   38.000;  -52.000
414.600;  -38.550; -126.000; -144.000
414.726;  -24.500;  -96.000;  -55.000
414.852;  -70.025; -365.000; -342.000
414.978;   30.625;  104.000;  -18.000
415.104;   33.375;   38.000;   80.000
415.230;    5.100; -329.000; -330.000
415.356;   24.700; -409.000; -514.000
415.482;  197.800;   13.000;  -35.000
415.608;  262.550; -247.000; -323.000
415.734;  935.775;   67.000;   38.000
415.860;19998.525; -875.000; -767.000
415.986;14632.575; -685.000; -607.000
416.111; 1264.525; -798.000; -652.000
416.237;  256.625; -424.000; -571.000
416.363; 1121.450; -765.000; -733.000
416.489; 4250.825; -324.000; -251.000
416.615;  451.200; -707.000; -742.000
416.741;  -23.800; -677.000; -784.000
416.866;  -91.075; -673.000; -736.000
416.992; -117.150; -801.000; -818.000
417.118;  -31.275;  -41.000;  -80.000
417.244;  -70.175; -798.000; -531.000
417.369; -109.900; -801.000; -612.000
417.495;  -10.650; -325.000; -254.000
417.621; -101.600;-1015.000; -803.000
417.746;    0.225; -579.000; -572.000
417.872;   45.900; -254.000; -144.000
417.998;   49.625; -515.000; -530.000
418.123; 1050.900;-1073.000; -845.000
418.249; 5497.575; -512.000; -601.000
418.374;  773.475; -916.000; -824.000
418.500;  110.025; -383.000; -482.000
418.626;  107.000;   70.000;  -59.000
418.751;  116.675; -549.000; -448.000
418.877;  188.575; -637.000; -643.000
419.002; 1793.200; -688.000; -560.000
419.128;12688.850; -930.000; -721.000
419.253; 3155.050; -967.000; -837.000
419.379;  405.600; -391.000; -338.000
419.504;  386.750;  325.000;  415.000
419.629;  515.875; -393.000; -212.000
419.755; 3614.400; -317.000; -254.000
419.880;21573.650;  -98.000;   67.000
420.006;11546.300; -280.000; -221.000
420.131;29823.925; -662.000; -775.000
420.256; 4347.975; -315.000; -316.000
420.382;  557.400; -665.000; -687.000
420.507;   62.275; -649.000; -778.000
420.632;  107.775; -337.000; -339.000
420.758;  224.925; -251.000; -425.000
420.883;  -99.800; -876.000; -672.000
421.008; -105.775; -775.000; -619.000
421.133;  -84.375; -509.000; -467.000
421.259;  -51.675; -325.000; -259.000
421.384; -127.050; -834.000; -693.000
421.509;  -52.350;-1052.000; -862.000
421.634; 1043.175; -936.000; -820.000
421.759;  467.250; -359.000; -327.000
421.885;  -56.900; -717.000; -656.000
422.010;  -84.675; -673.000; -542.000
422.135; -160.775; -695.000; -727.000
422.260;   25.650;  340.000;  280.000
422.385;  -51.000;   12.000;  -98.000
422.510;    6.850;  151.000;  -26.000
422.635;    2.525;  -87.000;  -43.000
422.760;   94.425; -766.000; -791.000
422.885;   32.150;  -57.000;  -80.000
423.010;  -51.075; -112.000; -169.000
423.135;  -93.575; -481.000; -561.000
423.260;  -24.100; -150.000; -245.000
423.385;   49.575;  476.000;  222.000
423.510;   29.425;   71.000;  -22.000
423.635;   67.100;  133.000;   45.000
423.760;   39.450;  383.000;  328.000
423.885;   28.125;  336.000;  391.000
424.010;    2.425;  -68.000;  -13.000
424.135;  -21.600;    5.000;  -33.000
424.259;  -90.275; -654.000; -457.000
424.384;  -74.225; -279.000; -272.000
424.509;  -25.550; -260.000; -186.000
424.634; -105.675; -761.000; -623.000
424.759;  -33.850; -688.000; -544.000
424.883;  -16.800; -506.000; -527.000
425.008;  159.100; -502.000; -410.000
425.133; 2007.800; -679.000; -653.000
425.258;  953.375; -517.000; -381.000
425.382;  983.150; -867.000; -774.000
425.507; 2506.775; -487.000; -543.000
425.632;  414.425; -802.000; -663.000
425.756;  471.050; -256.000; -146.000
425.881; 6648.575; -831.000; -857.000
426.006;18213.800; -604.000; -355.000
426.130; 2834.825; -696.000; -508.000
426.255;  378.550; -611.000; -491.000
426.379;  153.625; -189.000; -577.000
426.504;  370.925;  660.000;  544.000
426.629; 4012.525; -519.000; -466.000
426.753; 2843.525;   64.000;  -46.000
426.878;  309.475; -252.000; -288.000
427.002;  149.400; -651.000; -668.000
427.127; 1582.425;  -35.000; -158.000
427.251;11522.850;  372.000;  401.000
427.375; 3282.875; -191.000; -173.000
427.500; 2185.125; -616.000; -610.000
427.624;  744.425; -234.000; -400.000
427.749;   84.425; -216.000; -225.000
427.873;  -62.725; -499.000; -412.000
427.997;  -45.275; -222.000; -230.000
428.122;   61.075;  795.000;  703.000
428.246;   54.975;  433.000;  434.000
428.371; -127.625; -869.000; -773.000
428.495;  -98.600; -624.000; -646.000
428.619;  -38.525; -186.000; -117.000
428.743;   17.575;   65.000;  132.000
428.868;   -5.700; -732.000; -643.000
428.992; 1322.725; -219.000; -326.000
429.116;  543.000; -329.000; -357.000
429.240;  258.850;  419.000;  426.000
429.365;  -29.700; -454.000; -574.000
429.489;  -47.250; -638.000; -647.000
429.613;   21.175; -236.000; -177.000
429.737;   28.825; -563.000; -432.000
429.861;  260.325; -247.000; -133.000
429.985; 5583.825; -425.000; -305.000
430.109; 6207.050; -770.000; -908.000
430.234;  737.200;   76.000;  -50.000
430.358;   63.250; -250.000; -160.000
430.482;  -66.000; -672.000; -564.000
430.606;  -79.325; -655.000; -375.000
430.730;  -12.950; -437.000; -388.000
430.854;   91.725; -909.000; -835.000
430.978;  -75.500; -795.000; -764.000
431.102; -100.275; -499.000; -422.000
431.226; -119.675; -874.000; -815.000
431.350;   24.825;  345.000;  422.000
431.474;  -81.350; -661.000; -373.000
431.597; -159.225;-1060.000; -848.000
431.721;  -78.750; -276.000; -267.000
431.845; -139.200; -704.000; -472.000
431.969;  -92.150; -304.000; -349.000
432.093;  -97.300; -395.000; -317.000
432.217;  -16.000;   32.000;   82.000
432.341;  -98.100; -523.000; -518.000
432.464;    4.725;   96.000;   40.000
432.588;  165.050; -401.000; -329.000
432.712;   95.150;  -52.000;  -52.000
432.836;   26.750;  213.000;  263.000
432.959;  -32.925; -372.000; -311.000
433.083;   68.550;   11.000;    2.000
433.207;  391.150;  285.000;  930.000
433.330; 5102.650; -391.000; -200.000
433.454; 6336.950; -654.000; -638.000
433.578; 3635.600;  583.000;  278.000
433.701;  678.725; -623.000; -675.000
433.825;  129.950; -292.000; -299.000
433.949;  143.800;   28.000;  -72.000
434.072;   36.650; -410.000; -323.000
434.196;   -2.175; -309.000; -117.000
434.319; 3713.175;25482.000;25124.000
434.443;  723.425; -656.000; -603.000
434.566; 2683.175;  281.000;   62.000
434.690;  455.175; -637.000; -383.000
434.813;   47.225; -251.000; -173.000
434.937;  -80.250; -569.000; -696.000
435.060;  -62.375; -423.000; -332.000
435.184;  255.275; -492.000; -217.000
435.307;  138.625;  159.000;  102.000
435.431;  -23.650;  -40.000;   24.000
435.554;  -80.700; -399.000; -240.000
435.677;  -87.475; -350.000; -258.000
435.801;  -43.675;  -25.000;   49.000
435.924;  -34.400;    1.000;  -67.000
436.048; -129.300;-1019.000; -732.000
436.171;  -59.300; -240.000;  -66.000
436.294;  -30.475; -248.000; -229.000
436.417;   85.675; -963.000; -849.000
436.541;  -84.875; -814.000; -840.000
436.664;  -45.450; -242.000; -316.000
436.787;  -32.900;   13.000;  113.000
436.910; -126.025; -792.000; -422.000
437.034;   -9.150;  142.000;  143.000
437.157;   37.075;  -11.000;    0.000
437.280;  -65.125; -392.000; -292.000
437.403;  -93.500; -982.000; -869.000
437.526;  530.475; -903.000; -865.000
437.649; 2045.025; -505.000; -332.000
437.772;  278.825; -692.000; -540.000
437.896;  125.150;  700.000;  544.000
438.019; -123.000; -758.000; -503.000
438.142;  -92.775; -596.000; -506.000
438.265;  -37.650; -639.000; -670.000
438.388;  519.150; -520.000; -410.000
438.511;   63.900; -597.000; -394.000
438.634;  -45.950; -247.000; -125.000
438.757; -137.700; -693.000; -619.000
438.880;  -26.525;  -34.000;  -57.000
439.003;  -91.000; -417.000; -437.000
439.126;  -74.225; -287.000; -167.000
439.248;  -69.100;  -98.000; -139.000
439.371;  -42.375;    9.000;  -53.000
439.494;    5.300;  510.000;  439.000
439.617;  -69.800;   65.000;  -88.000
439.740; -179.525; -968.000; -816.000
439.863; -150.725; -755.000; -595.000
439.986; -132.125; -476.000; -431.000
440.108;  -49.350; -161.000; -112.000
440.231; -179.375; -950.000; -836.000
440.354;  -44.500;  -64.000; -150.000
440.477;   10.750; -566.000; -542.000
440.599;    9.125; -200.000; -225.000
440.722; -132.300; -709.000; -586.000
440.845;   66.200;  751.000;  928.000
440.968; -130.775; -415.000; -311.000
441.090;  -66.350; -199.000;  -33.000
441.213; -173.000;-1021.000; -825.000
441.336;  -59.900; -159.000;   -5.000
441.458;  -77.775; -549.000; -396.000
441.581;  -93.475; -628.000; -629.000
441.703;  -73.875; -152.000;   13.000
441.826; -126.875; -557.000; -400.000
441.948;  -57.000;   56.000;   51.000
442.071;   16.025;  555.000;  424.000
442.193; -122.500; -531.000; -485.000
442.316;   19.850;  152.000;   97.000
442.438;   40.925; -233.000;  -10.000
442.561;   66.025;  272.000;  262.000
442.683;  450.850; -809.000; -522.000
442.806; 1035.475;   -8.000;   74.000
442.928;    5.025; -859.000; -604.000
443.051;  -75.375; -577.000; -373.000
443.173;  -98.825; -341.000; -339.000
443.295;  -92.800; -263.000; -371.000
443.418;  -86.825; -321.000;  -29.000
443.540;   -1.150; -106.000;   -4.000
443.662; -133.675; -563.000; -465.000
443.785;  -12.450;  335.000;  199.000
443.907; -113.625; -362.000; -208.000
444.029; -143.075; -767.000; -494.000
444.152; -151.800; -644.000; -554.000
444.274;  -41.225;  -18.000;  -24.000
444.396; -120.450; -461.000; -221.000
444.518; -131.150; -691.000; -454.000
444.640; -107.100; -268.000; -111.000
444.763;   -9.900;  388.000;  249.000
444.885; -122.250; -432.000; -392.000
445.007;  -28.850;   35.000;   86.000
445.129; -129.625; -610.000; -515.000
445.251; -106.275; -372.000; -439.000
445.373; -156.325; -537.000; -386.000
445.495;    4.400;  242.000;  350.000
445.617;   35.125;  853.000;  753.000
445.739;  -74.125; -215.000;  -97.000
445.861;  -54.375; -245.000; -112.000
445.984;  -43.425; -267.000; -101.000
446.105;  143.925; -418.000; -251.000
446.227;  550.925; -176.000;  -19.000
446.349;  -13.250; -358.000; -249.000
446.471; -101.675; -615.000; -448.000
446.593;  -78.100; -316.000;   19.000
446.715;    1.900;  -67.000;   41.000
446.837;   55.775;  697.000;  832.000
446.959; -100.400; -457.000; -478.000
447.081; -140.100; -628.000; -518.000
447.203;   49.700;  862.000;  834.000
447.325;  -77.350; -270.000;   42.000
447.446;   -7.700;  286.000;  530.000
447.568; -170.875; -921.000; -803.000
447.690;  -80.850; -236.000; -245.000
447.812; -156.550; -798.000; -519.000
447.933;  -37.825;  155.000;  127.000
448.055;  -76.650; -306.000; -261.000
448.177;  121.725;   31.000;   79.000
448.299;   50.775; -935.000; -727.000
448.420;   12.200;  -25.000;  159.000
448.542;  -51.100;   -3.000;   33.000
448.664;  -41.550;  109.000;  322.000
448.785;  -34.775;  265.000;   83.000
448.907;  -88.000; -614.000; -353.000
449.028;  -51.700; -771.000; -471.000
449.150;   59.000;  492.000;  589.000
449.272; -185.550;-1044.000; -913.000
449.393;    9.650;  612.000;  694.000
449.515; -148.975; -634.000; -581.000
449.636;  -59.250; -264.000; -155.000
449.758;   67.375;  763.000;  622.000
449.879;  -91.925; -498.000; -396.000
450.001;  -87.775; -149.000;  -49.000
450.122;  -35.400;  -95.000;  162.000
450.244;  -34.800;   37.000;  364.000
450.365; -100.650; -495.000; -301.000
450.486;  -53.825;   80.000;  268.000
450.608;   24.800;  393.000;  326.000
450.729;   55.975;  578.000;  645.000
450.850;   11.175; -574.000; -466.000
450.972;  743.175; -552.000; -389.000
451.093; 4995.350;  190.000;  588.000
451.214; 2202.400; -516.000; -337.000
451.336;  396.775;  773.000;  579.000
451.457;   63.950;  264.000;  393.000
451.578;  -33.950; -118.000;  -74.000
451.699; -121.575; -546.000; -540.000
451.821;  -78.875; -284.000;  -50.000
451.942;  -16.575;  278.000;  285.000
452.063;   38.500;  228.000;  419.000
452.184;  552.850;  -54.000;  -49.000
452.305; 1075.350;  103.000;  170.000
452.427;  132.850; -549.000; -301.000
452.548;  -31.550;   23.000;   79.000
452.669;  -62.950; -257.000;  -89.000
452.790;  -49.925;    3.000;  -18.000
452.911;   -4.350;  195.000;  259.000
453.032;  -74.475; -289.000;  -60.000
453.153;  -52.000;  -29.000;   81.000
453.274;   60.900;  737.000;  868.000
453.395;  -61.750;  -51.000;  175.000
453.516;   14.350; 1317.000; 1388.000
453.637;  -78.200; -205.000; -150.000
453.758;  -48.875;   15.000;   69.000
453.879; -127.500; -462.000; -250.000
454.000;   75.500; 1086.000;  948.000
454.121; -118.025; -554.000; -326.000
454.242; -124.750; -599.000; -383.000
454.362;  -60.825;  -99.000;  114.000
454.483;  -47.525; -309.000; -229.000
454.604;   49.500;  512.000;  580.000
454.725; -131.075; -627.000; -555.000
454.846; -136.850; -474.000; -406.000
454.967;  -21.925;  230.000;  539.000
455.087;  -49.575;  179.000;  153.000
455.208;   11.100;  554.000;  856.000
455.329;  -82.225;  -22.000;   82.000
455.450;   25.075;  473.000;  633.000
455.570;  -84.675; -234.000; -211.000
455.691;  -48.225;  201.000;  407.000
455.812; -118.150; -270.000;  -92.000
455.932;  -56.200;  107.000;  -97.000
456.053;  -86.700;   36.000;   24.000
456.173; -101.300; -433.000; -355.000
456.294; -147.975; -476.000; -303.000
456.415;  -70.325;  -73.000;   70.000
456.535;  -52.775;  297.000;  273.000
456.656;  -54.350;  132.000;  240.000
456.776;  -90.725;    3.000;  298.000
456.897;  -17.000;  308.000;  513.000
457.017;  -76.700; -153.000;   -3.000
457.138; -113.950; -402.000; -249.000
457.258;  -41.675;  263.000;  224.000
457.379;  -20.250;  509.000;  521.000
457.499;  -29.600;  443.000;  432.000
457.620; -119.925; -407.000; -231.000
457.740;  -97.925; -132.000;  -11.000
457.860;  -63.750;   87.000;   44.000
457.981;  -66.775;  132.000;  124.000
458.101;  -73.500;  -89.000;   40.000
458.221;  -33.200;  336.000;  402.000
458.342;  -69.200;   -4.000;  -37.000
458.462;    8.400;  617.000;  352.000
458.582;  -30.925; -302.000; -294.000
458.703;   -3.600;  303.000;  154.000
458.823;  -16.050;   22.000;  163.000
458.943;   13.650;  341.000;  467.000
459.063;  -46.125; 1124.000;  192.000
459.183;  -35.750;  328.000;  313.000
459.304;    3.825;  315.000;  517.000
459.424;  -76.175; -246.000;  -89.000
459.544;  314.675;  388.000;  764.000
459.664;  827.675;  499.000;  506.000
459.784;  311.475; 1004.000; 1175.000
459.904;   58.000;  867.000;  744.000
460.024;   73.350;  867.000;  684.000
460.144;   -6.125;  449.000;  554.000
460.264;    3.900;  515.000;  327.000
460.385;  -87.150; -145.000; -119.000
460.505;   18.850;  905.000;  858.000
460.625; -111.875;  -17.000;  -68.000
460.745;  -14.875;  396.000;  541.000
460.864;  -56.525;  153.000;  469.000
460.984;    8.125;  499.000;  573.000
461.104;  140.275; 1656.000; 1775.000
461.224;    9.625;  657.000;  650.000
461.344;  -20.475;  431.000;  360.000
461.464;  -40.750;  258.000;  513.000
461.584;  -27.900;  283.000;  466.000
461.704;  -50.975;   58.000;  108.000
461.824;  -72.875;  238.000;  259.000
461.943;  -53.025;  191.000;  130.000
462.063;  -86.775;    2.000;  324.000
462.183;   28.875;  639.000;  717.000
462.303;   90.275; 1678.000; 1230.000
462.422;   26.450;  781.000;  840.000
462.542;  -35.550;  271.000;  391.000
462.662;   29.075;  353.000;  380.000
462.782;  245.125;  833.000;  572.000
462.901;  476.550;  545.000;  717.000
463.021;  290.425; 1702.000; 1638.000
463.141;    1.725;  337.000;  770.000
463.260;  -29.200;  614.000;  474.000
463.380;   10.075;  902.000;  884.000
463.499;  -37.350;  342.000;  332.000
463.619;  -32.700;  581.000;  559.000
463.738;   98.875; 1644.000;  903.000
463.858;   16.450;  657.000;  811.000
463.978;  -45.775;  542.000;  396.000
464.097;   54.775;  921.000; 1114.000
464.217;  113.250; 1196.000; 1143.000
464.336;  118.400; 1068.000; 1130.000
464.455;  -44.100;  328.000;  659.000
464.575;   40.325;  597.000;  602.000
464.694;  163.125; 1204.000; 1179.000
464.814;  135.400; 1190.000; 1138.000
464.933;   79.175; 1095.000; 1027.000
465.052;   81.675; 1412.000; 1054.000
465.172;   77.950;  922.000;  799.000
465.291;  138.350; 1376.000; 1320.000
465.410;   17.500;  462.000;  735.000
465.530;   84.650; 1355.000; 1310.000
465.649;   47.275; 1209.000; 1273.000
465.768;  135.700; 1673.000; 1508.000
465.888;   41.675;  941.000; 1174.000
466.007;  102.050; 1335.000; 1440.000
466.126;   -6.450;  721.000;  641.000
466.245;   36.250; 1176.000; 1187.000
466.364;   13.325;  950.000; 1060.000
466.484;   62.300; 1024.000; 1213.000
466.603;   22.200; 1101.000; 1222.000
466.722;  123.700; 1490.000; 1769.000
466.841;   70.025; 1151.000; 1401.000
466.960;   42.425; 1069.000;  972.000
467.079;  113.100; 1971.000; 1786.000
467.198;   44.675; 1238.000; 1181.000
467.317;   76.750; 1768.000; 1162.000
467.436;   60.550; 1709.000; 1261.000
467.555;  108.875; 1796.000; 1746.000
467.674;   69.250; 1227.000; 1329.000
467.793;   28.475; 1376.000; 1374.000
467.912;   70.125; 1658.000; 1539.000
468.031;  134.550; 2038.000; 1930.000
468.150;  133.550; 1842.000; 1837.000
468.269;  183.600; 2313.000; 2090.000
468.388;  187.050; 2168.000; 2339.000
468.507;  258.150; 2884.000; 2903.000
468.626;  227.175; 2555.000; 2541.000
468.744;  133.625; 2018.000; 2174.000
468.863;  199.075; 2312.000; 2523.000
468.982;  104.150; 1503.000; 1555.000
469.101;  227.050; 2788.000; 2692.000
469.220;  150.975; 2333.000; 2176.000
469.338;  248.525; 2935.000; 3051.000
469.457;  201.150; 2719.000; 2545.000
469.576;  343.675; 3953.000; 3784.000
469.695;  240.625; 2877.000; 3066.000
469.813;  417.750; 4148.000; 4192.000
469.932;  409.350; 4255.000; 4485.000
470.051;  427.750; 4075.000; 4161.000
470.169;  850.575; 4470.000; 4338.000
470.288; 1497.050; 4700.000; 4809.000
470.406;  871.050; 5059.000; 5194.000
470.525;  642.250; 6101.000; 5787.000
470.644;  656.375; 6847.000; 6794.000
470.762;  831.375; 8397.000; 7873.000
470.881;  887.850; 8651.000; 8464.000
470.999; 1024.700; 9685.000; 9151.000
471.118; 1090.875;11174.000;10711.000

