
Integration time [ms]: 200.000
Averaging Nr. [scans]: 10
Smoothing Nr. [pixels]: 0
Data measured with spectrometer [name]: 2101012U2
Wave   ;Sample   ;Dark     ;Reference
[nm]   ;[counts] ;[counts] ;[counts] 

197.733;   73.800;  516.000;  404.000
197.879; -169.900; -610.000; -634.000
198.025; -110.200; -475.000; -420.000
198.171; -131.700; -602.000; -612.000
198.317;  -99.600; -401.000; -316.000
198.463; -144.600; -655.000; -404.000
198.609;   62.300;  181.000; -137.000
198.755; -184.700; -644.000; -410.000
198.901; -141.600; -505.000; -424.000
199.047; -142.600; -615.000; -488.000
199.193; -101.800; -230.000; -468.000
199.339;  -97.200; -222.000; -369.000
199.485;   92.900;  330.000;  271.000
199.631;   64.800;  227.000;  310.000
199.777; -106.700; -466.000; -398.000
199.923; -133.100; -610.000; -424.000
200.069;   -5.700; -141.000;  -58.000
200.215;  137.500;  128.000;  453.000
200.361;   93.200;  243.000;  477.000
200.507; -128.100; -600.000; -373.000
200.653;  -23.500; -371.000; -194.000
200.798;  -61.200; -215.000; -125.000
200.944;  -29.400; -146.000;  -41.000
201.090;   96.100;   61.000;  222.000
201.236;  -24.100; -116.000; -158.000
201.382;  256.700;  874.000;  903.000
201.528;    5.100;  -58.000;  -48.000
201.674;  -42.200; -386.000; -293.000
201.819; -149.200; -540.000; -439.000
201.965; -150.500; -699.000; -447.000
202.111;  -43.600; -273.000; -226.000
202.257;  -93.700; -250.000; -238.000
202.402;    9.300;   13.000;  -36.000
202.548;  -85.400; -169.000; -116.000
202.694;  171.100;  410.000; -183.000
202.840; -146.400; -603.000; -531.000
202.985; -122.100; -681.000; -639.000
203.131; -236.600; -832.000; -666.000
203.277;  -42.300; -199.000; -262.000
203.423;  -79.400; -434.000; -520.000
203.568; -108.900; -462.000; -237.000
203.714; -116.800; -535.000; -542.000
203.860; -161.400; -682.000; -641.000
204.005;   46.400;  112.000;  167.000
204.151;  147.700;  561.000;  556.000
204.296;  -88.200; -354.000; -221.000
204.442; -141.900; -600.000; -547.000
204.588; -115.700; -592.000; -579.000
204.733;   32.400;  178.000;  168.000
204.879; -261.700;-1018.000; -822.000
205.025;   10.900;  -99.000;  126.000
205.170;   25.800;  -17.000;   94.000
205.316;  131.000;  438.000;  661.000
205.461; -159.100; -698.000; -554.000
205.607;  191.400;  609.000;  665.000
205.752; -153.400; -626.000; -551.000
205.898; -128.800; -501.000; -391.000
206.043; -139.700; -578.000; -506.000
206.189; -105.300; -243.000; -285.000
206.334;  151.100;  554.000;  606.000
206.480;  108.500;  409.000;  239.000
206.625; -146.700; -529.000; -552.000
206.771;  -77.900; -451.000; -373.000
206.916;  -80.500; -210.000; -537.000
207.062; -147.200; -545.000; -591.000
207.207; -107.500; -546.000; -443.000
207.353;  108.500;  185.000;  460.000
207.498;   81.800;  196.000;   85.000
207.643; -108.100; -501.000; -370.000
207.789; -251.200;-1069.000; -910.000
207.934; -222.000; -665.000; -713.000
208.080;  -22.400; -154.000;   66.000
208.225;  -15.600;  -22.000;  -57.000
208.370; -140.200; -727.000; -619.000
208.516; -149.300; -741.000; -487.000
208.661;  -44.400; -127.000;  -69.000
208.806;  -33.800; -165.000; -171.000
208.952; -228.200;-1044.000; -731.000
209.097;  136.900;  378.000;  349.000
209.242;  -97.500; -307.000; -382.000
209.387;  118.300;  392.000;  350.000
209.533;  -75.100; -321.000; -350.000
209.678;  206.400;  472.000;  543.000
209.823;  -88.400; -408.000; -310.000
209.969; -222.800; -860.000; -757.000
210.114; -188.600; -907.000; -719.000
210.259; -263.900; -939.000; -889.000
210.404;  -14.400; -171.000;  103.000
210.549;   16.600;  108.000;    3.000
210.695;  -25.200;   -3.000;  -95.000
210.840;   55.000;   94.000;   67.000
210.985; -135.900; -484.000; -303.000
211.130;  176.800;  268.000;  406.000
211.275;   76.300;  207.000;  199.000
211.420; -104.800; -300.000; -289.000
211.566; -149.000; -536.000; -489.000
211.711;   32.700;  218.000;  157.000
211.856; -123.600; -545.000; -519.000
212.001;  -11.600;  151.000;   44.000
212.146;   31.300;  153.000;   49.000
212.291;  -42.700; -210.000; -186.000
212.436;  -18.700; -280.000;   -6.000
212.581; -179.500; -685.000; -653.000
212.726; -127.000; -487.000; -538.000
212.871;  -81.300; -552.000; -217.000
213.016; -302.900;-1172.000;-1029.000
213.161;  137.300;  406.000;  291.000
213.306; -154.600; -435.000; -577.000
213.451; -191.100; -778.000; -689.000
213.596;  -76.000; -455.000; -347.000
213.741; -115.800; -448.000; -538.000
213.886; -147.900; -498.000; -517.000
214.031;  -68.200; -294.000; -124.000
214.176;  -92.700; -408.000; -341.000
214.321;  -34.800; -296.000; -157.000
214.466;  -25.100; -163.000;  -43.000
214.611;   -6.100;  -61.000;  -10.000
214.756; -218.400; -948.000; -858.000
214.901;  -12.400; -388.000; -226.000
215.046; -228.200; -797.000; -825.000
215.191;   39.200;  128.000;   35.000
215.336;  -16.200; -157.000;  -19.000
215.480; -120.100; -684.000; -505.000
215.625;  -32.900; -175.000;  -19.000
215.770; -167.200; -757.000; -662.000
215.915;  -21.100;   -5.000;  -97.000
216.060;  -22.800; -113.000;  -21.000
216.205; -216.600; -731.000; -779.000
216.349; -143.300; -470.000; -533.000
216.494; -267.300; -939.000; -867.000
216.639; -236.400; -823.000; -888.000
216.784; -149.900; -577.000; -525.000
216.929;  120.800;  392.000;  281.000
217.073;  -32.400; -244.000;  -31.000
217.218;   35.600;   78.000;  -47.000
217.363; -180.900; -656.000; -618.000
217.507; -150.700; -623.000; -588.000
217.652; -241.700; -845.000; -874.000
217.797; -188.200; -708.000; -659.000
217.942; -230.400; -856.000; -720.000
218.086;  155.900;  608.000;  539.000
218.231;   -9.100; -174.000;  -26.000
218.376;  -95.000; -337.000; -229.000
218.520;   30.200;  -41.000;   96.000
218.665;  -75.100; -338.000; -204.000
218.810;  -85.700; -275.000; -233.000
218.954;   51.800;  201.000;   35.000
219.099; -213.400; -713.000; -963.000
219.243; -162.300; -589.000; -554.000
219.388;  -64.000; -264.000; -136.000
219.532;  -25.800; -116.000; -116.000
219.677; -147.700; -564.000; -521.000
219.822;   19.400;   33.000;   89.000
219.966;   21.400;   17.000;  -99.000
220.111;  -59.300; -328.000;  -40.000
220.255; -177.600; -797.000; -750.000
220.400;  -14.900; -180.000; -146.000
220.544; -137.100; -516.000; -450.000
220.689; -128.300; -422.000; -451.000
220.833;  -34.100; -123.000;  -58.000
220.978;  -75.300; -393.000; -563.000
221.122;   58.700;  319.000;  307.000
221.267; -248.800; -906.000; -837.000
221.411; -104.900; -478.000; -394.000
221.555;   15.600; -104.000;  -23.000
221.700;  -95.500; -329.000; -222.000
221.844;   81.600;  255.000;  272.000
221.989;  -72.100; -328.000; -311.000
222.133;  -71.200; -289.000; -307.000
222.277;  -13.500;    5.000;   78.000
222.422;   25.200;  227.000;  113.000
222.566;  -67.800; -381.000; -214.000
222.711; -120.400; -414.000; -479.000
222.855; -143.800; -643.000; -586.000
222.999; -172.800; -642.000; -717.000
223.144;  -58.800; -195.000; -194.000
223.288;  111.800;  423.000;  251.000
223.432;   15.200;  184.000;  230.000
223.576;   52.700;  152.000;  -21.000
223.721;  120.000;  364.000;  273.000
223.865; -106.500; -472.000; -475.000
224.009;  443.000; 1673.000; 1631.000
224.153; -154.400; -660.000; -671.000
224.298; -117.200; -531.000; -489.000
224.442;  -10.100;  -74.000;  -33.000
224.586;   -3.200; -169.000; -106.000
224.730; -191.500; -858.000; -670.000
224.875; -238.300; -739.000; -688.000
225.019;   23.300;  102.000;  188.000
225.163;  113.500;  208.000;  341.000
225.307;   44.700;   97.000;  -91.000
225.451;  121.100;  360.000;  481.000
225.595;   43.700;  264.000;  176.000
225.739;  -25.200; -170.000;  -94.000
225.884;  -11.900;   86.000;    5.000
226.028; -166.600; -760.000; -626.000
226.172;  -72.800; -260.000; -273.000
226.316; -234.000; -941.000; -902.000
226.460; -174.200; -645.000; -493.000
226.604;  -63.200; -406.000; -400.000
226.748; -215.700; -836.000; -733.000
226.892;  -49.400; -227.000; -181.000
227.036; -102.700; -537.000; -447.000
227.180;  -96.900; -551.000; -375.000
227.324; -119.200; -561.000; -580.000
227.468; -217.300; -819.000; -717.000
227.612;   15.500;  242.000;  -28.000
227.756; -209.200; -845.000; -698.000
227.900;  107.100;  342.000;  441.000
228.044; -116.800; -509.000; -290.000
228.188;  125.100;  448.000;  568.000
228.332; -153.400; -546.000; -472.000
228.476;  -35.800; -223.000; -149.000
228.620;  -56.000; -210.000; -150.000
228.764;  166.800;  431.000;  349.000
228.908;    1.900; -155.000;   30.000
229.052; -143.200; -615.000; -528.000
229.195;  -39.900; -172.000;   13.000
229.339;  -52.200; -235.000; -305.000
229.483;  -51.900;    5.000; -162.000
229.627;   28.000; -156.000;  139.000
229.771;  -61.400; -218.000; -294.000
229.915;   41.500;  230.000;   79.000
230.059; -189.400; -648.000; -663.000
230.202;  -77.300; -370.000; -317.000
230.346;    2.600; -107.000;  107.000
230.490; -146.800; -489.000; -521.000
230.634; -197.200; -736.000; -553.000
230.777;  181.000;  478.000;  509.000
230.921;  -77.200; -450.000; -359.000
231.065;  -75.800; -246.000; -286.000
231.209;   90.700;  261.000;  265.000
231.352;   43.900;   54.000;   40.000
231.496;   46.700;  568.000;  188.000
231.640; -165.400; -693.000; -621.000
231.783;  163.900;  546.000;  525.000
231.927;  -89.800; -294.000; -365.000
232.071; -246.900; -962.000; -736.000
232.214; -214.200; -980.000; -764.000
232.358; -197.700; -683.000; -599.000
232.502;   -1.900;  -19.000;    7.000
232.645; -258.500;-1090.000; -927.000
232.789;  -28.900; -257.000; -218.000
232.933;  -59.800; -407.000; -224.000
233.076; -253.800;-1038.000; -897.000
233.220; -225.200; -752.000; -777.000
233.363; -154.100; -669.000; -477.000
233.507;  127.500;  371.000;  129.000
233.650; -204.800; -764.000; -834.000
233.794;  124.100;  438.000;  461.000
233.938; -122.400; -530.000; -362.000
234.081;  -18.800;  -93.000;   31.000
234.225; -135.600; -631.000; -539.000
234.368; -209.100; -773.000; -723.000
234.512;  -76.700; -385.000; -299.000
234.655; -181.700; -582.000; -555.000
234.798; -129.100; -493.000; -466.000
234.942; -259.200; -884.000;-1002.000
235.085; -151.300; -651.000; -443.000
235.229; -141.100; -405.000; -410.000
235.372; -102.500; -247.000; -191.000
235.516;  -78.100; -397.000; -321.000
235.659;   92.400;   92.000;  121.000
235.802;    2.700;  -38.000;  -22.000
235.946;   84.600;  335.000;  215.000
236.089;   74.100;  126.000;  250.000
236.233;  101.500;  275.000;  298.000
236.376;  -80.300; -235.000; -378.000
236.519;  -80.500; -297.000; -319.000
236.663;  -40.100; -215.000; -117.000
236.806; -274.000;-1029.000; -999.000
236.949;  185.400;  543.000;  431.000
237.092;  157.300;  412.000;  391.000
237.236; -118.400; -589.000; -502.000
237.379;  138.500;  352.000;  428.000
237.522; -205.900; -879.000; -768.000
237.666;  -16.500; -271.000;   18.000
237.809; -237.300; -851.000; -823.000
237.952;   84.400;  469.000;  271.000
238.095; -106.700; -447.000; -442.000
238.238;  173.200;  688.000;  700.000
238.382;   34.800;  166.000;  103.000
238.525; -136.700; -598.000; -511.000
238.668; -252.600;-1060.000; -985.000
238.811; -178.900; -638.000; -643.000
238.954; -118.000; -483.000; -334.000
239.097;  211.100;  617.000;  664.000
239.241;   75.700;  394.000;  326.000
239.384;  -74.200; -254.000; -214.000
239.527; -101.900; -424.000; -224.000
239.670; -307.000; -994.000;-1091.000
239.813; -222.400; -696.000; -658.000
239.956;  160.900;  579.000;  473.000
240.099; -218.900; -778.000; -725.000
240.242;  142.800;  428.000;  432.000
240.385;  114.400;  466.000;  450.000
240.528; -143.500; -706.000; -473.000
240.671;   71.200;  189.000;  134.000
240.814;  -62.300; -441.000; -158.000
240.957; -176.200; -767.000; -578.000
241.100; -189.900; -779.000; -755.000
241.243; -283.800;-1234.000; -893.000
241.386; -133.500; -508.000; -379.000
241.529; -140.000; -735.000; -547.000
241.672; -154.800; -566.000; -495.000
241.815; -226.800; -832.000; -808.000
241.958;  -10.900; -125.000; -182.000
242.101; -148.700; -545.000; -390.000
242.244;  -96.900; -270.000; -325.000
242.387;  -81.200; -304.000; -246.000
242.530;  132.800;  470.000;  134.000
242.673;  -63.200; -381.000; -309.000
242.815; -238.300; -925.000; -899.000
242.958; -138.000; -482.000; -381.000
243.101;   56.800;  132.000;  187.000
243.244; -151.700; -564.000; -521.000
243.387;  -58.000; -313.000; -316.000
243.530; -160.100; -657.000; -674.000
243.672;    1.400;   43.000;  -92.000
243.815; -107.800; -355.000; -283.000
243.958;   18.700;   98.000;  -26.000
244.101;   11.100;   59.000;  -16.000
244.243;  -36.700;  -47.000;  101.000
244.386; -200.900; -761.000; -630.000
244.529;  -48.100; -132.000; -139.000
244.672; -299.500;-1154.000; -951.000
244.814; -222.000; -621.000; -794.000
244.957; -110.500; -380.000; -304.000
245.100; -160.500; -489.000; -489.000
245.242; -114.300; -387.000; -374.000
245.385;   19.100;  -59.000;  -39.000
245.528; -241.300; -871.000; -705.000
245.670;  235.500;  612.000;  634.000
245.813; -175.500; -599.000; -547.000
245.956;  -75.100; -324.000; -275.000
246.098; -134.600; -508.000; -650.000
246.241;   16.000;  194.000;   48.000
246.383;   10.400; -119.000;  -73.000
246.526; -178.600; -454.000; -525.000
246.669; -239.700; -889.000; -780.000
246.811;   45.900;  172.000;   -1.000
246.954; -134.200; -512.000; -426.000
247.096;  -60.600;  -84.000;   -6.000
247.239; -126.300; -482.000; -445.000
247.381; -120.700; -647.000; -488.000
247.524;  215.200;  645.000;  679.000
247.666;   10.000;   58.000;   11.000
247.809; -214.200; -887.000; -691.000
247.951;  -30.300;  -75.000;  138.000
248.094;   88.200;  432.000;  308.000
248.236; -314.000;-1262.000;-1238.000
248.378;   10.700; -356.000;  -81.000
248.521;  -27.200; -334.000; -337.000
248.663;  -60.600; -236.000; -267.000
248.806;  -39.800; -300.000; -266.000
248.948; -174.600; -886.000; -763.000
249.090; -114.400; -428.000; -398.000
249.233;  -84.900; -344.000; -381.000
249.375; -118.100; -474.000; -451.000
249.518;    4.100;  -83.000; -133.000
249.660;  -13.000; -103.000;    3.000
249.802; -308.900;-1303.000;-1189.000
249.945; -166.900; -612.000; -540.000
250.087; -221.400; -834.000; -768.000
250.229;  -93.700; -362.000; -480.000
250.371; -143.600; -494.000; -439.000
250.514;  -76.100; -310.000; -244.000
250.656;   19.600;   69.000;  102.000
250.798; -200.700; -849.000; -800.000
250.940;  -93.100; -322.000; -322.000
251.083;  -42.700; -335.000; -111.000
251.225;  140.000;  338.000;  310.000
251.367;  -87.400; -274.000; -373.000
251.509;  -56.800; -265.000; -210.000
251.651; -188.800; -731.000; -671.000
251.794;  165.000;  538.000;  632.000
251.936; -206.700; -821.000; -747.000
252.078; -119.000; -540.000; -461.000
252.220; -141.000; -645.000; -477.000
252.362;  185.100;  344.000;  462.000
252.504; -127.900; -677.000; -584.000
252.646; -201.900; -875.000; -722.000
252.788;    7.700;   14.000; -128.000
252.931;  -77.600; -257.000; -253.000
253.073;  -83.600; -376.000; -317.000
253.215;    0.000;  141.000;  122.000
253.357;  -19.000;   82.000; -153.000
253.499;  -76.300; -374.000; -234.000
253.641; -158.500; -749.000; -594.000
253.783; -163.100; -609.000; -527.000
253.925; -177.500; -586.000; -591.000
254.067; -245.600; -744.000; -667.000
254.209;  -20.900; -391.000; -259.000
254.351; -280.900; -865.000; -883.000
254.493; -114.300; -441.000; -417.000
254.635; -205.700; -936.000; -818.000
254.777; -137.400; -752.000; -687.000
254.918; -127.400; -512.000; -430.000
255.060; -104.100; -551.000; -395.000
255.202; -102.800; -473.000; -261.000
255.344; -156.400; -658.000; -455.000
255.486;  -97.600; -471.000; -406.000
255.628; -207.300; -780.000; -781.000
255.770; -164.300; -676.000; -536.000
255.912; -126.200; -559.000; -468.000
256.053; -181.900; -730.000; -508.000
256.195;  322.700; 1008.000;  903.000
256.337; -176.100; -861.000; -595.000
256.479;  139.200;  532.000;  416.000
256.621;  -79.300; -394.000; -212.000
256.762; -211.300; -789.000; -742.000
256.904;  142.500;  485.000;  487.000
257.046;  -44.400; -381.000; -271.000
257.188;  -85.700; -351.000; -264.000
257.329; -143.600; -525.000; -464.000
257.471; -233.600; -939.000; -807.000
257.613; -153.700; -584.000; -498.000
257.755; -261.600;-1073.000; -982.000
257.896;   87.300;  286.000;  392.000
258.038; -133.300; -403.000; -352.000
258.180;  -66.000; -354.000; -279.000
258.321; -155.800; -581.000; -457.000
258.463;  -12.400;  -71.000;  133.000
258.605; -125.500; -562.000; -570.000
258.746; -214.900; -886.000; -772.000
258.888; -302.900;-1026.000;-1020.000
259.029;   39.400;  121.000;   -8.000
259.171; -142.400; -614.000; -550.000
259.313;    9.600;  -49.000;  -47.000
259.454; -127.700; -536.000; -414.000
259.596; -125.300; -483.000; -390.000
259.737; -129.000; -590.000; -474.000
259.879;   98.000;  217.000;  311.000
260.020;  208.900;  901.000;  636.000
260.162;  -58.900; -146.000; -253.000
260.303; -206.600; -768.000; -687.000
260.445; -142.900; -609.000; -613.000
260.586;  102.000;  392.000;  157.000
260.728;  -83.600; -360.000; -248.000
260.869;  -92.400; -350.000; -343.000
261.011;  205.300;  706.000;  537.000
261.152;  -82.400; -479.000; -319.000
261.293; -175.000; -576.000; -595.000
261.435;  -27.500; -219.000; -184.000
261.576;  -70.300; -455.000; -325.000
261.718;  118.500;  420.000;  470.000
261.859; -261.300; -940.000; -949.000
262.000; -279.300; -951.000;-1016.000
262.142;  -40.300;  -52.000;  -60.000
262.283; -217.300; -808.000; -691.000
262.424; -149.300; -666.000; -625.000
262.566; -298.300;-1161.000; -983.000
262.707; -233.100; -840.000; -830.000
262.848; -245.600; -769.000; -726.000
262.990;  -79.700; -362.000; -345.000
263.131;  203.000;  650.000;  681.000
263.272;   22.700;  -61.000;  -41.000
263.413; -154.600; -589.000; -561.000
263.555; -136.200; -669.000; -143.000
263.696; -152.700; -550.000; -641.000
263.837;  -89.200; -449.000; -551.000
263.978;   24.700;   -5.000;  -77.000
264.119;  -37.500; -283.000; -264.000
264.261; -221.400; -847.000; -630.000
264.402;   32.400;   33.000;   40.000
264.543; -122.200; -509.000; -524.000
264.684;   10.900;   61.000;  -50.000
264.825;  -81.500; -816.000; -538.000
264.966;   -4.000;  -84.000;  -67.000
265.107; -197.600; -646.000; -670.000
265.248; -219.800; -825.000; -812.000
265.390;   12.400;  152.000;   -9.000
265.531;  -19.200; -238.000; -107.000
265.672; -172.000; -557.000; -630.000
265.813;  168.600;  563.000;  439.000
265.954; -282.700; -959.000; -940.000
266.095;  -21.200; -372.000; -322.000
266.236; -133.900; -686.000; -548.000
266.377;  -38.500; -243.000; -297.000
266.518; -105.700; -619.000; -547.000
266.659;   75.600;  170.000;  268.000
266.800;   66.200;   83.000;   85.000
266.941; -159.200; -487.000; -478.000
267.082;   76.100;  354.000;   99.000
267.223;  -80.200; -344.000; -273.000
267.364; -225.400; -892.000; -686.000
267.504;  -24.700;    3.000;  135.000
267.645;   30.500;  160.000;   67.000
267.786;  -30.900; -147.000;  -86.000
267.927; -110.500; -473.000; -379.000
268.068;  -15.400; -186.000;  -61.000
268.209;  -57.900; -175.000; -413.000
268.350; -125.100; -388.000; -532.000
268.490; -143.400; -648.000; -521.000
268.631;   65.600;  127.000;  225.000
268.772; -186.000; -874.000; -647.000
268.913;  -82.600; -328.000; -476.000
269.054;  -15.300; -117.000;   12.000
269.194;  -72.200; -418.000; -402.000
269.335; -308.100;-1137.000;-1074.000
269.476;  -29.600;   33.000;  -35.000
269.617;  -63.300; -347.000; -392.000
269.757; -192.500; -713.000; -646.000
269.898; -209.500; -856.000; -613.000
270.039; -110.500; -415.000; -405.000
270.180; -270.100; -952.000; -816.000
270.320;  -21.000; -190.000; -250.000
270.461;  -44.200; -277.000; -249.000
270.602;    3.400; -186.000; -156.000
270.742; -215.700; -868.000; -943.000
270.883; -106.300; -442.000; -390.000
271.023;  -93.400; -358.000; -357.000
271.164; -120.500; -607.000; -528.000
271.305; -168.400; -666.000; -654.000
271.445; -190.000; -722.000; -683.000
271.586;  -97.000; -462.000; -283.000
271.726;  -64.300; -397.000; -322.000
271.867; -120.500; -594.000; -534.000
272.008;  360.600; -473.000; -285.000
272.148;  284.500;  462.000;  468.000
272.289;   44.000; -113.000; -181.000
272.429;   50.500;   19.000;  185.000
272.570; -179.900; -633.000; -737.000
272.710; -180.100; -825.000; -775.000
272.851;  -28.800;  113.000; -130.000
272.991; -308.500;-1173.000;-1077.000
273.131; -133.200; -419.000; -459.000
273.272; -189.400; -683.000; -723.000
273.412;   30.300; -143.000;  -31.000
273.553;  -73.100; -488.000; -507.000
273.693;  312.700;  913.000;  858.000
273.834; -167.500; -894.000; -692.000
273.974; -115.900; -664.000; -615.000
274.114; -152.600; -772.000; -560.000
274.255;  189.600;  414.000;  373.000
274.395;   34.300; -180.000; -125.000
274.535;   89.800;  199.000;  350.000
274.676;  126.300;  225.000;   94.000
274.816;   71.300;  110.000;   34.000
274.956; -147.300; -624.000; -690.000
275.097; -135.400;-1014.000; -922.000
275.237; -199.800; -913.000; -803.000
275.377; -199.300; -778.000; -689.000
275.517; -272.100; -878.000; -937.000
275.658; -103.800; -590.000; -555.000
275.798; -110.900; -606.000; -413.000
275.938;   39.500;  215.000;  323.000
276.078; -115.600; -626.000; -395.000
276.218;   40.100;   99.000;  104.000
276.359; -224.000;-1026.000;-1024.000
276.499; -128.600; -605.000; -446.000
276.639;  -11.100; -305.000; -151.000
276.779;  -74.500; -475.000; -357.000
276.919; -200.400; -783.000; -624.000
277.059;  -26.400; -261.000; -212.000
277.199;  -68.300; -357.000; -259.000
277.340;  142.700;  287.000;  175.000
277.480; -203.200; -840.000; -693.000
277.620;   87.400;  192.000;   16.000
277.760; -365.100;-1533.000;-1294.000
277.900;   49.600;  113.000;   33.000
278.040;   59.700;  137.000;  159.000
278.180;   99.500;  270.000;  170.000
278.320;   33.700;   21.000;   56.000
278.460; -117.800; -443.000; -469.000
278.600; -153.100; -708.000; -598.000
278.740;  139.600;  448.000;  224.000
278.880; -117.200; -768.000; -791.000
279.020;   76.200; -194.000; -144.000
279.160; -134.800; -672.000; -595.000
279.300; -240.800; -926.000; -873.000
279.440; -127.100; -709.000; -622.000
279.579;  -83.800;-1014.000; -929.000
279.719;  -92.600; -410.000; -394.000
279.859;  142.300;   -4.000;   41.000
279.999;   64.400; -208.000;  101.000
280.139;  -59.500; -435.000; -387.000
280.279; -111.200; -708.000; -745.000
280.419;  -20.100; -229.000; -147.000
280.559;  -20.800; -259.000; -180.000
280.698; -162.100; -790.000; -639.000
280.838; -180.400; -778.000; -800.000
280.978; -196.800; -846.000; -790.000
281.118; -188.700; -811.000; -704.000
281.257;   45.800;   24.000;    6.000
281.397; -204.700;-1094.000; -960.000
281.537; -149.900; -599.000; -712.000
281.677;  -11.800; -150.000; -101.000
281.816; -149.300; -700.000; -630.000
281.956;  -30.600; -193.000; -257.000
282.096;  -90.100; -539.000; -396.000
282.235; -169.200; -672.000; -638.000
282.375;  -12.400; -243.000;  -98.000
282.515; -162.100; -715.000; -707.000
282.654;   99.400;   29.000;  106.000
282.794;  118.600;  388.000;  244.000
282.934;  -76.400; -530.000; -491.000
283.073; -253.200;-1030.000; -857.000
283.213;  -65.500; -460.000; -467.000
283.353;  -21.900; -408.000; -349.000
283.492;  -36.700; -264.000; -296.000
283.632;  -67.100; -254.000; -168.000
283.771; -159.700; -859.000; -730.000
283.911;  -48.900; -369.000; -260.000
284.050; -193.200; -794.000; -748.000
284.190; -307.200;-1229.000;-1096.000
284.329; -282.800;-1055.000; -964.000
284.469;  -96.500; -516.000; -591.000
284.608;  -86.600; -559.000; -598.000
284.748; -131.600; -614.000; -570.000
284.887;    9.800;  -87.000;  -20.000
285.027; -220.700; -844.000; -892.000
285.166;  -45.500; -192.000; -249.000
285.306;   48.100; -116.000;  -33.000
285.445;  -25.400; -229.000; -343.000
285.584; -175.400; -630.000; -494.000
285.724;  -47.200; -282.000; -322.000
285.863; -190.000; -857.000; -507.000
286.002;  -87.300; -366.000; -276.000
286.142; -187.000; -715.000; -622.000
286.281; -138.900; -525.000; -493.000
286.420; -109.100; -554.000; -417.000
286.560;  231.500;  653.000;  623.000
286.699; -243.400; -958.000; -912.000
286.838; -129.800; -590.000; -591.000
286.978; -142.400; -533.000; -537.000
287.117; -257.900;-1085.000; -950.000
287.256;  -15.300; -228.000; -211.000
287.395;  -82.300; -197.000; -378.000
287.535;  -37.700; -370.000; -298.000
287.674; -127.600; -509.000; -484.000
287.813;  195.800;  661.000;  533.000
287.952; -256.100;-1010.000; -871.000
288.091; -303.700;-1049.000; -915.000
288.231;   59.500;   13.000;   15.000
288.370; -319.900;-1217.000;-1200.000
288.509; -157.300; -728.000; -645.000
288.648; -158.300; -770.000; -548.000
288.787;  -21.100; -243.000;  -87.000
288.926;  -70.400; -454.000; -475.000
289.065;  286.100;  859.000;  672.000
289.204;  -57.600; -377.000; -217.000
289.344; -204.300; -791.000; -690.000
289.483;   83.800;  416.000;  304.000
289.622;  -37.700; -291.000; -149.000
289.761;   26.500; -309.000; -166.000
289.900; -212.700; -785.000; -626.000
290.039;   27.700;  -12.000;  -95.000
290.178;  -66.900; -274.000; -180.000
290.317; -131.700; -618.000; -479.000
290.456; -112.500; -463.000; -451.000
290.595; -263.200; -961.000; -833.000
290.734; -257.300; -904.000; -891.000
290.873; -102.300; -456.000; -420.000
291.011; -205.400; -833.000; -843.000
291.150; -174.100; -770.000; -682.000
291.289;  -22.700; -343.000; -110.000
291.428; -173.200; -599.000; -480.000
291.567;  -82.000; -370.000; -442.000
291.706;    8.600;  109.000;  154.000
291.845; -197.800; -597.000; -505.000
291.984; -309.700;-1234.000;-1061.000
292.122;  195.000;  602.000;  582.000
292.261;  126.700;  620.000;  463.000
292.400;   61.500; -144.000;  211.000
292.539; -208.500; -959.000; -813.000
292.678;  -24.300; -325.000; -300.000
292.816; -285.600;-1136.000; -965.000
292.955; -157.500; -844.000; -684.000
293.094;   -6.600; -173.000; -337.000
293.233;  -93.600; -556.000; -400.000
293.371;  -11.400; -225.000;  -84.000
293.510; -205.200; -866.000; -780.000
293.649; -247.500; -959.000; -924.000
293.787; -136.600;-1083.000;-1012.000
293.926;   28.400; -113.000;  -32.000
294.065;  -57.600; -379.000; -290.000
294.203;  128.400;  298.000;  406.000
294.342;  107.600;   74.000;  156.000
294.481;13394.200;51180.000; -836.000
294.619;  -17.500; -425.000; -582.000
294.758; -270.300;-1230.000;-1137.000
294.896;  176.600; -125.000;    5.000
295.035; -220.100;-1040.000;-1006.000
295.174; -223.600;-1082.000; -954.000
295.312;  -48.300; -323.000; -203.000
295.451;    7.600; -307.000; -428.000
295.589;  -49.700; -389.000; -518.000
295.728;   82.800; -292.000; -165.000
295.866;   49.100;  -36.000;  -51.000
296.005; -112.800; -584.000; -341.000
296.143;  -79.500; -558.000; -596.000
296.282; -196.400; -957.000; -881.000
296.420; -131.500; -657.000; -557.000
296.559; -145.600; -892.000; -633.000
296.697;   57.900; -847.000; -665.000
296.835;  162.800;-1141.000;-1002.000
296.974;  176.400;  -23.000;   39.000
297.112;   49.100; -443.000; -504.000
297.251; -101.400; -815.000; -755.000
297.389;  167.400; -576.000; -438.000
297.527;  135.000; -145.000;  -83.000
297.666;  -84.500; -486.000; -438.000
297.804;  -62.900; -404.000; -264.000
297.942;   25.400; -136.000; -161.000
298.081;   59.400; -183.000;   63.000
298.219;  129.900;  -17.000;  -19.000
298.357;  128.500; -144.000;  -71.000
298.495;   98.500; -810.000; -812.000
298.634;  196.100;  245.000;  219.000
298.772;  148.900; -220.000; -338.000
298.910;  -54.700; -309.000; -182.000
299.048;   39.700; -130.000; -153.000
299.187;  -12.300; -350.000; -250.000
299.325;   63.500;   52.000;  122.000
299.463;  134.700; -389.000; -299.000
299.601;  217.100; -327.000; -271.000
299.739; -144.700; -908.000; -883.000
299.877; -131.500; -791.000; -703.000
300.016;  -89.800;-1095.000; -935.000
300.154;  366.800;  -19.000; -161.000
300.292;  124.000; -428.000; -348.000
300.430;   93.000; -408.000; -291.000
300.568; -140.100; -940.000; -874.000
300.706;  -79.500; -366.000; -469.000
300.844; -141.900;-1108.000; -979.000
300.982;  300.200;  246.000;  282.000
301.120; -203.300; -965.000; -866.000
301.258;  -99.600; -812.000; -705.000
301.396;  126.900;  104.000;  -41.000
301.534;  150.500; -218.000; -293.000
301.672;   41.800; -664.000; -521.000
301.810;   80.600; -613.000; -545.000
301.948;  312.600;   53.000;  149.000
302.086; 1115.800; -250.000;  -32.000
302.224; 1855.200; -610.000; -585.000
302.362;  124.000; -558.000; -622.000
302.500;  -17.800; -923.000; -893.000
302.638;  253.800;  128.000;  245.000
302.776;   38.400; -352.000; -408.000
302.913;  159.000;  447.000;  236.000
303.051;   58.900;  -86.000;  -23.000
303.189;  183.700;   90.000;  118.000
303.327;  -16.300; -341.000; -256.000
303.465; -146.000; -832.000; -588.000
303.603; -113.900; -805.000; -604.000
303.740;  228.500;  417.000;  241.000
303.878;   58.500; -800.000; -759.000
304.016; -166.900; -915.000; -790.000
304.154; -233.400;-1123.000;-1152.000
304.291;  -40.900; -505.000; -554.000
304.429;   56.700;  102.000;   74.000
304.567; -217.800; -908.000; -893.000
304.705;  -56.000; -408.000; -515.000
304.842;  208.500; -616.000; -540.000
304.980;  187.300;  215.000;   35.000
305.118;  137.200; -367.000; -365.000
305.255;  -97.600; -945.000; -927.000
305.393;  137.200;  178.000;  239.000
305.531; -179.000;-1173.000; -956.000
305.668; -112.000; -663.000; -582.000
305.806;  222.200; -358.000; -439.000
305.943;  221.800; -629.000; -637.000
306.081;  124.900; -378.000; -267.000
306.219; -170.500; -863.000; -748.000
306.356;   76.100;  158.000;   27.000
306.494;  299.700;  981.000;  761.000
306.631;   73.800;  -11.000;  -55.000
306.769;   37.000; -613.000; -485.000
306.906;   10.900; -284.000; -258.000
307.044;  -67.000; -473.000; -488.000
307.181;  -28.900; -410.000; -332.000
307.319;   56.600;  112.000;   87.000
307.456; -279.400;-1191.000;-1153.000
307.594; -150.600; -980.000; -727.000
307.731;   45.300; -371.000; -164.000
307.868;   57.000;  -15.000;   20.000
308.006; -212.500; -961.000; -847.000
308.143;  -81.400; -618.000; -330.000
308.281;  472.900;  -37.000; -254.000
308.418;   51.500; -748.000; -640.000
308.555;  -93.200; -400.000; -250.000
308.693; -118.400; -577.000; -573.000
308.830; -151.000; -712.000; -657.000
308.967;   20.600; -215.000;  -95.000
309.105;   -1.500; -507.000; -396.000
309.242;  156.900; -468.000; -367.000
309.379;  856.900; -577.000; -655.000
309.517;  -85.200; -936.000; -948.000
309.654; -125.900; -910.000; -734.000
309.791;  -95.300; -662.000; -580.000
309.928; -185.800; -977.000; -914.000
310.065;  428.400;  819.000;  697.000
310.203;   42.100; -825.000; -850.000
310.340;   68.500; -465.000; -321.000
310.477; -111.600; -412.000; -516.000
310.614;  -68.500; -383.000; -473.000
310.751; -106.500; -427.000; -518.000
310.889;   -8.600;    1.000;   11.000
311.026; -233.100;-1161.000; -939.000
311.163;  -21.300; -386.000; -380.000
311.300;  -87.100; -512.000; -479.000
311.437; -112.400; -658.000; -619.000
311.574; -252.800;-1226.000; -985.000
311.711;  -69.700; -595.000; -433.000
311.848;   -7.300; -380.000; -388.000
311.985;   99.600;  270.000;   93.000
312.122; -161.300; -932.000; -762.000
312.259; -187.300; -941.000; -994.000
312.396;  -83.500; -508.000; -551.000
312.533; -110.500; -812.000; -790.000
312.670; -228.800;-1070.000; -898.000
312.807;  -32.800; -352.000; -367.000
312.944;  -87.200; -513.000; -611.000
313.081;  -42.500; -150.000; -415.000
313.218; -163.200;-1111.000; -867.000
313.355;   35.500; -531.000; -449.000
313.492;   78.000; -455.000; -292.000
313.629;  318.600;  815.000;  735.000
313.766; -280.000;-1176.000;-1008.000
313.902;   28.600; -186.000;   21.000
314.039;  -25.000; -372.000; -289.000
314.176;  103.200;  286.000;  192.000
314.313; -106.300; -569.000; -473.000
314.450; -100.500; -788.000; -684.000
314.587;  -67.300; -468.000; -480.000
314.723;   92.000;  -78.000;  130.000
314.860;  112.900;  318.000;  332.000
314.997;  127.800;  223.000;  142.000
315.134;  -45.400; -385.000; -368.000
315.270;   -4.400; -480.000; -496.000
315.407; -236.700;-1094.000; -967.000
315.544;  -49.000; -657.000; -538.000
315.681; -102.900; -681.000; -565.000
315.817;   88.900; -133.000; -176.000
315.954;   65.300; -613.000; -392.000
316.091; -235.900;-1045.000;-1023.000
316.227;   32.200;  -71.000; -179.000
316.364;   60.100;   23.000;    6.000
316.500;   -1.100; -113.000; -300.000
316.637;  -43.000; -181.000; -302.000
316.774; -121.500; -625.000; -358.000
316.910; -166.600; -598.000; -629.000
317.047; -100.200; -487.000; -351.000
317.183;  -78.400; -435.000; -566.000
317.320;    5.700; -367.000; -321.000
317.456; -125.300; -733.000; -805.000
317.593; -147.700; -598.000; -641.000
317.729;   19.700;  168.000;  -67.000
317.866; -352.400;-1434.000;-1285.000
318.002; -158.500; -708.000; -948.000
318.139; -118.800; -883.000; -867.000
318.275; -182.700;-1003.000; -738.000
318.412;  -66.500; -517.000; -336.000
318.548;  -17.400; -751.000; -720.000
318.685; -164.300; -985.000; -888.000
318.821; -171.800; -762.000; -735.000
318.957;    7.900;   34.000;  -23.000
319.094;  132.000;  297.000;  154.000
319.230;  -92.900; -756.000; -742.000
319.367;  248.200; -471.000; -520.000
319.503;  140.800; -538.000; -436.000
319.639; -130.400; -877.000; -793.000
319.775;  -83.400; -750.000; -685.000
319.912;  -55.100; -424.000; -519.000
320.048; -172.400;-1184.000;-1184.000
320.184;  174.100;   59.000;   70.000
320.321;  -65.900; -497.000; -467.000
320.457;  191.300;  475.000;  662.000
320.593;  -62.700; -375.000; -382.000
320.729; -174.400; -732.000; -734.000
320.866; -101.100; -577.000; -635.000
321.002; -127.400; -759.000; -809.000
321.138;   16.300; -135.000; -211.000
321.274;  146.300; -148.000; -115.000
321.410;  -17.200; -585.000; -353.000
321.546;  -33.400;-1011.000; -911.000
321.683;  163.400;  400.000;  185.000
321.819;   72.100;  -48.000; -117.000
321.955; -179.300; -743.000; -722.000
322.091;  -31.900; -585.000; -540.000
322.227;   13.900; -382.000; -202.000
322.363;    6.100; -320.000; -215.000
322.499;  -32.600; -343.000; -331.000
322.635;  361.500;  636.000;  443.000
322.771;   88.800; -139.000;   12.000
322.907;  271.700;  129.000;  327.000
323.043;    9.600; -115.000; -206.000
323.179;  -35.500; -394.000; -363.000
323.315;   96.000; -401.000; -371.000
323.451;  251.900; -328.000; -236.000
323.587;  168.400;  -60.000;  -77.000
323.723;   56.900; -682.000; -601.000
323.859;   -5.800; -258.000;  -76.000
323.995;  -30.500; -467.000; -409.000
324.131; -225.100; -967.000; -892.000
324.267;  -55.800; -254.000; -276.000
324.402; -202.400; -960.000; -983.000
324.538;   18.500; -279.000; -104.000
324.674;  111.500;  164.000;   77.000
324.810;  342.900;  226.000;  308.000
324.946;  108.300; -810.000; -658.000
325.082;  -95.300; -568.000; -475.000
325.217;   37.800;  -62.000;   16.000
325.353; -188.600; -764.000; -659.000
325.489; -130.900; -540.000; -506.000
325.625; -113.000; -579.000; -525.000
325.760;  145.500;  517.000;  376.000
325.896;   -6.300; -515.000; -702.000
326.032;  -64.700; -403.000; -352.000
326.168;  -83.900; -462.000; -369.000
326.303;  -89.300; -352.000; -461.000
326.439;   20.100; -336.000; -276.000
326.575;   57.700; -190.000;  -29.000
326.710;   66.300; -156.000;  -30.000
326.846;   51.700;  146.000;  103.000
326.982; -173.100; -530.000; -548.000
327.117; -103.200; -481.000; -442.000
327.253; -147.400; -745.000; -742.000
327.388; -205.300;-1137.000;-1153.000
327.524;  -56.200; -811.000; -578.000
327.659;    7.500;  -58.000;  -22.000
327.795;   36.300;   69.000;   45.000
327.931; -123.600; -723.000; -499.000
328.066;   -9.200; -417.000; -276.000
328.202;   58.100;   12.000; -129.000
328.337;  245.500;  957.000;  713.000
328.473;   42.600;  -12.000;  -74.000
328.608;   -1.800; -256.000; -267.000
328.743; -114.500; -799.000; -664.000
328.879;   79.600;  214.000;  114.000
329.014;  -57.300; -102.000; -122.000
329.150; -126.200; -358.000; -483.000
329.285;  -60.400; -465.000; -466.000
329.421;  -21.600; -548.000; -246.000
329.556;   18.000;  -36.000;   85.000
329.691; -164.800; -633.000; -615.000
329.827;  -97.600; -626.000; -480.000
329.962;   -8.800;  131.000; -301.000
330.097; -113.700; -673.000; -585.000
330.233;  -60.100; -410.000; -223.000
330.368; -209.400; -839.000; -628.000
330.503;    8.800;    3.000;   98.000
330.638;   61.100;  -93.000; -125.000
330.774;  -78.400; -609.000; -530.000
330.909;  -57.000; -434.000; -244.000
331.044; -143.100; -714.000; -708.000
331.179; -305.200;-1217.000;-1109.000
331.315;   73.100;   77.000;   20.000
331.450;   93.000;  157.000;  285.000
331.585; -136.900; -805.000; -706.000
331.720; -123.400; -510.000; -460.000
331.855;   16.000;  -35.000; -102.000
331.990;  450.500;   62.000;  138.000
332.126;  291.300; -110.000;   71.000
332.261;   -1.200; -379.000; -265.000
332.396;   61.700; -135.000; -242.000
332.531; -169.200;-1074.000;-1031.000
332.666;   94.800; -519.000; -363.000
332.801; -186.400; -726.000; -807.000
332.936;  -10.800; -192.000; -122.000
333.071; -252.700; -870.000; -817.000
333.206;   83.500;  307.000;  379.000
333.341;  148.400;  344.000;  418.000
333.476; -128.500; -627.000; -623.000
333.611;  -20.000; -251.000; -173.000
333.746;  -53.200; -381.000; -464.000
333.881; -164.600; -973.000; -935.000
334.016; -216.400; -936.000; -917.000
334.151; -203.400; -746.000; -702.000
334.286;  111.900;  152.000;  186.000
334.421;   43.100; -125.000; -178.000
334.556;  -99.500; -611.000; -567.000
334.690; -133.100; -631.000; -577.000
334.825;  172.600;  381.000;   83.000
334.960;  -81.600; -285.000; -413.000
335.095;   83.100;  135.000;  -91.000
335.230; -114.600; -722.000; -738.000
335.365; -239.200;-1084.000; -990.000
335.499; -210.300;-1108.000;-1037.000
335.634;   80.800;    9.000;  534.000
335.769; -158.900; -755.000; -720.000
335.904;  -73.600; -603.000; -561.000
336.038;  -28.700; -735.000; -657.000
336.173; -178.700;-1206.000;-1194.000
336.308;   98.000; -116.000; -189.000
336.443;   99.800; -544.000; -634.000
336.577; -110.500; -936.000; -787.000
336.712;  164.200;   -4.000;  -12.000
336.847;    9.900; -724.000; -607.000
336.981;  135.400; -272.000; -208.000
337.116;  582.200;  615.000;  501.000
337.250;  383.500; -434.000; -421.000
337.385;  463.900; -297.000; -208.000
337.520;  146.300; -632.000; -603.000
337.654;  -34.200; -215.000; -126.000
337.789; -200.500; -989.000; -933.000
337.923;   -5.100; -104.000; -205.000
338.058; -142.800; -673.000; -738.000
338.192;   -9.200; -611.000; -488.000
338.327;   54.600;  -18.000; -155.000
338.461;  -74.400; -299.000; -469.000
338.596; -147.800; -780.000; -638.000
338.730; -147.300; -767.000; -803.000
338.865;  193.100;  -46.000; -140.000
338.999; -109.500; -846.000; -702.000
339.134;  -10.400; -634.000; -536.000
339.268;   54.800; -741.000; -603.000
339.403;  652.300; -740.000; -775.000
339.537;  216.800; -894.000; -820.000
339.671; -196.800; -829.000; -813.000
339.806; -107.300; -556.000; -512.000
339.940;   51.700; -261.000; -235.000
340.074; -122.000; -685.000; -510.000
340.209;  -56.200; -351.000; -230.000
340.343; -154.300; -517.000; -573.000
340.477;  408.300;  998.000; 1036.000
340.612;  -93.700;-1033.000; -900.000
340.746;  237.400; -199.000; -243.000
340.880; -138.600; -924.000; -785.000
341.014;   -7.800;  -45.000; -154.000
341.149; -173.700; -756.000; -718.000
341.283; -161.500; -839.000; -754.000
341.417; -118.200;-1124.000; -938.000
341.551;  332.800; -768.000; -708.000
341.685;  -61.900; -633.000; -611.000
341.820;  -53.900; -562.000; -493.000
341.954;  -46.100; -218.000; -349.000
342.088; -284.300;-1102.000;-1019.000
342.222;  143.700;  565.000;  618.000
342.356;  -72.000; -395.000; -335.000
342.490; -131.600; -880.000; -841.000
342.624;  -37.400; -339.000; -242.000
342.758;   65.200; -364.000; -312.000
342.892; -100.100; -710.000; -585.000
343.026;  -25.600;  -58.000; -116.000
343.160;  -82.700; -426.000; -376.000
343.294; -105.600; -474.000; -337.000
343.428;   16.700; -488.000; -448.000
343.562;   38.500; -172.000;  -23.000
343.696;  -20.500; -385.000; -314.000
343.830;   14.900; -362.000; -356.000
343.964;   74.100; -231.000; -168.000
344.098; 1759.900;  199.000;   70.000
344.232; 1484.900; -266.000; -127.000
344.366;  179.600; -567.000; -453.000
344.500;  186.700; -665.000; -744.000
344.634;  128.200; -324.000; -164.000
344.768;   42.100; -531.000; -341.000
344.902;  116.900;  278.000;  256.000
345.035; -100.800; -556.000; -496.000
345.169; -224.200; -933.000; -656.000
345.303;  -22.900; -308.000; -482.000
345.437; -104.100; -826.000; -717.000
345.571; -120.100; -675.000; -594.000
345.704;  -64.000; -309.000; -532.000
345.838;    7.900; -331.000; -284.000
345.972;  -56.600; -543.000; -495.000
346.106;  337.500; -179.000; -190.000
346.239;  827.900; -312.000; -243.000
346.373;   80.300; -343.000; -302.000
346.507; -218.400; -950.000; -962.000
346.640;  325.100;  -30.000;   13.000
346.774;  -22.400; -650.000; -797.000
346.908;   28.000; -138.000;  -11.000
347.041; -158.600; -646.000; -593.000
347.175;   70.200;  259.000;   27.000
347.309; -103.700; -698.000; -628.000
347.442; -162.400; -883.000; -732.000
347.576;  617.900;  670.000;  668.000
347.709;  464.700; -123.000;  -52.000
347.843; -160.200; -933.000; -825.000
347.976;   99.200;  235.000;  294.000
348.110; -300.700;-1268.000;-1186.000
348.243; -164.000; -679.000; -772.000
348.377;   69.500;  -26.000;   60.000
348.510;  150.900;  403.000;  540.000
348.644;   -2.500;  -37.000; -159.000
348.777;   68.400;  180.000;  191.000
348.911;  -34.300; -142.000; -112.000
349.044;  390.700;  471.000;  448.000
349.178;  354.800;-1069.000;-1006.000
349.311;  257.100;  141.000;  255.000
349.444;  -10.700; -927.000; -813.000
349.578;   13.200; -347.000; -200.000
349.711; -141.500; -959.000; -862.000
349.845;   55.400; -661.000; -591.000
349.978; -249.100;-1224.000;-1137.000
350.111; -112.800; -546.000; -612.000
350.244; -117.100; -596.000; -700.000
350.378;   53.800; -392.000; -393.000
350.511; -114.700; -393.000; -426.000
350.644; -165.600; -808.000; -806.000
350.778;   80.200;  168.000;  104.000
350.911;   42.700;  134.000;  140.000
351.044; -124.600; -685.000; -615.000
351.177;   -3.400; -321.000; -281.000
351.310;   33.900;    3.000; -131.000
351.444; -113.800; -888.000; -788.000
351.577;  277.700;  140.000;   90.000
351.710;  253.700;  593.000;  417.000
351.843;   -8.800; -165.000;  -77.000
351.976;   72.000;  149.000;  -79.000
352.109; -131.000; -621.000; -612.000
352.242;   -3.400; -464.000; -419.000
352.376;  -44.800; -580.000; -636.000
352.509;  409.600; -437.000; -356.000
352.642;   59.600; -654.000; -604.000
352.775;  134.300; -141.000;  -98.000
352.908; -171.100; -933.000; -904.000
353.041; -160.300; -814.000; -824.000
353.174;  -95.500; -551.000; -424.000
353.307; -120.100; -753.000; -764.000
353.440;  208.700;  541.000;  453.000
353.573; -210.700; -957.000;-1008.000
353.706;    5.800; -384.000; -558.000
353.839;   31.000; -264.000; -220.000
353.971; -108.600; -657.000; -512.000
354.104; -143.000; -896.000; -835.000
354.237;  -13.000; -627.000; -662.000
354.370; -149.400; -846.000; -879.000
354.503; -344.100;-1231.000;-1308.000
354.636;  -17.000; -529.000; -348.000
354.769; -202.600; -937.000; -860.000
354.902;   17.300; -230.000; -139.000
355.034;   35.100; -164.000; -220.000
355.167;  -13.400; -262.000; -162.000
355.300; -125.400;-1061.000; -880.000
355.433; 1777.400;  -71.000;  -14.000
355.565; 2700.200; -402.000; -384.000
355.698;  716.100; -356.000; -296.000
355.831;   30.900; -882.000; -801.000
355.964;  233.900; -285.000; -170.000
356.096;  -77.800; -856.000; -843.000
356.229;   54.800; -523.000; -530.000
356.362;  609.600; -373.000; -266.000
356.494; 1100.200; -229.000; -162.000
356.627;  957.700;  269.000;  377.000
356.760; 1263.900;  120.000;   53.000
356.892; 1750.500; -286.000; -601.000
357.025; 1346.000;  403.000;  389.000
357.157; 1214.000; -167.000; -179.000
357.290; 1148.000; -856.000; -713.000
357.423;  343.500; -667.000; -556.000
357.555;  253.400; -217.000; -228.000
357.688;  275.200; -483.000; -364.000
357.820;  828.600; -870.000; -877.000
357.953; 6596.900; -563.000; -589.000
358.085; 1460.800; -632.000; -612.000
358.218; 2362.300;-1131.000; -932.000
358.350;  460.700;  -58.000;  312.000
358.483; -178.000;-1300.000;-1187.000
358.615;   33.100;-1182.000;-1078.000
358.747;  -48.300;-1187.000;-1058.000
358.880;  116.500; -810.000; -744.000
359.012;   56.500; -376.000; -202.000
359.145;  -37.700; -480.000; -511.000
359.277;  111.300; -962.000; -913.000
359.409; 5478.000;  536.000;  231.000
359.542; 1391.100; -738.000; -688.000
359.674;  141.900;   46.000;   13.000
359.806; -106.700; -565.000; -438.000
359.939;  -30.900; -617.000; -516.000
360.071;   23.700; -583.000; -579.000
360.203;  -18.500; -411.000; -364.000
360.335;  148.100;  164.000;  -16.000
360.468;  390.000; -249.000; -307.000
360.600; 4398.600; -547.000; -454.000
360.732; 4766.100; -546.000; -423.000
360.864;  612.700;-1216.000;-1044.000
360.996;  596.000; -516.000; -554.000
361.129;  117.900; -389.000; -598.000
361.261;   93.400;  110.000; -113.000
361.393;    1.800; -252.000; -214.000
361.525;  114.000;   94.000;  244.000
361.657;  -44.400; -821.000; -703.000
361.789;   66.100; -139.000; -155.000
361.921;  541.600; -642.000; -593.000
362.053;  592.800;  524.000;  541.000
362.185;  175.200;  288.000;   72.000
362.318; -116.100; -709.000; -705.000
362.450;  361.600;  294.000;  444.000
362.582;  324.200; -913.000; -870.000
362.714;   26.300; -353.000; -332.000
362.846; -103.200; -606.000; -490.000
362.978; -231.200; -941.000; -811.000
363.109;  161.200; -161.000; -260.000
363.241;  898.800; -739.000; -749.000
363.373;  761.900; -649.000; -564.000
363.505; 1209.100; -186.000;  -91.000
363.637;  298.600; -787.000; -601.000
363.769; -204.100;-1067.000;-1080.000
363.901;  -79.400; -596.000; -654.000
364.033; -150.600;-1103.000;-1062.000
364.165;   65.100; -283.000; -283.000
364.296;  180.000; -316.000; -177.000
364.428;  118.500;-1344.000;-1220.000
364.560;  -92.000; -679.000; -661.000
364.692;  -60.100; -738.000; -835.000
364.824;  597.600; -588.000; -456.000
364.955;  836.600; -402.000; -564.000
365.087; 1535.100;-1097.000; -852.000
365.219;   63.700; -686.000; -816.000
365.351; -108.400; -526.000; -572.000
365.482;  168.400;  300.000;  240.000
365.614;  -15.400; -402.000; -314.000
365.746; -156.000; -729.000; -752.000
365.877; -134.200; -706.000; -672.000
366.009;  509.700;  -35.000;  -62.000
366.141; -168.000;-1249.000;-1134.000
366.272; -184.500; -803.000; -719.000
366.404; -164.700;-1005.000; -874.000
366.535;   47.200; -139.000;  -12.000
366.667; -136.000; -644.000; -649.000
366.799;  147.900;  353.000;  203.000
366.930; -198.000; -862.000; -996.000
367.062;  272.200; -639.000; -613.000
367.193;  270.200; -872.000; -842.000
367.325;  -97.700; -580.000; -684.000
367.456;  197.700; -246.000;   31.000
367.588;  347.700; -371.000; -318.000
367.719;   98.300;  -44.000;  -45.000
367.851;   37.400; -222.000; -241.000
367.982;  -18.600; -875.000; -732.000
368.113;  259.700; -475.000; -358.000
368.245; -175.000; -960.000; -841.000
368.376;   19.300; -254.000; -302.000
368.508;   -0.500; -188.000; -263.000
368.639; -217.600;-1166.000;-1034.000
368.770;   17.600; -670.000; -589.000
368.902;  -81.300; -836.000; -926.000
369.033; -174.200; -906.000; -855.000
369.164;  -65.300; -720.000; -653.000
369.296; -195.600; -452.000; -601.000
369.427;   62.800; -209.000; -144.000
369.558;  -38.900; -593.000; -377.000
369.689; -144.000; -721.000; -569.000
369.821; -225.200; -951.000; -845.000
369.952;   22.800;   42.000; -108.000
370.083;  -15.300; -229.000; -108.000
370.214; -131.500; -735.000; -650.000
370.345;   29.500;   65.000;   81.000
370.477; -123.300; -810.000; -790.000
370.608;  510.800; -328.000; -264.000
370.739;  -85.100;-1233.000;-1292.000
370.870;    0.500;-1102.000; -923.000
371.001;  242.600; -378.000; -467.000
371.132; -114.600; -754.000; -735.000
371.263;   -2.100;  -42.000; -148.000
371.394; -191.600; -841.000; -748.000
371.525;   99.400;  345.000;  225.000
371.657; -118.100; -808.000; -670.000
371.788;  185.800;  103.000;  199.000
371.919;  369.200; -384.000; -304.000
372.050; 6881.700;  -91.000; -156.000
372.181; 1978.500; -188.000; -294.000
372.311;  777.600;   42.000; -127.000
372.442;  107.800; -457.000; -451.000
372.573;   20.400; -444.000; -340.000
372.704; -202.600;-1008.000; -980.000
372.835;  237.900; -228.000; -289.000
372.966;  -32.900; -646.000; -554.000
373.097; -126.100; -575.000; -711.000
373.228;   -7.500; -717.000; -542.000
373.359;  343.600; -824.000; -536.000
373.490; 1848.900; -881.000; -727.000
373.620; 2221.000;-1001.000; -803.000
373.751; 3434.600; -332.000; -396.000
373.882; 1494.600; -663.000; -733.000
374.013;  198.500; -449.000; -262.000
374.143;   16.800; -581.000; -659.000
374.274; -150.800; -987.000; -908.000
374.405;  359.000; -388.000; -276.000
374.536;  910.200; -526.000; -387.000
374.666; 2207.600; -759.000; -807.000
374.797;  502.600; -817.000; -868.000
374.928; 1656.800; -710.000; -560.000
375.058; 1857.100; -535.000; -500.000
375.189;  187.200;  -59.000;  -93.000
375.320; -169.100; -928.000;-1034.000
375.450;  -44.500; -625.000; -616.000
375.581;  -57.000; -526.000; -436.000
375.712;    1.300; -574.000; -250.000
375.842;  674.100; -438.000; -415.000
375.973;  442.300; -554.000; -513.000
376.103;  -13.800; -665.000; -648.000
376.234;  -99.100; -531.000; -552.000
376.364;  -20.200; -944.000; -867.000
376.495;  699.900;  925.000;  529.000
376.625;   62.400; -472.000; -485.000
376.756;  194.900; -709.000; -678.000
376.886;  -83.300;-1178.000;-1026.000
377.017;   99.200;-1048.000;-1061.000
377.147;  638.800; -786.000; -782.000
377.278;  137.700;  174.000;  228.000
377.408; -169.800; -801.000; -815.000
377.538; -147.200; -707.000; -693.000
377.669;  -96.400; -537.000; -613.000
377.799; -117.200; -645.000; -635.000
377.929;  -25.500; -610.000; -428.000
378.060; -212.600; -781.000; -847.000
378.190;  -48.500; -726.000; -531.000
378.320;  -45.600; -401.000; -406.000
378.451;   18.600; -131.000;  -22.000
378.581;   78.000;  -67.000; -110.000
378.711;  398.400; 1035.000;  866.000
378.841;   34.300; -533.000; -675.000
378.972;  -89.100; -871.000; -751.000
379.102;   38.000; -652.000; -579.000
379.232;   35.700; -126.000;  -73.000
379.362; -148.900;-1001.000; -885.000
379.492;  107.900; -373.000; -424.000
379.623;  267.300;    0.000;  111.000
379.753; -154.800;-1107.000; -974.000
379.883;  434.600;   59.000;  156.000
380.013;   42.900;-1081.000;-1017.000
380.143; -143.800;-1097.000;-1056.000
380.273; -142.200; -985.000; -861.000
380.403;   51.000; -344.000; -257.000
380.533;  -14.700; -651.000; -664.000
380.663;  223.000;  173.000;  128.000
380.793; -136.300;-1027.000;-1074.000
380.923;   22.600; -103.000;  -34.000
381.053; -120.500; -613.000; -623.000
381.183;   -3.100; -106.000; -248.000
381.313;  114.600; -656.000; -470.000
381.443;  137.300; -692.000; -473.000
381.573;  487.800; -402.000; -409.000
381.703;  616.900;-1249.000;-1095.000
381.833; -208.300;-1454.000;-1336.000
381.963;  268.600; -134.000;  -87.000
382.093; 2610.200; -925.000; -909.000
382.223;  749.600; -713.000; -602.000
382.353;   36.100; -801.000; -608.000
382.482;  778.800;-1091.000; -964.000
382.612; 1528.900; -872.000; -644.000
382.742;  819.300; -695.000; -622.000
382.872;  592.000; -565.000; -551.000
383.002;  198.800;  347.000; -132.000
383.131;   63.200; -226.000; -160.000
383.261;  -22.700; -706.000; -768.000
383.391;  592.100; -552.000; -377.000
383.521; 5639.200;  451.000;  263.000
383.650; 1208.500; -947.000; -904.000
383.780;   32.700; -783.000; -656.000
383.910;  304.900;  880.000;  802.000
384.039;  115.200; -794.000; -656.000
384.169;  479.200;-1205.000;-1017.000
384.299;    1.400; -650.000; -662.000
384.428;  -90.100; -764.000; -680.000
384.558;    5.700; -308.000; -275.000
384.687;   32.000; -414.000; -334.000
384.817;  120.000;   75.000;   -2.000
384.947;  147.100; -234.000; -141.000
385.076;  673.500;  982.000;  912.000
385.206;  331.300;  369.000;  480.000
385.335;   18.400; -549.000; -417.000
385.465;  -42.100; -655.000; -663.000
385.594;  360.600;  -53.000;  -44.000
385.724;  898.000; -868.000; -838.000
385.853;  345.100; -296.000; -270.000
385.982; 2718.100; -743.000; -787.000
386.112; 4100.300;-1052.000; -871.000
386.241;  328.100; -307.000; -312.000
386.371;  122.200; -174.000;  -87.000
386.500;   62.600; -825.000; -789.000
386.629;   77.800; -874.000; -817.000
386.759;  247.500;  -43.000;   68.000
386.888;  141.900; -170.000; -250.000
387.017;  -41.300; -648.000; -620.000
387.147;  -43.500; -771.000; -798.000
387.276;   57.700; -410.000; -397.000
387.405;   87.300; -398.000; -342.000
387.535;   -1.800; -452.000; -361.000
387.664;  -51.300; -692.000; -620.000
387.793;  215.000; -198.000; -113.000
387.922; 1124.100;  255.000;  200.000
388.052;  137.500; -576.000; -423.000
388.181;  185.700; -342.000; -472.000
388.310;  177.000; -889.000; -710.000
388.439;   16.900; -749.000; -742.000
388.568;  467.800;  365.000;  244.000
388.697; 2120.800; -756.000; -653.000
388.826;  422.100; -768.000; -666.000
388.956;  170.300; -285.000; -307.000
389.085;   40.400; -347.000; -287.000
389.214; -165.500; -842.000; -872.000
389.343;  -75.100; -645.000; -413.000
389.472;  862.500;  126.000;  149.000
389.601; 1016.700;   91.000;    0.000
389.730;   93.300; -568.000; -687.000
389.859;  203.900;  226.000;   46.000
389.988;  436.200; -423.000; -408.000
390.117;  343.200; -168.000; -146.000
390.246;   57.000; -331.000; -320.000
390.375;  306.300; -673.000; -626.000
390.504;  -66.400; -703.000; -621.000
390.633;  -98.300; -672.000; -726.000
390.761;  -74.300; -732.000; -645.000
390.890;  112.600;   -4.000; -130.000
391.019;  -13.700; -421.000; -441.000
391.148; -177.100; -826.000; -855.000
391.277;  -81.600; -576.000; -493.000
391.406;  -87.500; -821.000; -805.000
391.534;  129.600;  574.000; -301.000
391.663;  -42.000; -583.000; -645.000
391.792; -126.500; -673.000; -701.000
391.921;  316.400;   -3.000;   15.000
392.050;  446.800; -287.000; -228.000
392.178;   -1.400;-1206.000;-1061.000
392.307;  318.100; -758.000; -712.000
392.436;  159.000; -427.000; -641.000
392.564;   96.600;  166.000;   -6.000
392.693; -106.600; -860.000; -682.000
392.822;  484.100; -529.000; -534.000
392.950;  213.500; -880.000; -714.000
393.079;  668.900; -188.000; -328.000
393.208;   85.100; -488.000; -511.000
393.336;   36.000; -170.000; -145.000
393.465;  -46.500; -317.000; -199.000
393.593;   97.800;   62.000;   79.000
393.722; -231.200;-1121.000; -916.000
393.850;  -14.400; -188.000;  -61.000
393.979; -231.600; -926.000; -805.000
394.107;  -42.800; -517.000; -537.000
394.236;   38.800; -570.000; -507.000
394.364;  578.300;  383.000;  206.000
394.493;  949.800; -911.000; -767.000
394.621;   36.000; -955.000; -916.000
394.750; 1395.600; -873.000; -923.000
394.878; 5517.800; -247.000; -149.000
395.007; 7017.100; -721.000; -807.000
395.135;  526.300; -790.000; -721.000
395.263; -143.600;-1038.000;-1040.000
395.392;   67.200;  -25.000; -107.000
395.520; -197.700; -818.000; -679.000
395.648; -116.100; -865.000; -915.000
395.777;   14.100; -366.000; -405.000
395.905;  -32.100; -449.000; -564.000
396.033;  119.800;  217.000;  172.000
396.162; 1476.500; -399.000; -453.000
396.290; 1293.200;  -17.000;   -2.000
396.418;  275.700; -555.000; -514.000
396.546;  -92.400; -571.000; -466.000
396.674; -138.100; -850.000; -878.000
396.803;   92.600;  -72.000;  -23.000
396.931;  291.200; -179.000; -199.000
397.059;  160.000;-1026.000; -989.000
397.187; -149.700;-1026.000; -975.000
397.315; -204.400; -884.000; -649.000
397.443; -131.600; -592.000; -443.000
397.572; -128.900; -578.000; -424.000
397.700;   36.400; -607.000; -614.000
397.828;   79.500;  120.000;  -90.000
397.956;  -40.700; -508.000; -478.000
398.084;  -99.600; -767.000; -626.000
398.212;  153.700;  137.000;  124.000
398.340;  135.000;  -56.000;  159.000
398.468;  119.300; -390.000; -169.000
398.596; -217.100; -993.000; -953.000
398.724; -204.800; -762.000; -767.000
398.852; -276.300;-1024.000; -976.000
398.980;  -61.200; -560.000; -560.000
399.108;  -17.900; -982.000; -735.000
399.236;  100.900;   13.000;    8.000
399.363;  113.500;  222.000;  196.000
399.491;  -67.900; -404.000; -398.000
399.619; -157.100; -829.000; -800.000
399.747; -139.200; -859.000; -771.000
399.875;  211.900;  220.000;  234.000
400.003;  -39.700; -359.000; -284.000
400.130;  -91.200; -421.000; -341.000
400.258;    9.200;  -83.000;   38.000
400.386;  -45.600; -352.000; -168.000
400.514;   -6.800; -526.000; -587.000
400.641;  -84.500; -928.000; -802.000
400.769; -227.000; -979.000; -888.000
400.897; -106.800; -838.000; -793.000
401.025;   51.800; -166.000; -152.000
401.152;   96.100;  220.000;   38.000
401.280; -102.500; -430.000; -429.000
401.408; -153.200; -712.000; -576.000
401.535; -154.200; -735.000; -758.000
401.663; -330.200;-1134.000;-1054.000
401.790;  -93.300; -514.000; -525.000
401.918;  189.100;  436.000;  405.000
402.046;   24.200;  134.000;  122.000
402.173;   -4.100;  -18.000;    7.000
402.301;  -61.400; -519.000; -397.000
402.428;  154.800;  528.000;  383.000
402.556; -231.100;-1188.000; -913.000
402.683;   16.000;  -20.000;   -1.000
402.811;   12.600;  -37.000; -206.000
402.938;   46.000;   20.000;   27.000
403.066;  417.900; -574.000; -558.000
403.193;  624.500;  299.000;  239.000
403.321;  518.000; -396.000; -574.000
403.448;  682.300;   83.000;   27.000
403.575;  318.800;  -90.000;  -46.000
403.703; -113.600; -732.000; -557.000
403.830;  -73.100; -531.000; -496.000
403.957; -239.900;-1117.000;-1023.000
404.085;   84.300;  -61.000; -172.000
404.212;  258.000;  -50.000;   63.000
404.339;  569.100; -566.000; -306.000
404.467;10855.500; -612.000; -524.000
404.594; 6851.300; -287.000; -227.000
404.721; 1635.300; -869.000; -764.000
404.848;  208.600; -113.000; -202.000
404.976; -165.600; -856.000; -783.000
405.103;   72.900;  -14.000;  -82.000
405.230;   95.000;  190.000;  226.000
405.357;  189.600;  117.000;   44.000
405.484;  574.800;  -49.000;    5.000
405.612;  151.400; -548.000; -563.000
405.739;  -42.900; -488.000; -243.000
405.866;  244.500;  669.000;  385.000
405.993;   11.900; -398.000; -102.000
406.120; -223.000; -801.000; -887.000
406.247;   -1.400; -323.000; -342.000
406.374; 1001.900;  540.000;  629.000
406.501;  286.600; -632.000; -702.000
406.628;  -91.400; -621.000; -589.000
406.755; -120.500; -803.000; -620.000
406.882;  -12.300; -228.000; -277.000
407.009; -131.700; -719.000; -628.000
407.136;  165.600; -480.000; -401.000
407.263;  355.600; -939.000; -829.000
407.390;  -85.500; -692.000; -614.000
407.517; -238.200;-1139.000;-1187.000
407.644;  -28.900; -332.000; -256.000
407.771;  -83.500; -249.000; -287.000
407.898;  108.000;  168.000;  328.000
408.025;  -44.600; -421.000; -313.000
408.151;   70.600;   82.000;  153.000
408.278;  -64.300; -267.000; -216.000
408.405; -167.800; -931.000; -899.000
408.532;  -69.100; -549.000; -542.000
408.659; -173.100; -677.000; -648.000
408.785; -331.100;-1298.000;-1170.000
408.912;  -71.700; -412.000; -296.000
409.039; -159.700; -610.000; -686.000
409.166; -144.400; -591.000; -555.000
409.292; -118.600; -571.000; -534.000
409.419; -183.600; -665.000; -649.000
409.546;  -85.400; -431.000; -192.000
409.672; -165.900; -713.000; -545.000
409.799;   56.500;  -36.000;   34.000
409.926;  -16.500; -180.000; -179.000
410.052; -260.100;-1127.000;-1091.000
410.179;  -67.400; -368.000; -392.000
410.305; -105.600; -375.000; -493.000
410.432;   -2.500; -220.000; -333.000
410.558;  -98.600; -305.000; -380.000
410.685; -173.000; -688.000; -431.000
410.812; -117.300; -409.000; -588.000
410.938; -217.300; -964.000; -808.000
411.065; -146.900; -671.000; -645.000
411.191;   27.800; -189.000; -174.000
411.317; -200.100; -823.000; -742.000
411.444;  -41.400; -317.000; -246.000
411.570;  -79.900; -339.000; -294.000
411.697; -205.200; -758.000; -752.000
411.823; -268.800; -989.000; -999.000
411.949;    9.100;  -56.000;   17.000
412.076; -143.700; -539.000; -519.000
412.202; -182.900; -758.000; -757.000
412.329; -145.000; -798.000; -752.000
412.455; -200.500; -821.000; -657.000
412.581;    9.100;  -15.000;  172.000
412.707;  -58.100; -540.000; -457.000
412.834;  116.000;  156.000;  219.000
412.960; -120.300; -785.000; -784.000
413.086; -123.300; -743.000; -701.000
413.212;  407.200;  604.000;  578.000
413.339;  -65.600; -685.000; -701.000
413.465;   98.200; -364.000; -310.000
413.591; -143.200; -757.000; -474.000
413.717;  -38.300; -358.000; -366.000
413.843; -195.300; -839.000; -861.000
413.969;  -52.300;  -47.000; -292.000
414.096; -150.200; -679.000; -679.000
414.222;   40.900;  -33.000;   85.000
414.348;   42.500; -652.000; -385.000
414.474;  259.300;   38.000;  -52.000
414.600;   64.000; -126.000; -144.000
414.726;   69.000;  -96.000;  -55.000
414.852;  -20.500; -365.000; -342.000
414.978;  105.100;  104.000;  -18.000
415.104;  153.700;   38.000;   80.000
415.230;  124.000; -329.000; -330.000
415.356;  178.200; -409.000; -514.000
415.482;  429.700;   13.000;  -35.000
415.608;  573.100; -247.000; -323.000
415.734; 1924.400;   67.000;   38.000
415.860;39153.600; -875.000; -767.000
415.986;25597.000; -685.000; -607.000
416.111; 2141.100; -798.000; -652.000
416.237;  479.900; -424.000; -571.000
416.363; 2332.600; -765.000; -733.000
416.489; 7553.900; -324.000; -251.000
416.615;  741.500; -707.000; -742.000
416.741;  -14.300; -677.000; -784.000
416.866; -129.500; -673.000; -736.000
416.992; -179.400; -801.000; -818.000
417.118;   55.200;  -41.000;  -80.000
417.244;  -76.700; -798.000; -531.000
417.369;  -87.500; -801.000; -612.000
417.495;   45.100; -325.000; -254.000
417.621; -115.200;-1015.000; -803.000
417.746;   87.300; -579.000; -572.000
417.872;  153.100; -254.000; -144.000
417.998;  181.500; -515.000; -530.000
418.123; 2125.100;-1073.000; -845.000
418.249; 9954.400; -512.000; -601.000
418.374; 1278.300; -916.000; -824.000
418.500;  228.200; -383.000; -482.000
418.626;  324.300;   70.000;  -59.000
418.751;  293.700; -549.000; -448.000
418.877;  421.700; -637.000; -643.000
419.002; 3709.500; -688.000; -560.000
419.128;23224.800; -930.000; -721.000
419.253; 5053.600; -967.000; -837.000
419.379;  749.600; -391.000; -338.000
419.504;  804.900;  325.000;  415.000
419.629; 1006.200; -393.000; -212.000
419.755; 6968.700; -317.000; -254.000
419.880;37690.700;  -98.000;   67.000
420.006;21464.000; -280.000; -221.000
420.131;52742.300; -662.000; -775.000
420.256; 6855.300; -315.000; -316.000
420.382; 1000.500; -665.000; -687.000
420.507;  131.000; -649.000; -778.000
420.632;  340.000; -337.000; -339.000
420.758;  556.100; -251.000; -425.000
420.883;  -98.200; -876.000; -672.000
421.008; -132.900; -775.000; -619.000
421.133;  -85.400; -509.000; -467.000
421.259;  -54.300; -325.000; -259.000
421.384; -155.700; -834.000; -693.000
421.509;  -20.800;-1052.000; -862.000
421.634; 2462.100; -936.000; -820.000
421.759;  939.600; -359.000; -327.000
421.885;  -29.700; -717.000; -656.000
422.010; -109.100; -673.000; -542.000
422.135; -234.900; -695.000; -727.000
422.260;  156.100;  340.000;  280.000
422.385;   22.800;   12.000;  -98.000
422.510;   81.900;  151.000;  -26.000
422.635;  139.000;  -87.000;  -43.000
422.760;  225.800; -766.000; -791.000
422.885;  170.600;  -57.000;  -80.000
423.010;   -6.000; -112.000; -169.000
423.135; -132.300; -481.000; -561.000
423.260;   53.500; -150.000; -245.000
423.385;  238.500;  476.000;  222.000
423.510;  145.400;   71.000;  -22.000
423.635;  218.200;  133.000;   45.000
423.760;  168.300;  383.000;  328.000
423.885;  189.500;  336.000;  391.000
424.010;  104.900;  -68.000;  -13.000
424.135;   60.200;    5.000;  -33.000
424.259; -108.200; -654.000; -457.000
424.384;  -55.400; -279.000; -272.000
424.509;   27.100; -260.000; -186.000
424.634; -120.100; -761.000; -623.000
424.759;  -40.400; -688.000; -544.000
424.883;   40.900; -506.000; -527.000
425.008;  363.800; -502.000; -410.000
425.133; 3855.700; -679.000; -653.000
425.258; 1584.600; -517.000; -381.000
425.382; 2106.500; -867.000; -774.000
425.507; 4758.600; -487.000; -543.000
425.632;  740.500; -802.000; -663.000
425.756;  865.000; -256.000; -146.000
425.881;12553.500; -831.000; -857.000
426.006;30287.700; -604.000; -355.000
426.130; 4343.700; -696.000; -508.000
426.255;  604.700; -611.000; -491.000
426.379;  345.500; -189.000; -577.000
426.504;  787.400;  660.000;  544.000
426.629; 8071.500; -519.000; -466.000
426.753; 4987.700;   64.000;  -46.000
426.878;  702.500; -252.000; -288.000
427.002;  405.700; -651.000; -668.000
427.127; 3315.100;  -35.000; -158.000
427.251;21261.900;  372.000;  401.000
427.375; 5428.900; -191.000; -173.000
427.500; 4311.800; -616.000; -610.000
427.624; 1358.800; -234.000; -400.000
427.749;  208.900; -216.000; -225.000
427.873;  -42.700; -499.000; -412.000
427.997;   -7.700; -222.000; -230.000
428.122;  259.500;  795.000;  703.000
428.246;  211.300;  433.000;  434.000
428.371; -163.500; -869.000; -773.000
428.495; -156.300; -624.000; -646.000
428.619;   46.700; -186.000; -117.000
428.743;  163.400;   65.000;  132.000
428.868;   99.700; -732.000; -643.000
428.992; 2689.400; -219.000; -326.000
429.116; 1101.800; -329.000; -357.000
429.240;  580.300;  419.000;  426.000
429.365;   30.400; -454.000; -574.000
429.489;  -36.800; -638.000; -647.000
429.613;  103.500; -236.000; -177.000
429.737;  149.000; -563.000; -432.000
429.861;  605.800; -247.000; -133.000
429.985;11127.600; -425.000; -305.000
430.109;10876.600; -770.000; -908.000
430.234; 1228.700;   76.000;  -50.000
430.358;  198.700; -250.000; -160.000
430.482;  -70.000; -672.000; -564.000
430.606;  -23.700; -655.000; -375.000
430.730;  134.900; -437.000; -388.000
430.854;  347.600; -909.000; -835.000
430.978;  -71.400; -795.000; -764.000
431.102;  -50.000; -499.000; -422.000
431.226; -140.800; -874.000; -815.000
431.350;  209.800;  345.000;  422.000
431.474;  -68.100; -661.000; -373.000
431.597; -219.800;-1060.000; -848.000
431.721;  -80.500; -276.000; -267.000
431.845; -196.400; -704.000; -472.000
431.969;  -59.800; -304.000; -349.000
432.093; -106.000; -395.000; -317.000
432.217;   27.800;   32.000;   82.000
432.341; -103.400; -523.000; -518.000
432.464;  106.600;   96.000;   40.000
432.588;  513.000; -401.000; -329.000
432.712;  247.700;  -52.000;  -52.000
432.836;  161.400;  213.000;  263.000
432.959;   33.500; -372.000; -311.000
433.083;  253.900;   11.000;    2.000
433.207;  822.800;  285.000;  930.000
433.330; 9933.000; -391.000; -200.000
433.454;10986.000; -654.000; -638.000
433.578; 6542.200;  583.000;  278.000
433.701; 1097.700; -623.000; -675.000
433.825;  354.700; -292.000; -299.000
433.949;  458.000;   28.000;  -72.000
434.072;  196.600; -410.000; -323.000
434.196;    6.300; -309.000; -117.000
434.319; 8378.200;25482.000;25124.000
434.443; 1555.500; -656.000; -603.000
434.566; 4989.500;  281.000;   62.000
434.690;  741.200; -637.000; -383.000
434.813;  157.500; -251.000; -173.000
434.937;  -94.600; -569.000; -696.000
435.060;   17.600; -423.000; -332.000
435.184;  726.600; -492.000; -217.000
435.307;  405.000;  159.000;  102.000
435.431;   52.700;  -40.000;   24.000
435.554;  -67.400; -399.000; -240.000
435.677; -109.500; -350.000; -258.000
435.801;   -0.600;  -25.000;   49.000
435.924;   72.800;    1.000;  -67.000
436.048; -145.300;-1019.000; -732.000
436.171;  -94.300; -240.000;  -66.000
436.294;   31.200; -248.000; -229.000
436.417;  231.100; -963.000; -849.000
436.541; -104.300; -814.000; -840.000
436.664;  -45.600; -242.000; -316.000
436.787;   44.900;   13.000;  113.000
436.910; -130.400; -792.000; -422.000
437.034;  128.600;  142.000;  143.000
437.157;  206.500;  -11.000;    0.000
437.280;    2.200; -392.000; -292.000
437.403;  -88.400; -982.000; -869.000
437.526; 1554.400; -903.000; -865.000
437.649; 4659.100; -505.000; -332.000
437.772;  603.600; -692.000; -540.000
437.896;  316.900;  700.000;  544.000
438.019; -120.200; -758.000; -503.000
438.142; -124.300; -596.000; -506.000
438.265;   91.000; -639.000; -670.000
438.388; 1233.100; -520.000; -410.000
438.511;  233.100; -597.000; -394.000
438.634;  -18.400; -247.000; -125.000
438.757; -187.600; -693.000; -619.000
438.880;   22.500;  -34.000;  -57.000
439.003;  -73.400; -417.000; -437.000
439.126;  -57.200; -287.000; -167.000
439.248;  -13.600;  -98.000; -139.000
439.371;    2.600;    9.000;  -53.000
439.494;  158.000;  510.000;  439.000
439.617;  -27.700;   65.000;  -88.000
439.740; -289.800; -968.000; -816.000
439.863; -249.800; -755.000; -595.000
439.986; -162.200; -476.000; -431.000
440.108;  -41.200; -161.000; -112.000
440.231; -243.700; -950.000; -836.000
440.354;   28.500;  -64.000; -150.000
440.477;  172.200; -566.000; -542.000
440.599;  106.100; -200.000; -225.000
440.722; -170.100; -709.000; -586.000
440.845;  200.900;  751.000;  928.000
440.968; -109.900; -415.000; -311.000
441.090;  -71.700; -199.000;  -33.000
441.213; -260.000;-1021.000; -825.000
441.336;  -26.400; -159.000;   -5.000
441.458;  -72.900; -549.000; -396.000
441.581; -114.800; -628.000; -629.000
441.703;  -68.800; -152.000;   13.000
441.826; -158.600; -557.000; -400.000
441.948;  -22.900;   56.000;   51.000
442.071;  136.400;  555.000;  424.000
442.193; -154.800; -531.000; -485.000
442.316;   99.700;  152.000;   97.000
442.438;  158.200; -233.000;  -10.000
442.561;  240.400;  272.000;  262.000
442.683; 1276.700; -809.000; -522.000
442.806; 2344.800;   -8.000;   74.000
442.928;   79.500; -859.000; -604.000
443.051;  -79.500; -577.000; -373.000
443.173; -105.400; -341.000; -339.000
443.295; -128.000; -263.000; -371.000
443.418;  -93.200; -321.000;  -29.000
443.540;   31.500; -106.000;   -4.000
443.662; -170.600; -563.000; -465.000
443.785;   36.600;  335.000;  199.000
443.907; -158.700; -362.000; -208.000
444.029; -203.700; -767.000; -494.000
444.152; -222.200; -644.000; -554.000
444.274;    3.800;  -18.000;  -24.000
444.396; -153.400; -461.000; -221.000
444.518; -209.500; -691.000; -454.000
444.640; -149.100; -268.000; -111.000
444.763;   42.000;  388.000;  249.000
444.885; -164.000; -432.000; -392.000
445.007;   -4.200;   35.000;   86.000
445.129; -166.200; -610.000; -515.000
445.251; -137.400; -372.000; -439.000
445.373; -193.600; -537.000; -386.000
445.495;   78.200;  242.000;  350.000
445.617;  193.500;  853.000;  753.000
445.739;  -69.400; -215.000;  -97.000
445.861;   18.000; -245.000; -112.000
445.984;  -41.700; -267.000; -101.000
446.105;  481.100; -418.000; -251.000
446.227; 1273.500; -176.000;  -19.000
446.349;   82.200; -358.000; -249.000
446.471; -170.600; -615.000; -448.000
446.593;  -55.000; -316.000;   19.000
446.715;   64.700;  -67.000;   41.000
446.837;  216.200;  697.000;  832.000
446.959; -116.900; -457.000; -478.000
447.081; -173.100; -628.000; -518.000
447.203;  196.700;  862.000;  834.000
447.325; -107.100; -270.000;   42.000
447.446;   81.600;  286.000;  530.000
447.568; -223.700; -921.000; -803.000
447.690; -106.100; -236.000; -245.000
447.812; -248.800; -798.000; -519.000
447.933;   22.800;  155.000;  127.000
448.055;  -78.400; -306.000; -261.000
448.177;  370.200;   31.000;   79.000
448.299;  189.100; -935.000; -727.000
448.420;  103.600;  -25.000;  159.000
448.542;  -17.600;   -3.000;   33.000
448.664;   23.800;  109.000;  322.000
448.785;    0.300;  265.000;   83.000
448.907;  -81.100; -614.000; -353.000
449.028;  -12.500; -771.000; -471.000
449.150;  179.900;  492.000;  589.000
449.272; -281.700;-1044.000; -913.000
449.393;  150.900;  612.000;  694.000
449.515; -188.600; -634.000; -581.000
449.636;  -60.100; -264.000; -155.000
449.758;  234.600;  763.000;  622.000
449.879; -148.100; -498.000; -396.000
450.001;  -54.200; -149.000;  -49.000
450.122;  -12.700;  -95.000;  162.000
450.244;    5.800;   37.000;  364.000
450.365;  -87.600; -495.000; -301.000
450.486;   21.800;   80.000;  268.000
450.608;  146.100;  393.000;  326.000
450.729;  223.900;  578.000;  645.000
450.850;   36.800; -574.000; -466.000
450.972; 1477.900; -552.000; -389.000
451.093; 9237.200;  190.000;  588.000
451.214; 3414.400; -516.000; -337.000
451.336;  743.900;  773.000;  579.000
451.457;  178.300;  264.000;  393.000
451.578;  -17.500; -118.000;  -74.000
451.699; -169.500; -546.000; -540.000
451.821;  -93.400; -284.000;  -50.000
451.942;   71.600;  278.000;  285.000
452.063;  137.600;  228.000;  419.000
452.184; 1178.500;  -54.000;  -49.000
452.305; 2014.000;  103.000;  170.000
452.427;  225.900; -549.000; -301.000
452.548;   31.500;   23.000;   79.000
452.669;  -68.900; -257.000;  -89.000
452.790;  -41.500;    3.000;  -18.000
452.911;   89.100;  195.000;  259.000
453.032;  -31.000; -289.000;  -60.000
453.153;   19.500;  -29.000;   81.000
453.274;  220.300;  737.000;  868.000
453.395;  -23.500;  -51.000;  175.000
453.516;  360.000; 1317.000; 1388.000
453.637;  -84.200; -205.000; -150.000
453.758;  -56.900;   15.000;   69.000
453.879; -144.000; -462.000; -250.000
454.000;  257.800; 1086.000;  948.000
454.121; -136.100; -554.000; -326.000
454.242; -158.700; -599.000; -383.000
454.362;  -32.000;  -99.000;  114.000
454.483;   -3.900; -309.000; -229.000
454.604;  187.500;  512.000;  580.000
454.725; -181.900; -627.000; -555.000
454.846; -167.500; -474.000; -406.000
454.967;   27.200;  230.000;  539.000
455.087;    7.700;  179.000;  153.000
455.208;   98.000;  554.000;  856.000
455.329;  -36.300;  -22.000;   82.000
455.450;  134.800;  473.000;  633.000
455.570;  -84.600; -234.000; -211.000
455.691;  -16.900;  201.000;  407.000
455.812; -134.600; -270.000;  -92.000
455.932;  -37.600;  107.000;  -97.000
456.053;  -70.100;   36.000;   24.000
456.173; -169.300; -433.000; -355.000
456.294; -189.900; -476.000; -303.000
456.415;  -49.200;  -73.000;   70.000
456.535;   -8.800;  297.000;  273.000
456.656;    6.800;  132.000;  240.000
456.776;  -44.800;    3.000;  298.000
456.897;   84.700;  308.000;  513.000
457.017;  -85.600; -153.000;   -3.000
457.138; -128.400; -402.000; -249.000
457.258;   38.000;  263.000;  224.000
457.379;   26.700;  509.000;  521.000
457.499;   43.000;  443.000;  432.000
457.620; -173.900; -407.000; -231.000
457.740; -131.600; -132.000;  -11.000
457.860;  -17.700;   87.000;   44.000
457.981;   -4.100;  132.000;  124.000
458.101; -103.900;  -89.000;   40.000
458.221;   75.800;  336.000;  402.000
458.342;  -31.800;   -4.000;  -37.000
458.462;   95.200;  617.000;  352.000
458.582;   -0.600; -302.000; -294.000
458.703;  116.200;  303.000;  154.000
458.823;   23.700;   22.000;  163.000
458.943;  132.500;  341.000;  467.000
459.063;   49.500; 1124.000;  192.000
459.183;   45.100;  328.000;  313.000
459.304;   87.100;  315.000;  517.000
459.424;  -41.200; -246.000;  -89.000
459.544;  739.100;  388.000;  764.000
459.664; 1627.400;  499.000;  506.000
459.784;  646.000; 1004.000; 1175.000
459.904;  200.700;  867.000;  744.000
460.024;  236.900;  867.000;  684.000
460.144;  108.000;  449.000;  554.000
460.264;   53.100;  515.000;  327.000
460.385; -113.300; -145.000; -119.000
460.505;  134.100;  905.000;  858.000
460.625; -123.800;  -17.000;  -68.000
460.745;   30.900;  396.000;  541.000
460.864;  -34.700;  153.000;  469.000
460.984;  110.700;  499.000;  573.000
461.104;  420.500; 1656.000; 1775.000
461.224;  112.000;  657.000;  650.000
461.344;   -9.800;  431.000;  360.000
461.464;    2.300;  258.000;  513.000
461.584;   65.100;  283.000;  466.000
461.704;  -24.900;   58.000;  108.000
461.824;  -21.400;  238.000;  259.000
461.943;  -42.800;  191.000;  130.000
462.063;  -75.100;    2.000;  324.000
462.183;  165.000;  639.000;  717.000
462.303;  263.700; 1678.000; 1230.000
462.422;  141.400;  781.000;  840.000
462.542;   12.400;  271.000;  391.000
462.662;  120.900;  353.000;  380.000
462.782;  564.600;  833.000;  572.000
462.901;  958.800;  545.000;  717.000
463.021;  599.000; 1702.000; 1638.000
463.141;   40.300;  337.000;  770.000
463.260;   29.300;  614.000;  474.000
463.380;   94.600;  902.000;  884.000
463.499;   -1.000;  342.000;  332.000
463.619;   19.100;  581.000;  559.000
463.738;  350.000; 1644.000;  903.000
463.858;  118.700;  657.000;  811.000
463.978;   45.700;  542.000;  396.000
464.097;  193.800;  921.000; 1114.000
464.217;  308.500; 1196.000; 1143.000
464.336;  311.900; 1068.000; 1130.000
464.455;   13.100;  328.000;  659.000
464.575;  143.900;  597.000;  602.000
464.694;  401.600; 1204.000; 1179.000
464.814;  291.200; 1190.000; 1138.000
464.933;  238.300; 1095.000; 1027.000
465.052;  301.500; 1412.000; 1054.000
465.172;  261.200;  922.000;  799.000
465.291;  341.600; 1376.000; 1320.000
465.410;  107.200;  462.000;  735.000
465.530;  302.200; 1355.000; 1310.000
465.649;  216.300; 1209.000; 1273.000
465.768;  379.900; 1673.000; 1508.000
465.888;  200.700;  941.000; 1174.000
466.007;  286.600; 1335.000; 1440.000
466.126;   81.900;  721.000;  641.000
466.245;  161.800; 1176.000; 1187.000
466.364;  123.200;  950.000; 1060.000
466.484;  212.900; 1024.000; 1213.000
466.603;  187.600; 1101.000; 1222.000
466.722;  303.800; 1490.000; 1769.000
466.841;  221.600; 1151.000; 1401.000
466.960;  161.800; 1069.000;  972.000
467.079;  335.300; 1971.000; 1786.000
467.198;  173.000; 1238.000; 1181.000
467.317;  276.500; 1768.000; 1162.000
467.436;  228.100; 1709.000; 1261.000
467.555;  379.800; 1796.000; 1746.000
467.674;  217.300; 1227.000; 1329.000
467.793;  173.000; 1376.000; 1374.000
467.912;  210.100; 1658.000; 1539.000
468.031;  390.700; 2038.000; 1930.000
468.150;  381.800; 1842.000; 1837.000
468.269;  526.300; 2313.000; 2090.000
468.388;  449.500; 2168.000; 2339.000
468.507;  620.500; 2884.000; 2903.000
468.626;  564.900; 2555.000; 2541.000
468.744;  380.200; 2018.000; 2174.000
468.863;  445.900; 2312.000; 2523.000
468.982;  254.200; 1503.000; 1555.000
469.101;  536.000; 2788.000; 2692.000
469.220;  409.800; 2333.000; 2176.000
469.338;  579.000; 2935.000; 3051.000
469.457;  480.100; 2719.000; 2545.000
469.576;  798.600; 3953.000; 3784.000
469.695;  556.700; 2877.000; 3066.000
469.813;  905.800; 4148.000; 4192.000
469.932;  951.500; 4255.000; 4485.000
470.051;  902.600; 4075.000; 4161.000
470.169; 1848.600; 4470.000; 4338.000
470.288; 2886.400; 4700.000; 4809.000
470.406; 1715.100; 5059.000; 5194.000
470.525; 1324.700; 6101.000; 5787.000
470.644; 1373.000; 6847.000; 6794.000
470.762; 1780.200; 8397.000; 7873.000
470.881; 1911.600; 8651.000; 8464.000
470.999; 2139.800; 9685.000; 9151.000
471.118; 2305.700;11174.000;10711.000

