
Integration time [ms]: 200.000
Averaging Nr. [scans]: 10
Smoothing Nr. [pixels]: 0
Data measured with spectrometer [name]: 2101012U2
Wave   ;Sample   ;Dark     ;Reference
[nm]   ;[counts] ;[counts] ;[counts] 

197.733;  140.200;  516.000;  404.000
197.879; -157.200; -610.000; -634.000
198.025; -103.900; -475.000; -420.000
198.171; -128.900; -602.000; -612.000
198.317;  -76.400; -401.000; -316.000
198.463; -126.200; -655.000; -404.000
198.609;   54.100;  181.000; -137.000
198.755; -163.600; -644.000; -410.000
198.901; -135.300; -505.000; -424.000
199.047; -113.700; -615.000; -488.000
199.193;  -96.000; -230.000; -468.000
199.339;  -91.100; -222.000; -369.000
199.485;   87.300;  330.000;  271.000
199.631;   41.900;  227.000;  310.000
199.777;  -83.400; -466.000; -398.000
199.923; -138.600; -610.000; -424.000
200.069;    3.900; -141.000;  -58.000
200.215;  102.000;  128.000;  453.000
200.361;   96.900;  243.000;  477.000
200.507; -134.500; -600.000; -373.000
200.653;  -44.700; -371.000; -194.000
200.798;  -38.800; -215.000; -125.000
200.944;   -6.200; -146.000;  -41.000
201.090;   49.100;   61.000;  222.000
201.236;  -29.900; -116.000; -158.000
201.382;  281.700;  874.000;  903.000
201.528;    5.000;  -58.000;  -48.000
201.674;  -87.700; -386.000; -293.000
201.819; -115.600; -540.000; -439.000
201.965; -150.600; -699.000; -447.000
202.111;  -36.900; -273.000; -226.000
202.257;  -82.000; -250.000; -238.000
202.402;   -7.400;   13.000;  -36.000
202.548;  -44.200; -169.000; -116.000
202.694;  169.400;  410.000; -183.000
202.840; -155.500; -603.000; -531.000
202.985; -153.700; -681.000; -639.000
203.131; -220.700; -832.000; -666.000
203.277;  -50.800; -199.000; -262.000
203.423; -128.800; -434.000; -520.000
203.568;  -89.500; -462.000; -237.000
203.714; -133.000; -535.000; -542.000
203.860; -191.900; -682.000; -641.000
204.005;   -7.300;  112.000;  167.000
204.151;  160.700;  561.000;  556.000
204.296;  -86.600; -354.000; -221.000
204.442; -154.500; -600.000; -547.000
204.588; -171.500; -592.000; -579.000
204.733;   29.500;  178.000;  168.000
204.879; -265.200;-1018.000; -822.000
205.025;   -3.300;  -99.000;  126.000
205.170;    0.000;  -17.000;   94.000
205.316;  126.600;  438.000;  661.000
205.461; -165.000; -698.000; -554.000
205.607;  201.200;  609.000;  665.000
205.752; -154.700; -626.000; -551.000
205.898; -131.200; -501.000; -391.000
206.043; -134.300; -578.000; -506.000
206.189;  -78.900; -243.000; -285.000
206.334;  164.700;  554.000;  606.000
206.480;  180.700;  409.000;  239.000
206.625; -173.300; -529.000; -552.000
206.771;  -78.800; -451.000; -373.000
206.916;  -45.800; -210.000; -537.000
207.062; -149.100; -545.000; -591.000
207.207; -115.000; -546.000; -443.000
207.353;   91.100;  185.000;  460.000
207.498;   34.100;  196.000;   85.000
207.643; -110.200; -501.000; -370.000
207.789; -265.000;-1069.000; -910.000
207.934; -194.300; -665.000; -713.000
208.080;  -46.700; -154.000;   66.000
208.225;   -5.000;  -22.000;  -57.000
208.370; -167.500; -727.000; -619.000
208.516; -164.600; -741.000; -487.000
208.661;  -67.300; -127.000;  -69.000
208.806;  -49.200; -165.000; -171.000
208.952; -250.500;-1044.000; -731.000
209.097;  129.800;  378.000;  349.000
209.242;  -77.700; -307.000; -382.000
209.387;  122.600;  392.000;  350.000
209.533; -123.700; -321.000; -350.000
209.678;  140.400;  472.000;  543.000
209.823;  -96.800; -408.000; -310.000
209.969; -164.700; -860.000; -757.000
210.114; -228.500; -907.000; -719.000
210.259; -236.200; -939.000; -889.000
210.404;  -41.800; -171.000;  103.000
210.549;    2.300;  108.000;    3.000
210.695;  -33.600;   -3.000;  -95.000
210.840;   39.800;   94.000;   67.000
210.985; -103.300; -484.000; -303.000
211.130;  160.200;  268.000;  406.000
211.275;   50.300;  207.000;  199.000
211.420;  -94.000; -300.000; -289.000
211.566; -149.400; -536.000; -489.000
211.711;   49.300;  218.000;  157.000
211.856; -123.100; -545.000; -519.000
212.001;   41.500;  151.000;   44.000
212.146;   45.700;  153.000;   49.000
212.291;  -76.500; -210.000; -186.000
212.436;  -57.900; -280.000;   -6.000
212.581; -181.500; -685.000; -653.000
212.726; -145.300; -487.000; -538.000
212.871;  -95.900; -552.000; -217.000
213.016; -291.600;-1172.000;-1029.000
213.161;  139.600;  406.000;  291.000
213.306; -148.100; -435.000; -577.000
213.451; -202.400; -778.000; -689.000
213.596;  -89.100; -455.000; -347.000
213.741; -128.200; -448.000; -538.000
213.886; -140.400; -498.000; -517.000
214.031;  -65.200; -294.000; -124.000
214.176; -103.600; -408.000; -341.000
214.321;  -21.200; -296.000; -157.000
214.466;  -51.100; -163.000;  -43.000
214.611;    0.700;  -61.000;  -10.000
214.756; -239.200; -948.000; -858.000
214.901;  -20.200; -388.000; -226.000
215.046; -253.900; -797.000; -825.000
215.191;   47.900;  128.000;   35.000
215.336;   -9.400; -157.000;  -19.000
215.480; -140.800; -684.000; -505.000
215.625;  -28.200; -175.000;  -19.000
215.770; -179.600; -757.000; -662.000
215.915;   -3.000;   -5.000;  -97.000
216.060;  -29.400; -113.000;  -21.000
216.205; -223.300; -731.000; -779.000
216.349; -138.500; -470.000; -533.000
216.494; -245.600; -939.000; -867.000
216.639; -219.800; -823.000; -888.000
216.784; -173.100; -577.000; -525.000
216.929;  122.500;  392.000;  281.000
217.073;  -10.800; -244.000;  -31.000
217.218;   45.100;   78.000;  -47.000
217.363; -173.000; -656.000; -618.000
217.507; -153.600; -623.000; -588.000
217.652; -274.500; -845.000; -874.000
217.797; -193.900; -708.000; -659.000
217.942; -204.600; -856.000; -720.000
218.086;  144.700;  608.000;  539.000
218.231;  -65.600; -174.000;  -26.000
218.376;  -68.700; -337.000; -229.000
218.520;  -13.600;  -41.000;   96.000
218.665;  -55.500; -338.000; -204.000
218.810;  -75.300; -275.000; -233.000
218.954;   46.600;  201.000;   35.000
219.099; -243.400; -713.000; -963.000
219.243; -182.600; -589.000; -554.000
219.388;  -42.700; -264.000; -136.000
219.532;  -30.700; -116.000; -116.000
219.677; -177.200; -564.000; -521.000
219.822;    9.500;   33.000;   89.000
219.966;   21.600;   17.000;  -99.000
220.111;  -66.500; -328.000;  -40.000
220.255; -174.600; -797.000; -750.000
220.400;   -6.600; -180.000; -146.000
220.544; -135.300; -516.000; -450.000
220.689; -100.000; -422.000; -451.000
220.833;  -73.600; -123.000;  -58.000
220.978;  -45.700; -393.000; -563.000
221.122;   20.000;  319.000;  307.000
221.267; -213.800; -906.000; -837.000
221.411; -117.100; -478.000; -394.000
221.555;  -20.500; -104.000;  -23.000
221.700;  -71.500; -329.000; -222.000
221.844;   58.700;  255.000;  272.000
221.989; -101.000; -328.000; -311.000
222.133;  -67.600; -289.000; -307.000
222.277;   -0.900;    5.000;   78.000
222.422;   58.300;  227.000;  113.000
222.566;  -63.900; -381.000; -214.000
222.711; -112.300; -414.000; -479.000
222.855; -147.800; -643.000; -586.000
222.999; -148.000; -642.000; -717.000
223.144;  -27.700; -195.000; -194.000
223.288;  118.500;  423.000;  251.000
223.432;   13.900;  184.000;  230.000
223.576;   73.400;  152.000;  -21.000
223.721;  122.600;  364.000;  273.000
223.865; -117.200; -472.000; -475.000
224.009;  534.800; 1673.000; 1631.000
224.153; -159.200; -660.000; -671.000
224.298; -140.800; -531.000; -489.000
224.442;  -17.200;  -74.000;  -33.000
224.586;  -24.800; -169.000; -106.000
224.730; -205.900; -858.000; -670.000
224.875; -196.100; -739.000; -688.000
225.019;   30.000;  102.000;  188.000
225.163;  122.900;  208.000;  341.000
225.307;   27.900;   97.000;  -91.000
225.451;  107.000;  360.000;  481.000
225.595;   61.500;  264.000;  176.000
225.739;  -27.300; -170.000;  -94.000
225.884;    0.800;   86.000;    5.000
226.028; -177.900; -760.000; -626.000
226.172;  -50.100; -260.000; -273.000
226.316; -243.800; -941.000; -902.000
226.460; -109.500; -645.000; -493.000
226.604;  -77.900; -406.000; -400.000
226.748; -214.100; -836.000; -733.000
226.892;  -90.300; -227.000; -181.000
227.036; -112.900; -537.000; -447.000
227.180; -117.200; -551.000; -375.000
227.324; -143.400; -561.000; -580.000
227.468; -216.800; -819.000; -717.000
227.612;   37.400;  242.000;  -28.000
227.756; -202.400; -845.000; -698.000
227.900;   95.900;  342.000;  441.000
228.044; -123.900; -509.000; -290.000
228.188;  156.800;  448.000;  568.000
228.332; -166.800; -546.000; -472.000
228.476;  -47.800; -223.000; -149.000
228.620;  -69.600; -210.000; -150.000
228.764;  183.000;  431.000;  349.000
228.908;  -23.600; -155.000;   30.000
229.052; -126.600; -615.000; -528.000
229.195;   18.000; -172.000;   13.000
229.339;  -46.600; -235.000; -305.000
229.483;  -32.400;    5.000; -162.000
229.627;   -4.200; -156.000;  139.000
229.771;  -72.400; -218.000; -294.000
229.915;   43.300;  230.000;   79.000
230.059; -181.000; -648.000; -663.000
230.202;  -38.600; -370.000; -317.000
230.346;  -16.900; -107.000;  107.000
230.490; -100.300; -489.000; -521.000
230.634; -231.700; -736.000; -553.000
230.777;  169.000;  478.000;  509.000
230.921; -108.000; -450.000; -359.000
231.065;  -98.500; -246.000; -286.000
231.209;   49.300;  261.000;  265.000
231.352;   54.200;   54.000;   40.000
231.496;   67.700;  568.000;  188.000
231.640; -141.100; -693.000; -621.000
231.783;  114.400;  546.000;  525.000
231.927;  -86.800; -294.000; -365.000
232.071; -233.400; -962.000; -736.000
232.214; -214.800; -980.000; -764.000
232.358; -192.200; -683.000; -599.000
232.502;   27.600;  -19.000;    7.000
232.645; -272.800;-1090.000; -927.000
232.789;  -39.800; -257.000; -218.000
232.933;  -70.600; -407.000; -224.000
233.076; -241.900;-1038.000; -897.000
233.220; -217.400; -752.000; -777.000
233.363; -141.800; -669.000; -477.000
233.507;  113.400;  371.000;  129.000
233.650; -207.700; -764.000; -834.000
233.794;   90.700;  438.000;  461.000
233.938; -117.700; -530.000; -362.000
234.081;  -37.100;  -93.000;   31.000
234.225; -137.000; -631.000; -539.000
234.368; -209.700; -773.000; -723.000
234.512;  -96.200; -385.000; -299.000
234.655; -171.000; -582.000; -555.000
234.798; -154.600; -493.000; -466.000
234.942; -240.600; -884.000;-1002.000
235.085; -131.300; -651.000; -443.000
235.229; -155.700; -405.000; -410.000
235.372;  -74.800; -247.000; -191.000
235.516; -113.200; -397.000; -321.000
235.659;   48.400;   92.000;  121.000
235.802;    3.000;  -38.000;  -22.000
235.946;   78.400;  335.000;  215.000
236.089;   80.000;  126.000;  250.000
236.233;  110.500;  275.000;  298.000
236.376;  -81.400; -235.000; -378.000
236.519;  -86.000; -297.000; -319.000
236.663;  -39.300; -215.000; -117.000
236.806; -264.100;-1029.000; -999.000
236.949;  123.100;  543.000;  431.000
237.092;  125.100;  412.000;  391.000
237.236; -179.800; -589.000; -502.000
237.379;  141.900;  352.000;  428.000
237.522; -247.000; -879.000; -768.000
237.666;  -14.100; -271.000;   18.000
237.809; -238.200; -851.000; -823.000
237.952;   72.500;  469.000;  271.000
238.095; -138.400; -447.000; -442.000
238.238;  200.700;  688.000;  700.000
238.382;   24.100;  166.000;  103.000
238.525; -129.600; -598.000; -511.000
238.668; -269.100;-1060.000; -985.000
238.811; -175.900; -638.000; -643.000
238.954; -119.600; -483.000; -334.000
239.097;  193.200;  617.000;  664.000
239.241;   63.400;  394.000;  326.000
239.384;  -68.300; -254.000; -214.000
239.527; -108.600; -424.000; -224.000
239.670; -316.400; -994.000;-1091.000
239.813; -183.400; -696.000; -658.000
239.956;  154.900;  579.000;  473.000
240.099; -224.700; -778.000; -725.000
240.242;  153.800;  428.000;  432.000
240.385;  128.100;  466.000;  450.000
240.528; -113.000; -706.000; -473.000
240.671;   54.100;  189.000;  134.000
240.814;  -81.500; -441.000; -158.000
240.957; -222.700; -767.000; -578.000
241.100; -184.700; -779.000; -755.000
241.243; -279.100;-1234.000; -893.000
241.386; -125.100; -508.000; -379.000
241.529; -173.000; -735.000; -547.000
241.672; -149.800; -566.000; -495.000
241.815; -211.200; -832.000; -808.000
241.958;  -23.200; -125.000; -182.000
242.101; -130.000; -545.000; -390.000
242.244;  -54.700; -270.000; -325.000
242.387;  -72.100; -304.000; -246.000
242.530;  136.100;  470.000;  134.000
242.673;  -82.800; -381.000; -309.000
242.815; -209.200; -925.000; -899.000
242.958;  -97.300; -482.000; -381.000
243.101;   39.900;  132.000;  187.000
243.244; -154.300; -564.000; -521.000
243.387;  -85.000; -313.000; -316.000
243.530; -197.400; -657.000; -674.000
243.672;   15.900;   43.000;  -92.000
243.815;  -99.700; -355.000; -283.000
243.958;  -14.600;   98.000;  -26.000
244.101;    3.300;   59.000;  -16.000
244.243;  -15.600;  -47.000;  101.000
244.386; -207.600; -761.000; -630.000
244.529;  -31.200; -132.000; -139.000
244.672; -289.500;-1154.000; -951.000
244.814; -224.700; -621.000; -794.000
244.957; -113.300; -380.000; -304.000
245.100; -130.800; -489.000; -489.000
245.242; -127.800; -387.000; -374.000
245.385;  -32.300;  -59.000;  -39.000
245.528; -252.900; -871.000; -705.000
245.670;  166.900;  612.000;  634.000
245.813; -185.100; -599.000; -547.000
245.956;  -83.500; -324.000; -275.000
246.098; -173.400; -508.000; -650.000
246.241;   -6.900;  194.000;   48.000
246.383;  -16.700; -119.000;  -73.000
246.526; -165.900; -454.000; -525.000
246.669; -230.900; -889.000; -780.000
246.811;   49.200;  172.000;   -1.000
246.954; -119.700; -512.000; -426.000
247.096;  -39.800;  -84.000;   -6.000
247.239; -109.600; -482.000; -445.000
247.381; -154.500; -647.000; -488.000
247.524;  190.400;  645.000;  679.000
247.666;  -18.300;   58.000;   11.000
247.809; -248.900; -887.000; -691.000
247.951;  -19.900;  -75.000;  138.000
248.094;   57.500;  432.000;  308.000
248.236; -314.100;-1262.000;-1238.000
248.378;  -86.100; -356.000;  -81.000
248.521;  -84.400; -334.000; -337.000
248.663;  -90.900; -236.000; -267.000
248.806;  -53.500; -300.000; -266.000
248.948; -235.400; -886.000; -763.000
249.090;  -97.400; -428.000; -398.000
249.233; -126.100; -344.000; -381.000
249.375; -126.800; -474.000; -451.000
249.518;  -13.000;  -83.000; -133.000
249.660;    6.700; -103.000;    3.000
249.802; -358.000;-1303.000;-1189.000
249.945; -155.900; -612.000; -540.000
250.087; -202.600; -834.000; -768.000
250.229; -115.500; -362.000; -480.000
250.371; -142.600; -494.000; -439.000
250.514;  -90.800; -310.000; -244.000
250.656;  -24.800;   69.000;  102.000
250.798; -239.300; -849.000; -800.000
250.940; -130.200; -322.000; -322.000
251.083;  -84.100; -335.000; -111.000
251.225;  138.800;  338.000;  310.000
251.367;  -62.400; -274.000; -373.000
251.509;  -71.400; -265.000; -210.000
251.651; -182.700; -731.000; -671.000
251.794;  143.800;  538.000;  632.000
251.936; -217.400; -821.000; -747.000
252.078; -142.400; -540.000; -461.000
252.220; -162.300; -645.000; -477.000
252.362;   63.000;  344.000;  462.000
252.504; -168.800; -677.000; -584.000
252.646; -219.800; -875.000; -722.000
252.788;  -38.400;   14.000; -128.000
252.931;  -82.600; -257.000; -253.000
253.073; -104.900; -376.000; -317.000
253.215;    1.700;  141.000;  122.000
253.357;   -0.300;   82.000; -153.000
253.499; -115.100; -374.000; -234.000
253.641; -188.600; -749.000; -594.000
253.783; -180.100; -609.000; -527.000
253.925; -163.500; -586.000; -591.000
254.067; -216.200; -744.000; -667.000
254.209;  -86.700; -391.000; -259.000
254.351; -254.100; -865.000; -883.000
254.493; -111.000; -441.000; -417.000
254.635; -229.700; -936.000; -818.000
254.777; -205.900; -752.000; -687.000
254.918; -135.600; -512.000; -430.000
255.060; -143.200; -551.000; -395.000
255.202; -118.500; -473.000; -261.000
255.344; -152.100; -658.000; -455.000
255.486; -158.200; -471.000; -406.000
255.628; -222.200; -780.000; -781.000
255.770; -180.700; -676.000; -536.000
255.912; -124.800; -559.000; -468.000
256.053; -184.800; -730.000; -508.000
256.195;  333.500; 1008.000;  903.000
256.337; -197.900; -861.000; -595.000
256.479;  147.300;  532.000;  416.000
256.621;  -84.600; -394.000; -212.000
256.762; -177.900; -789.000; -742.000
256.904;  111.000;  485.000;  487.000
257.046;  -83.600; -381.000; -271.000
257.188;  -85.200; -351.000; -264.000
257.329; -119.400; -525.000; -464.000
257.471; -222.200; -939.000; -807.000
257.613; -142.400; -584.000; -498.000
257.755; -291.000;-1073.000; -982.000
257.896;   95.800;  286.000;  392.000
258.038; -131.800; -403.000; -352.000
258.180;  -60.500; -354.000; -279.000
258.321; -178.000; -581.000; -457.000
258.463;  -24.300;  -71.000;  133.000
258.605; -199.400; -562.000; -570.000
258.746; -207.100; -886.000; -772.000
258.888; -299.000;-1026.000;-1020.000
259.029;   38.000;  121.000;   -8.000
259.171; -159.800; -614.000; -550.000
259.313;    4.800;  -49.000;  -47.000
259.454; -152.100; -536.000; -414.000
259.596;  -93.700; -483.000; -390.000
259.737; -129.700; -590.000; -474.000
259.879;  110.800;  217.000;  311.000
260.020;  161.300;  901.000;  636.000
260.162;  -44.600; -146.000; -253.000
260.303; -222.500; -768.000; -687.000
260.445; -174.200; -609.000; -613.000
260.586;   67.000;  392.000;  157.000
260.728;  -79.200; -360.000; -248.000
260.869; -146.200; -350.000; -343.000
261.011;  215.800;  706.000;  537.000
261.152; -118.400; -479.000; -319.000
261.293; -167.700; -576.000; -595.000
261.435;  -20.800; -219.000; -184.000
261.576;  -80.300; -455.000; -325.000
261.718;  100.100;  420.000;  470.000
261.859; -262.300; -940.000; -949.000
262.000; -261.100; -951.000;-1016.000
262.142;  -66.600;  -52.000;  -60.000
262.283; -231.100; -808.000; -691.000
262.424; -184.800; -666.000; -625.000
262.566; -303.300;-1161.000; -983.000
262.707; -235.100; -840.000; -830.000
262.848; -242.700; -769.000; -726.000
262.990;  -85.100; -362.000; -345.000
263.131;  199.600;  650.000;  681.000
263.272;   16.900;  -61.000;  -41.000
263.413; -177.100; -589.000; -561.000
263.555; -126.100; -669.000; -143.000
263.696; -170.000; -550.000; -641.000
263.837; -121.700; -449.000; -551.000
263.978;    7.200;   -5.000;  -77.000
264.119;  -61.400; -283.000; -264.000
264.261; -222.400; -847.000; -630.000
264.402;   14.100;   33.000;   40.000
264.543; -165.400; -509.000; -524.000
264.684;    0.300;   61.000;  -50.000
264.825; -180.800; -816.000; -538.000
264.966;   -2.100;  -84.000;  -67.000
265.107; -217.000; -646.000; -670.000
265.248; -215.500; -825.000; -812.000
265.390;  -17.200;  152.000;   -9.000
265.531;  -15.300; -238.000; -107.000
265.672; -184.900; -557.000; -630.000
265.813;  139.000;  563.000;  439.000
265.954; -277.100; -959.000; -940.000
266.095;  -26.200; -372.000; -322.000
266.236; -184.300; -686.000; -548.000
266.377;  -84.200; -243.000; -297.000
266.518; -154.200; -619.000; -547.000
266.659;   44.700;  170.000;  268.000
266.800;   11.700;   83.000;   85.000
266.941; -154.400; -487.000; -478.000
267.082;   22.300;  354.000;   99.000
267.223;  -90.600; -344.000; -273.000
267.364; -240.300; -892.000; -686.000
267.504;   -9.300;    3.000;  135.000
267.645;   14.400;  160.000;   67.000
267.786;  -44.700; -147.000;  -86.000
267.927; -143.500; -473.000; -379.000
268.068;  -66.700; -186.000;  -61.000
268.209;  -87.900; -175.000; -413.000
268.350;  -46.300; -388.000; -532.000
268.490; -180.700; -648.000; -521.000
268.631;   61.100;  127.000;  225.000
268.772; -230.000; -874.000; -647.000
268.913;  -91.600; -328.000; -476.000
269.054;  -48.200; -117.000;   12.000
269.194; -102.300; -418.000; -402.000
269.335; -298.700;-1137.000;-1074.000
269.476;  -19.100;   33.000;  -35.000
269.617;  -92.200; -347.000; -392.000
269.757; -202.400; -713.000; -646.000
269.898; -212.900; -856.000; -613.000
270.039; -128.200; -415.000; -405.000
270.180; -266.800; -952.000; -816.000
270.320;  -55.700; -190.000; -250.000
270.461;  -58.100; -277.000; -249.000
270.602;  -24.200; -186.000; -156.000
270.742; -238.800; -868.000; -943.000
270.883; -119.000; -442.000; -390.000
271.023; -122.400; -358.000; -357.000
271.164; -141.300; -607.000; -528.000
271.305; -174.200; -666.000; -654.000
271.445; -191.400; -722.000; -683.000
271.586; -134.800; -462.000; -283.000
271.726;  -90.800; -397.000; -322.000
271.867; -171.700; -594.000; -534.000
272.008;  -75.300; -473.000; -285.000
272.148;   85.900;  462.000;  468.000
272.289;  -47.100; -113.000; -181.000
272.429;  -26.300;   19.000;  185.000
272.570; -210.300; -633.000; -737.000
272.710; -189.300; -825.000; -775.000
272.851;  -54.700;  113.000; -130.000
272.991; -344.200;-1173.000;-1077.000
273.131; -113.800; -419.000; -459.000
273.272; -207.000; -683.000; -723.000
273.412;  -31.000; -143.000;  -31.000
273.553; -156.500; -488.000; -507.000
273.693;  269.800;  913.000;  858.000
273.834; -258.900; -894.000; -692.000
273.974; -160.900; -664.000; -615.000
274.114; -197.200; -772.000; -560.000
274.255;   94.700;  414.000;  373.000
274.395;  -87.200; -180.000; -125.000
274.535;    6.600;  199.000;  350.000
274.676;   56.500;  225.000;   94.000
274.816;   -1.200;  110.000;   34.000
274.956; -166.100; -624.000; -690.000
275.097; -261.700;-1014.000; -922.000
275.237; -229.700; -913.000; -803.000
275.377; -219.800; -778.000; -689.000
275.517; -277.200; -878.000; -937.000
275.658; -143.000; -590.000; -555.000
275.798; -152.200; -606.000; -413.000
275.938;   15.200;  215.000;  323.000
276.078; -197.500; -626.000; -395.000
276.218;   -5.500;   99.000;  104.000
276.359; -277.300;-1026.000;-1024.000
276.499; -130.400; -605.000; -446.000
276.639;  -45.900; -305.000; -151.000
276.779; -116.200; -475.000; -357.000
276.919; -213.500; -783.000; -624.000
277.059;  -53.000; -261.000; -212.000
277.199; -105.200; -357.000; -259.000
277.340;   96.800;  287.000;  175.000
277.480; -216.500; -840.000; -693.000
277.620;   59.800;  192.000;   16.000
277.760; -422.000;-1533.000;-1294.000
277.900;    3.200;  113.000;   33.000
278.040;  -14.500;  137.000;  159.000
278.180;   63.800;  270.000;  170.000
278.320;    4.900;   21.000;   56.000
278.460; -137.700; -443.000; -469.000
278.600; -177.700; -708.000; -598.000
278.740;  109.700;  448.000;  224.000
278.880; -249.200; -768.000; -791.000
279.020;  -61.000; -194.000; -144.000
279.160; -162.500; -672.000; -595.000
279.300; -227.500; -926.000; -873.000
279.440; -192.900; -709.000; -622.000
279.579; -255.900;-1014.000; -929.000
279.719; -142.000; -410.000; -394.000
279.859;   29.900;   -4.000;   41.000
279.999;  -21.500; -208.000;  101.000
280.139; -126.900; -435.000; -387.000
280.279; -212.000; -708.000; -745.000
280.419;  -23.500; -229.000; -147.000
280.559;  -77.300; -259.000; -180.000
280.698; -173.000; -790.000; -639.000
280.838; -225.200; -778.000; -800.000
280.978; -199.500; -846.000; -790.000
281.118; -215.100; -811.000; -704.000
281.257;   10.200;   24.000;    6.000
281.397; -316.700;-1094.000; -960.000
281.537; -211.800; -599.000; -712.000
281.677;  -30.500; -150.000; -101.000
281.816; -177.600; -700.000; -630.000
281.956;  -58.700; -193.000; -257.000
282.096; -147.100; -539.000; -396.000
282.235; -204.200; -672.000; -638.000
282.375;  -14.900; -243.000;  -98.000
282.515; -225.100; -715.000; -707.000
282.654;   44.000;   29.000;  106.000
282.794;   67.300;  388.000;  244.000
282.934; -137.200; -530.000; -491.000
283.073; -283.600;-1030.000; -857.000
283.213; -105.500; -460.000; -467.000
283.353; -127.300; -408.000; -349.000
283.492;  -51.400; -264.000; -296.000
283.632;  -65.000; -254.000; -168.000
283.771; -208.400; -859.000; -730.000
283.911; -126.700; -369.000; -260.000
284.050; -208.000; -794.000; -748.000
284.190; -325.900;-1229.000;-1096.000
284.329; -275.800;-1055.000; -964.000
284.469; -185.200; -516.000; -591.000
284.608;  -95.500; -559.000; -598.000
284.748; -160.300; -614.000; -570.000
284.887;   -4.900;  -87.000;  -20.000
285.027; -280.300; -844.000; -892.000
285.166;  -81.600; -192.000; -249.000
285.306;  -42.800; -116.000;  -33.000
285.445;  -85.800; -229.000; -343.000
285.584; -174.000; -630.000; -494.000
285.724;  -77.000; -282.000; -322.000
285.863; -216.200; -857.000; -507.000
286.002; -103.700; -366.000; -276.000
286.142; -234.200; -715.000; -622.000
286.281; -133.400; -525.000; -493.000
286.420; -160.300; -554.000; -417.000
286.560;  202.800;  653.000;  623.000
286.699; -260.900; -958.000; -912.000
286.838; -162.100; -590.000; -591.000
286.978; -186.100; -533.000; -537.000
287.117; -296.800;-1085.000; -950.000
287.256;  -51.900; -228.000; -211.000
287.395;  -96.500; -197.000; -378.000
287.535; -112.400; -370.000; -298.000
287.674; -153.000; -509.000; -484.000
287.813;  128.100;  661.000;  533.000
287.952; -248.100;-1010.000; -871.000
288.091; -306.400;-1049.000; -915.000
288.231;   35.100;   13.000;   15.000
288.370; -368.100;-1217.000;-1200.000
288.509; -165.700; -728.000; -645.000
288.648; -164.800; -770.000; -548.000
288.787;  -64.400; -243.000;  -87.000
288.926; -125.400; -454.000; -475.000
289.065;  205.700;  859.000;  672.000
289.204; -131.600; -377.000; -217.000
289.344; -211.400; -791.000; -690.000
289.483;   43.800;  416.000;  304.000
289.622;  -49.400; -291.000; -149.000
289.761;  -19.300; -309.000; -166.000
289.900; -225.200; -785.000; -626.000
290.039;  -26.100;  -12.000;  -95.000
290.178;  -66.900; -274.000; -180.000
290.317; -179.400; -618.000; -479.000
290.456; -122.800; -463.000; -451.000
290.595; -274.000; -961.000; -833.000
290.734; -262.900; -904.000; -891.000
290.873; -163.200; -456.000; -420.000
291.011; -223.500; -833.000; -843.000
291.150; -228.200; -770.000; -682.000
291.289;  -68.800; -343.000; -110.000
291.428; -164.600; -599.000; -480.000
291.567; -107.500; -370.000; -442.000
291.706;   -3.900;  109.000;  154.000
291.845; -156.100; -597.000; -505.000
291.984; -333.300;-1234.000;-1061.000
292.122;  131.300;  602.000;  582.000
292.261;   63.600;  620.000;  463.000
292.400;    4.600; -144.000;  211.000
292.539; -269.700; -959.000; -813.000
292.678;  -75.000; -325.000; -300.000
292.816; -331.900;-1136.000; -965.000
292.955; -224.600; -844.000; -684.000
293.094;  -24.100; -173.000; -337.000
293.233; -101.600; -556.000; -400.000
293.371;  -63.400; -225.000;  -84.000
293.510; -239.500; -866.000; -780.000
293.649; -265.500; -959.000; -924.000
293.787; -281.100;-1083.000;-1012.000
293.926;  -47.800; -113.000;  -32.000
294.065;  -71.700; -379.000; -290.000
294.203;   73.500;  298.000;  406.000
294.342;   32.600;   74.000;  156.000
294.481;12836.700;51180.000; -836.000
294.619;  -53.300; -425.000; -582.000
294.758; -304.300;-1230.000;-1137.000
294.896;   33.900; -125.000;    5.000
295.035; -287.200;-1040.000;-1006.000
295.174; -257.600;-1082.000; -954.000
295.312; -104.100; -323.000; -203.000
295.451;  -87.900; -307.000; -428.000
295.589; -140.200; -389.000; -518.000
295.728;   20.600; -292.000; -165.000
295.866;  -39.300;  -36.000;  -51.000
296.005; -187.300; -584.000; -341.000
296.143; -201.900; -558.000; -596.000
296.282; -219.700; -957.000; -881.000
296.420; -196.600; -657.000; -557.000
296.559; -198.400; -892.000; -633.000
296.697; -175.700; -847.000; -665.000
296.835; -311.100;-1141.000;-1002.000
296.974;   20.300;  -23.000;   39.000
297.112; -125.200; -443.000; -504.000
297.251; -242.600; -815.000; -755.000
297.389; -133.400; -576.000; -438.000
297.527;  -29.200; -145.000;  -83.000
297.666; -139.400; -486.000; -438.000
297.804; -144.900; -404.000; -264.000
297.942;   -2.400; -136.000; -161.000
298.081;  -42.100; -183.000;   63.000
298.219;  -36.900;  -17.000;  -19.000
298.357;  -73.000; -144.000;  -71.000
298.495; -229.300; -810.000; -812.000
298.634;   27.000;  245.000;  219.000
298.772;  -60.500; -220.000; -338.000
298.910; -106.800; -309.000; -182.000
299.048;  -44.900; -130.000; -153.000
299.187;  -74.500; -350.000; -250.000
299.325;    4.400;   52.000;  122.000
299.463; -139.100; -389.000; -299.000
299.601;  -85.500; -327.000; -271.000
299.739; -250.200; -908.000; -883.000
299.877; -174.700; -791.000; -703.000
300.016; -315.500;-1095.000; -935.000
300.154;  -15.100;  -19.000; -161.000
300.292; -147.500; -428.000; -348.000
300.430; -107.700; -408.000; -291.000
300.568; -270.600; -940.000; -874.000
300.706; -121.600; -366.000; -469.000
300.844; -307.900;-1108.000; -979.000
300.982;   98.200;  246.000;  282.000
301.120; -279.700; -965.000; -866.000
301.258; -198.000; -812.000; -705.000
301.396;   -8.600;  104.000;  -41.000
301.534;  -70.600; -218.000; -293.000
301.672; -181.900; -664.000; -521.000
301.810; -156.900; -613.000; -545.000
301.948;   13.300;   53.000;  149.000
302.086;  -46.500; -250.000;  -32.000
302.224; -172.600; -610.000; -585.000
302.362; -170.200; -558.000; -622.000
302.500; -277.400; -923.000; -893.000
302.638;   20.800;  128.000;  245.000
302.776; -102.600; -352.000; -408.000
302.913;   54.200;  447.000;  236.000
303.051;  -65.600;  -86.000;  -23.000
303.189;   13.700;   90.000;  118.000
303.327;  -99.200; -341.000; -256.000
303.465; -184.600; -832.000; -588.000
303.603; -195.300; -805.000; -604.000
303.740;  113.300;  417.000;  241.000
303.878; -219.800; -800.000; -759.000
304.016; -222.400; -915.000; -790.000
304.154; -324.700;-1123.000;-1152.000
304.291; -123.700; -505.000; -554.000
304.429;   23.600;  102.000;   74.000
304.567; -266.500; -908.000; -893.000
304.705; -155.100; -408.000; -515.000
304.842; -198.500; -616.000; -540.000
304.980;   -1.900;  215.000;   35.000
305.118;  -77.800; -367.000; -365.000
305.255; -262.300; -945.000; -927.000
305.393;   64.700;  178.000;  239.000
305.531; -302.300;-1173.000; -956.000
305.668; -182.600; -663.000; -582.000
305.806; -110.000; -358.000; -439.000
305.943; -152.200; -629.000; -637.000
306.081;  -50.400; -378.000; -267.000
306.219; -213.900; -863.000; -748.000
306.356;    8.600;  158.000;   27.000
306.494;  178.600;  981.000;  761.000
306.631;  -36.800;  -11.000;  -55.000
306.769; -114.900; -613.000; -485.000
306.906; -131.800; -284.000; -258.000
307.044; -120.900; -473.000; -488.000
307.181; -132.600; -410.000; -332.000
307.319;   28.100;  112.000;   87.000
307.456; -353.000;-1191.000;-1153.000
307.594; -236.400; -980.000; -727.000
307.731; -119.000; -371.000; -164.000
307.868;  -20.700;  -15.000;   20.000
308.006; -270.000; -961.000; -847.000
308.143; -156.700; -618.000; -330.000
308.281;  -58.000;  -37.000; -254.000
308.418; -171.600; -748.000; -640.000
308.555; -169.100; -400.000; -250.000
308.693; -173.500; -577.000; -573.000
308.830; -225.100; -712.000; -657.000
308.967;  -28.100; -215.000;  -95.000
309.105; -106.200; -507.000; -396.000
309.242; -121.700; -468.000; -367.000
309.379; -200.800; -577.000; -655.000
309.517; -279.200; -936.000; -948.000
309.654; -266.100; -910.000; -734.000
309.791; -180.100; -662.000; -580.000
309.928; -264.200; -977.000; -914.000
310.065;  155.300;  819.000;  697.000
310.203; -261.300; -825.000; -850.000
310.340; -159.300; -465.000; -321.000
310.477; -176.500; -412.000; -516.000
310.614; -135.800; -383.000; -473.000
310.751; -177.700; -427.000; -518.000
310.889;  -33.500;    1.000;   11.000
311.026; -300.600;-1161.000; -939.000
311.163;  -65.500; -386.000; -380.000
311.300; -152.500; -512.000; -479.000
311.437; -174.600; -658.000; -619.000
311.574; -329.200;-1226.000; -985.000
311.711; -141.500; -595.000; -433.000
311.848;  -84.500; -380.000; -388.000
311.985;   22.800;  270.000;   93.000
312.122; -251.900; -932.000; -762.000
312.259; -246.800; -941.000; -994.000
312.396; -150.700; -508.000; -551.000
312.533; -185.400; -812.000; -790.000
312.670; -300.600;-1070.000; -898.000
312.807;  -93.500; -352.000; -367.000
312.944; -202.600; -513.000; -611.000
313.081;  -76.000; -150.000; -415.000
313.218; -275.400;-1111.000; -867.000
313.355; -131.700; -531.000; -449.000
313.492;  -88.400; -455.000; -292.000
313.629;  170.100;  815.000;  735.000
313.766; -345.800;-1176.000;-1008.000
313.902;  -16.200; -186.000;   21.000
314.039; -104.800; -372.000; -289.000
314.176;   60.800;  286.000;  192.000
314.313; -191.800; -569.000; -473.000
314.450; -211.000; -788.000; -684.000
314.587; -152.700; -468.000; -480.000
314.723;   -8.400;  -78.000;  130.000
314.860;   63.500;  318.000;  332.000
314.997;   43.000;  223.000;  142.000
315.134; -131.000; -385.000; -368.000
315.270; -131.100; -480.000; -496.000
315.407; -311.100;-1094.000; -967.000
315.544; -165.900; -657.000; -538.000
315.681; -183.000; -681.000; -565.000
315.817;  -55.400; -133.000; -176.000
315.954; -163.400; -613.000; -392.000
316.091; -301.800;-1045.000;-1023.000
316.227;  -26.700;  -71.000; -179.000
316.364;   16.100;   23.000;    6.000
316.500;  -95.800; -113.000; -300.000
316.637;  -81.500; -181.000; -302.000
316.774; -174.300; -625.000; -358.000
316.910; -158.400; -598.000; -629.000
317.047; -186.900; -487.000; -351.000
317.183; -115.800; -435.000; -566.000
317.320; -172.800; -367.000; -321.000
317.456; -219.200; -733.000; -805.000
317.593; -194.500; -598.000; -641.000
317.729;   23.000;  168.000;  -67.000
317.866; -406.700;-1434.000;-1285.000
318.002; -195.300; -708.000; -948.000
318.139; -257.400; -883.000; -867.000
318.275; -256.200;-1003.000; -738.000
318.412; -117.700; -517.000; -336.000
318.548; -211.900; -751.000; -720.000
318.685; -272.500; -985.000; -888.000
318.821; -202.300; -762.000; -735.000
318.957;  -59.100;   34.000;  -23.000
319.094;   62.800;  297.000;  154.000
319.230; -246.100; -756.000; -742.000
319.367; -138.500; -471.000; -520.000
319.503; -118.000; -538.000; -436.000
319.639; -268.000; -877.000; -793.000
319.775; -219.600; -750.000; -685.000
319.912; -145.000; -424.000; -519.000
320.048; -335.600;-1184.000;-1184.000
320.184;    7.300;   59.000;   70.000
320.321; -129.000; -497.000; -467.000
320.457;   85.100;  475.000;  662.000
320.593; -135.900; -375.000; -382.000
320.729; -183.600; -732.000; -734.000
320.866; -163.900; -577.000; -635.000
321.002; -217.600; -759.000; -809.000
321.138; -115.000; -135.000; -211.000
321.274;  -27.100; -148.000; -115.000
321.410; -167.000; -585.000; -353.000
321.546; -280.900;-1011.000; -911.000
321.683;   46.700;  400.000;  185.000
321.819;  -17.600;  -48.000; -117.000
321.955; -241.800; -743.000; -722.000
322.091; -126.300; -585.000; -540.000
322.227;  -94.400; -382.000; -202.000
322.363; -128.000; -320.000; -215.000
322.499; -113.400; -343.000; -331.000
322.635;  142.100;  636.000;  443.000
322.771;  -68.100; -139.000;   12.000
322.907;   87.400;  129.000;  327.000
323.043;  -83.400; -115.000; -206.000
323.179; -138.500; -394.000; -363.000
323.315; -136.200; -401.000; -371.000
323.451;  -87.700; -328.000; -236.000
323.587;  -68.000;  -60.000;  -77.000
323.723; -124.200; -682.000; -601.000
323.859;  -95.400; -258.000;  -76.000
323.995; -108.300; -467.000; -409.000
324.131; -256.800; -967.000; -892.000
324.267;  -62.400; -254.000; -276.000
324.402; -277.200; -960.000; -983.000
324.538;  -48.500; -279.000; -104.000
324.674;   21.000;  164.000;   77.000
324.810;   11.200;  226.000;  308.000
324.946; -125.900; -810.000; -658.000
325.082; -124.600; -568.000; -475.000
325.217;  -45.400;  -62.000;   16.000
325.353; -198.400; -764.000; -659.000
325.489; -198.900; -540.000; -506.000
325.625; -129.100; -579.000; -525.000
325.760;   86.100;  517.000;  376.000
325.896; -170.000; -515.000; -702.000
326.032; -132.100; -403.000; -352.000
326.168; -136.000; -462.000; -369.000
326.303; -111.800; -352.000; -461.000
326.439;  -58.300; -336.000; -276.000
326.575;  -43.500; -190.000;  -29.000
326.710;  -69.800; -156.000;  -30.000
326.846;   -7.100;  146.000;  103.000
326.982; -187.500; -530.000; -548.000
327.117; -176.600; -481.000; -442.000
327.253; -224.800; -745.000; -742.000
327.388; -312.700;-1137.000;-1153.000
327.524; -225.300; -811.000; -578.000
327.659;  -61.600;  -58.000;  -22.000
327.795;   -5.200;   69.000;   45.000
327.931; -205.200; -723.000; -499.000
328.066;  -80.200; -417.000; -276.000
328.202;  -62.000;   12.000; -129.000
328.337;  207.700;  957.000;  713.000
328.473;  -41.100;  -12.000;  -74.000
328.608;  -52.500; -256.000; -267.000
328.743; -238.300; -799.000; -664.000
328.879;   -4.900;  214.000;  114.000
329.014; -121.400; -102.000; -122.000
329.150; -161.500; -358.000; -483.000
329.285; -180.600; -465.000; -466.000
329.421; -130.400; -548.000; -246.000
329.556;  -69.100;  -36.000;   85.000
329.691; -180.600; -633.000; -615.000
329.827; -159.600; -626.000; -480.000
329.962;  -47.200;  131.000; -301.000
330.097; -174.600; -673.000; -585.000
330.233; -103.300; -410.000; -223.000
330.368; -217.400; -839.000; -628.000
330.503;  -27.300;    3.000;   98.000
330.638;  -30.400;  -93.000; -125.000
330.774; -179.300; -609.000; -530.000
330.909;  -94.100; -434.000; -244.000
331.044; -176.200; -714.000; -708.000
331.179; -338.800;-1217.000;-1109.000
331.315;   44.300;   77.000;   20.000
331.450;    5.700;  157.000;  285.000
331.585; -207.500; -805.000; -706.000
331.720; -194.600; -510.000; -460.000
331.855;  -41.600;  -35.000; -102.000
331.990;  -30.700;   62.000;  138.000
332.126;    2.000; -110.000;   71.000
332.261; -127.100; -379.000; -265.000
332.396; -100.200; -135.000; -242.000
332.531; -289.400;-1074.000;-1031.000
332.666; -109.800; -519.000; -363.000
332.801; -237.200; -726.000; -807.000
332.936;  -22.700; -192.000; -122.000
333.071; -309.600; -870.000; -817.000
333.206;   47.500;  307.000;  379.000
333.341;   36.200;  344.000;  418.000
333.476; -167.500; -627.000; -623.000
333.611;  -97.100; -251.000; -173.000
333.746;  -97.900; -381.000; -464.000
333.881; -282.600; -973.000; -935.000
334.016; -247.800; -936.000; -917.000
334.151; -269.900; -746.000; -702.000
334.286;   37.400;  152.000;  186.000
334.421;  -25.100; -125.000; -178.000
334.556; -188.700; -611.000; -567.000
334.690; -174.900; -631.000; -577.000
334.825;  122.700;  381.000;   83.000
334.960; -159.400; -285.000; -413.000
335.095;  -24.400;  135.000;  -91.000
335.230; -241.300; -722.000; -738.000
335.365; -287.500;-1084.000; -990.000
335.499; -296.200;-1108.000;-1037.000
335.634;  -19.900;    9.000;  534.000
335.769; -220.000; -755.000; -720.000
335.904; -174.500; -603.000; -561.000
336.038; -221.800; -735.000; -657.000
336.173; -362.300;-1206.000;-1194.000
336.308; -107.100; -116.000; -189.000
336.443; -186.100; -544.000; -634.000
336.577; -261.400; -936.000; -787.000
336.712;   14.300;   -4.000;  -12.000
336.847; -230.300; -724.000; -607.000
336.981;  -72.100; -272.000; -208.000
337.116;  132.400;  615.000;  501.000
337.250; -133.800; -434.000; -421.000
337.385; -101.500; -297.000; -208.000
337.520; -195.600; -632.000; -603.000
337.654; -104.900; -215.000; -126.000
337.789; -278.800; -989.000; -933.000
337.923;  -49.500; -104.000; -205.000
338.058; -201.900; -673.000; -738.000
338.192; -210.000; -611.000; -488.000
338.327;  -39.900;  -18.000; -155.000
338.461; -165.000; -299.000; -469.000
338.596; -168.200; -780.000; -638.000
338.730; -246.100; -767.000; -803.000
338.865;  -12.900;  -46.000; -140.000
338.999; -257.900; -846.000; -702.000
339.134; -160.700; -634.000; -536.000
339.268; -209.400; -741.000; -603.000
339.403; -250.100; -740.000; -775.000
339.537; -233.100; -894.000; -820.000
339.671; -220.200; -829.000; -813.000
339.806; -213.400; -556.000; -512.000
339.940;  -47.700; -261.000; -235.000
340.074; -204.700; -685.000; -510.000
340.209; -121.500; -351.000; -230.000
340.343; -170.600; -517.000; -573.000
340.477;  261.200;  998.000; 1036.000
340.612; -283.300;-1033.000; -900.000
340.746; -136.100; -199.000; -243.000
340.880; -269.100; -924.000; -785.000
341.014;  -33.400;  -45.000; -154.000
341.149; -216.400; -756.000; -718.000
341.283; -233.000; -839.000; -754.000
341.417; -304.500;-1124.000; -938.000
341.551; -205.200; -768.000; -708.000
341.685; -184.000; -633.000; -611.000
341.820; -179.300; -562.000; -493.000
341.954; -170.300; -218.000; -349.000
342.088; -286.000;-1102.000;-1019.000
342.222;   81.900;  565.000;  618.000
342.356; -145.600; -395.000; -335.000
342.490; -238.800; -880.000; -841.000
342.624; -112.000; -339.000; -242.000
342.758; -116.100; -364.000; -312.000
342.892; -197.400; -710.000; -585.000
343.026;  -84.100;  -58.000; -116.000
343.160; -108.300; -426.000; -376.000
343.294; -156.100; -474.000; -337.000
343.428; -160.300; -488.000; -448.000
343.562;  -50.200; -172.000;  -23.000
343.696;  -82.700; -385.000; -314.000
343.830; -113.100; -362.000; -356.000
343.964;  -45.700; -231.000; -168.000
344.098;  -13.500;  199.000;   70.000
344.232;  -41.300; -266.000; -127.000
344.366; -181.700; -567.000; -453.000
344.500; -163.800; -665.000; -744.000
344.634; -116.000; -324.000; -164.000
344.768; -169.400; -531.000; -341.000
344.902;   20.900;  278.000;  256.000
345.035; -151.800; -556.000; -496.000
345.169; -269.800; -933.000; -656.000
345.303; -121.500; -308.000; -482.000
345.437; -228.800; -826.000; -717.000
345.571; -196.900; -675.000; -594.000
345.704; -104.700; -309.000; -532.000
345.838;  -80.800; -331.000; -284.000
345.972; -159.500; -543.000; -495.000
346.106;   -3.400; -179.000; -190.000
346.239; -116.100; -312.000; -243.000
346.373; -120.600; -343.000; -302.000
346.507; -312.900; -950.000; -962.000
346.640;  -27.200;  -30.000;   13.000
346.774; -242.000; -650.000; -797.000
346.908;  -36.100; -138.000;  -11.000
347.041; -178.400; -646.000; -593.000
347.175;   45.600;  259.000;   27.000
347.309; -232.000; -698.000; -628.000
347.442; -258.500; -883.000; -732.000
347.576;  174.300;  670.000;  668.000
347.709;  -75.900; -123.000;  -52.000
347.843; -277.100; -933.000; -825.000
347.976;   63.600;  235.000;  294.000
348.110; -347.200;-1268.000;-1186.000
348.243; -208.800; -679.000; -772.000
348.377;  -16.200;  -26.000;   60.000
348.510;   70.900;  403.000;  540.000
348.644;  -74.600;  -37.000; -159.000
348.777;   20.800;  180.000;  191.000
348.911;  -81.800; -142.000; -112.000
349.044;  120.500;  471.000;  448.000
349.178; -313.900;-1069.000;-1006.000
349.311;   37.500;  141.000;  255.000
349.444; -252.500; -927.000; -813.000
349.578;  -64.100; -347.000; -200.000
349.711; -255.000; -959.000; -862.000
349.845; -200.000; -661.000; -591.000
349.978; -354.800;-1224.000;-1137.000
350.111; -197.600; -546.000; -612.000
350.244; -208.700; -596.000; -700.000
350.378; -140.900; -392.000; -393.000
350.511; -149.700; -393.000; -426.000
350.644; -219.100; -808.000; -806.000
350.778;  -10.000;  168.000;  104.000
350.911;   -5.500;  134.000;  140.000
351.044; -195.500; -685.000; -615.000
351.177;  -88.900; -321.000; -281.000
351.310;  -39.200;    3.000; -131.000
351.444; -247.100; -888.000; -788.000
351.577;   17.600;  140.000;   90.000
351.710;  149.400;  593.000;  417.000
351.843;  -65.900; -165.000;  -77.000
351.976;  -18.500;  149.000;  -79.000
352.109; -190.700; -621.000; -612.000
352.242; -137.100; -464.000; -419.000
352.376; -206.800; -580.000; -636.000
352.509; -146.600; -437.000; -356.000
352.642; -314.500; -654.000; -604.000
352.775;  -60.300; -141.000;  -98.000
352.908; -275.700; -933.000; -904.000
353.041; -240.200; -814.000; -824.000
353.174; -122.100; -551.000; -424.000
353.307; -228.100; -753.000; -764.000
353.440;  108.900;  541.000;  453.000
353.573; -267.200; -957.000;-1008.000
353.706; -226.500; -384.000; -558.000
353.839;  -66.800; -264.000; -220.000
353.971; -197.200; -657.000; -512.000
354.104; -245.700; -896.000; -835.000
354.237; -203.300; -627.000; -662.000
354.370; -225.800; -846.000; -879.000
354.503; -377.500;-1231.000;-1308.000
354.636;  -99.600; -529.000; -348.000
354.769; -282.400; -937.000; -860.000
354.902;  -96.100; -230.000; -139.000
355.034;  -92.900; -164.000; -220.000
355.167;  -93.800; -262.000; -162.000
355.300; -306.900;-1061.000; -880.000
355.433;  -36.900;  -71.000;  -14.000
355.565; -133.200; -402.000; -384.000
355.698; -119.900; -356.000; -296.000
355.831; -250.500; -882.000; -801.000
355.964; -106.100; -285.000; -170.000
356.096; -256.800; -856.000; -843.000
356.229; -159.200; -523.000; -530.000
356.362; -130.700; -373.000; -266.000
356.494;  -73.500; -229.000; -162.000
356.627;   39.200;  269.000;  377.000
356.760;   -4.900;  120.000;   53.000
356.892; -210.400; -286.000; -601.000
357.025;  111.000;  403.000;  389.000
357.157;  -87.700; -167.000; -179.000
357.290; -269.400; -856.000; -713.000
357.423; -214.400; -667.000; -556.000
357.555;  -29.100; -217.000; -228.000
357.688; -173.200; -483.000; -364.000
357.820; -261.200; -870.000; -877.000
357.953; -214.300; -563.000; -589.000
358.085; -199.600; -632.000; -612.000
358.218; -327.800;-1131.000; -932.000
358.350;  -20.000;  -58.000;  312.000
358.483; -350.600;-1300.000;-1187.000
358.615; -296.400;-1182.000;-1078.000
358.747; -353.400;-1187.000;-1058.000
358.880; -219.100; -810.000; -744.000
359.012; -128.900; -376.000; -202.000
359.145; -129.900; -480.000; -511.000
359.277; -284.000; -962.000; -913.000
359.409;  111.300;  536.000;  231.000
359.542; -243.200; -738.000; -688.000
359.674;   -3.200;   46.000;   13.000
359.806; -167.100; -565.000; -438.000
359.939; -119.800; -617.000; -516.000
360.071; -216.200; -583.000; -579.000
360.203;  -94.400; -411.000; -364.000
360.335;  -20.200;  164.000;  -16.000
360.468; -100.200; -249.000; -307.000
360.600; -179.000; -547.000; -454.000
360.732; -178.200; -546.000; -423.000
360.864; -350.800;-1216.000;-1044.000
360.996; -136.800; -516.000; -554.000
361.129; -155.800; -389.000; -598.000
361.261;  -24.900;  110.000; -113.000
361.393; -112.600; -252.000; -214.000
361.525;   27.200;   94.000;  244.000
361.657; -220.200; -821.000; -703.000
361.789;  -45.300; -139.000; -155.000
361.921; -176.900; -642.000; -593.000
362.053;  142.900;  524.000;  541.000
362.185;  -31.300;  288.000;   72.000
362.318; -232.400; -709.000; -705.000
362.450;   61.100;  294.000;  444.000
362.582; -261.600; -913.000; -870.000
362.714;  -95.800; -353.000; -332.000
362.846; -164.000; -606.000; -490.000
362.978; -282.000; -941.000; -811.000
363.109; -109.100; -161.000; -260.000
363.241; -235.400; -739.000; -749.000
363.373; -169.000; -649.000; -564.000
363.505;  -59.400; -186.000;  -91.000
363.637; -180.000; -787.000; -601.000
363.769; -347.000;-1067.000;-1080.000
363.901; -160.600; -596.000; -654.000
364.033; -316.800;-1103.000;-1062.000
364.165;  -60.900; -283.000; -283.000
364.296; -139.000; -316.000; -177.000
364.428; -384.400;-1344.000;-1220.000
364.560; -211.300; -679.000; -661.000
364.692; -182.300; -738.000; -835.000
364.824; -188.500; -588.000; -456.000
364.955; -114.900; -402.000; -564.000
365.087; -337.000;-1097.000; -852.000
365.219; -247.100; -686.000; -816.000
365.351; -196.400; -526.000; -572.000
365.482;    7.900;  300.000;  240.000
365.614; -125.000; -402.000; -314.000
365.746; -226.500; -729.000; -752.000
365.877; -235.200; -706.000; -672.000
366.009;  -44.100;  -35.000;  -62.000
366.141; -362.000;-1249.000;-1134.000
366.272; -236.800; -803.000; -719.000
366.404; -277.700;-1005.000; -874.000
366.535;  -32.800; -139.000;  -12.000
366.667; -219.000; -644.000; -649.000
366.799;   62.400;  353.000;  203.000
366.930; -315.000; -862.000; -996.000
367.062; -170.700; -639.000; -613.000
367.193; -277.000; -872.000; -842.000
367.325; -177.800; -580.000; -684.000
367.456; -116.600; -246.000;   31.000
367.588; -118.500; -371.000; -318.000
367.719;  -73.500;  -44.000;  -45.000
367.851;  -89.600; -222.000; -241.000
367.982; -285.300; -875.000; -732.000
368.113; -115.200; -475.000; -358.000
368.245; -281.700; -960.000; -841.000
368.376;  -81.100; -254.000; -302.000
368.508; -104.300; -188.000; -263.000
368.639; -318.700;-1166.000;-1034.000
368.770; -244.900; -670.000; -589.000
368.902; -244.500; -836.000; -926.000
369.033; -263.300; -906.000; -855.000
369.164; -204.400; -720.000; -653.000
369.296; -238.600; -452.000; -601.000
369.427;  -89.000; -209.000; -144.000
369.558; -174.000; -593.000; -377.000
369.689; -195.100; -721.000; -569.000
369.821; -305.000; -951.000; -845.000
369.952;  -51.300;   42.000; -108.000
370.083; -127.800; -229.000; -108.000
370.214; -222.000; -735.000; -650.000
370.345;  -36.900;   65.000;   81.000
370.477; -230.300; -810.000; -790.000
370.608; -121.500; -328.000; -264.000
370.739; -309.000;-1233.000;-1292.000
370.870; -289.000;-1102.000; -923.000
371.001; -152.500; -378.000; -467.000
371.132; -213.900; -754.000; -735.000
371.263;  -59.200;  -42.000; -148.000
371.394; -269.300; -841.000; -748.000
371.525;   61.200;  345.000;  225.000
371.657; -234.600; -808.000; -670.000
371.788;   19.400;  103.000;  199.000
371.919; -151.200; -384.000; -304.000
372.050;  -17.100;  -91.000; -156.000
372.181;  -33.500; -188.000; -294.000
372.311;  -39.700;   42.000; -127.000
372.442; -172.400; -457.000; -451.000
372.573;  -79.700; -444.000; -340.000
372.704; -311.200;-1008.000; -980.000
372.835;  -75.900; -228.000; -289.000
372.966; -245.700; -646.000; -554.000
373.097; -234.200; -575.000; -711.000
373.228; -180.200; -717.000; -542.000
373.359; -221.700; -824.000; -536.000
373.490; -251.500; -881.000; -727.000
373.620; -286.300;-1001.000; -803.000
373.751; -171.300; -332.000; -396.000
373.882; -181.800; -663.000; -733.000
374.013;  -98.500; -449.000; -262.000
374.143; -161.600; -581.000; -659.000
374.274; -309.800; -987.000; -908.000
374.405; -124.100; -388.000; -276.000
374.536; -150.000; -526.000; -387.000
374.666; -239.500; -759.000; -807.000
374.797; -250.600; -817.000; -868.000
374.928; -214.500; -710.000; -560.000
375.058; -196.700; -535.000; -500.000
375.189;  -48.900;  -59.000;  -93.000
375.320; -286.900; -928.000;-1034.000
375.450; -175.800; -625.000; -616.000
375.581; -178.900; -526.000; -436.000
375.712; -102.300; -574.000; -250.000
375.842; -149.200; -438.000; -415.000
375.973; -187.200; -554.000; -513.000
376.103; -210.300; -665.000; -648.000
376.234; -168.400; -531.000; -552.000
376.364; -287.900; -944.000; -867.000
376.495;  178.500;  925.000;  529.000
376.625; -188.400; -472.000; -485.000
376.756; -209.700; -709.000; -678.000
376.886; -349.600;-1178.000;-1026.000
377.017; -340.300;-1048.000;-1061.000
377.147; -276.000; -786.000; -782.000
377.278;   47.800;  174.000;  228.000
377.408; -254.000; -801.000; -815.000
377.538; -221.300; -707.000; -693.000
377.669; -218.700; -537.000; -613.000
377.799; -188.300; -645.000; -635.000
377.929; -189.600; -610.000; -428.000
378.060; -292.300; -781.000; -847.000
378.190; -218.600; -726.000; -531.000
378.320; -132.900; -401.000; -406.000
378.451;  -42.200; -131.000;  -22.000
378.581;  -62.400;  -67.000; -110.000
378.711;  174.600; 1035.000;  866.000
378.841; -188.500; -533.000; -675.000
378.972; -293.800; -871.000; -751.000
379.102; -191.600; -652.000; -579.000
379.232; -122.500; -126.000;  -73.000
379.362; -304.000;-1001.000; -885.000
379.492; -149.400; -373.000; -424.000
379.623;   12.400;    0.000;  111.000
379.753; -339.300;-1107.000; -974.000
379.883;   13.700;   59.000;  156.000
380.013; -328.100;-1081.000;-1017.000
380.143; -310.800;-1097.000;-1056.000
380.273; -268.300; -985.000; -861.000
380.403; -101.300; -344.000; -257.000
380.533; -249.900; -651.000; -664.000
380.663;   12.100;  173.000;  128.000
380.793; -350.300;-1027.000;-1074.000
380.923;  -88.400; -103.000;  -34.000
381.053; -216.900; -613.000; -623.000
381.183;  -81.700; -106.000; -248.000
381.313; -202.300; -656.000; -470.000
381.443; -158.400; -692.000; -473.000
381.573; -178.100; -402.000; -409.000
381.703; -351.300;-1249.000;-1095.000
381.833; -424.200;-1454.000;-1336.000
381.963;   13.200; -134.000;  -87.000
382.093; -289.000; -925.000; -909.000
382.223; -214.000; -713.000; -602.000
382.353; -228.600; -801.000; -608.000
382.482; -301.300;-1091.000; -964.000
382.612; -231.100; -872.000; -644.000
382.742; -209.700; -695.000; -622.000
382.872; -188.100; -565.000; -551.000
383.002;    6.700;  347.000; -132.000
383.131; -108.800; -226.000; -160.000
383.261; -201.600; -706.000; -768.000
383.391; -183.900; -552.000; -377.000
383.521;   77.400;  451.000;  263.000
383.650; -298.600; -947.000; -904.000
383.780; -232.500; -783.000; -656.000
383.910;  164.600;  880.000;  802.000
384.039; -276.600; -794.000; -656.000
384.169; -356.100;-1205.000;-1017.000
384.299; -207.900; -650.000; -662.000
384.428; -228.800; -764.000; -680.000
384.558; -121.800; -308.000; -275.000
384.687; -150.400; -414.000; -334.000
384.817;  -43.300;   75.000;   -2.000
384.947;  -86.900; -234.000; -141.000
385.076;  189.400;  982.000;  912.000
385.206;   60.800;  369.000;  480.000
385.335; -148.500; -549.000; -417.000
385.465; -232.900; -655.000; -663.000
385.594;  -42.500;  -53.000;  -44.000
385.724; -277.800; -868.000; -838.000
385.853; -103.800; -296.000; -270.000
385.982; -266.700; -743.000; -787.000
386.112; -271.700;-1052.000; -871.000
386.241; -127.800; -307.000; -312.000
386.371;  -61.600; -174.000;  -87.000
386.500; -276.600; -825.000; -789.000
386.629; -220.400; -874.000; -817.000
386.759;  -51.200;  -43.000;   68.000
386.888;  -65.800; -170.000; -250.000
387.017; -208.400; -648.000; -620.000
387.147; -230.900; -771.000; -798.000
387.276; -179.400; -410.000; -397.000
387.405; -125.500; -398.000; -342.000
387.535; -154.300; -452.000; -361.000
387.664; -225.300; -692.000; -620.000
387.793; -108.700; -198.000; -113.000
387.922;   18.400;  255.000;  200.000
388.052; -177.700; -576.000; -423.000
388.181; -155.000; -342.000; -472.000
388.310; -253.300; -889.000; -710.000
388.439; -266.900; -749.000; -742.000
388.568;   18.700;  365.000;  244.000
388.697; -217.900; -756.000; -653.000
388.826; -206.800; -768.000; -666.000
388.956;  -94.900; -285.000; -307.000
389.085; -101.200; -347.000; -287.000
389.214; -243.300; -842.000; -872.000
389.343; -230.900; -645.000; -413.000
389.472;   48.800;  126.000;  149.000
389.601;  -21.000;   91.000;    0.000
389.730; -182.200; -568.000; -687.000
389.859;   30.800;  226.000;   46.000
389.988; -122.700; -423.000; -408.000
390.117;  -83.400; -168.000; -146.000
390.246; -116.700; -331.000; -320.000
390.375; -202.800; -673.000; -626.000
390.504; -174.700; -703.000; -621.000
390.633; -289.000; -672.000; -726.000
390.761; -250.300; -732.000; -645.000
390.890;  -73.400;   -4.000; -130.000
391.019; -137.300; -421.000; -441.000
391.148; -253.100; -826.000; -855.000
391.277; -183.800; -576.000; -493.000
391.406; -278.900; -821.000; -805.000
391.534;    7.000;  574.000; -301.000
391.663; -206.300; -583.000; -645.000
391.792; -233.800; -673.000; -701.000
391.921;  -44.700;   -3.000;   15.000
392.050;  -86.300; -287.000; -228.000
392.178; -339.800;-1206.000;-1061.000
392.307; -207.800; -758.000; -712.000
392.436; -247.300; -427.000; -641.000
392.564;  -35.300;  166.000;   -6.000
392.693; -243.800; -860.000; -682.000
392.822; -188.300; -529.000; -534.000
392.950; -274.200; -880.000; -714.000
393.079; -136.900; -188.000; -328.000
393.208; -172.300; -488.000; -511.000
393.336;  -39.700; -170.000; -145.000
393.465; -111.700; -317.000; -199.000
393.593;  -17.900;   62.000;   79.000
393.722; -334.500;-1121.000; -916.000
393.850;  -61.100; -188.000;  -61.000
393.979; -320.800; -926.000; -805.000
394.107; -151.400; -517.000; -537.000
394.236; -164.400; -570.000; -507.000
394.364;   10.300;  383.000;  206.000
394.493; -255.900; -911.000; -767.000
394.621; -268.100; -955.000; -916.000
394.750; -280.700; -873.000; -923.000
394.878;  -71.000; -247.000; -149.000
395.007; -223.200; -721.000; -807.000
395.135; -224.700; -790.000; -721.000
395.263; -294.200;-1038.000;-1040.000
395.392;  -41.300;  -25.000; -107.000
395.520; -198.200; -818.000; -679.000
395.648; -278.000; -865.000; -915.000
395.777; -168.300; -366.000; -405.000
395.905; -187.300; -449.000; -564.000
396.033;   -8.600;  217.000;  172.000
396.162; -117.300; -399.000; -453.000
396.290;  -30.600;  -17.000;   -2.000
396.418; -186.600; -555.000; -514.000
396.546; -254.400; -571.000; -466.000
396.674; -259.400; -850.000; -878.000
396.803;  -35.500;  -72.000;  -23.000
396.931; -103.500; -179.000; -199.000
397.059; -338.700;-1026.000; -989.000
397.187; -270.700;-1026.000; -975.000
397.315; -273.100; -884.000; -649.000
397.443; -186.100; -592.000; -443.000
397.572; -166.600; -578.000; -424.000
397.700; -207.100; -607.000; -614.000
397.828; -116.100;  120.000;  -90.000
397.956; -144.400; -508.000; -478.000
398.084; -221.400; -767.000; -626.000
398.212;   -5.500;  137.000;  124.000
398.340;  -32.100;  -56.000;  159.000
398.468;  -91.800; -390.000; -169.000
398.596; -301.400; -993.000; -953.000
398.724; -247.100; -762.000; -767.000
398.852; -302.800;-1024.000; -976.000
398.980; -169.200; -560.000; -560.000
399.108; -192.900; -982.000; -735.000
399.236;  -26.600;   13.000;    8.000
399.363;   21.100;  222.000;  196.000
399.491; -168.400; -404.000; -398.000
399.619; -263.700; -829.000; -800.000
399.747; -265.900; -859.000; -771.000
399.875;   32.100;  220.000;  234.000
400.003; -126.600; -359.000; -284.000
400.130; -178.200; -421.000; -341.000
400.258;  -48.600;  -83.000;   38.000
400.386;  -73.500; -352.000; -168.000
400.514; -175.400; -526.000; -587.000
400.641; -270.800; -928.000; -802.000
400.769; -275.200; -979.000; -888.000
400.897; -245.100; -838.000; -793.000
401.025;  -66.800; -166.000; -152.000
401.152;   -7.700;  220.000;   38.000
401.280; -123.800; -430.000; -429.000
401.408; -258.500; -712.000; -576.000
401.535; -214.200; -735.000; -758.000
401.663; -378.400;-1134.000;-1054.000
401.790; -152.200; -514.000; -525.000
401.918;   78.600;  436.000;  405.000
402.046;  -45.600;  134.000;  122.000
402.173;  -75.700;  -18.000;    7.000
402.301; -133.700; -519.000; -397.000
402.428;   66.500;  528.000;  383.000
402.556; -330.400;-1188.000; -913.000
402.683;  -67.100;  -20.000;   -1.000
402.811;  -19.700;  -37.000; -206.000
402.938;  -38.500;   20.000;   27.000
403.066; -186.300; -574.000; -558.000
403.193;    5.100;  299.000;  239.000
403.321; -154.200; -396.000; -574.000
403.448;   -9.800;   83.000;   27.000
403.575;  -30.300;  -90.000;  -46.000
403.703; -243.100; -732.000; -557.000
403.830; -165.400; -531.000; -496.000
403.957; -319.100;-1117.000;-1023.000
404.085;  -86.300;  -61.000; -172.000
404.212;  -44.900;  -50.000;   63.000
404.339; -137.300; -566.000; -306.000
404.467; -176.600; -612.000; -524.000
404.594; -115.500; -287.000; -227.000
404.721; -241.800; -869.000; -764.000
404.848;  -48.800; -113.000; -202.000
404.976; -279.100; -856.000; -783.000
405.103;  -53.100;  -14.000;  -82.000
405.230;  -12.100;  190.000;  226.000
405.357;  -40.100;  117.000;   44.000
405.484;  -71.800;  -49.000;    5.000
405.612; -180.000; -548.000; -563.000
405.739; -154.100; -488.000; -243.000
405.866;  114.400;  669.000;  385.000
405.993; -147.400; -398.000; -102.000
406.120; -265.100; -801.000; -887.000
406.247; -168.900; -323.000; -342.000
406.374;  133.000;  540.000;  629.000
406.501; -212.100; -632.000; -702.000
406.628; -171.600; -621.000; -589.000
406.755; -261.200; -803.000; -620.000
406.882; -112.600; -228.000; -277.000
407.009; -219.100; -719.000; -628.000
407.136; -142.600; -480.000; -401.000
407.263; -291.900; -939.000; -829.000
407.390; -215.600; -692.000; -614.000
407.517; -372.500;-1139.000;-1187.000
407.644; -118.200; -332.000; -256.000
407.771; -163.400; -249.000; -287.000
407.898;   35.700;  168.000;  328.000
408.025; -163.100; -421.000; -313.000
408.151;    3.600;   82.000;  153.000
408.278; -126.500; -267.000; -216.000
408.405; -262.500; -931.000; -899.000
408.532; -214.800; -549.000; -542.000
408.659; -240.400; -677.000; -648.000
408.785; -373.800;-1298.000;-1170.000
408.912; -105.000; -412.000; -296.000
409.039; -215.100; -610.000; -686.000
409.166; -200.600; -591.000; -555.000
409.292; -191.000; -571.000; -534.000
409.419; -208.700; -665.000; -649.000
409.546; -132.800; -431.000; -192.000
409.672; -204.700; -713.000; -545.000
409.799;  -51.700;  -36.000;   34.000
409.926;  -91.400; -180.000; -179.000
410.052; -358.100;-1127.000;-1091.000
410.179; -166.300; -368.000; -392.000
410.305; -177.900; -375.000; -493.000
410.432; -112.300; -220.000; -333.000
410.558; -147.200; -305.000; -380.000
410.685; -194.400; -688.000; -431.000
410.812; -180.900; -409.000; -588.000
410.938; -271.000; -964.000; -808.000
411.065; -183.000; -671.000; -645.000
411.191;  -61.000; -189.000; -174.000
411.317; -285.200; -823.000; -742.000
411.444; -128.300; -317.000; -246.000
411.570; -113.500; -339.000; -294.000
411.697; -207.200; -758.000; -752.000
411.823; -308.500; -989.000; -999.000
411.949;  -91.800;  -56.000;   17.000
412.076; -191.800; -539.000; -519.000
412.202; -234.200; -758.000; -757.000
412.329; -252.800; -798.000; -752.000
412.455; -209.300; -821.000; -657.000
412.581;  -35.000;  -15.000;  172.000
412.707; -183.600; -540.000; -457.000
412.834;  -13.400;  156.000;  219.000
412.960; -248.000; -785.000; -784.000
413.086; -228.300; -743.000; -701.000
413.212;  102.400;  604.000;  578.000
413.339; -233.100; -685.000; -701.000
413.465; -149.500; -364.000; -310.000
413.591; -233.800; -757.000; -474.000
413.717; -134.800; -358.000; -366.000
413.843; -300.800; -839.000; -861.000
413.969; -107.900;  -47.000; -292.000
414.096; -219.200; -679.000; -679.000
414.222;  -52.500;  -33.000;   85.000
414.348; -223.700; -652.000; -385.000
414.474;  -52.000;   38.000;  -52.000
414.600;  -63.000; -126.000; -144.000
414.726;  -91.300;  -96.000;  -55.000
414.852; -164.000; -365.000; -342.000
414.978;  -33.700;  104.000;  -18.000
415.104;  -35.400;   38.000;   80.000
415.230; -154.700; -329.000; -330.000
415.356; -192.200; -409.000; -514.000
415.482;  -73.400;   13.000;  -35.000
415.608; -128.300; -247.000; -323.000
415.734;  -15.400;   67.000;   38.000
415.860; -297.900; -875.000; -767.000
415.986; -197.000; -685.000; -607.000
416.111; -208.100; -798.000; -652.000
416.237; -155.200; -424.000; -571.000
416.363; -266.000; -765.000; -733.000
416.489; -110.100; -324.000; -251.000
416.615; -281.100; -707.000; -742.000
416.741; -243.100; -677.000; -784.000
416.866; -246.600; -673.000; -736.000
416.992; -266.900; -801.000; -818.000
417.118; -116.400;  -41.000;  -80.000
417.244; -239.000; -798.000; -531.000
417.369; -278.500; -801.000; -612.000
417.495; -126.000; -325.000; -254.000
417.621; -326.200;-1015.000; -803.000
417.746; -199.700; -579.000; -572.000
417.872;  -97.100; -254.000; -144.000
417.998; -167.300; -515.000; -530.000
418.123; -305.700;-1073.000; -845.000
418.249; -163.000; -512.000; -601.000
418.374; -305.200; -916.000; -824.000
418.500; -177.400; -383.000; -482.000
418.626;  -38.500;   70.000;  -59.000
418.751; -170.500; -549.000; -448.000
418.877; -240.100; -637.000; -643.000
419.002; -157.100; -688.000; -560.000
419.128; -279.000; -930.000; -721.000
419.253; -295.800; -967.000; -837.000
419.379; -198.900; -391.000; -338.000
419.504;   59.100;  325.000;  415.000
419.629; -120.100; -393.000; -212.000
419.755;  -65.000; -317.000; -254.000
419.880; -126.500;  -98.000;   67.000
420.006; -130.200; -280.000; -221.000
420.131; -197.800; -662.000; -775.000
420.256; -148.800; -315.000; -316.000
420.382; -235.400; -665.000; -687.000
420.507; -239.000; -649.000; -778.000
420.632; -169.300; -337.000; -339.000
420.758; -104.500; -251.000; -425.000
420.883; -258.600; -876.000; -672.000
421.008; -231.500; -775.000; -619.000
421.133; -171.300; -509.000; -467.000
421.259; -110.700; -325.000; -259.000
421.384; -251.300; -834.000; -693.000
421.509; -270.700;-1052.000; -862.000
421.634; -268.100; -936.000; -820.000
421.759; -114.600; -359.000; -327.000
421.885; -202.900; -717.000; -656.000
422.010; -185.500; -673.000; -542.000
422.135; -321.800; -695.000; -727.000
422.260;   73.100;  340.000;  280.000
422.385; -110.300;   12.000;  -98.000
422.510;   -3.500;  151.000;  -26.000
422.635;  -72.400;  -87.000;  -43.000
422.760; -222.900; -766.000; -791.000
422.885;  -60.600;  -57.000;  -80.000
423.010;  -88.500; -112.000; -169.000
423.135; -203.600; -481.000; -561.000
423.260;  -81.400; -150.000; -245.000
423.385;   24.100;  476.000;  222.000
423.510;   -3.700;   71.000;  -22.000
423.635;  -27.400;  133.000;   45.000
423.760;   55.600;  383.000;  328.000
423.885;   35.800;  336.000;  391.000
424.010;  -45.100;  -68.000;  -13.000
424.135;  -66.200;    5.000;  -33.000
424.259; -180.000; -654.000; -457.000
424.384; -177.000; -279.000; -272.000
424.509;  -94.100; -260.000; -186.000
424.634; -260.600; -761.000; -623.000
424.759; -221.400; -688.000; -544.000
424.883; -200.000; -506.000; -527.000
425.008; -174.800; -502.000; -410.000
425.133; -229.600; -679.000; -653.000
425.258; -194.700; -517.000; -381.000
425.382; -248.300; -867.000; -774.000
425.507; -185.800; -487.000; -543.000
425.632; -291.900; -802.000; -663.000
425.756; -117.700; -256.000; -146.000
425.881; -277.900; -831.000; -857.000
426.006; -137.400; -604.000; -355.000
426.130; -230.200; -696.000; -508.000
426.255; -184.100; -611.000; -491.000
426.379; -104.000; -189.000; -577.000
426.504;  100.900;  660.000;  544.000
426.629; -202.500; -519.000; -466.000
426.753;  -31.700;   64.000;  -46.000
426.878; -119.600; -252.000; -288.000
427.002; -265.800; -651.000; -668.000
427.127; -107.700;  -35.000; -158.000
427.251;   67.700;  372.000;  401.000
427.375; -139.800; -191.000; -173.000
427.500; -186.000; -616.000; -610.000
427.624; -125.900; -234.000; -400.000
427.749;  -91.600; -216.000; -225.000
427.873; -181.200; -499.000; -412.000
427.997; -109.300; -222.000; -230.000
428.122;  113.900;  795.000;  703.000
428.246;   55.200;  433.000;  434.000
428.371; -303.800; -869.000; -773.000
428.495; -231.600; -624.000; -646.000
428.619; -114.500; -186.000; -117.000
428.743;  -33.700;   65.000;  132.000
428.868; -242.100; -732.000; -643.000
428.992; -151.000; -219.000; -326.000
429.116; -167.800; -329.000; -357.000
429.240;   32.100;  419.000;  426.000
429.365; -155.600; -454.000; -574.000
429.489; -216.700; -638.000; -647.000
429.613; -113.500; -236.000; -177.000
429.737; -163.900; -563.000; -432.000
429.861; -119.800; -247.000; -133.000
429.985; -181.300; -425.000; -305.000
430.109; -320.400; -770.000; -908.000
430.234;    3.900;   76.000;  -50.000
430.358; -140.200; -250.000; -160.000
430.482; -227.000; -672.000; -564.000
430.606; -206.600; -655.000; -375.000
430.730; -191.400; -437.000; -388.000
430.854; -319.300; -909.000; -835.000
430.978; -267.400; -795.000; -764.000
431.102; -221.900; -499.000; -422.000
431.226; -244.300; -874.000; -815.000
431.350;   51.300;  345.000;  422.000
431.474; -175.300; -661.000; -373.000
431.597; -313.900;-1060.000; -848.000
431.721; -132.700; -276.000; -267.000
431.845; -234.700; -704.000; -472.000
431.969; -150.000; -304.000; -349.000
432.093; -163.000; -395.000; -317.000
432.217;  -17.300;   32.000;   82.000
432.341; -202.200; -523.000; -518.000
432.464;  -32.100;   96.000;   40.000
432.588; -166.100; -401.000; -329.000
432.712;  -99.600;  -52.000;  -52.000
432.836;  -11.700;  213.000;  263.000
432.959; -124.700; -372.000; -311.000
433.083;  -51.300;   11.000;    2.000
433.207;   79.800;  285.000;  930.000
433.330; -160.500; -391.000; -200.000
433.454; -241.400; -654.000; -638.000
433.578;   50.500;  583.000;  278.000
433.701; -251.000; -623.000; -675.000
433.825; -152.900; -292.000; -299.000
433.949;  -50.600;   28.000;  -72.000
434.072; -151.900; -410.000; -323.000
434.196; -112.600; -309.000; -117.000
434.319; 7373.000;25482.000;25124.000
434.443; -209.000; -656.000; -603.000
434.566;  -32.000;  281.000;   62.000
434.690; -182.100; -637.000; -383.000
434.813; -133.500; -251.000; -173.000
434.937; -198.200; -569.000; -696.000
435.060; -161.000; -423.000; -332.000
435.184; -166.900; -492.000; -217.000
435.307;  -57.000;  159.000;  102.000
435.431;  -20.000;  -40.000;   24.000
435.554; -167.000; -399.000; -240.000
435.677; -142.800; -350.000; -258.000
435.801;  -58.500;  -25.000;   49.000
435.924;  -60.100;    1.000;  -67.000
436.048; -296.000;-1019.000; -732.000
436.171; -122.900; -240.000;  -66.000
436.294; -132.700; -248.000; -229.000
436.417; -304.100; -963.000; -849.000
436.541; -300.700; -814.000; -840.000
436.664;  -60.900; -242.000; -316.000
436.787;  -29.700;   13.000;  113.000
436.910; -211.100; -792.000; -422.000
437.034;  -35.800;  142.000;  143.000
437.157;  -11.500;  -11.000;    0.000
437.280; -186.200; -392.000; -292.000
437.403; -286.300; -982.000; -869.000
437.526; -321.700; -903.000; -865.000
437.649; -176.800; -505.000; -332.000
437.772; -268.100; -692.000; -540.000
437.896;  136.400;  700.000;  544.000
438.019; -250.400; -758.000; -503.000
438.142; -190.000; -596.000; -506.000
438.265; -264.300; -639.000; -670.000
438.388; -169.000; -520.000; -410.000
438.511; -202.100; -597.000; -394.000
438.634; -148.100; -247.000; -125.000
438.757; -245.200; -693.000; -619.000
438.880;  -43.600;  -34.000;  -57.000
439.003; -184.800; -417.000; -437.000
439.126;  -95.100; -287.000; -167.000
439.248;  -96.000;  -98.000; -139.000
439.371;  -41.800;    9.000;  -53.000
439.494;  119.200;  510.000;  439.000
439.617;  -55.600;   65.000;  -88.000
439.740; -309.100; -968.000; -816.000
439.863; -236.400; -755.000; -595.000
439.986; -179.700; -476.000; -431.000
440.108; -102.500; -161.000; -112.000
440.231; -319.400; -950.000; -836.000
440.354;  -87.800;  -64.000; -150.000
440.477; -238.400; -566.000; -542.000
440.599; -130.700; -200.000; -225.000
440.722; -216.000; -709.000; -586.000
440.845;  148.300;  751.000;  928.000
440.968; -189.900; -415.000; -311.000
441.090; -101.800; -199.000;  -33.000
441.213; -302.500;-1021.000; -825.000
441.336;  -70.200; -159.000;   -5.000
441.458; -147.600; -549.000; -396.000
441.581; -224.500; -628.000; -629.000
441.703; -134.300; -152.000;   13.000
441.826; -199.500; -557.000; -400.000
441.948;  -75.000;   56.000;   51.000
442.071;   86.600;  555.000;  424.000
442.193; -208.900; -531.000; -485.000
442.316;  -18.400;  152.000;   97.000
442.438;  -98.700; -233.000;  -10.000
442.561;   49.800;  272.000;  262.000
442.683; -257.100; -809.000; -522.000
442.806;  -44.800;   -8.000;   74.000
442.928; -277.600; -859.000; -604.000
443.051; -229.900; -577.000; -373.000
443.173; -164.700; -341.000; -339.000
443.295; -156.100; -263.000; -371.000
443.418; -146.800; -321.000;  -29.000
443.540;  -32.700; -106.000;   -4.000
443.662; -233.200; -563.000; -465.000
443.785;   -5.800;  335.000;  199.000
443.907; -183.600; -362.000; -208.000
444.029; -212.100; -767.000; -494.000
444.152; -245.000; -644.000; -554.000
444.274;  -32.400;  -18.000;  -24.000
444.396; -192.900; -461.000; -221.000
444.518; -227.900; -691.000; -454.000
444.640; -184.500; -268.000; -111.000
444.763;    2.100;  388.000;  249.000
444.885; -205.000; -432.000; -392.000
445.007;  -33.800;   35.000;   86.000
445.129; -199.900; -610.000; -515.000
445.251; -206.300; -372.000; -439.000
445.373; -234.500; -537.000; -386.000
445.495;   -5.700;  242.000;  350.000
445.617;  149.000;  853.000;  753.000
445.739; -140.800; -215.000;  -97.000
445.861;  -90.300; -245.000; -112.000
445.984; -131.300; -267.000; -101.000
446.105; -154.100; -418.000; -251.000
446.227; -103.000; -176.000;  -19.000
446.349; -242.300; -358.000; -249.000
446.471; -216.400; -615.000; -448.000
446.593; -142.300; -316.000;   19.000
446.715;  -58.300;  -67.000;   41.000
446.837;  120.800;  697.000;  832.000
446.959; -174.600; -457.000; -478.000
447.081; -239.400; -628.000; -518.000
447.203;  162.900;  862.000;  834.000
447.325; -165.900; -270.000;   42.000
447.446;    3.600;  286.000;  530.000
447.568; -304.900; -921.000; -803.000
447.690; -151.100; -236.000; -245.000
447.812; -259.600; -798.000; -519.000
447.933;  -48.300;  155.000;  127.000
448.055; -120.500; -306.000; -261.000
448.177;  -15.400;   31.000;   79.000
448.299; -323.700; -935.000; -727.000
448.420;  -24.500;  -25.000;  159.000
448.542;  -62.400;   -3.000;   33.000
448.664;  -37.500;  109.000;  322.000
448.785;  -59.900;  265.000;   83.000
448.907; -183.300; -614.000; -353.000
449.028; -219.800; -771.000; -471.000
449.150;   60.500;  492.000;  589.000
449.272; -333.300;-1044.000; -913.000
449.393;  130.400;  612.000;  694.000
449.515; -251.400; -634.000; -581.000
449.636; -111.100; -264.000; -155.000
449.758;  116.900;  763.000;  622.000
449.879; -165.300; -498.000; -396.000
450.001; -164.500; -149.000;  -49.000
450.122;  -51.600;  -95.000;  162.000
450.244;  -45.000;   37.000;  364.000
450.365; -171.000; -495.000; -301.000
450.486;  -43.400;   80.000;  268.000
450.608;   19.800;  393.000;  326.000
450.729;   62.600;  578.000;  645.000
450.850; -205.200; -574.000; -466.000
450.972; -240.600; -552.000; -389.000
451.093;   -0.400;  190.000;  588.000
451.214; -181.000; -516.000; -337.000
451.336;  155.000;  773.000;  579.000
451.457;   10.000;  264.000;  393.000
451.578;  -87.900; -118.000;  -74.000
451.699; -231.900; -546.000; -540.000
451.821; -120.200; -284.000;  -50.000
451.942;  -17.800;  278.000;  285.000
452.063;   28.600;  228.000;  419.000
452.184;  -94.900;  -54.000;  -49.000
452.305;    6.200;  103.000;  170.000
452.427; -216.300; -549.000; -301.000
452.548;  -95.900;   23.000;   79.000
452.669; -156.600; -257.000;  -89.000
452.790;  -89.300;    3.000;  -18.000
452.911;  -40.300;  195.000;  259.000
453.032; -115.500; -289.000;  -60.000
453.153; -112.000;  -29.000;   81.000
453.274;  157.000;  737.000;  868.000
453.395;  -80.600;  -51.000;  175.000
453.516;  227.600; 1317.000; 1388.000
453.637; -161.800; -205.000; -150.000
453.758; -100.000;   15.000;   69.000
453.879; -176.400; -462.000; -250.000
454.000;  183.400; 1086.000;  948.000
454.121; -229.800; -554.000; -326.000
454.242; -187.900; -599.000; -383.000
454.362;  -72.100;  -99.000;  114.000
454.483; -165.600; -309.000; -229.000
454.604;   37.700;  512.000;  580.000
454.725; -251.300; -627.000; -555.000
454.846; -199.500; -474.000; -406.000
454.967;   20.800;  230.000;  539.000
455.087;  -51.100;  179.000;  153.000
455.208;   82.800;  554.000;  856.000
455.329;  -63.400;  -22.000;   82.000
455.450;   64.200;  473.000;  633.000
455.570; -149.800; -234.000; -211.000
455.691;  -44.100;  201.000;  407.000
455.812; -169.100; -270.000;  -92.000
455.932;  -64.500;  107.000;  -97.000
456.053; -122.900;   36.000;   24.000
456.173; -149.800; -433.000; -355.000
456.294; -192.800; -476.000; -303.000
456.415; -107.800;  -73.000;   70.000
456.535;   -9.600;  297.000;  273.000
456.656;  -38.400;  132.000;  240.000
456.776; -111.000;    3.000;  298.000
456.897;   35.700;  308.000;  513.000
457.017; -131.500; -153.000;   -3.000
457.138; -203.200; -402.000; -249.000
457.258;  -49.000;  263.000;  224.000
457.379;   35.600;  509.000;  521.000
457.499;   -1.900;  443.000;  432.000
457.620; -201.300; -407.000; -231.000
457.740; -147.600; -132.000;  -11.000
457.860;  -85.100;   87.000;   44.000
457.981;  -92.200;  132.000;  124.000
458.101; -153.100;  -89.000;   40.000
458.221;    5.400;  336.000;  402.000
458.342;  -34.300;   -4.000;  -37.000
458.462;    6.900;  617.000;  352.000
458.582; -161.300; -302.000; -294.000
458.703;  -76.200;  303.000;  154.000
458.823;  -30.500;   22.000;  163.000
458.943;   12.500;  341.000;  467.000
459.063;  -55.500; 1124.000;  192.000
459.183;  -39.200;  328.000;  313.000
459.304;   43.800;  315.000;  517.000
459.424; -136.600; -246.000;  -89.000
459.544;   60.900;  388.000;  764.000
459.664;   39.100;  499.000;  506.000
459.784;  165.600; 1004.000; 1175.000
459.904;   91.700;  867.000;  744.000
460.024;  120.700;  867.000;  684.000
460.144;   20.700;  449.000;  554.000
460.264;   31.100;  515.000;  327.000
460.385; -123.400; -145.000; -119.000
460.505;  116.200;  905.000;  858.000
460.625; -139.100;  -17.000;  -68.000
460.745;   23.300;  396.000;  541.000
460.864;  -87.100;  153.000;  469.000
460.984;   13.500;  499.000;  573.000
461.104;  310.600; 1656.000; 1775.000
461.224;   77.100;  657.000;  650.000
461.344;  -51.300;  431.000;  360.000
461.464;  -22.200;  258.000;  513.000
461.584;  -14.400;  283.000;  466.000
461.704; -113.500;   58.000;  108.000
461.824;  -99.700;  238.000;  259.000
461.943;  -23.900;  191.000;  130.000
462.063;  -97.100;    2.000;  324.000
462.183;  118.500;  639.000;  717.000
462.303;  236.100; 1678.000; 1230.000
462.422;   92.400;  781.000;  840.000
462.542;  -62.800;  271.000;  391.000
462.662;    9.800;  353.000;  380.000
462.782;   25.100;  833.000;  572.000
462.901;   42.000;  545.000;  717.000
463.021;  332.900; 1702.000; 1638.000
463.141;  -16.100;  337.000;  770.000
463.260;  -11.200;  614.000;  474.000
463.380;   92.500;  902.000;  884.000
463.499;   -8.100;  342.000;  332.000
463.619;  -18.200;  581.000;  559.000
463.738;  309.700; 1644.000;  903.000
463.858;   63.200;  657.000;  811.000
463.978;  -40.600;  542.000;  396.000
464.097;  166.400;  921.000; 1114.000
464.217;  157.900; 1196.000; 1143.000
464.336;  182.400; 1068.000; 1130.000
464.455;  -42.700;  328.000;  659.000
464.575;   53.700;  597.000;  602.000
464.694;  162.200; 1204.000; 1179.000
464.814;  122.200; 1190.000; 1138.000
464.933;  118.600; 1095.000; 1027.000
465.052;  212.700; 1412.000; 1054.000
465.172;   98.900;  922.000;  799.000
465.291;  213.900; 1376.000; 1320.000
465.410;   29.500;  462.000;  735.000
465.530;  190.600; 1355.000; 1310.000
465.649;  168.700; 1209.000; 1273.000
465.768;  306.600; 1673.000; 1508.000
465.888;  140.200;  941.000; 1174.000
466.007;  238.800; 1335.000; 1440.000
466.126;   42.600;  721.000;  641.000
466.245;  169.800; 1176.000; 1187.000
466.364;  114.400;  950.000; 1060.000
466.484;  146.500; 1024.000; 1213.000
466.603;  125.600; 1101.000; 1222.000
466.722;  265.500; 1490.000; 1769.000
466.841;  170.900; 1151.000; 1401.000
466.960;  104.200; 1069.000;  972.000
467.079;  346.100; 1971.000; 1786.000
467.198;  148.400; 1238.000; 1181.000
467.317;  246.600; 1768.000; 1162.000
467.436;  216.500; 1709.000; 1261.000
467.555;  282.500; 1796.000; 1746.000
467.674;  204.900; 1227.000; 1329.000
467.793;  143.900; 1376.000; 1374.000
467.912;  235.300; 1658.000; 1539.000
468.031;  302.000; 2038.000; 1930.000
468.150;  323.100; 1842.000; 1837.000
468.269;  450.200; 2313.000; 2090.000
468.388;  404.300; 2168.000; 2339.000
468.507;  573.400; 2884.000; 2903.000
468.626;  556.700; 2555.000; 2541.000
468.744;  360.200; 2018.000; 2174.000
468.863;  466.800; 2312.000; 2523.000
468.982;  199.800; 1503.000; 1555.000
469.101;  475.500; 2788.000; 2692.000
469.220;  345.800; 2333.000; 2176.000
469.338;  567.900; 2935.000; 3051.000
469.457;  442.800; 2719.000; 2545.000
469.576;  726.400; 3953.000; 3784.000
469.695;  541.600; 2877.000; 3066.000
469.813;  847.300; 4148.000; 4192.000
469.932;  817.800; 4255.000; 4485.000
470.051;  780.800; 4075.000; 4161.000
470.169;  887.300; 4470.000; 4338.000
470.288;  891.100; 4700.000; 4809.000
470.406; 1026.200; 5059.000; 5194.000
470.525; 1247.800; 6101.000; 5787.000
470.644; 1272.900; 6847.000; 6794.000
470.762; 1653.200; 8397.000; 7873.000
470.881; 1765.700; 8651.000; 8464.000
470.999; 2004.900; 9685.000; 9151.000
471.118; 2205.500;11174.000;10711.000

