
Integration time [ms]: 100.000
Averaging Nr. [scans]: 40
Smoothing Nr. [pixels]: 0
Data measured with spectrometer [name]: 2101012U2
Wave   ;Sample   ;Dark     ;Reference
[nm]   ;[counts] ;[counts] ;[counts] 

197.733;   60.850;  516.000;  404.000
197.879;  -74.725; -610.000; -634.000
198.025;  -45.075; -475.000; -420.000
198.171;  -78.550; -602.000; -612.000
198.317;  -31.750; -401.000; -316.000
198.463;  -66.800; -655.000; -404.000
198.609;   35.025;  181.000; -137.000
198.755;  -76.575; -644.000; -410.000
198.901;  -56.625; -505.000; -424.000
199.047;  -74.075; -615.000; -488.000
199.193;  -35.575; -230.000; -468.000
199.339;  -56.250; -222.000; -369.000
199.485;   40.800;  330.000;  271.000
199.631;    7.525;  227.000;  310.000
199.777;  -49.225; -466.000; -398.000
199.923;  -61.500; -610.000; -424.000
200.069;   -5.725; -141.000;  -58.000
200.215;   38.775;  128.000;  453.000
200.361;   29.325;  243.000;  477.000
200.507;  -63.900; -600.000; -373.000
200.653;  -23.700; -371.000; -194.000
200.798;  -35.125; -215.000; -125.000
200.944;  -11.125; -146.000;  -41.000
201.090;   37.150;   61.000;  222.000
201.236;   -6.100; -116.000; -158.000
201.382;  124.225;  874.000;  903.000
201.528;   16.150;  -58.000;  -48.000
201.674;  -49.050; -386.000; -293.000
201.819;  -68.300; -540.000; -439.000
201.965;  -90.400; -699.000; -447.000
202.111;  -31.200; -273.000; -226.000
202.257;  -31.125; -250.000; -238.000
202.402;    1.775;   13.000;  -36.000
202.548;  -37.100; -169.000; -116.000
202.694;   83.800;  410.000; -183.000
202.840;  -84.325; -603.000; -531.000
202.985;  -77.850; -681.000; -639.000
203.131;  -87.425; -832.000; -666.000
203.277;   -9.125; -199.000; -262.000
203.423;  -59.775; -434.000; -520.000
203.568;  -37.050; -462.000; -237.000
203.714;  -70.050; -535.000; -542.000
203.860;  -78.500; -682.000; -641.000
204.005;   13.725;  112.000;  167.000
204.151;   64.500;  561.000;  556.000
204.296;  -47.275; -354.000; -221.000
204.442;  -65.750; -600.000; -547.000
204.588;  -83.275; -592.000; -579.000
204.733;   19.125;  178.000;  168.000
204.879; -138.025;-1018.000; -822.000
205.025;    9.500;  -99.000;  126.000
205.170;  -10.825;  -17.000;   94.000
205.316;   69.925;  438.000;  661.000
205.461;  -81.200; -698.000; -554.000
205.607;   91.250;  609.000;  665.000
205.752;  -79.125; -626.000; -551.000
205.898;  -41.900; -501.000; -391.000
206.043;  -58.325; -578.000; -506.000
206.189;  -41.575; -243.000; -285.000
206.334;   63.750;  554.000;  606.000
206.480;   77.975;  409.000;  239.000
206.625;  -82.000; -529.000; -552.000
206.771;  -59.200; -451.000; -373.000
206.916;  -34.500; -210.000; -537.000
207.062;  -62.600; -545.000; -591.000
207.207;  -63.250; -546.000; -443.000
207.353;   51.325;  185.000;  460.000
207.498;   22.000;  196.000;   85.000
207.643;  -46.750; -501.000; -370.000
207.789; -138.500;-1069.000; -910.000
207.934;  -85.375; -665.000; -713.000
208.080;  -28.850; -154.000;   66.000
208.225;    4.650;  -22.000;  -57.000
208.370;  -74.375; -727.000; -619.000
208.516;  -63.875; -741.000; -487.000
208.661;  -23.725; -127.000;  -69.000
208.806;  -16.350; -165.000; -171.000
208.952; -131.975;-1044.000; -731.000
209.097;   78.925;  378.000;  349.000
209.242;  -57.950; -307.000; -382.000
209.387;   62.575;  392.000;  350.000
209.533;  -56.375; -321.000; -350.000
209.678;   74.875;  472.000;  543.000
209.823;  -60.250; -408.000; -310.000
209.969; -103.925; -860.000; -757.000
210.114; -109.250; -907.000; -719.000
210.259; -111.025; -939.000; -889.000
210.404;  -20.325; -171.000;  103.000
210.549;    7.600;  108.000;    3.000
210.695;  -19.525;   -3.000;  -95.000
210.840;   32.875;   94.000;   67.000
210.985;  -81.050; -484.000; -303.000
211.130;   58.150;  268.000;  406.000
211.275;    9.625;  207.000;  199.000
211.420;  -43.925; -300.000; -289.000
211.566;  -77.825; -536.000; -489.000
211.711;   23.200;  218.000;  157.000
211.856;  -65.550; -545.000; -519.000
212.001;    5.500;  151.000;   44.000
212.146;   26.675;  153.000;   49.000
212.291;  -14.425; -210.000; -186.000
212.436;  -28.225; -280.000;   -6.000
212.581;  -77.525; -685.000; -653.000
212.726;  -76.875; -487.000; -538.000
212.871;  -46.600; -552.000; -217.000
213.016; -167.450;-1172.000;-1029.000
213.161;   58.275;  406.000;  291.000
213.306;  -79.350; -435.000; -577.000
213.451;  -91.450; -778.000; -689.000
213.596;  -44.175; -455.000; -347.000
213.741;  -41.625; -448.000; -538.000
213.886;  -86.725; -498.000; -517.000
214.031;  -24.025; -294.000; -124.000
214.176;  -50.025; -408.000; -341.000
214.321;  -22.500; -296.000; -157.000
214.466;  -30.325; -163.000;  -43.000
214.611;   -7.200;  -61.000;  -10.000
214.756; -115.150; -948.000; -858.000
214.901;  -20.200; -388.000; -226.000
215.046; -132.750; -797.000; -825.000
215.191;   18.500;  128.000;   35.000
215.336;   -3.150; -157.000;  -19.000
215.480;  -63.150; -684.000; -505.000
215.625;  -21.750; -175.000;  -19.000
215.770;  -78.825; -757.000; -662.000
215.915;  -13.275;   -5.000;  -97.000
216.060;  -14.000; -113.000;  -21.000
216.205; -105.650; -731.000; -779.000
216.349;  -58.375; -470.000; -533.000
216.494; -136.575; -939.000; -867.000
216.639; -109.275; -823.000; -888.000
216.784;  -83.875; -577.000; -525.000
216.929;   62.350;  392.000;  281.000
217.073;  -15.900; -244.000;  -31.000
217.218;   12.775;   78.000;  -47.000
217.363;  -90.175; -656.000; -618.000
217.507;  -80.700; -623.000; -588.000
217.652; -135.775; -845.000; -874.000
217.797;  -80.750; -708.000; -659.000
217.942; -119.625; -856.000; -720.000
218.086;   70.650;  608.000;  539.000
218.231;  -15.025; -174.000;  -26.000
218.376;  -35.725; -337.000; -229.000
218.520;   -5.025;  -41.000;   96.000
218.665;  -32.575; -338.000; -204.000
218.810;  -39.375; -275.000; -233.000
218.954;   25.600;  201.000;   35.000
219.099; -122.550; -713.000; -963.000
219.243;  -63.775; -589.000; -554.000
219.388;  -23.300; -264.000; -136.000
219.532;  -11.025; -116.000; -116.000
219.677;  -83.950; -564.000; -521.000
219.822;    6.600;   33.000;   89.000
219.966;   -4.425;   17.000;  -99.000
220.111;  -21.200; -328.000;  -40.000
220.255;  -92.750; -797.000; -750.000
220.400;  -15.675; -180.000; -146.000
220.544;  -77.650; -516.000; -450.000
220.689;  -57.725; -422.000; -451.000
220.833;  -16.325; -123.000;  -58.000
220.978;  -39.000; -393.000; -563.000
221.122;   23.050;  319.000;  307.000
221.267; -116.900; -906.000; -837.000
221.411;  -73.250; -478.000; -394.000
221.555;   -0.525; -104.000;  -23.000
221.700;  -46.600; -329.000; -222.000
221.844;   32.825;  255.000;  272.000
221.989;  -54.125; -328.000; -311.000
222.133;  -33.700; -289.000; -307.000
222.277;  -27.200;    5.000;   78.000
222.422;   16.375;  227.000;  113.000
222.566;  -47.975; -381.000; -214.000
222.711;  -44.800; -414.000; -479.000
222.855;  -85.850; -643.000; -586.000
222.999;  -93.825; -642.000; -717.000
223.144;  -36.075; -195.000; -194.000
223.288;   44.075;  423.000;  251.000
223.432;   24.425;  184.000;  230.000
223.576;   12.625;  152.000;  -21.000
223.721;   37.875;  364.000;  273.000
223.865;  -61.050; -472.000; -475.000
224.009;  226.975; 1673.000; 1631.000
224.153;  -75.275; -660.000; -671.000
224.298;  -69.750; -531.000; -489.000
224.442;  -18.300;  -74.000;  -33.000
224.586;  -24.875; -169.000; -106.000
224.730;  -93.350; -858.000; -670.000
224.875; -113.575; -739.000; -688.000
225.019;   13.500;  102.000;  188.000
225.163;   34.975;  208.000;  341.000
225.307;   11.525;   97.000;  -91.000
225.451;   36.450;  360.000;  481.000
225.595;   28.475;  264.000;  176.000
225.739;  -12.600; -170.000;  -94.000
225.884;   16.525;   86.000;    5.000
226.028;  -84.950; -760.000; -626.000
226.172;  -32.775; -260.000; -273.000
226.316; -112.500; -941.000; -902.000
226.460;  -65.850; -645.000; -493.000
226.604;  -58.675; -406.000; -400.000
226.748;  -95.125; -836.000; -733.000
226.892;  -47.175; -227.000; -181.000
227.036;  -44.150; -537.000; -447.000
227.180;  -58.625; -551.000; -375.000
227.324;  -71.725; -561.000; -580.000
227.468; -115.425; -819.000; -717.000
227.612;    3.500;  242.000;  -28.000
227.756;  -98.875; -845.000; -698.000
227.900;   60.325;  342.000;  441.000
228.044;  -61.000; -509.000; -290.000
228.188;   56.600;  448.000;  568.000
228.332;  -86.050; -546.000; -472.000
228.476;  -20.175; -223.000; -149.000
228.620;  -34.875; -210.000; -150.000
228.764;   66.125;  431.000;  349.000
228.908;  -12.750; -155.000;   30.000
229.052;  -56.000; -615.000; -528.000
229.195;  -29.150; -172.000;   13.000
229.339;  -19.400; -235.000; -305.000
229.483;  -25.600;    5.000; -162.000
229.627;   -9.075; -156.000;  139.000
229.771;  -40.625; -218.000; -294.000
229.915;   10.050;  230.000;   79.000
230.059;  -94.500; -648.000; -663.000
230.202;  -44.000; -370.000; -317.000
230.346;  -32.275; -107.000;  107.000
230.490;  -67.825; -489.000; -521.000
230.634; -113.900; -736.000; -553.000
230.777;   81.450;  478.000;  509.000
230.921;  -58.825; -450.000; -359.000
231.065;  -48.325; -246.000; -286.000
231.209;   19.375;  261.000;  265.000
231.352;   21.050;   54.000;   40.000
231.496;   21.850;  568.000;  188.000
231.640;  -66.050; -693.000; -621.000
231.783;   50.600;  546.000;  525.000
231.927;  -43.950; -294.000; -365.000
232.071; -122.350; -962.000; -736.000
232.214; -119.050; -980.000; -764.000
232.358; -110.300; -683.000; -599.000
232.502;   15.225;  -19.000;    7.000
232.645; -133.225;-1090.000; -927.000
232.789;  -23.500; -257.000; -218.000
232.933;  -54.350; -407.000; -224.000
233.076; -125.975;-1038.000; -897.000
233.220; -110.150; -752.000; -777.000
233.363;  -74.650; -669.000; -477.000
233.507;   53.200;  371.000;  129.000
233.650;  -97.450; -764.000; -834.000
233.794;   48.275;  438.000;  461.000
233.938;  -68.300; -530.000; -362.000
234.081;  -14.175;  -93.000;   31.000
234.225;  -75.250; -631.000; -539.000
234.368; -103.600; -773.000; -723.000
234.512;  -41.500; -385.000; -299.000
234.655;  -88.300; -582.000; -555.000
234.798;  -57.600; -493.000; -466.000
234.942; -136.925; -884.000;-1002.000
235.085;  -64.925; -651.000; -443.000
235.229;  -78.625; -405.000; -410.000
235.372;  -58.975; -247.000; -191.000
235.516;  -52.975; -397.000; -321.000
235.659;   25.600;   92.000;  121.000
235.802;  -27.100;  -38.000;  -22.000
235.946;   25.025;  335.000;  215.000
236.089;   26.150;  126.000;  250.000
236.233;   51.225;  275.000;  298.000
236.376;  -43.525; -235.000; -378.000
236.519;  -40.175; -297.000; -319.000
236.663;  -35.550; -215.000; -117.000
236.806; -122.425;-1029.000; -999.000
236.949;   70.000;  543.000;  431.000
237.092;   50.275;  412.000;  391.000
237.236;  -84.250; -589.000; -502.000
237.379;   67.250;  352.000;  428.000
237.522; -112.475; -879.000; -768.000
237.666;   -8.450; -271.000;   18.000
237.809; -128.775; -851.000; -823.000
237.952;   18.625;  469.000;  271.000
238.095;  -64.750; -447.000; -442.000
238.238;   84.250;  688.000;  700.000
238.382;    2.700;  166.000;  103.000
238.525;  -65.275; -598.000; -511.000
238.668; -141.175;-1060.000; -985.000
238.811;  -86.500; -638.000; -643.000
238.954;  -65.400; -483.000; -334.000
239.097;   83.825;  617.000;  664.000
239.241;   14.125;  394.000;  326.000
239.384;  -45.700; -254.000; -214.000
239.527;  -64.725; -424.000; -224.000
239.670; -137.500; -994.000;-1091.000
239.813; -119.950; -696.000; -658.000
239.956;   59.025;  579.000;  473.000
240.099; -116.000; -778.000; -725.000
240.242;   50.750;  428.000;  432.000
240.385;   44.900;  466.000;  450.000
240.528;  -70.025; -706.000; -473.000
240.671;   20.625;  189.000;  134.000
240.814;  -36.975; -441.000; -158.000
240.957; -105.350; -767.000; -578.000
241.100;  -90.125; -779.000; -755.000
241.243; -150.825;-1234.000; -893.000
241.386;  -54.150; -508.000; -379.000
241.529;  -89.950; -735.000; -547.000
241.672;  -65.400; -566.000; -495.000
241.815; -121.300; -832.000; -808.000
241.958;  -23.825; -125.000; -182.000
242.101;  -86.350; -545.000; -390.000
242.244;  -35.475; -270.000; -325.000
242.387;  -48.650; -304.000; -246.000
242.530;   67.675;  470.000;  134.000
242.673;  -45.275; -381.000; -309.000
242.815; -121.600; -925.000; -899.000
242.958;  -71.575; -482.000; -381.000
243.101;   13.525;  132.000;  187.000
243.244;  -89.375; -564.000; -521.000
243.387;  -41.525; -313.000; -316.000
243.530; -106.550; -657.000; -674.000
243.672;   18.750;   43.000;  -92.000
243.815;  -43.050; -355.000; -283.000
243.958;   -3.400;   98.000;  -26.000
244.101;   -4.850;   59.000;  -16.000
244.243;  -18.075;  -47.000;  101.000
244.386; -117.625; -761.000; -630.000
244.529;  -31.175; -132.000; -139.000
244.672; -151.350;-1154.000; -951.000
244.814;  -89.100; -621.000; -794.000
244.957;  -42.425; -380.000; -304.000
245.100;  -73.200; -489.000; -489.000
245.242;  -69.375; -387.000; -374.000
245.385;   -9.350;  -59.000;  -39.000
245.528; -130.700; -871.000; -705.000
245.670;   87.800;  612.000;  634.000
245.813;  -87.975; -599.000; -547.000
245.956;  -27.475; -324.000; -275.000
246.098;  -83.125; -508.000; -650.000
246.241;    2.125;  194.000;   48.000
246.383;  -24.350; -119.000;  -73.000
246.526;  -74.575; -454.000; -525.000
246.669; -114.750; -889.000; -780.000
246.811;    6.600;  172.000;   -1.000
246.954;  -62.750; -512.000; -426.000
247.096;  -22.975;  -84.000;   -6.000
247.239;  -73.975; -482.000; -445.000
247.381;  -68.100; -647.000; -488.000
247.524;   76.500;  645.000;  679.000
247.666;  -16.200;   58.000;   11.000
247.809; -119.800; -887.000; -691.000
247.951;    0.450;  -75.000;  138.000
248.094;   26.625;  432.000;  308.000
248.236; -154.825;-1262.000;-1238.000
248.378;    8.700; -356.000;  -81.000
248.521;  -20.100; -334.000; -337.000
248.663;  -39.175; -236.000; -267.000
248.806;  -18.500; -300.000; -266.000
248.948;  -97.850; -886.000; -763.000
249.090;  -44.850; -428.000; -398.000
249.233;  -62.050; -344.000; -381.000
249.375;  -50.475; -474.000; -451.000
249.518;  -19.250;  -83.000; -133.000
249.660;  -10.675; -103.000;    3.000
249.802; -179.150;-1303.000;-1189.000
249.945;  -68.825; -612.000; -540.000
250.087; -112.400; -834.000; -768.000
250.229;  -52.650; -362.000; -480.000
250.371;  -74.300; -494.000; -439.000
250.514;  -58.725; -310.000; -244.000
250.656;  -21.950;   69.000;  102.000
250.798; -111.300; -849.000; -800.000
250.940;  -71.625; -322.000; -322.000
251.083;  -22.325; -335.000; -111.000
251.225;   50.950;  338.000;  310.000
251.367;  -44.300; -274.000; -373.000
251.509;  -40.575; -265.000; -210.000
251.651; -100.150; -731.000; -671.000
251.794;   52.925;  538.000;  632.000
251.936; -103.175; -821.000; -747.000
252.078;  -87.425; -540.000; -461.000
252.220;  -65.950; -645.000; -477.000
252.362;   86.925;  344.000;  462.000
252.504;  -63.000; -677.000; -584.000
252.646; -117.725; -875.000; -722.000
252.788;   -8.850;   14.000; -128.000
252.931;  -54.850; -257.000; -253.000
253.073;  -40.800; -376.000; -317.000
253.215;  -15.450;  141.000;  122.000
253.357;  -19.175;   82.000; -153.000
253.499;  -60.550; -374.000; -234.000
253.641;  -78.950; -749.000; -594.000
253.783;  -89.025; -609.000; -527.000
253.925;  -88.225; -586.000; -591.000
254.067; -108.025; -744.000; -667.000
254.209;  -29.750; -391.000; -259.000
254.351; -136.325; -865.000; -883.000
254.493;  -60.150; -441.000; -417.000
254.635; -129.675; -936.000; -818.000
254.777;  -82.025; -752.000; -687.000
254.918;  -71.750; -512.000; -430.000
255.060;  -56.425; -551.000; -395.000
255.202;  -71.350; -473.000; -261.000
255.344;  -77.350; -658.000; -455.000
255.486;  -73.625; -471.000; -406.000
255.628;  -94.850; -780.000; -781.000
255.770;  -90.650; -676.000; -536.000
255.912;  -63.050; -559.000; -468.000
256.053;  -97.975; -730.000; -508.000
256.195;  144.800; 1008.000;  903.000
256.337; -117.175; -861.000; -595.000
256.479;   64.400;  532.000;  416.000
256.621;  -50.575; -394.000; -212.000
256.762; -103.075; -789.000; -742.000
256.904;   43.225;  485.000;  487.000
257.046;  -44.400; -381.000; -271.000
257.188;  -48.500; -351.000; -264.000
257.329;  -75.700; -525.000; -464.000
257.471; -118.075; -939.000; -807.000
257.613;  -61.300; -584.000; -498.000
257.755; -152.350;-1073.000; -982.000
257.896;   33.375;  286.000;  392.000
258.038;  -73.925; -403.000; -352.000
258.180;  -41.625; -354.000; -279.000
258.321;  -94.050; -581.000; -457.000
258.463;   -0.875;  -71.000;  133.000
258.605;  -98.675; -562.000; -570.000
258.746;  -99.575; -886.000; -772.000
258.888; -157.575;-1026.000;-1020.000
259.029;   21.150;  121.000;   -8.000
259.171;  -97.700; -614.000; -550.000
259.313;   -8.325;  -49.000;  -47.000
259.454;  -75.700; -536.000; -414.000
259.596;  -48.900; -483.000; -390.000
259.737;  -78.550; -590.000; -474.000
259.879;   36.075;  217.000;  311.000
260.020;   72.050;  901.000;  636.000
260.162;  -28.500; -146.000; -253.000
260.303; -125.600; -768.000; -687.000
260.445;  -86.350; -609.000; -613.000
260.586;   22.100;  392.000;  157.000
260.728;  -47.225; -360.000; -248.000
260.869; -126.525; -350.000; -343.000
261.011;   79.325;  706.000;  537.000
261.152;  -63.850; -479.000; -319.000
261.293;  -77.450; -576.000; -595.000
261.435;  -35.150; -219.000; -184.000
261.576;  -43.575; -455.000; -325.000
261.718;   48.725;  420.000;  470.000
261.859; -132.700; -940.000; -949.000
262.000; -136.275; -951.000;-1016.000
262.142;  -17.400;  -52.000;  -60.000
262.283; -113.400; -808.000; -691.000
262.424;  -86.575; -666.000; -625.000
262.566; -157.575;-1161.000; -983.000
262.707; -106.225; -840.000; -830.000
262.848; -121.850; -769.000; -726.000
262.990;  -34.050; -362.000; -345.000
263.131;   69.075;  650.000;  681.000
263.272;  -15.625;  -61.000;  -41.000
263.413; -110.550; -589.000; -561.000
263.555;  -62.175; -669.000; -143.000
263.696;  -88.575; -550.000; -641.000
263.837;  -53.100; -449.000; -551.000
263.978;  -18.250;   -5.000;  -77.000
264.119;  -55.900; -283.000; -264.000
264.261; -112.650; -847.000; -630.000
264.402;   -6.950;   33.000;   40.000
264.543;  -78.950; -509.000; -524.000
264.684;   -9.150;   61.000;  -50.000
264.825;  -69.700; -816.000; -538.000
264.966;  -15.025;  -84.000;  -67.000
265.107; -105.375; -646.000; -670.000
265.248; -128.500; -825.000; -812.000
265.390;  -25.475;  152.000;   -9.000
265.531;  -21.675; -238.000; -107.000
265.672;  -93.600; -557.000; -630.000
265.813;   64.150;  563.000;  439.000
265.954; -154.500; -959.000; -940.000
266.095;   -8.300; -372.000; -322.000
266.236; -110.325; -686.000; -548.000
266.377;  -34.450; -243.000; -297.000
266.518;  -76.475; -619.000; -547.000
266.659;   25.075;  170.000;  268.000
266.800;   -7.325;   83.000;   85.000
266.941;  -71.575; -487.000; -478.000
267.082;   -0.100;  354.000;   99.000
267.223;  -57.150; -344.000; -273.000
267.364; -118.425; -892.000; -686.000
267.504;  -14.525;    3.000;  135.000
267.645;   -7.225;  160.000;   67.000
267.786;  -32.825; -147.000;  -86.000
267.927;  -71.825; -473.000; -379.000
268.068;  -21.150; -186.000;  -61.000
268.209;  -53.350; -175.000; -413.000
268.350;  -67.575; -388.000; -532.000
268.490;  -80.575; -648.000; -521.000
268.631;   30.075;  127.000;  225.000
268.772; -114.725; -874.000; -647.000
268.913;  -49.400; -328.000; -476.000
269.054;  -16.750; -117.000;   12.000
269.194;  -48.875; -418.000; -402.000
269.335; -164.550;-1137.000;-1074.000
269.476;  -15.325;   33.000;  -35.000
269.617;  -51.650; -347.000; -392.000
269.757;  -93.275; -713.000; -646.000
269.898; -109.950; -856.000; -613.000
270.039;  -53.325; -415.000; -405.000
270.180; -135.350; -952.000; -816.000
270.320;  -24.950; -190.000; -250.000
270.461;  -42.975; -277.000; -249.000
270.602;  -13.150; -186.000; -156.000
270.742; -125.450; -868.000; -943.000
270.883;  -54.575; -442.000; -390.000
271.023;  -57.525; -358.000; -357.000
271.164;  -69.400; -607.000; -528.000
271.305; -104.550; -666.000; -654.000
271.445;  -85.375; -722.000; -683.000
271.586;  -75.900; -462.000; -283.000
271.726;  -56.750; -397.000; -322.000
271.867;  -56.225; -594.000; -534.000
272.008;  158.850; -473.000; -285.000
272.148;  113.500;  462.000;  468.000
272.289;    6.375; -113.000; -181.000
272.429;    3.225;   19.000;  185.000
272.570;  -88.850; -633.000; -737.000
272.710; -102.900; -825.000; -775.000
272.851;  -32.050;  113.000; -130.000
272.991; -159.250;-1173.000;-1077.000
273.131;  -63.250; -419.000; -459.000
273.272; -103.500; -683.000; -723.000
273.412;   -0.825; -143.000;  -31.000
273.553;  -72.775; -488.000; -507.000
273.693;  125.525;  913.000;  858.000
273.834;  -91.225; -894.000; -692.000
273.974;  -79.825; -664.000; -615.000
274.114;  -97.050; -772.000; -560.000
274.255;   70.975;  414.000;  373.000
274.395;   -6.350; -180.000; -125.000
274.535;   40.275;  199.000;  350.000
274.676;   22.275;  225.000;   94.000
274.816;   -8.475;  110.000;   34.000
274.956;  -91.175; -624.000; -690.000
275.097;  -70.875;-1014.000; -922.000
275.237; -121.075; -913.000; -803.000
275.377;  -99.925; -778.000; -689.000
275.517; -148.550; -878.000; -937.000
275.658;  -54.375; -590.000; -555.000
275.798;  -82.950; -606.000; -413.000
275.938;   32.200;  215.000;  323.000
276.078; -114.975; -626.000; -395.000
276.218;   -7.575;   99.000;  104.000
276.359; -128.375;-1026.000;-1024.000
276.499;  -77.400; -605.000; -446.000
276.639;  -32.050; -305.000; -151.000
276.779;  -56.400; -475.000; -357.000
276.919;  -96.575; -783.000; -624.000
277.059;  -27.925; -261.000; -212.000
277.199;  -49.500; -357.000; -259.000
277.340;   43.775;  287.000;  175.000
277.480; -111.950; -840.000; -693.000
277.620;   34.450;  192.000;   16.000
277.760; -197.025;-1533.000;-1294.000
277.900;   -1.700;  113.000;   33.000
278.040;    4.925;  137.000;  159.000
278.180;   34.775;  270.000;  170.000
278.320;   -3.175;   21.000;   56.000
278.460;  -62.525; -443.000; -469.000
278.600;  -87.850; -708.000; -598.000
278.740;   59.575;  448.000;  224.000
278.880;  -75.250; -768.000; -791.000
279.020;   -8.825; -194.000; -144.000
279.160;  -86.425; -672.000; -595.000
279.300; -118.250; -926.000; -873.000
279.440;  -98.350; -709.000; -622.000
279.579;  -28.850;-1014.000; -929.000
279.719;  -49.100; -410.000; -394.000
279.859;   64.850;   -4.000;   41.000
279.999;   24.400; -208.000;  101.000
280.139;  -33.900; -435.000; -387.000
280.279;  -87.175; -708.000; -745.000
280.419;   -7.725; -229.000; -147.000
280.559;  -48.900; -259.000; -180.000
280.698;  -98.125; -790.000; -639.000
280.838;  -99.375; -778.000; -800.000
280.978;  -97.775; -846.000; -790.000
281.118; -118.900; -811.000; -704.000
281.257;  -13.375;   24.000;    6.000
281.397; -127.800;-1094.000; -960.000
281.537; -103.775; -599.000; -712.000
281.677;  -15.950; -150.000; -101.000
281.816;  -91.525; -700.000; -630.000
281.956;  -33.900; -193.000; -257.000
282.096;  -70.650; -539.000; -396.000
282.235; -102.075; -672.000; -638.000
282.375;  -36.125; -243.000;  -98.000
282.515; -111.900; -715.000; -707.000
282.654;   20.800;   29.000;  106.000
282.794;   15.225;  388.000;  244.000
282.934;  -71.725; -530.000; -491.000
283.073; -145.425;-1030.000; -857.000
283.213;  -62.125; -460.000; -467.000
283.353;  -47.100; -408.000; -349.000
283.492;  -34.700; -264.000; -296.000
283.632;  -60.525; -254.000; -168.000
283.771;  -92.325; -859.000; -730.000
283.911;  -67.375; -369.000; -260.000
284.050; -113.850; -794.000; -748.000
284.190; -159.100;-1229.000;-1096.000
284.329; -142.425;-1055.000; -964.000
284.469;  -77.000; -516.000; -591.000
284.608;  -53.450; -559.000; -598.000
284.748;  -93.050; -614.000; -570.000
284.887;    1.550;  -87.000;  -20.000
285.027; -136.650; -844.000; -892.000
285.166;  -28.875; -192.000; -249.000
285.306;   -2.725; -116.000;  -33.000
285.445;  -40.700; -229.000; -343.000
285.584;  -97.925; -630.000; -494.000
285.724;  -48.050; -282.000; -322.000
285.863; -119.075; -857.000; -507.000
286.002;  -50.300; -366.000; -276.000
286.142; -108.800; -715.000; -622.000
286.281;  -66.825; -525.000; -493.000
286.420;  -74.150; -554.000; -417.000
286.560;   87.250;  653.000;  623.000
286.699; -156.275; -958.000; -912.000
286.838;  -83.100; -590.000; -591.000
286.978; -109.100; -533.000; -537.000
287.117; -129.950;-1085.000; -950.000
287.256;  -43.100; -228.000; -211.000
287.395;  -56.425; -197.000; -378.000
287.535;  -50.225; -370.000; -298.000
287.674;  -80.825; -509.000; -484.000
287.813;   45.550;  661.000;  533.000
287.952; -124.925;-1010.000; -871.000
288.091; -155.175;-1049.000; -915.000
288.231;   10.900;   13.000;   15.000
288.370; -172.200;-1217.000;-1200.000
288.509;  -85.475; -728.000; -645.000
288.648;  -97.625; -770.000; -548.000
288.787;  -43.100; -243.000;  -87.000
288.926;  -73.150; -454.000; -475.000
289.065;   99.800;  859.000;  672.000
289.204;  -70.975; -377.000; -217.000
289.344; -102.725; -791.000; -690.000
289.483;   11.625;  416.000;  304.000
289.622;  -32.825; -291.000; -149.000
289.761;  -26.425; -309.000; -166.000
289.900; -108.675; -785.000; -626.000
290.039;  -13.625;  -12.000;  -95.000
290.178;  -29.850; -274.000; -180.000
290.317;  -82.425; -618.000; -479.000
290.456;  -68.800; -463.000; -451.000
290.595; -125.700; -961.000; -833.000
290.734; -131.700; -904.000; -891.000
290.873;  -83.050; -456.000; -420.000
291.011; -112.375; -833.000; -843.000
291.150; -107.275; -770.000; -682.000
291.289;  -42.025; -343.000; -110.000
291.428; -101.500; -599.000; -480.000
291.567;  -43.575; -370.000; -442.000
291.706;   -2.100;  109.000;  154.000
291.845;  -89.875; -597.000; -505.000
291.984; -174.700;-1234.000;-1061.000
292.122;   62.950;  602.000;  582.000
292.261;   36.250;  620.000;  463.000
292.400;   14.400; -144.000;  211.000
292.539; -134.550; -959.000; -813.000
292.678;  -39.725; -325.000; -300.000
292.816; -166.825;-1136.000; -965.000
292.955;  -89.075; -844.000; -684.000
293.094;  -36.475; -173.000; -337.000
293.233;  -63.700; -556.000; -400.000
293.371;  -26.725; -225.000;  -84.000
293.510; -104.200; -866.000; -780.000
293.649; -139.125; -959.000; -924.000
293.787;  -55.700;-1083.000;-1012.000
293.926;  -15.825; -113.000;  -32.000
294.065;  -54.200; -379.000; -290.000
294.203;   31.950;  298.000;  406.000
294.342;   23.900;   74.000;  156.000
294.481; 6181.050;51180.000; -836.000
294.619;  -23.625; -425.000; -582.000
294.758; -154.000;-1230.000;-1137.000
294.896;   53.250; -125.000;    5.000
295.035; -131.450;-1040.000;-1006.000
295.174; -116.175;-1082.000; -954.000
295.312;  -54.500; -323.000; -203.000
295.451;  -19.775; -307.000; -428.000
295.589;  -62.725; -389.000; -518.000
295.728;   20.850; -292.000; -165.000
295.866;    2.700;  -36.000;  -51.000
296.005;  -68.050; -584.000; -341.000
296.143;  -78.675; -558.000; -596.000
296.282; -107.050; -957.000; -881.000
296.420;  -88.525; -657.000; -557.000
296.559;  -92.800; -892.000; -633.000
296.697;    6.200; -847.000; -665.000
296.835;   43.350;-1141.000;-1002.000
296.974;   21.950;  -23.000;   39.000
297.112;  -14.150; -443.000; -504.000
297.251;  -79.225; -815.000; -755.000
297.389;   57.200; -576.000; -438.000
297.527;   31.325; -145.000;  -83.000
297.666;  -61.750; -486.000; -438.000
297.804;  -55.075; -404.000; -264.000
297.942;   -7.475; -136.000; -161.000
298.081;  -18.700; -183.000;   63.000
298.219;   50.500;  -17.000;  -19.000
298.357;   36.025; -144.000;  -71.000
298.495;   14.050; -810.000; -812.000
298.634;   75.825;  245.000;  219.000
298.772;   31.875; -220.000; -338.000
298.910;  -56.200; -309.000; -182.000
299.048;  -12.450; -130.000; -153.000
299.187;  -33.200; -350.000; -250.000
299.325;   -3.675;   52.000;  122.000
299.463;   27.200; -389.000; -299.000
299.601;   91.900; -327.000; -271.000
299.739; -128.275; -908.000; -883.000
299.877;  -83.250; -791.000; -703.000
300.016;  -59.475;-1095.000; -935.000
300.154;  136.125;  -19.000; -161.000
300.292;   36.400; -428.000; -348.000
300.430;   12.225; -408.000; -291.000
300.568; -108.000; -940.000; -874.000
300.706;  -50.450; -366.000; -469.000
300.844;  -87.950;-1108.000; -979.000
300.982;  100.625;  246.000;  282.000
301.120; -112.025; -965.000; -866.000
301.258;  -89.150; -812.000; -705.000
301.396;   14.425;  104.000;  -41.000
301.534;   62.475; -218.000; -293.000
301.672;  -37.900; -664.000; -521.000
301.810;   19.125; -613.000; -545.000
301.948;   95.975;   53.000;  149.000
302.086;  567.450; -250.000;  -32.000
302.224;  839.550; -610.000; -585.000
302.362;   13.400; -558.000; -622.000
302.500;  -40.975; -923.000; -893.000
302.638;   73.625;  128.000;  245.000
302.776;  -25.825; -352.000; -408.000
302.913;   39.725;  447.000;  236.000
303.051;  -19.750;  -86.000;  -23.000
303.189;   34.025;   90.000;  118.000
303.327;  -49.775; -341.000; -256.000
303.465;  -98.825; -832.000; -588.000
303.603;  -99.100; -805.000; -604.000
303.740;  100.425;  417.000;  241.000
303.878;  -19.700; -800.000; -759.000
304.016;  -94.050; -915.000; -790.000
304.154; -142.400;-1123.000;-1152.000
304.291;  -44.275; -505.000; -554.000
304.429;  -17.525;  102.000;   74.000
304.567; -129.025; -908.000; -893.000
304.705;  -54.825; -408.000; -515.000
304.842;   73.825; -616.000; -540.000
304.980;   36.025;  215.000;   35.000
305.118;   26.625; -367.000; -365.000
305.255;  -94.900; -945.000; -927.000
305.393;   44.900;  178.000;  239.000
305.531; -120.150;-1173.000; -956.000
305.668;  -67.150; -663.000; -582.000
305.806;   86.650; -358.000; -439.000
305.943;   95.125; -629.000; -637.000
306.081;   34.400; -378.000; -267.000
306.219; -105.075; -863.000; -748.000
306.356;  -10.375;  158.000;   27.000
306.494;  111.050;  981.000;  761.000
306.631;  -10.750;  -11.000;  -55.000
306.769;   -5.675; -613.000; -485.000
306.906;  -30.400; -284.000; -258.000
307.044;  -65.925; -473.000; -488.000
307.181;  -81.400; -410.000; -332.000
307.319;    4.550;  112.000;   87.000
307.456; -173.550;-1191.000;-1153.000
307.594; -101.200; -980.000; -727.000
307.731;  -14.625; -371.000; -164.000
307.868;   -8.375;  -15.000;   20.000
308.006; -141.675; -961.000; -847.000
308.143;  -75.225; -618.000; -330.000
308.281;  136.200;  -37.000; -254.000
308.418;   -3.300; -748.000; -640.000
308.555;  -63.950; -400.000; -250.000
308.693;  -86.825; -577.000; -573.000
308.830; -106.625; -712.000; -657.000
308.967;  -27.600; -215.000;  -95.000
309.105;  -59.625; -507.000; -396.000
309.242;   29.350; -468.000; -367.000
309.379;  281.175; -577.000; -655.000
309.517;  -69.225; -936.000; -948.000
309.654; -127.900; -910.000; -734.000
309.791;  -66.475; -662.000; -580.000
309.928; -126.775; -977.000; -914.000
310.065;  158.550;  819.000;  697.000
310.203;  -34.100; -825.000; -850.000
310.340;  -25.725; -465.000; -321.000
310.477;  -72.950; -412.000; -516.000
310.614;  -64.325; -383.000; -473.000
310.751;  -96.600; -427.000; -518.000
310.889;  -25.250;    1.000;   11.000
311.026; -151.950;-1161.000; -939.000
311.163;  -48.875; -386.000; -380.000
311.300;  -83.900; -512.000; -479.000
311.437;  -80.050; -658.000; -619.000
311.574; -153.550;-1226.000; -985.000
311.711;  -59.600; -595.000; -433.000
311.848;  -56.950; -380.000; -388.000
311.985;   -4.475;  270.000;   93.000
312.122; -123.375; -932.000; -762.000
312.259; -128.100; -941.000; -994.000
312.396;  -90.850; -508.000; -551.000
312.533; -102.275; -812.000; -790.000
312.670; -128.075;-1070.000; -898.000
312.807;  -40.775; -352.000; -367.000
312.944;  -98.275; -513.000; -611.000
313.081;  -40.775; -150.000; -415.000
313.218;  -99.750;-1111.000; -867.000
313.355;   -7.225; -531.000; -449.000
313.492;  -10.125; -455.000; -292.000
313.629;  115.050;  815.000;  735.000
313.766; -172.100;-1176.000;-1008.000
313.902;  -23.475; -186.000;   21.000
314.039;  -48.950; -372.000; -289.000
314.176;   18.200;  286.000;  192.000
314.313;  -85.075; -569.000; -473.000
314.450;  -82.625; -788.000; -684.000
314.587;  -74.100; -468.000; -480.000
314.723;   -3.625;  -78.000;  130.000
314.860;   18.375;  318.000;  332.000
314.997;   16.300;  223.000;  142.000
315.134;  -50.400; -385.000; -368.000
315.270;  -44.375; -480.000; -496.000
315.407; -138.750;-1094.000; -967.000
315.544;  -64.775; -657.000; -538.000
315.681;  -78.000; -681.000; -565.000
315.817;   26.400; -133.000; -176.000
315.954;   -1.725; -613.000; -392.000
316.091; -123.775;-1045.000;-1023.000
316.227;  -34.450;  -71.000; -179.000
316.364;    3.775;   23.000;    6.000
316.500;  -62.175; -113.000; -300.000
316.637;  -50.575; -181.000; -302.000
316.774;  -98.900; -625.000; -358.000
316.910;  -97.575; -598.000; -629.000
317.047;  -77.375; -487.000; -351.000
317.183;  -48.675; -435.000; -566.000
317.320;   -2.425; -367.000; -321.000
317.456;  -60.200; -733.000; -805.000
317.593; -106.075; -598.000; -641.000
317.729;   14.725;  168.000;  -67.000
317.866; -205.275;-1434.000;-1285.000
318.002;  -90.125; -708.000; -948.000
318.139; -102.400; -883.000; -867.000
318.275; -106.975;-1003.000; -738.000
318.412;  -80.775; -517.000; -336.000
318.548;  -51.350; -751.000; -720.000
318.685;  -97.350; -985.000; -888.000
318.821;  -94.625; -762.000; -735.000
318.957;  -22.925;   34.000;  -23.000
319.094;   40.500;  297.000;  154.000
319.230;  -82.225; -756.000; -742.000
319.367;  111.025; -471.000; -520.000
319.503;   27.175; -538.000; -436.000
319.639;  -93.800; -877.000; -793.000
319.775;  -81.250; -750.000; -685.000
319.912;  -70.175; -424.000; -519.000
320.048;  -90.325;-1184.000;-1184.000
320.184;   80.600;   59.000;   70.000
320.321;  -68.825; -497.000; -467.000
320.457;   47.700;  475.000;  662.000
320.593;  -75.625; -375.000; -382.000
320.729; -102.325; -732.000; -734.000
320.866;  -81.450; -577.000; -635.000
321.002;  -86.075; -759.000; -809.000
321.138;  -14.450; -135.000; -211.000
321.274;   73.225; -148.000; -115.000
321.410;  -39.375; -585.000; -353.000
321.546;  -48.275;-1011.000; -911.000
321.683;   36.350;  400.000;  185.000
321.819;    3.025;  -48.000; -117.000
321.955; -114.700; -743.000; -722.000
322.091;  -52.975; -585.000; -540.000
322.227;  -33.975; -382.000; -202.000
322.363;  -13.875; -320.000; -215.000
322.499;  -52.250; -343.000; -331.000
322.635;  138.550;  636.000;  443.000
322.771;   -1.200; -139.000;   12.000
322.907;   90.025;  129.000;  327.000
323.043;  -38.350; -115.000; -206.000
323.179;  -34.625; -394.000; -363.000
323.315;   -7.725; -401.000; -371.000
323.451;   68.400; -328.000; -236.000
323.587;   40.800;  -60.000;  -77.000
323.723;   -7.525; -682.000; -601.000
323.859;  -24.725; -258.000;  -76.000
323.995;  -27.825; -467.000; -409.000
324.131; -119.450; -967.000; -892.000
324.267;  -56.300; -254.000; -276.000
324.402; -128.875; -960.000; -983.000
324.538;  -20.200; -279.000; -104.000
324.674;    4.700;  164.000;   77.000
324.810;   97.975;  226.000;  308.000
324.946;  -17.850; -810.000; -658.000
325.082;  -70.150; -568.000; -475.000
325.217;  -25.425;  -62.000;   16.000
325.353; -104.200; -764.000; -659.000
325.489;  -91.000; -540.000; -506.000
325.625;  -89.650; -579.000; -525.000
325.760;   56.950;  517.000;  376.000
325.896;  -28.150; -515.000; -702.000
326.032;  -55.425; -403.000; -352.000
326.168;  -59.100; -462.000; -369.000
326.303;  -69.725; -352.000; -461.000
326.439;  -27.675; -336.000; -276.000
326.575;    0.150; -190.000;  -29.000
326.710;  -17.875; -156.000;  -30.000
326.846;  -14.650;  146.000;  103.000
326.982; -100.700; -530.000; -548.000
327.117;  -72.150; -481.000; -442.000
327.253;  -76.500; -745.000; -742.000
327.388; -153.825;-1137.000;-1153.000
327.524;  -63.225; -811.000; -578.000
327.659;  -29.375;  -58.000;  -22.000
327.795;   -5.225;   69.000;   45.000
327.931;  -96.475; -723.000; -499.000
328.066;  -15.725; -417.000; -276.000
328.202;  -31.175;   12.000; -129.000
328.337;   78.075;  957.000;  713.000
328.473;   32.325;  -12.000;  -74.000
328.608;  -13.650; -256.000; -267.000
328.743;  -99.725; -799.000; -664.000
328.879;   14.125;  214.000;  114.000
329.014;  -39.350; -102.000; -122.000
329.150;  -84.525; -358.000; -483.000
329.285;  -91.450; -465.000; -466.000
329.421;  -64.575; -548.000; -246.000
329.556;  -42.225;  -36.000;   85.000
329.691; -105.775; -633.000; -615.000
329.827;  -83.150; -626.000; -480.000
329.962;  -52.775;  131.000; -301.000
330.097;  -96.950; -673.000; -585.000
330.233;  -55.925; -410.000; -223.000
330.368; -131.700; -839.000; -628.000
330.503;  -24.650;    3.000;   98.000
330.638;   -9.000;  -93.000; -125.000
330.774;  -61.975; -609.000; -530.000
330.909;  -46.075; -434.000; -244.000
331.044;  -94.525; -714.000; -708.000
331.179; -173.425;-1217.000;-1109.000
331.315;    2.875;   77.000;   20.000
331.450;    8.775;  157.000;  285.000
331.585;  -81.100; -805.000; -706.000
331.720;  -99.475; -510.000; -460.000
331.855;  -11.825;  -35.000; -102.000
331.990;  274.075;   62.000;  138.000
332.126;  139.375; -110.000;   71.000
332.261;  -23.500; -379.000; -265.000
332.396;    7.400; -135.000; -242.000
332.531; -105.725;-1074.000;-1031.000
332.666;   49.150; -519.000; -363.000
332.801; -106.850; -726.000; -807.000
332.936;  -22.025; -192.000; -122.000
333.071; -170.650; -870.000; -817.000
333.206;    1.450;  307.000;  379.000
333.341;   30.050;  344.000;  418.000
333.476;  -87.175; -627.000; -623.000
333.611;  -49.400; -251.000; -173.000
333.746;  -61.750; -381.000; -464.000
333.881; -132.850; -973.000; -935.000
334.016; -139.150; -936.000; -917.000
334.151; -135.975; -746.000; -702.000
334.286;   23.575;  152.000;  186.000
334.421;  -27.375; -125.000; -178.000
334.556;  -86.650; -611.000; -567.000
334.690;  -98.825; -631.000; -577.000
334.825;   31.025;  381.000;   83.000
334.960;  -63.600; -285.000; -413.000
335.095;   -0.075;  135.000;  -91.000
335.230; -104.950; -722.000; -738.000
335.365; -141.050;-1084.000; -990.000
335.499; -137.625;-1108.000;-1037.000
335.634;    9.675;    9.000;  534.000
335.769; -111.275; -755.000; -720.000
335.904;  -63.875; -603.000; -561.000
336.038;  -69.625; -735.000; -657.000
336.173; -129.675;-1206.000;-1194.000
336.308;   -5.650; -116.000; -189.000
336.443;   13.700; -544.000; -634.000
336.577;  -80.625; -936.000; -787.000
336.712;   46.625;   -4.000;  -12.000
336.847;  -64.050; -724.000; -607.000
336.981;   43.825; -272.000; -208.000
337.116;  245.100;  615.000;  501.000
337.250;  138.950; -434.000; -421.000
337.385;  270.850; -297.000; -208.000
337.520;  112.100; -632.000; -603.000
337.654;  -56.275; -215.000; -126.000
337.789; -126.975; -989.000; -933.000
337.923;  -32.975; -104.000; -205.000
338.058;  -95.275; -673.000; -738.000
338.192;  -52.350; -611.000; -488.000
338.327;  -21.875;  -18.000; -155.000
338.461;  -75.525; -299.000; -469.000
338.596; -100.950; -780.000; -638.000
338.730; -102.950; -767.000; -803.000
338.865;   93.875;  -46.000; -140.000
338.999;  -47.775; -846.000; -702.000
339.134;  -22.925; -634.000; -536.000
339.268;   -0.250; -741.000; -603.000
339.403;  371.250; -740.000; -775.000
339.537;  118.825; -894.000; -820.000
339.671; -112.000; -829.000; -813.000
339.806;  -63.475; -556.000; -512.000
339.940;    0.625; -261.000; -235.000
340.074;  -96.450; -685.000; -510.000
340.209;  -47.775; -351.000; -230.000
340.343; -100.900; -517.000; -573.000
340.477;  135.475;  998.000; 1036.000
340.612;  -56.800;-1033.000; -900.000
340.746;  155.550; -199.000; -243.000
340.880;  -87.250; -924.000; -785.000
341.014;  -28.125;  -45.000; -154.000
341.149; -119.800; -756.000; -718.000
341.283; -109.375; -839.000; -754.000
341.417; -107.925;-1124.000; -938.000
341.551;   94.425; -768.000; -708.000
341.685;  -64.750; -633.000; -611.000
341.820;  -56.675; -562.000; -493.000
341.954;  -55.200; -218.000; -349.000
342.088; -162.250;-1102.000;-1019.000
342.222;   42.650;  565.000;  618.000
342.356;  -62.850; -395.000; -335.000
342.490; -102.825; -880.000; -841.000
342.624;  -58.675; -339.000; -242.000
342.758;  -13.450; -364.000; -312.000
342.892;  -62.425; -710.000; -585.000
343.026;  -47.075;  -58.000; -116.000
343.160;  -63.775; -426.000; -376.000
343.294;  -76.900; -474.000; -337.000
343.428;  -35.950; -488.000; -448.000
343.562;  -27.000; -172.000;  -23.000
343.696;  -26.675; -385.000; -314.000
343.830;  -28.950; -362.000; -356.000
343.964;   11.150; -231.000; -168.000
344.098;  797.125;  199.000;   70.000
344.232;  656.400; -266.000; -127.000
344.366;   62.575; -567.000; -453.000
344.500;   39.250; -665.000; -744.000
344.634;    9.950; -324.000; -164.000
344.768;  -23.075; -531.000; -341.000
344.902;   -2.800;  278.000;  256.000
345.035;  -80.875; -556.000; -496.000
345.169; -135.250; -933.000; -656.000
345.303;  -47.675; -308.000; -482.000
345.437;  -93.450; -826.000; -717.000
345.571;  -76.950; -675.000; -594.000
345.704;  -71.325; -309.000; -532.000
345.838;  -19.575; -331.000; -284.000
345.972;  -63.625; -543.000; -495.000
346.106;  160.300; -179.000; -190.000
346.239;  414.450; -312.000; -243.000
346.373;   -2.750; -343.000; -302.000
346.507; -144.550; -950.000; -962.000
346.640;  117.050;  -30.000;   13.000
346.774;  -78.425; -650.000; -797.000
346.908;  -28.425; -138.000;  -11.000
347.041; -105.125; -646.000; -593.000
347.175;    5.725;  259.000;   27.000
347.309;  -92.650; -698.000; -628.000
347.442; -113.400; -883.000; -732.000
347.576;  237.425;  670.000;  668.000
347.709;  167.725; -123.000;  -52.000
347.843; -105.625; -933.000; -825.000
347.976;   24.450;  235.000;  294.000
348.110; -187.450;-1268.000;-1186.000
348.243; -102.550; -679.000; -772.000
348.377;   -6.350;  -26.000;   60.000
348.510;   45.125;  403.000;  540.000
348.644;  -52.925;  -37.000; -159.000
348.777;  -14.750;  180.000;  191.000
348.911;  -64.250; -142.000; -112.000
349.044;  148.050;  471.000;  448.000
349.178;  127.900;-1069.000;-1006.000
349.311;  100.900;  141.000;  255.000
349.444;   -5.925; -927.000; -813.000
349.578;  -23.575; -347.000; -200.000
349.711; -101.100; -959.000; -862.000
349.845;   -5.450; -661.000; -591.000
349.978; -159.750;-1224.000;-1137.000
350.111;  -86.125; -546.000; -612.000
350.244; -101.750; -596.000; -700.000
350.378;  -18.350; -392.000; -393.000
350.511;  -83.025; -393.000; -426.000
350.644; -122.950; -808.000; -806.000
350.778;    6.250;  168.000;  104.000
350.911;    1.750;  134.000;  140.000
351.044; -114.450; -685.000; -615.000
351.177;  -38.500; -321.000; -281.000
351.310;  -30.775;    3.000; -131.000
351.444;  -89.650; -888.000; -788.000
351.577;   71.400;  140.000;   90.000
351.710;   90.225;  593.000;  417.000
351.843;  -34.850; -165.000;  -77.000
351.976;   -4.000;  149.000;  -79.000
352.109; -101.375; -621.000; -612.000
352.242;  -39.975; -464.000; -419.000
352.376;  -83.400; -580.000; -636.000
352.509;  124.500; -437.000; -356.000
352.642;   -9.975; -654.000; -604.000
352.775;   39.200; -141.000;  -98.000
352.908; -132.650; -933.000; -904.000
353.041; -117.400; -814.000; -824.000
353.174;  -80.375; -551.000; -424.000
353.307;  -84.925; -753.000; -764.000
353.440;   47.075;  541.000;  453.000
353.573; -124.625; -957.000;-1008.000
353.706;  -64.025; -384.000; -558.000
353.839;  -38.450; -264.000; -220.000
353.971;  -96.425; -657.000; -512.000
354.104;  -91.425; -896.000; -835.000
354.237;  -38.200; -627.000; -662.000
354.370;  -89.475; -846.000; -879.000
354.503; -190.075;-1231.000;-1308.000
354.636;  -48.175; -529.000; -348.000
354.769; -129.075; -937.000; -860.000
354.902;  -23.625; -230.000; -139.000
355.034;  -33.725; -164.000; -220.000
355.167;  -25.500; -262.000; -162.000
355.300;  -84.925;-1061.000; -880.000
355.433; 1008.300;  -71.000;  -14.000
355.565; 1556.075; -402.000; -384.000
355.698;  399.575; -356.000; -296.000
355.831;   -5.625; -882.000; -801.000
355.964;   42.150; -285.000; -170.000
356.096;  -86.700; -856.000; -843.000
356.229;  -18.600; -523.000; -530.000
356.362;  341.550; -373.000; -266.000
356.494;  626.925; -229.000; -162.000
356.627;  430.125;  269.000;  377.000
356.760;  674.750;  120.000;   53.000
356.892; 1016.975; -286.000; -601.000
357.025;  566.675;  403.000;  389.000
357.157;  519.975; -167.000; -179.000
357.290;  735.475; -856.000; -713.000
357.423;  211.575; -667.000; -556.000
357.555;  106.000; -217.000; -228.000
357.688;  117.625; -483.000; -364.000
357.820;  415.125; -870.000; -877.000
357.953; 3529.675; -563.000; -589.000
358.085;  748.950; -632.000; -612.000
358.218;  900.525;-1131.000; -932.000
358.350;  165.500;  -58.000;  312.000
358.483; -130.500;-1300.000;-1187.000
358.615;  -41.125;-1182.000;-1078.000
358.747;  -88.300;-1187.000;-1058.000
358.880;   -2.100; -810.000; -744.000
359.012;  -18.300; -376.000; -202.000
359.145;  -46.300; -480.000; -511.000
359.277;   49.875; -962.000; -913.000
359.409; 2882.700;  536.000;  231.000
359.542;  755.050; -738.000; -688.000
359.674;   63.525;   46.000;   13.000
359.806;  -72.925; -565.000; -438.000
359.939;  -58.175; -617.000; -516.000
360.071;    5.850; -583.000; -579.000
360.203;  -29.625; -411.000; -364.000
360.335;   39.625;  164.000;  -16.000
360.468;  165.300; -249.000; -307.000
360.600; 2344.075; -547.000; -454.000
360.732; 3063.925; -546.000; -423.000
360.864;  434.100;-1216.000;-1044.000
360.996;  210.400; -516.000; -554.000
361.129;   19.875; -389.000; -598.000
361.261;    7.200;  110.000; -113.000
361.393;  -46.875; -252.000; -214.000
361.525;   16.925;   94.000;  244.000
361.657;  -55.025; -821.000; -703.000
361.789;    2.875; -139.000; -155.000
361.921;  171.600; -642.000; -593.000
362.053;  214.925;  524.000;  541.000
362.185;   37.850;  288.000;   72.000
362.318;  -79.575; -709.000; -705.000
362.450;   81.375;  294.000;  444.000
362.582;   35.275; -913.000; -870.000
362.714;  -52.600; -353.000; -332.000
362.846;  -79.600; -606.000; -490.000
362.978; -156.750; -941.000; -811.000
363.109;   35.725; -161.000; -260.000
363.241;  361.425; -739.000; -749.000
363.373;  447.175; -649.000; -564.000
363.505;  714.925; -186.000;  -91.000
363.637;  167.775; -787.000; -601.000
363.769; -131.775;-1067.000;-1080.000
363.901;  -81.700; -596.000; -654.000
364.033; -132.075;-1103.000;-1062.000
364.165;  -12.325; -283.000; -283.000
364.296;   67.000; -316.000; -177.000
364.428;   79.925;-1344.000;-1220.000
364.560;  -85.200; -679.000; -661.000
364.692;  -77.625; -738.000; -835.000
364.824;  203.200; -588.000; -456.000
364.955;  433.325; -402.000; -564.000
365.087; 1022.700;-1097.000; -852.000
365.219;   36.350; -686.000; -816.000
365.351;  -87.875; -526.000; -572.000
365.482;   47.200;  300.000;  240.000
365.614;  -49.050; -402.000; -314.000
365.746;  -95.250; -729.000; -752.000
365.877; -102.300; -706.000; -672.000
366.009;  271.250;  -35.000;  -62.000
366.141;  -81.900;-1249.000;-1134.000
366.272; -110.550; -803.000; -719.000
366.404; -118.375;-1005.000; -874.000
366.535;   -8.675; -139.000;  -12.000
366.667; -100.675; -644.000; -649.000
366.799;   39.850;  353.000;  203.000
366.930; -136.575; -862.000; -996.000
367.062;  110.325; -639.000; -613.000
367.193;  175.175; -872.000; -842.000
367.325;  -59.275; -580.000; -684.000
367.456;   16.450; -246.000;   31.000
367.588;  178.050; -371.000; -318.000
367.719;    8.500;  -44.000;  -45.000
367.851;  -32.550; -222.000; -241.000
367.982;  -69.750; -875.000; -732.000
368.113;   63.175; -475.000; -358.000
368.245; -142.875; -960.000; -841.000
368.376;  -35.775; -254.000; -302.000
368.508;  -50.975; -188.000; -263.000
368.639; -149.150;-1166.000;-1034.000
368.770;  -27.975; -670.000; -589.000
368.902;  -71.725; -836.000; -926.000
369.033; -105.675; -906.000; -855.000
369.164;  -42.025; -720.000; -653.000
369.296; -113.300; -452.000; -601.000
369.427;   -5.500; -209.000; -144.000
369.558;  -61.950; -593.000; -377.000
369.689;  -94.650; -721.000; -569.000
369.821; -140.325; -951.000; -845.000
369.952;  -23.625;   42.000; -108.000
370.083;  -51.250; -229.000; -108.000
370.214;  -83.425; -735.000; -650.000
370.345;  -13.900;   65.000;   81.000
370.477; -103.000; -810.000; -790.000
370.608;  184.150; -328.000; -264.000
370.739;  -52.925;-1233.000;-1292.000
370.870;  -59.925;-1102.000; -923.000
371.001;   50.850; -378.000; -467.000
371.132;  -85.950; -754.000; -735.000
371.263;  -32.200;  -42.000; -148.000
371.394; -155.775; -841.000; -748.000
371.525;   13.100;  345.000;  225.000
371.657;  -95.475; -808.000; -670.000
371.788;   65.175;  103.000;  199.000
371.919;  131.850; -384.000; -304.000
372.050; 3275.475;  -91.000; -156.000
372.181;  989.350; -188.000; -294.000
372.311;  314.350;   42.000; -127.000
372.442;   23.750; -457.000; -451.000
372.573;  -33.425; -444.000; -340.000
372.704; -132.600;-1008.000; -980.000
372.835;   62.750; -228.000; -289.000
372.966;  -75.475; -646.000; -554.000
373.097;  -70.575; -575.000; -711.000
373.228;  -55.000; -717.000; -542.000
373.359;   85.125; -824.000; -536.000
373.490;  804.050; -881.000; -727.000
373.620; 1026.150;-1001.000; -803.000
373.751; 1552.850; -332.000; -396.000
373.882;  697.575; -663.000; -733.000
374.013;   40.950; -449.000; -262.000
374.143;  -55.000; -581.000; -659.000
374.274; -120.200; -987.000; -908.000
374.405;  150.875; -388.000; -276.000
374.536;  350.700; -526.000; -387.000
374.666;  948.575; -759.000; -807.000
374.797;  170.575; -817.000; -868.000
374.928;  737.475; -710.000; -560.000
375.058;  756.450; -535.000; -500.000
375.189;   63.675;  -59.000;  -93.000
375.320; -127.200; -928.000;-1034.000
375.450;  -57.050; -625.000; -616.000
375.581;  -77.725; -526.000; -436.000
375.712;  -41.125; -574.000; -250.000
375.842;  241.675; -438.000; -415.000
375.973;  153.800; -554.000; -513.000
376.103;  -55.025; -665.000; -648.000
376.234;  -90.275; -531.000; -552.000
376.364;  -61.700; -944.000; -867.000
376.495;  285.775;  925.000;  529.000
376.625;  -40.900; -472.000; -485.000
376.756;   31.400; -709.000; -678.000
376.886; -102.425;-1178.000;-1026.000
377.017;   47.675;-1048.000;-1061.000
377.147;  393.400; -786.000; -782.000
377.278;   59.650;  174.000;  228.000
377.408; -123.275; -801.000; -815.000
377.538;  -96.450; -707.000; -693.000
377.669;  -97.775; -537.000; -613.000
377.799; -106.950; -645.000; -635.000
377.929;  -82.100; -610.000; -428.000
378.060; -135.425; -781.000; -847.000
378.190;  -63.750; -726.000; -531.000
378.320;  -41.625; -401.000; -406.000
378.451;  -37.375; -131.000;  -22.000
378.581;  -28.750;  -67.000; -110.000
378.711;  135.050; 1035.000;  866.000
378.841;  -41.400; -533.000; -675.000
378.972;  -83.175; -871.000; -751.000
379.102;  -24.725; -652.000; -579.000
379.232;  -21.075; -126.000;  -73.000
379.362; -117.175;-1001.000; -885.000
379.492;  -18.400; -373.000; -424.000
379.623;   84.125;    0.000;  111.000
379.753; -110.325;-1107.000; -974.000
379.883;  168.950;   59.000;  156.000
380.013;  -31.375;-1081.000;-1017.000
380.143; -102.400;-1097.000;-1056.000
380.273; -105.225; -985.000; -861.000
380.403;  -11.325; -344.000; -257.000
380.533;  -47.300; -651.000; -664.000
380.663;   55.100;  173.000;  128.000
380.793; -123.325;-1027.000;-1074.000
380.923;  -19.575; -103.000;  -34.000
381.053; -115.025; -613.000; -623.000
381.183;  -36.400; -106.000; -248.000
381.313;    5.075; -656.000; -470.000
381.443;   15.625; -692.000; -473.000
381.573;  148.500; -402.000; -409.000
381.703;  207.750;-1249.000;-1095.000
381.833; -151.500;-1454.000;-1336.000
381.963;   88.150; -134.000;  -87.000
382.093; 1252.600; -925.000; -909.000
382.223;  404.775; -713.000; -602.000
382.353;  -35.250; -801.000; -608.000
382.482;  308.925;-1091.000; -964.000
382.612;  671.725; -872.000; -644.000
382.742;  388.475; -695.000; -622.000
382.872;  200.625; -565.000; -551.000
383.002;   65.550;  347.000; -132.000
383.131;  -24.900; -226.000; -160.000
383.261;  -29.025; -706.000; -768.000
383.391;  274.825; -552.000; -377.000
383.521; 3463.050;  451.000;  263.000
383.650;  879.825; -947.000; -904.000
383.780;  -11.900; -783.000; -656.000
383.910;   89.150;  880.000;  802.000
384.039;   -6.050; -794.000; -656.000
384.169;  131.725;-1205.000;-1017.000
384.299;  -36.925; -650.000; -662.000
384.428; -109.325; -764.000; -680.000
384.558;  -59.950; -308.000; -275.000
384.687;  -59.300; -414.000; -334.000
384.817;   -8.825;   75.000;   -2.000
384.947;   -7.525; -234.000; -141.000
385.076;  253.600;  982.000;  912.000
385.206;   72.675;  369.000;  480.000
385.335;  -59.700; -549.000; -417.000
385.465; -111.625; -655.000; -663.000
385.594;   96.550;  -53.000;  -44.000
385.724;  343.875; -868.000; -838.000
385.853;   95.650; -296.000; -270.000
385.982; 1182.350; -743.000; -787.000
386.112; 1957.975;-1052.000; -871.000
386.241;  121.600; -307.000; -312.000
386.371;  -12.675; -174.000;  -87.000
386.500;  -17.625; -825.000; -789.000
386.629;   -3.100; -874.000; -817.000
386.759;   34.825;  -43.000;   68.000
386.888;  -19.300; -170.000; -250.000
387.017;  -96.850; -648.000; -620.000
387.147; -103.850; -771.000; -798.000
387.276;  -15.200; -410.000; -397.000
387.405;   -0.450; -398.000; -342.000
387.535;  -62.450; -452.000; -361.000
387.664;  -69.575; -692.000; -620.000
387.793;   36.100; -198.000; -113.000
387.922;  438.575;  255.000;  200.000
388.052;   -1.825; -576.000; -423.000
388.181;  -16.750; -342.000; -472.000
388.310;  -34.750; -889.000; -710.000
388.439;  -71.350; -749.000; -742.000
388.568;  135.650;  365.000;  244.000
388.697;  930.450; -756.000; -653.000
388.826;  170.725; -768.000; -666.000
388.956;   29.625; -285.000; -307.000
389.085;  -29.825; -347.000; -287.000
389.214; -110.500; -842.000; -872.000
389.343;  -79.875; -645.000; -413.000
389.472;  421.725;  126.000;  149.000
389.601;  531.525;   91.000;    0.000
389.730;    9.000; -568.000; -687.000
389.859;   45.625;  226.000;   46.000
389.988;  134.550; -423.000; -408.000
390.117;  115.325; -168.000; -146.000
390.246;  -20.175; -331.000; -320.000
390.375;   59.875; -673.000; -626.000
390.504;  -71.900; -703.000; -621.000
390.633; -115.075; -672.000; -726.000
390.761;  -87.250; -732.000; -645.000
390.890;    3.025;   -4.000; -130.000
391.019;  -46.025; -421.000; -441.000
391.148; -135.050; -826.000; -855.000
391.277;  -78.900; -576.000; -493.000
391.406;  -94.525; -821.000; -805.000
391.534;    6.275;  574.000; -301.000
391.663;  -77.550; -583.000; -645.000
391.792;  -93.650; -673.000; -701.000
391.921;   59.700;   -3.000;   15.000
392.050;  138.000; -287.000; -228.000
392.178;  -70.925;-1206.000;-1061.000
392.307;  106.725; -758.000; -712.000
392.436;   48.250; -427.000; -641.000
392.564;   17.750;  166.000;   -6.000
392.693; -101.225; -860.000; -682.000
392.822;  158.450; -529.000; -534.000
392.950;   61.850; -880.000; -714.000
393.079;  263.275; -188.000; -328.000
393.208;   10.450; -488.000; -511.000
393.336;  -15.750; -170.000; -145.000
393.465;  -57.275; -317.000; -199.000
393.593;   -5.100;   62.000;   79.000
393.722; -153.350;-1121.000; -916.000
393.850;  -36.375; -188.000;  -61.000
393.979; -152.225; -926.000; -805.000
394.107;  -72.400; -517.000; -537.000
394.236;  -41.475; -570.000; -507.000
394.364;  194.750;  383.000;  206.000
394.493;  322.525; -911.000; -767.000
394.621;  -13.900; -955.000; -916.000
394.750;  751.500; -873.000; -923.000
394.878; 3075.225; -247.000; -149.000
395.007; 4287.450; -721.000; -807.000
395.135;  326.350; -790.000; -721.000
395.263; -100.725;-1038.000;-1040.000
395.392;    2.500;  -25.000; -107.000
395.520; -148.575; -818.000; -679.000
395.648;  -95.625; -865.000; -915.000
395.777;  -43.825; -366.000; -405.000
395.905;  -53.725; -449.000; -564.000
396.033;   -1.025;  217.000;  172.000
396.162;  508.975; -399.000; -453.000
396.290;  467.175;  -17.000;   -2.000
396.418;   73.425; -555.000; -514.000
396.546;  -83.625; -571.000; -466.000
396.674; -102.475; -850.000; -878.000
396.803;   -0.400;  -72.000;  -23.000
396.931;   51.925; -179.000; -199.000
397.059;   -4.725;-1026.000; -989.000
397.187; -107.850;-1026.000; -975.000
397.315; -136.550; -884.000; -649.000
397.443;  -99.400; -592.000; -443.000
397.572; -112.525; -578.000; -424.000
397.700;  -29.175; -607.000; -614.000
397.828;   -1.025;  120.000;  -90.000
397.956;  -53.675; -508.000; -478.000
398.084;  -58.225; -767.000; -626.000
398.212;   26.825;  137.000;  124.000
398.340;  -10.250;  -56.000;  159.000
398.468;    0.125; -390.000; -169.000
398.596; -149.600; -993.000; -953.000
398.724; -114.225; -762.000; -767.000
398.852; -172.725;-1024.000; -976.000
398.980;  -74.175; -560.000; -560.000
399.108;  -75.875; -982.000; -735.000
399.236;   19.225;   13.000;    8.000
399.363;  -10.075;  222.000;  196.000
399.491;  -72.875; -404.000; -398.000
399.619; -130.750; -829.000; -800.000
399.747; -105.075; -859.000; -771.000
399.875;   49.775;  220.000;  234.000
400.003;  -61.225; -359.000; -284.000
400.130;  -99.000; -421.000; -341.000
400.258;  -38.500;  -83.000;   38.000
400.386;  -63.450; -352.000; -168.000
400.514;  -64.700; -526.000; -587.000
400.641; -112.900; -928.000; -802.000
400.769; -138.525; -979.000; -888.000
400.897; -131.675; -838.000; -793.000
401.025;  -22.125; -166.000; -152.000
401.152;  -10.500;  220.000;   38.000
401.280;  -68.825; -430.000; -429.000
401.408; -133.550; -712.000; -576.000
401.535; -119.300; -735.000; -758.000
401.663; -201.475;-1134.000;-1054.000
401.790; -100.550; -514.000; -525.000
401.918;   21.425;  436.000;  405.000
402.046;  -28.425;  134.000;  122.000
402.173;  -39.425;  -18.000;    7.000
402.301;  -75.675; -519.000; -397.000
402.428;   17.800;  528.000;  383.000
402.556; -152.525;-1188.000; -913.000
402.683;  -39.075;  -20.000;   -1.000
402.811;  -28.600;  -37.000; -206.000
402.938;  -27.350;   20.000;   27.000
403.066;  137.400; -574.000; -558.000
403.193;  284.450;  299.000;  239.000
403.321;  204.275; -396.000; -574.000
403.448;  287.775;   83.000;   27.000
403.575;  120.550;  -90.000;  -46.000
403.703; -106.350; -732.000; -557.000
403.830;  -56.650; -531.000; -496.000
403.957; -140.250;-1117.000;-1023.000
404.085;   19.525;  -61.000; -172.000
404.212;   71.800;  -50.000;   63.000
404.339;  274.525; -566.000; -306.000
404.467; 6061.325; -612.000; -524.000
404.594; 4003.575; -287.000; -227.000
404.721;  886.700; -869.000; -764.000
404.848;   89.375; -113.000; -202.000
404.976; -124.750; -856.000; -783.000
405.103;  -16.325;  -14.000;  -82.000
405.230;  -18.150;  190.000;  226.000
405.357;   10.925;  117.000;   44.000
405.484;  265.475;  -49.000;    5.000
405.612;   57.725; -548.000; -563.000
405.739;  -82.700; -488.000; -243.000
405.866;   76.400;  669.000;  385.000
405.993;  -57.775; -398.000; -102.000
406.120; -149.800; -801.000; -887.000
406.247;  -85.150; -323.000; -342.000
406.374;  361.375;  540.000;  629.000
406.501;   62.650; -632.000; -702.000
406.628;  -82.150; -621.000; -589.000
406.755;  -97.975; -803.000; -620.000
406.882;  -43.650; -228.000; -277.000
407.009; -107.725; -719.000; -628.000
407.136;   14.100; -480.000; -401.000
407.263;   82.225; -939.000; -829.000
407.390;  -82.250; -692.000; -614.000
407.517; -168.600;-1139.000;-1187.000
407.644;  -58.875; -332.000; -256.000
407.771;  -87.150; -249.000; -287.000
407.898;    6.150;  168.000;  328.000
408.025;  -80.450; -421.000; -313.000
408.151;   -4.850;   82.000;  153.000
408.278;  -82.075; -267.000; -216.000
408.405; -116.500; -931.000; -899.000
408.532;  -81.350; -549.000; -542.000
408.659; -133.500; -677.000; -648.000
408.785; -199.125;-1298.000;-1170.000
408.912;  -61.525; -412.000; -296.000
409.039; -121.775; -610.000; -686.000
409.166; -116.725; -591.000; -555.000
409.292; -117.025; -571.000; -534.000
409.419; -120.825; -665.000; -649.000
409.546; -102.275; -431.000; -192.000
409.672; -101.825; -713.000; -545.000
409.799;  -32.850;  -36.000;   34.000
409.926;  -56.050; -180.000; -179.000
410.052; -181.350;-1127.000;-1091.000
410.179;  -68.550; -368.000; -392.000
410.305;  -97.125; -375.000; -493.000
410.432;  -50.175; -220.000; -333.000
410.558; -109.175; -305.000; -380.000
410.685; -113.975; -688.000; -431.000
410.812; -105.700; -409.000; -588.000
410.938; -137.625; -964.000; -808.000
411.065; -104.050; -671.000; -645.000
411.191;  -25.325; -189.000; -174.000
411.317; -110.675; -823.000; -742.000
411.444;  -85.000; -317.000; -246.000
411.570;  -81.600; -339.000; -294.000
411.697; -124.100; -758.000; -752.000
411.823; -186.350; -989.000; -999.000
411.949;  -46.175;  -56.000;   17.000
412.076; -120.375; -539.000; -519.000
412.202; -118.775; -758.000; -757.000
412.329; -150.925; -798.000; -752.000
412.455; -116.525; -821.000; -657.000
412.581;  -31.200;  -15.000;  172.000
412.707;  -73.250; -540.000; -457.000
412.834;   -0.700;  156.000;  219.000
412.960;  -94.725; -785.000; -784.000
413.086; -120.150; -743.000; -701.000
413.212;  111.850;  604.000;  578.000
413.339;  -87.200; -685.000; -701.000
413.465;  -18.125; -364.000; -310.000
413.591; -114.400; -757.000; -474.000
413.717;  -58.475; -358.000; -366.000
413.843; -145.600; -839.000; -861.000
413.969;  -66.050;  -47.000; -292.000
414.096; -114.175; -679.000; -679.000
414.222;  -17.875;  -33.000;   85.000
414.348;  -50.750; -652.000; -385.000
414.474;   52.550;   38.000;  -52.000
414.600;  -24.725; -126.000; -144.000
414.726;  -23.550;  -96.000;  -55.000
414.852;  -64.300; -365.000; -342.000
414.978;   21.350;  104.000;  -18.000
415.104;   42.525;   38.000;   80.000
415.230;   13.375; -329.000; -330.000
415.356;   32.500; -409.000; -514.000
415.482;  182.300;   13.000;  -35.000
415.608;  264.250; -247.000; -323.000
415.734;  968.900;   67.000;   38.000
415.860;20345.225; -875.000; -767.000
415.986;15651.975; -685.000; -607.000
416.111; 1366.950; -798.000; -652.000
416.237;  287.300; -424.000; -571.000
416.363; 1149.975; -765.000; -733.000
416.489; 4537.900; -324.000; -251.000
416.615;  521.100; -707.000; -742.000
416.741;  -19.925; -677.000; -784.000
416.866;  -91.275; -673.000; -736.000
416.992; -119.150; -801.000; -818.000
417.118;  -41.875;  -41.000;  -80.000
417.244;  -70.100; -798.000; -531.000
417.369;  -85.025; -801.000; -612.000
417.495;  -22.425; -325.000; -254.000
417.621;  -88.325;-1015.000; -803.000
417.746;   -7.300; -579.000; -572.000
417.872;   37.700; -254.000; -144.000
417.998;   65.850; -515.000; -530.000
418.123; 1049.175;-1073.000; -845.000
418.249; 5755.550; -512.000; -601.000
418.374;  871.700; -916.000; -824.000
418.500;  124.225; -383.000; -482.000
418.626;  117.550;   70.000;  -59.000
418.751;  115.150; -549.000; -448.000
418.877;  196.925; -637.000; -643.000
419.002; 1803.350; -688.000; -560.000
419.128;13306.975; -930.000; -721.000
419.253; 3468.125; -967.000; -837.000
419.379;  456.075; -391.000; -338.000
419.504;  413.325;  325.000;  415.000
419.629;  532.950; -393.000; -212.000
419.755; 3665.325; -317.000; -254.000
419.880;22952.575;  -98.000;   67.000
420.006;12116.600; -280.000; -221.000
420.131;31385.950; -662.000; -775.000
420.256; 4798.925; -315.000; -316.000
420.382;  617.000; -665.000; -687.000
420.507;   88.400; -649.000; -778.000
420.632;   70.850; -337.000; -339.000
420.758;  191.000; -251.000; -425.000
420.883;  -85.300; -876.000; -672.000
421.008; -101.875; -775.000; -619.000
421.133;  -94.025; -509.000; -467.000
421.259;  -49.175; -325.000; -259.000
421.384; -130.125; -834.000; -693.000
421.509;  -63.275;-1052.000; -862.000
421.634;  898.075; -936.000; -820.000
421.759;  416.025; -359.000; -327.000
421.885;  -79.950; -717.000; -656.000
422.010;  -80.525; -673.000; -542.000
422.135; -156.000; -695.000; -727.000
422.260;   29.275;  340.000;  280.000
422.385;  -47.500;   12.000;  -98.000
422.510;   13.125;  151.000;  -26.000
422.635;  -14.475;  -87.000;  -43.000
422.760;  100.925; -766.000; -791.000
422.885;   49.100;  -57.000;  -80.000
423.010;  -54.375; -112.000; -169.000
423.135; -100.375; -481.000; -561.000
423.260;  -36.375; -150.000; -245.000
423.385;   31.400;  476.000;  222.000
423.510;   20.025;   71.000;  -22.000
423.635;   61.825;  133.000;   45.000
423.760;   39.300;  383.000;  328.000
423.885;   60.750;  336.000;  391.000
424.010;   18.850;  -68.000;  -13.000
424.135;  -29.375;    5.000;  -33.000
424.259;  -83.925; -654.000; -457.000
424.384;  -63.025; -279.000; -272.000
424.509;  -41.275; -260.000; -186.000
424.634; -115.050; -761.000; -623.000
424.759;  -46.125; -688.000; -544.000
424.883;  -23.450; -506.000; -527.000
425.008;  163.150; -502.000; -410.000
425.133; 2106.050; -679.000; -653.000
425.258; 1034.200; -517.000; -381.000
425.382;  887.475; -867.000; -774.000
425.507; 2481.100; -487.000; -543.000
425.632;  439.900; -802.000; -663.000
425.756;  488.575; -256.000; -146.000
425.881; 6895.475; -831.000; -857.000
426.006;19863.450; -604.000; -355.000
426.130; 3217.800; -696.000; -508.000
426.255;  417.025; -611.000; -491.000
426.379;  177.025; -189.000; -577.000
426.504;  379.875;  660.000;  544.000
426.629; 4112.600; -519.000; -466.000
426.753; 3028.100;   64.000;  -46.000
426.878;  346.600; -252.000; -288.000
427.002;  204.550; -651.000; -668.000
427.127; 1580.150;  -35.000; -158.000
427.251;12030.175;  372.000;  401.000
427.375; 3659.050; -191.000; -173.000
427.500; 2132.525; -616.000; -610.000
427.624;  758.800; -234.000; -400.000
427.749;   89.225; -216.000; -225.000
427.873;  -50.050; -499.000; -412.000
427.997;  -44.725; -222.000; -230.000
428.122;   53.000;  795.000;  703.000
428.246;   52.375;  433.000;  434.000
428.371; -129.625; -869.000; -773.000
428.495; -103.525; -624.000; -646.000
428.619;  -44.500; -186.000; -117.000
428.743;   11.175;   65.000;  132.000
428.868;  -12.500; -732.000; -643.000
428.992; 1253.675; -219.000; -326.000
429.116;  521.400; -329.000; -357.000
429.240;  256.450;  419.000;  426.000
429.365;  -47.950; -454.000; -574.000
429.489;  -55.650; -638.000; -647.000
429.613;    1.600; -236.000; -177.000
429.737;   35.175; -563.000; -432.000
429.861;  258.175; -247.000; -133.000
429.985; 5637.100; -425.000; -305.000
430.109; 6657.375; -770.000; -908.000
430.234;  784.400;   76.000;  -50.000
430.358;   57.750; -250.000; -160.000
430.482;  -68.050; -672.000; -564.000
430.606;  -89.850; -655.000; -375.000
430.730;   -8.300; -437.000; -388.000
430.854;   55.200; -909.000; -835.000
430.978;  -75.500; -795.000; -764.000
431.102; -108.375; -499.000; -422.000
431.226; -140.600; -874.000; -815.000
431.350;    8.950;  345.000;  422.000
431.474;  -88.475; -661.000; -373.000
431.597; -168.150;-1060.000; -848.000
431.721;  -80.650; -276.000; -267.000
431.845; -134.100; -704.000; -472.000
431.969;  -71.375; -304.000; -349.000
432.093;  -85.300; -395.000; -317.000
432.217;  -19.725;   32.000;   82.000
432.341; -101.575; -523.000; -518.000
432.464;  -10.200;   96.000;   40.000
432.588;  133.550; -401.000; -329.000
432.712;   66.775;  -52.000;  -52.000
432.836;   28.725;  213.000;  263.000
432.959;  -16.750; -372.000; -311.000
433.083;   87.425;   11.000;    2.000
433.207;  383.400;  285.000;  930.000
433.330; 5268.625; -391.000; -200.000
433.454; 6852.425; -654.000; -638.000
433.578; 3859.825;  583.000;  278.000
433.701;  756.575; -623.000; -675.000
433.825;  117.950; -292.000; -299.000
433.949;  128.325;   28.000;  -72.000
434.072;   24.725; -410.000; -323.000
434.196;  -14.225; -309.000; -117.000
434.319; 3633.275;25482.000;25124.000
434.443;  689.225; -656.000; -603.000
434.566; 2854.200;  281.000;   62.000
434.690;  502.550; -637.000; -383.000
434.813;   45.675; -251.000; -173.000
434.937;  -84.100; -569.000; -696.000
435.060;  -63.475; -423.000; -332.000
435.184;  193.775; -492.000; -217.000
435.307;  118.550;  159.000;  102.000
435.431;   -9.075;  -40.000;   24.000
435.554;  -99.350; -399.000; -240.000
435.677;  -84.775; -350.000; -258.000
435.801;  -46.275;  -25.000;   49.000
435.924;  -23.800;    1.000;  -67.000
436.048; -136.750;-1019.000; -732.000
436.171;  -83.875; -240.000;  -66.000
436.294;  -32.950; -248.000; -229.000
436.417;  108.725; -963.000; -849.000
436.541;  -72.000; -814.000; -840.000
436.664;  -53.925; -242.000; -316.000
436.787;  -47.325;   13.000;  113.000
436.910; -134.000; -792.000; -422.000
437.034;  -26.125;  142.000;  143.000
437.157;   22.575;  -11.000;    0.000
437.280;  -68.050; -392.000; -292.000
437.403; -109.800; -982.000; -869.000
437.526;  413.725; -903.000; -865.000
437.649; 1768.325; -505.000; -332.000
437.772;  252.200; -692.000; -540.000
437.896;   96.775;  700.000;  544.000
438.019; -118.325; -758.000; -503.000
438.142;  -96.725; -596.000; -506.000
438.265;  -54.800; -639.000; -670.000
438.388;  445.500; -520.000; -410.000
438.511;   51.775; -597.000; -394.000
438.634;  -63.075; -247.000; -125.000
438.757; -148.550; -693.000; -619.000
438.880;  -30.075;  -34.000;  -57.000
439.003;  -82.475; -417.000; -437.000
439.126;  -77.550; -287.000; -167.000
439.248;  -77.100;  -98.000; -139.000
439.371;  -55.550;    9.000;  -53.000
439.494;   14.025;  510.000;  439.000
439.617;  -52.275;   65.000;  -88.000
439.740; -180.025; -968.000; -816.000
439.863; -145.925; -755.000; -595.000
439.986; -144.725; -476.000; -431.000
440.108;  -55.750; -161.000; -112.000
440.231; -173.675; -950.000; -836.000
440.354;  -52.100;  -64.000; -150.000
440.477;  -11.725; -566.000; -542.000
440.599;  -23.825; -200.000; -225.000
440.722; -129.625; -709.000; -586.000
440.845;   68.650;  751.000;  928.000
440.968; -120.500; -415.000; -311.000
441.090;  -71.050; -199.000;  -33.000
441.213; -182.425;-1021.000; -825.000
441.336;  -67.650; -159.000;   -5.000
441.458;  -80.125; -549.000; -396.000
441.581; -107.025; -628.000; -629.000
441.703;  -88.925; -152.000;   13.000
441.826; -108.725; -557.000; -400.000
441.948;  -70.600;   56.000;   51.000
442.071;   23.600;  555.000;  424.000
442.193; -135.800; -531.000; -485.000
442.316;   14.550;  152.000;   97.000
442.438;   44.150; -233.000;  -10.000
442.561;   57.225;  272.000;  262.000
442.683;  367.425; -809.000; -522.000
442.806;  910.250;   -8.000;   74.000
442.928;    6.625; -859.000; -604.000
443.051;  -70.950; -577.000; -373.000
443.173; -106.000; -341.000; -339.000
443.295;  -97.625; -263.000; -371.000
443.418;  -79.850; -321.000;  -29.000
443.540;  -16.200; -106.000;   -4.000
443.662; -127.150; -563.000; -465.000
443.785;  -14.600;  335.000;  199.000
443.907;  -98.400; -362.000; -208.000
444.029; -147.475; -767.000; -494.000
444.152; -143.650; -644.000; -554.000
444.274;  -23.825;  -18.000;  -24.000
444.396; -118.550; -461.000; -221.000
444.518; -133.025; -691.000; -454.000
444.640; -105.200; -268.000; -111.000
444.763;  -25.000;  388.000;  249.000
444.885; -113.400; -432.000; -392.000
445.007;  -37.375;   35.000;   86.000
445.129; -142.625; -610.000; -515.000
445.251; -113.400; -372.000; -439.000
445.373; -148.350; -537.000; -386.000
445.495;    2.075;  242.000;  350.000
445.617;   46.025;  853.000;  753.000
445.739;  -74.550; -215.000;  -97.000
445.861;  -48.325; -245.000; -112.000
445.984;  -46.625; -267.000; -101.000
446.105;  117.725; -418.000; -251.000
446.227;  483.375; -176.000;  -19.000
446.349;  -12.550; -358.000; -249.000
446.471; -101.825; -615.000; -448.000
446.593;  -94.075; -316.000;   19.000
446.715;  -12.400;  -67.000;   41.000
446.837;   57.175;  697.000;  832.000
446.959; -111.850; -457.000; -478.000
447.081; -149.050; -628.000; -518.000
447.203;   52.450;  862.000;  834.000
447.325; -101.400; -270.000;   42.000
447.446;  -13.275;  286.000;  530.000
447.568; -156.000; -921.000; -803.000
447.690;  -81.300; -236.000; -245.000
447.812; -153.300; -798.000; -519.000
447.933;  -24.925;  155.000;  127.000
448.055;  -58.600; -306.000; -261.000
448.177;  100.025;   31.000;   79.000
448.299;   42.050; -935.000; -727.000
448.420;    7.225;  -25.000;  159.000
448.542;  -59.675;   -3.000;   33.000
448.664;  -18.075;  109.000;  322.000
448.785;  -34.850;  265.000;   83.000
448.907;  -86.675; -614.000; -353.000
449.028;  -74.900; -771.000; -471.000
449.150;   52.175;  492.000;  589.000
449.272; -186.025;-1044.000; -913.000
449.393;   31.575;  612.000;  694.000
449.515; -150.325; -634.000; -581.000
449.636;  -72.500; -264.000; -155.000
449.758;   55.725;  763.000;  622.000
449.879;  -99.200; -498.000; -396.000
450.001;  -78.225; -149.000;  -49.000
450.122;  -48.550;  -95.000;  162.000
450.244;  -25.225;   37.000;  364.000
450.365;  -88.675; -495.000; -301.000
450.486;  -38.950;   80.000;  268.000
450.608;   19.250;  393.000;  326.000
450.729;   65.275;  578.000;  645.000
450.850;    6.750; -574.000; -466.000
450.972;  768.600; -552.000; -389.000
451.093; 5276.600;  190.000;  588.000
451.214; 2438.975; -516.000; -337.000
451.336;  428.400;  773.000;  579.000
451.457;   60.150;  264.000;  393.000
451.578;  -41.125; -118.000;  -74.000
451.699; -133.900; -546.000; -540.000
451.821;  -63.650; -284.000;  -50.000
451.942;   -4.525;  278.000;  285.000
452.063;   34.950;  228.000;  419.000
452.184;  560.125;  -54.000;  -49.000
452.305; 1186.000;  103.000;  170.000
452.427;  175.675; -549.000; -301.000
452.548;  -13.400;   23.000;   79.000
452.669;  -57.600; -257.000;  -89.000
452.790;  -37.800;    3.000;  -18.000
452.911;  -16.800;  195.000;  259.000
453.032;  -85.175; -289.000;  -60.000
453.153;  -59.375;  -29.000;   81.000
453.274;   56.600;  737.000;  868.000
453.395;  -45.225;  -51.000;  175.000
453.516;  107.475; 1317.000; 1388.000
453.637;  -85.325; -205.000; -150.000
453.758;  -54.300;   15.000;   69.000
453.879; -113.400; -462.000; -250.000
454.000;   75.525; 1086.000;  948.000
454.121; -120.075; -554.000; -326.000
454.242; -125.025; -599.000; -383.000
454.362;  -60.525;  -99.000;  114.000
454.483;  -35.175; -309.000; -229.000
454.604;   31.625;  512.000;  580.000
454.725; -124.225; -627.000; -555.000
454.846; -130.400; -474.000; -406.000
454.967;  -27.350;  230.000;  539.000
455.087;  -47.350;  179.000;  153.000
455.208;    7.950;  554.000;  856.000
455.329;  -69.725;  -22.000;   82.000
455.450;   54.850;  473.000;  633.000
455.570;  -84.025; -234.000; -211.000
455.691;  -30.400;  201.000;  407.000
455.812; -112.050; -270.000;  -92.000
455.932;  -71.925;  107.000;  -97.000
456.053;  -78.375;   36.000;   24.000
456.173; -106.275; -433.000; -355.000
456.294; -123.400; -476.000; -303.000
456.415;  -57.250;  -73.000;   70.000
456.535;  -34.950;  297.000;  273.000
456.656;  -48.825;  132.000;  240.000
456.776;  -70.550;    3.000;  298.000
456.897;  -13.350;  308.000;  513.000
457.017;  -80.025; -153.000;   -3.000
457.138; -121.875; -402.000; -249.000
457.258;  -40.125;  263.000;  224.000
457.379;  -12.075;  509.000;  521.000
457.499;  -39.600;  443.000;  432.000
457.620; -118.250; -407.000; -231.000
457.740; -115.750; -132.000;  -11.000
457.860;  -57.725;   87.000;   44.000
457.981;  -52.600;  132.000;  124.000
458.101;  -80.675;  -89.000;   40.000
458.221;  -29.450;  336.000;  402.000
458.342;  -67.900;   -4.000;  -37.000
458.462;   14.575;  617.000;  352.000
458.582;  -29.975; -302.000; -294.000
458.703;    9.950;  303.000;  154.000
458.823;  -22.850;   22.000;  163.000
458.943;    1.600;  341.000;  467.000
459.063;  -16.500; 1124.000;  192.000
459.183;  -23.300;  328.000;  313.000
459.304;    4.500;  315.000;  517.000
459.424;  -58.975; -246.000;  -89.000
459.544;  340.975;  388.000;  764.000
459.664;  858.175;  499.000;  506.000
459.784;  344.150; 1004.000; 1175.000
459.904;   56.600;  867.000;  744.000
460.024;   62.875;  867.000;  684.000
460.144;  -10.850;  449.000;  554.000
460.264;   -3.150;  515.000;  327.000
460.385;  -96.250; -145.000; -119.000
460.505;   35.650;  905.000;  858.000
460.625; -100.675;  -17.000;  -68.000
460.745;  -13.850;  396.000;  541.000
460.864;  -48.550;  153.000;  469.000
460.984;    8.775;  499.000;  573.000
461.104;  130.675; 1656.000; 1775.000
461.224;   18.450;  657.000;  650.000
461.344;  -33.175;  431.000;  360.000
461.464;  -34.900;  258.000;  513.000
461.584;  -14.250;  283.000;  466.000
461.704;  -52.075;   58.000;  108.000
461.824;  -60.925;  238.000;  259.000
461.943;  -49.725;  191.000;  130.000
462.063;  -87.700;    2.000;  324.000
462.183;   27.950;  639.000;  717.000
462.303;   87.900; 1678.000; 1230.000
462.422;   24.850;  781.000;  840.000
462.542;  -41.800;  271.000;  391.000
462.662;   23.175;  353.000;  380.000
462.782;  238.175;  833.000;  572.000
462.901;  507.275;  545.000;  717.000
463.021;  286.150; 1702.000; 1638.000
463.141;  -11.925;  337.000;  770.000
463.260;  -12.300;  614.000;  474.000
463.380;   13.075;  902.000;  884.000
463.499;  -39.175;  342.000;  332.000
463.619;  -22.225;  581.000;  559.000
463.738;  102.400; 1644.000;  903.000
463.858;   33.525;  657.000;  811.000
463.978;  -45.675;  542.000;  396.000
464.097;   45.600;  921.000; 1114.000
464.217;  125.475; 1196.000; 1143.000
464.336;  111.675; 1068.000; 1130.000
464.455;  -37.600;  328.000;  659.000
464.575;   24.250;  597.000;  602.000
464.694;  159.400; 1204.000; 1179.000
464.814;  132.600; 1190.000; 1138.000
464.933;   66.000; 1095.000; 1027.000
465.052;   84.025; 1412.000; 1054.000
465.172;   70.225;  922.000;  799.000
465.291;  137.200; 1376.000; 1320.000
465.410;   12.950;  462.000;  735.000
465.530;   69.800; 1355.000; 1310.000
465.649;   51.550; 1209.000; 1273.000
465.768;  122.825; 1673.000; 1508.000
465.888;   48.300;  941.000; 1174.000
466.007;   90.750; 1335.000; 1440.000
466.126;   -4.925;  721.000;  641.000
466.245;   39.350; 1176.000; 1187.000
466.364;    7.100;  950.000; 1060.000
466.484;   53.275; 1024.000; 1213.000
466.603;   31.475; 1101.000; 1222.000
466.722;  117.975; 1490.000; 1769.000
466.841;   75.425; 1151.000; 1401.000
466.960;   33.675; 1069.000;  972.000
467.079;  113.275; 1971.000; 1786.000
467.198;   54.550; 1238.000; 1181.000
467.317;   79.500; 1768.000; 1162.000
467.436;   48.975; 1709.000; 1261.000
467.555;  130.175; 1796.000; 1746.000
467.674;   56.500; 1227.000; 1329.000
467.793;   47.200; 1376.000; 1374.000
467.912;   89.275; 1658.000; 1539.000
468.031;  137.300; 2038.000; 1930.000
468.150;  144.950; 1842.000; 1837.000
468.269;  177.025; 2313.000; 2090.000
468.388;  189.850; 2168.000; 2339.000
468.507;  250.775; 2884.000; 2903.000
468.626;  270.225; 2555.000; 2541.000
468.744;  157.375; 2018.000; 2174.000
468.863;  200.075; 2312.000; 2523.000
468.982;   85.975; 1503.000; 1555.000
469.101;  225.275; 2788.000; 2692.000
469.220;  150.300; 2333.000; 2176.000
469.338;  239.350; 2935.000; 3051.000
469.457;  197.725; 2719.000; 2545.000
469.576;  324.825; 3953.000; 3784.000
469.695;  238.625; 2877.000; 3066.000
469.813;  423.700; 4148.000; 4192.000
469.932;  380.900; 4255.000; 4485.000
470.051;  417.225; 4075.000; 4161.000
470.169;  854.100; 4470.000; 4338.000
470.288; 1527.875; 4700.000; 4809.000
470.406;  911.750; 5059.000; 5194.000
470.525;  625.225; 6101.000; 5787.000
470.644;  632.375; 6847.000; 6794.000
470.762;  799.525; 8397.000; 7873.000
470.881;  895.275; 8651.000; 8464.000
470.999; 1054.125; 9685.000; 9151.000
471.118; 1094.100;11174.000;10711.000

