
Integration time [ms]: 100.000
Averaging Nr. [scans]: 40
Smoothing Nr. [pixels]: 0
Data measured with spectrometer [name]: 2101012U2
Wave   ;Sample   ;Dark     ;Reference
[nm]   ;[counts] ;[counts] ;[counts] 

197.733;   77.150;  516.000;  404.000
197.879;  -84.925; -610.000; -634.000
198.025;  -51.325; -475.000; -420.000
198.171;  -74.025; -602.000; -612.000
198.317;  -16.800; -401.000; -316.000
198.463;  -67.850; -655.000; -404.000
198.609;   33.775;  181.000; -137.000
198.755;  -83.325; -644.000; -410.000
198.901;  -75.650; -505.000; -424.000
199.047;  -61.725; -615.000; -488.000
199.193;  -44.950; -230.000; -468.000
199.339;  -52.650; -222.000; -369.000
199.485;   38.675;  330.000;  271.000
199.631;   13.800;  227.000;  310.000
199.777;  -51.225; -466.000; -398.000
199.923;  -83.375; -610.000; -424.000
200.069;   12.875; -141.000;  -58.000
200.215;   53.325;  128.000;  453.000
200.361;   46.500;  243.000;  477.000
200.507;  -71.250; -600.000; -373.000
200.653;  -15.525; -371.000; -194.000
200.798;  -44.750; -215.000; -125.000
200.944;  -12.725; -146.000;  -41.000
201.090;   28.650;   61.000;  222.000
201.236;  -11.400; -116.000; -158.000
201.382;  132.375;  874.000;  903.000
201.528;    5.200;  -58.000;  -48.000
201.674;  -63.475; -386.000; -293.000
201.819;  -55.825; -540.000; -439.000
201.965;  -94.075; -699.000; -447.000
202.111;  -30.725; -273.000; -226.000
202.257;  -34.550; -250.000; -238.000
202.402;    6.850;   13.000;  -36.000
202.548;  -33.250; -169.000; -116.000
202.694;   81.825;  410.000; -183.000
202.840;  -64.850; -603.000; -531.000
202.985;  -64.850; -681.000; -639.000
203.131; -109.900; -832.000; -666.000
203.277;  -23.150; -199.000; -262.000
203.423;  -66.400; -434.000; -520.000
203.568;  -44.100; -462.000; -237.000
203.714;  -71.875; -535.000; -542.000
203.860;  -79.325; -682.000; -641.000
204.005;   14.300;  112.000;  167.000
204.151;   75.400;  561.000;  556.000
204.296;  -50.025; -354.000; -221.000
204.442;  -71.825; -600.000; -547.000
204.588;  -86.600; -592.000; -579.000
204.733;   23.275;  178.000;  168.000
204.879; -137.975;-1018.000; -822.000
205.025;   12.775;  -99.000;  126.000
205.170;    8.575;  -17.000;   94.000
205.316;   99.525;  438.000;  661.000
205.461;  -78.975; -698.000; -554.000
205.607;   85.400;  609.000;  665.000
205.752;  -93.975; -626.000; -551.000
205.898;  -51.550; -501.000; -391.000
206.043;  -61.750; -578.000; -506.000
206.189;  -43.925; -243.000; -285.000
206.334;   71.725;  554.000;  606.000
206.480;   85.575;  409.000;  239.000
206.625;  -80.300; -529.000; -552.000
206.771;  -50.925; -451.000; -373.000
206.916;  -29.975; -210.000; -537.000
207.062;  -71.850; -545.000; -591.000
207.207;  -71.750; -546.000; -443.000
207.353;   57.250;  185.000;  460.000
207.498;   19.400;  196.000;   85.000
207.643;  -47.350; -501.000; -370.000
207.789; -126.350;-1069.000; -910.000
207.934; -103.225; -665.000; -713.000
208.080;  -28.250; -154.000;   66.000
208.225;   -9.150;  -22.000;  -57.000
208.370;  -94.500; -727.000; -619.000
208.516;  -71.125; -741.000; -487.000
208.661;  -33.300; -127.000;  -69.000
208.806;  -18.500; -165.000; -171.000
208.952; -128.850;-1044.000; -731.000
209.097;   83.400;  378.000;  349.000
209.242;  -50.800; -307.000; -382.000
209.387;   64.425;  392.000;  350.000
209.533;  -47.225; -321.000; -350.000
209.678;   78.700;  472.000;  543.000
209.823;  -60.175; -408.000; -310.000
209.969; -102.475; -860.000; -757.000
210.114; -102.000; -907.000; -719.000
210.259; -122.925; -939.000; -889.000
210.404;    7.475; -171.000;  103.000
210.549;    9.450;  108.000;    3.000
210.695;  -19.350;   -3.000;  -95.000
210.840;   34.025;   94.000;   67.000
210.985;  -76.450; -484.000; -303.000
211.130;   71.600;  268.000;  406.000
211.275;   20.500;  207.000;  199.000
211.420;  -53.625; -300.000; -289.000
211.566;  -74.075; -536.000; -489.000
211.711;   26.250;  218.000;  157.000
211.856;  -74.700; -545.000; -519.000
212.001;    8.875;  151.000;   44.000
212.146;   18.575;  153.000;   49.000
212.291;  -13.125; -210.000; -186.000
212.436;  -39.000; -280.000;   -6.000
212.581;  -87.250; -685.000; -653.000
212.726;  -82.375; -487.000; -538.000
212.871;  -49.575; -552.000; -217.000
213.016; -158.650;-1172.000;-1029.000
213.161;   64.525;  406.000;  291.000
213.306;  -87.250; -435.000; -577.000
213.451;  -86.175; -778.000; -689.000
213.596;  -40.550; -455.000; -347.000
213.741;  -84.975; -448.000; -538.000
213.886;  -93.875; -498.000; -517.000
214.031;  -16.725; -294.000; -124.000
214.176;  -45.700; -408.000; -341.000
214.321;   -7.475; -296.000; -157.000
214.466;  -14.075; -163.000;  -43.000
214.611;   -5.750;  -61.000;  -10.000
214.756; -126.325; -948.000; -858.000
214.901;  -18.225; -388.000; -226.000
215.046; -137.575; -797.000; -825.000
215.191;   12.175;  128.000;   35.000
215.336;  -11.125; -157.000;  -19.000
215.480;  -72.050; -684.000; -505.000
215.625;   -8.375; -175.000;  -19.000
215.770;  -80.650; -757.000; -662.000
215.915;   -8.350;   -5.000;  -97.000
216.060;   -6.650; -113.000;  -21.000
216.205; -120.750; -731.000; -779.000
216.349;  -79.325; -470.000; -533.000
216.494; -139.075; -939.000; -867.000
216.639; -127.200; -823.000; -888.000
216.784; -105.525; -577.000; -525.000
216.929;   45.100;  392.000;  281.000
217.073;  -15.600; -244.000;  -31.000
217.218;    4.850;   78.000;  -47.000
217.363;  -82.875; -656.000; -618.000
217.507;  -84.125; -623.000; -588.000
217.652; -121.700; -845.000; -874.000
217.797;  -95.175; -708.000; -659.000
217.942; -114.200; -856.000; -720.000
218.086;   81.775;  608.000;  539.000
218.231;  -11.425; -174.000;  -26.000
218.376;  -37.475; -337.000; -229.000
218.520;    2.350;  -41.000;   96.000
218.665;  -25.600; -338.000; -204.000
218.810;  -48.450; -275.000; -233.000
218.954;   11.800;  201.000;   35.000
219.099; -125.050; -713.000; -963.000
219.243;  -65.600; -589.000; -554.000
219.388;  -37.950; -264.000; -136.000
219.532;    0.650; -116.000; -116.000
219.677;  -82.475; -564.000; -521.000
219.822;    2.825;   33.000;   89.000
219.966;  -10.550;   17.000;  -99.000
220.111;  -25.000; -328.000;  -40.000
220.255; -100.700; -797.000; -750.000
220.400;  -10.950; -180.000; -146.000
220.544;  -66.725; -516.000; -450.000
220.689;  -46.100; -422.000; -451.000
220.833;  -17.000; -123.000;  -58.000
220.978;  -39.525; -393.000; -563.000
221.122;   15.175;  319.000;  307.000
221.267; -124.350; -906.000; -837.000
221.411;  -72.600; -478.000; -394.000
221.555;   -2.050; -104.000;  -23.000
221.700;  -52.325; -329.000; -222.000
221.844;   34.150;  255.000;  272.000
221.989;  -40.225; -328.000; -311.000
222.133;  -41.475; -289.000; -307.000
222.277;  -11.350;    5.000;   78.000
222.422;    8.325;  227.000;  113.000
222.566;  -40.950; -381.000; -214.000
222.711;  -54.375; -414.000; -479.000
222.855;  -75.675; -643.000; -586.000
222.999;  -88.350; -642.000; -717.000
223.144;  -37.650; -195.000; -194.000
223.288;   53.000;  423.000;  251.000
223.432;   30.375;  184.000;  230.000
223.576;   16.275;  152.000;  -21.000
223.721;   40.275;  364.000;  273.000
223.865;  -50.825; -472.000; -475.000
224.009;  247.650; 1673.000; 1631.000
224.153;  -90.675; -660.000; -671.000
224.298;  -76.075; -531.000; -489.000
224.442;   -1.075;  -74.000;  -33.000
224.586;   -4.725; -169.000; -106.000
224.730;  -97.900; -858.000; -670.000
224.875; -105.775; -739.000; -688.000
225.019;   21.975;  102.000;  188.000
225.163;   48.275;  208.000;  341.000
225.307;   10.725;   97.000;  -91.000
225.451;   48.450;  360.000;  481.000
225.595;   42.825;  264.000;  176.000
225.739;  -12.225; -170.000;  -94.000
225.884;   -7.650;   86.000;    5.000
226.028; -105.250; -760.000; -626.000
226.172;  -36.975; -260.000; -273.000
226.316; -119.425; -941.000; -902.000
226.460;  -59.500; -645.000; -493.000
226.604;  -52.425; -406.000; -400.000
226.748;  -99.650; -836.000; -733.000
226.892;  -39.075; -227.000; -181.000
227.036;  -44.025; -537.000; -447.000
227.180;  -53.425; -551.000; -375.000
227.324;  -77.275; -561.000; -580.000
227.468; -107.700; -819.000; -717.000
227.612;   18.000;  242.000;  -28.000
227.756; -104.450; -845.000; -698.000
227.900;   50.750;  342.000;  441.000
228.044;  -66.200; -509.000; -290.000
228.188;   65.425;  448.000;  568.000
228.332;  -95.575; -546.000; -472.000
228.476;  -43.725; -223.000; -149.000
228.620;  -20.225; -210.000; -150.000
228.764;   55.725;  431.000;  349.000
228.908;  -25.050; -155.000;   30.000
229.052;  -63.625; -615.000; -528.000
229.195;  -17.475; -172.000;   13.000
229.339;  -26.575; -235.000; -305.000
229.483;  -21.275;    5.000; -162.000
229.627;    2.475; -156.000;  139.000
229.771;  -45.450; -218.000; -294.000
229.915;   16.650;  230.000;   79.000
230.059; -100.475; -648.000; -663.000
230.202;  -33.175; -370.000; -317.000
230.346;  -12.125; -107.000;  107.000
230.490;  -72.575; -489.000; -521.000
230.634; -101.775; -736.000; -553.000
230.777;   86.600;  478.000;  509.000
230.921;  -58.775; -450.000; -359.000
231.065;  -31.825; -246.000; -286.000
231.209;   37.800;  261.000;  265.000
231.352;    8.700;   54.000;   40.000
231.496;   14.275;  568.000;  188.000
231.640;  -78.500; -693.000; -621.000
231.783;   59.550;  546.000;  525.000
231.927;  -34.275; -294.000; -365.000
232.071; -124.125; -962.000; -736.000
232.214; -112.075; -980.000; -764.000
232.358; -101.950; -683.000; -599.000
232.502;    5.900;  -19.000;    7.000
232.645; -145.950;-1090.000; -927.000
232.789;  -28.125; -257.000; -218.000
232.933;  -46.225; -407.000; -224.000
233.076; -134.650;-1038.000; -897.000
233.220; -104.500; -752.000; -777.000
233.363;  -72.850; -669.000; -477.000
233.507;   67.925;  371.000;  129.000
233.650;  -94.525; -764.000; -834.000
233.794;   41.050;  438.000;  461.000
233.938;  -69.200; -530.000; -362.000
234.081;  -13.950;  -93.000;   31.000
234.225;  -63.125; -631.000; -539.000
234.368; -120.050; -773.000; -723.000
234.512;  -43.450; -385.000; -299.000
234.655;  -99.750; -582.000; -555.000
234.798;  -57.775; -493.000; -466.000
234.942; -135.900; -884.000;-1002.000
235.085;  -76.175; -651.000; -443.000
235.229;  -70.225; -405.000; -410.000
235.372;  -53.900; -247.000; -191.000
235.516;  -67.175; -397.000; -321.000
235.659;   29.750;   92.000;  121.000
235.802;  -15.375;  -38.000;  -22.000
235.946;   36.650;  335.000;  215.000
236.089;   20.175;  126.000;  250.000
236.233;   56.775;  275.000;  298.000
236.376;  -58.525; -235.000; -378.000
236.519;  -52.300; -297.000; -319.000
236.663;  -22.025; -215.000; -117.000
236.806; -122.800;-1029.000; -999.000
236.949;   53.350;  543.000;  431.000
237.092;   75.000;  412.000;  391.000
237.236;  -98.275; -589.000; -502.000
237.379;   60.550;  352.000;  428.000
237.522; -121.000; -879.000; -768.000
237.666;  -18.075; -271.000;   18.000
237.809; -124.225; -851.000; -823.000
237.952;   44.200;  469.000;  271.000
238.095;  -72.000; -447.000; -442.000
238.238;   80.950;  688.000;  700.000
238.382;   -8.250;  166.000;  103.000
238.525;  -71.525; -598.000; -511.000
238.668; -144.500;-1060.000; -985.000
238.811;  -83.200; -638.000; -643.000
238.954;  -70.325; -483.000; -334.000
239.097;   92.750;  617.000;  664.000
239.241;   20.125;  394.000;  326.000
239.384;  -34.325; -254.000; -214.000
239.527;  -80.375; -424.000; -224.000
239.670; -145.900; -994.000;-1091.000
239.813; -120.850; -696.000; -658.000
239.956;   80.550;  579.000;  473.000
240.099; -123.150; -778.000; -725.000
240.242;   67.450;  428.000;  432.000
240.385;   41.525;  466.000;  450.000
240.528;  -71.675; -706.000; -473.000
240.671;   16.250;  189.000;  134.000
240.814;  -45.375; -441.000; -158.000
240.957; -101.125; -767.000; -578.000
241.100; -109.725; -779.000; -755.000
241.243; -148.725;-1234.000; -893.000
241.386;  -65.850; -508.000; -379.000
241.529;  -86.300; -735.000; -547.000
241.672;  -65.750; -566.000; -495.000
241.815; -123.450; -832.000; -808.000
241.958;  -21.725; -125.000; -182.000
242.101;  -75.500; -545.000; -390.000
242.244;  -44.525; -270.000; -325.000
242.387;  -40.775; -304.000; -246.000
242.530;   66.375;  470.000;  134.000
242.673;  -51.425; -381.000; -309.000
242.815; -122.100; -925.000; -899.000
242.958;  -77.975; -482.000; -381.000
243.101;   16.850;  132.000;  187.000
243.244;  -78.900; -564.000; -521.000
243.387;  -49.075; -313.000; -316.000
243.530; -107.425; -657.000; -674.000
243.672;    5.250;   43.000;  -92.000
243.815;  -42.850; -355.000; -283.000
243.958;   -4.125;   98.000;  -26.000
244.101;    6.500;   59.000;  -16.000
244.243;  -13.200;  -47.000;  101.000
244.386; -117.750; -761.000; -630.000
244.529;  -21.900; -132.000; -139.000
244.672; -153.325;-1154.000; -951.000
244.814;  -98.350; -621.000; -794.000
244.957;  -65.650; -380.000; -304.000
245.100;  -73.850; -489.000; -489.000
245.242;  -74.800; -387.000; -374.000
245.385;   -3.850;  -59.000;  -39.000
245.528; -120.900; -871.000; -705.000
245.670;   83.200;  612.000;  634.000
245.813;  -86.850; -599.000; -547.000
245.956;  -39.650; -324.000; -275.000
246.098;  -80.300; -508.000; -650.000
246.241;   -9.150;  194.000;   48.000
246.383;  -26.200; -119.000;  -73.000
246.526;  -81.925; -454.000; -525.000
246.669; -133.425; -889.000; -780.000
246.811;   23.925;  172.000;   -1.000
246.954;  -69.925; -512.000; -426.000
247.096;  -24.925;  -84.000;   -6.000
247.239;  -75.350; -482.000; -445.000
247.381;  -76.125; -647.000; -488.000
247.524;   94.975;  645.000;  679.000
247.666;  -11.175;   58.000;   11.000
247.809; -115.475; -887.000; -691.000
247.951;   -7.025;  -75.000;  138.000
248.094;   35.300;  432.000;  308.000
248.236; -158.900;-1262.000;-1238.000
248.378;   -9.050; -356.000;  -81.000
248.521;  -21.775; -334.000; -337.000
248.663;  -44.650; -236.000; -267.000
248.806;  -15.725; -300.000; -266.000
248.948;  -91.150; -886.000; -763.000
249.090;  -46.875; -428.000; -398.000
249.233;  -42.650; -344.000; -381.000
249.375;  -58.325; -474.000; -451.000
249.518;  -26.550;  -83.000; -133.000
249.660;   -5.850; -103.000;    3.000
249.802; -178.525;-1303.000;-1189.000
249.945;  -83.400; -612.000; -540.000
250.087; -107.600; -834.000; -768.000
250.229;  -51.775; -362.000; -480.000
250.371;  -78.425; -494.000; -439.000
250.514;  -50.225; -310.000; -244.000
250.656;  -34.200;   69.000;  102.000
250.798; -114.200; -849.000; -800.000
250.940;  -62.600; -322.000; -322.000
251.083;  -30.575; -335.000; -111.000
251.225;   54.725;  338.000;  310.000
251.367;  -45.900; -274.000; -373.000
251.509;  -31.325; -265.000; -210.000
251.651; -105.150; -731.000; -671.000
251.794;   44.250;  538.000;  632.000
251.936; -113.500; -821.000; -747.000
252.078;  -93.625; -540.000; -461.000
252.220;  -76.050; -645.000; -477.000
252.362;   79.675;  344.000;  462.000
252.504;  -65.650; -677.000; -584.000
252.646; -117.025; -875.000; -722.000
252.788;   -0.075;   14.000; -128.000
252.931;  -37.150; -257.000; -253.000
253.073;  -29.375; -376.000; -317.000
253.215;    2.800;  141.000;  122.000
253.357;  -19.425;   82.000; -153.000
253.499;  -53.425; -374.000; -234.000
253.641;  -86.000; -749.000; -594.000
253.783;  -94.925; -609.000; -527.000
253.925;  -80.000; -586.000; -591.000
254.067; -108.825; -744.000; -667.000
254.209;  -26.850; -391.000; -259.000
254.351; -146.925; -865.000; -883.000
254.493;  -67.225; -441.000; -417.000
254.635; -144.800; -936.000; -818.000
254.777;  -93.250; -752.000; -687.000
254.918;  -72.050; -512.000; -430.000
255.060;  -68.500; -551.000; -395.000
255.202;  -71.825; -473.000; -261.000
255.344;  -73.675; -658.000; -455.000
255.486;  -63.375; -471.000; -406.000
255.628; -118.700; -780.000; -781.000
255.770;  -87.475; -676.000; -536.000
255.912;  -70.775; -559.000; -468.000
256.053;  -90.650; -730.000; -508.000
256.195;  157.525; 1008.000;  903.000
256.337; -110.025; -861.000; -595.000
256.479;   55.450;  532.000;  416.000
256.621;  -57.900; -394.000; -212.000
256.762;  -97.275; -789.000; -742.000
256.904;   47.550;  485.000;  487.000
257.046;  -38.450; -381.000; -271.000
257.188;  -39.625; -351.000; -264.000
257.329;  -65.400; -525.000; -464.000
257.471; -125.325; -939.000; -807.000
257.613;  -74.225; -584.000; -498.000
257.755; -144.200;-1073.000; -982.000
257.896;   33.900;  286.000;  392.000
258.038;  -72.625; -403.000; -352.000
258.180;  -50.225; -354.000; -279.000
258.321; -103.125; -581.000; -457.000
258.463;   -5.100;  -71.000;  133.000
258.605;  -86.775; -562.000; -570.000
258.746; -107.800; -886.000; -772.000
258.888; -151.450;-1026.000;-1020.000
259.029;   27.525;  121.000;   -8.000
259.171;  -85.700; -614.000; -550.000
259.313;    3.825;  -49.000;  -47.000
259.454;  -80.900; -536.000; -414.000
259.596;  -47.625; -483.000; -390.000
259.737;  -89.225; -590.000; -474.000
259.879;   39.175;  217.000;  311.000
260.020;   89.350;  901.000;  636.000
260.162;  -27.225; -146.000; -253.000
260.303; -115.150; -768.000; -687.000
260.445;  -88.475; -609.000; -613.000
260.586;   19.275;  392.000;  157.000
260.728;  -46.625; -360.000; -248.000
260.869; -111.250; -350.000; -343.000
261.011;   63.500;  706.000;  537.000
261.152;  -74.500; -479.000; -319.000
261.293;  -70.050; -576.000; -595.000
261.435;  -36.325; -219.000; -184.000
261.576;  -47.400; -455.000; -325.000
261.718;   47.400;  420.000;  470.000
261.859; -129.250; -940.000; -949.000
262.000; -134.650; -951.000;-1016.000
262.142;  -10.525;  -52.000;  -60.000
262.283; -115.300; -808.000; -691.000
262.424;  -83.550; -666.000; -625.000
262.566; -153.325;-1161.000; -983.000
262.707; -108.150; -840.000; -830.000
262.848; -137.800; -769.000; -726.000
262.990;  -56.900; -362.000; -345.000
263.131;   70.075;  650.000;  681.000
263.272;   -3.675;  -61.000;  -41.000
263.413;  -99.125; -589.000; -561.000
263.555;  -70.550; -669.000; -143.000
263.696;  -92.200; -550.000; -641.000
263.837;  -60.000; -449.000; -551.000
263.978;  -31.875;   -5.000;  -77.000
264.119;  -59.100; -283.000; -264.000
264.261; -131.925; -847.000; -630.000
264.402;   -2.175;   33.000;   40.000
264.543;  -72.225; -509.000; -524.000
264.684;   -1.475;   61.000;  -50.000
264.825;  -79.300; -816.000; -538.000
264.966;  -10.900;  -84.000;  -67.000
265.107; -120.550; -646.000; -670.000
265.248; -124.350; -825.000; -812.000
265.390;  -21.450;  152.000;   -9.000
265.531;  -12.825; -238.000; -107.000
265.672;  -95.750; -557.000; -630.000
265.813;   56.725;  563.000;  439.000
265.954; -147.600; -959.000; -940.000
266.095;  -27.650; -372.000; -322.000
266.236;  -99.325; -686.000; -548.000
266.377;  -47.600; -243.000; -297.000
266.518;  -75.675; -619.000; -547.000
266.659;   20.050;  170.000;  268.000
266.800;    7.475;   83.000;   85.000
266.941;  -75.950; -487.000; -478.000
267.082;   31.325;  354.000;   99.000
267.223;  -65.625; -344.000; -273.000
267.364; -126.725; -892.000; -686.000
267.504;  -17.325;    3.000;  135.000
267.645;   -9.175;  160.000;   67.000
267.786;  -41.325; -147.000;  -86.000
267.927;  -85.825; -473.000; -379.000
268.068;  -24.150; -186.000;  -61.000
268.209;  -45.325; -175.000; -413.000
268.350;  -59.225; -388.000; -532.000
268.490;  -88.800; -648.000; -521.000
268.631;   38.250;  127.000;  225.000
268.772; -116.600; -874.000; -647.000
268.913;  -53.800; -328.000; -476.000
269.054;   -3.325; -117.000;   12.000
269.194;  -42.625; -418.000; -402.000
269.335; -167.000;-1137.000;-1074.000
269.476;  -24.125;   33.000;  -35.000
269.617;  -41.225; -347.000; -392.000
269.757;  -81.750; -713.000; -646.000
269.898; -110.975; -856.000; -613.000
270.039;  -63.300; -415.000; -405.000
270.180; -152.475; -952.000; -816.000
270.320;  -15.425; -190.000; -250.000
270.461;  -28.475; -277.000; -249.000
270.602;  -24.675; -186.000; -156.000
270.742; -120.550; -868.000; -943.000
270.883;  -65.025; -442.000; -390.000
271.023;  -58.550; -358.000; -357.000
271.164;  -71.550; -607.000; -528.000
271.305; -105.250; -666.000; -654.000
271.445;  -89.175; -722.000; -683.000
271.586;  -79.500; -462.000; -283.000
271.726;  -33.650; -397.000; -322.000
271.867;  -68.875; -594.000; -534.000
272.008;  191.025; -473.000; -285.000
272.148;  150.025;  462.000;  468.000
272.289;   18.250; -113.000; -181.000
272.429;   19.350;   19.000;  185.000
272.570;  -92.575; -633.000; -737.000
272.710; -113.750; -825.000; -775.000
272.851;  -26.525;  113.000; -130.000
272.991; -167.050;-1173.000;-1077.000
273.131;  -72.950; -419.000; -459.000
273.272; -100.275; -683.000; -723.000
273.412;   18.775; -143.000;  -31.000
273.553;  -54.275; -488.000; -507.000
273.693;  132.975;  913.000;  858.000
273.834;  -96.075; -894.000; -692.000
273.974;  -82.275; -664.000; -615.000
274.114;  -98.575; -772.000; -560.000
274.255;   84.525;  414.000;  373.000
274.395;   -2.025; -180.000; -125.000
274.535;   49.250;  199.000;  350.000
274.676;   27.050;  225.000;   94.000
274.816;    8.525;  110.000;   34.000
274.956;  -87.450; -624.000; -690.000
275.097;  -54.950;-1014.000; -922.000
275.237; -107.875; -913.000; -803.000
275.377; -114.200; -778.000; -689.000
275.517; -149.575; -878.000; -937.000
275.658;  -63.775; -590.000; -555.000
275.798;  -69.150; -606.000; -413.000
275.938;   28.000;  215.000;  323.000
276.078;  -97.475; -626.000; -395.000
276.218;   10.875;   99.000;  104.000
276.359;  -79.350;-1026.000;-1024.000
276.499;  -51.450; -605.000; -446.000
276.639;  -41.075; -305.000; -151.000
276.779;  -41.925; -475.000; -357.000
276.919; -110.950; -783.000; -624.000
277.059;  -32.325; -261.000; -212.000
277.199;  -51.900; -357.000; -259.000
277.340;   49.125;  287.000;  175.000
277.480; -110.400; -840.000; -693.000
277.620;   16.100;  192.000;   16.000
277.760; -201.475;-1533.000;-1294.000
277.900;   23.825;  113.000;   33.000
278.040;   18.450;  137.000;  159.000
278.180;   35.625;  270.000;  170.000
278.320;  -12.250;   21.000;   56.000
278.460;  -67.175; -443.000; -469.000
278.600;  -89.075; -708.000; -598.000
278.740;   44.975;  448.000;  224.000
278.880;  -43.300; -768.000; -791.000
279.020;   -0.800; -194.000; -144.000
279.160; -106.600; -672.000; -595.000
279.300; -120.650; -926.000; -873.000
279.440;  -95.050; -709.000; -622.000
279.579;  -12.350;-1014.000; -929.000
279.719;  -54.900; -410.000; -394.000
279.859;   74.800;   -4.000;   41.000
279.999;   31.400; -208.000;  101.000
280.139;  -24.125; -435.000; -387.000
280.279;  -71.775; -708.000; -745.000
280.419;   -9.550; -229.000; -147.000
280.559;  -35.775; -259.000; -180.000
280.698; -103.125; -790.000; -639.000
280.838;  -97.450; -778.000; -800.000
280.978; -102.600; -846.000; -790.000
281.118; -117.550; -811.000; -704.000
281.257;    5.525;   24.000;    6.000
281.397; -120.625;-1094.000; -960.000
281.537;  -88.550; -599.000; -712.000
281.677;  -26.500; -150.000; -101.000
281.816;  -89.700; -700.000; -630.000
281.956;  -35.725; -193.000; -257.000
282.096;  -63.000; -539.000; -396.000
282.235; -110.475; -672.000; -638.000
282.375;   -5.275; -243.000;  -98.000
282.515; -110.550; -715.000; -707.000
282.654;   17.325;   29.000;  106.000
282.794;   20.700;  388.000;  244.000
282.934;  -47.125; -530.000; -491.000
283.073; -143.800;-1030.000; -857.000
283.213;  -61.050; -460.000; -467.000
283.353;  -31.475; -408.000; -349.000
283.492;  -36.625; -264.000; -296.000
283.632;  -46.250; -254.000; -168.000
283.771;  -98.325; -859.000; -730.000
283.911;  -55.450; -369.000; -260.000
284.050; -113.100; -794.000; -748.000
284.190; -163.125;-1229.000;-1096.000
284.329; -149.000;-1055.000; -964.000
284.469;  -72.825; -516.000; -591.000
284.608;  -51.975; -559.000; -598.000
284.748; -102.925; -614.000; -570.000
284.887;  -13.600;  -87.000;  -20.000
285.027; -121.125; -844.000; -892.000
285.166;  -34.425; -192.000; -249.000
285.306;   -5.975; -116.000;  -33.000
285.445;  -49.625; -229.000; -343.000
285.584;  -96.650; -630.000; -494.000
285.724;  -40.275; -282.000; -322.000
285.863; -110.675; -857.000; -507.000
286.002;  -57.750; -366.000; -276.000
286.142; -122.425; -715.000; -622.000
286.281;  -61.375; -525.000; -493.000
286.420;  -76.600; -554.000; -417.000
286.560;  104.900;  653.000;  623.000
286.699; -143.150; -958.000; -912.000
286.838;  -91.275; -590.000; -591.000
286.978;  -93.275; -533.000; -537.000
287.117; -132.075;-1085.000; -950.000
287.256;  -34.000; -228.000; -211.000
287.395;  -48.725; -197.000; -378.000
287.535;  -54.725; -370.000; -298.000
287.674;  -94.525; -509.000; -484.000
287.813;   48.925;  661.000;  533.000
287.952; -124.950;-1010.000; -871.000
288.091; -167.600;-1049.000; -915.000
288.231;   11.875;   13.000;   15.000
288.370; -190.525;-1217.000;-1200.000
288.509;  -98.225; -728.000; -645.000
288.648; -103.175; -770.000; -548.000
288.787;  -32.725; -243.000;  -87.000
288.926;  -66.050; -454.000; -475.000
289.065;  127.575;  859.000;  672.000
289.204;  -63.800; -377.000; -217.000
289.344;  -91.475; -791.000; -690.000
289.483;   22.100;  416.000;  304.000
289.622;  -19.250; -291.000; -149.000
289.761;   -0.725; -309.000; -166.000
289.900; -110.200; -785.000; -626.000
290.039;  -26.325;  -12.000;  -95.000
290.178;  -20.650; -274.000; -180.000
290.317;  -93.725; -618.000; -479.000
290.456;  -69.075; -463.000; -451.000
290.595; -144.700; -961.000; -833.000
290.734; -143.200; -904.000; -891.000
290.873;  -81.200; -456.000; -420.000
291.011; -105.600; -833.000; -843.000
291.150; -105.225; -770.000; -682.000
291.289;  -23.575; -343.000; -110.000
291.428; -108.225; -599.000; -480.000
291.567;  -69.900; -370.000; -442.000
291.706;  -10.450;  109.000;  154.000
291.845;  -98.675; -597.000; -505.000
291.984; -171.025;-1234.000;-1061.000
292.122;   58.725;  602.000;  582.000
292.261;   33.275;  620.000;  463.000
292.400;   14.900; -144.000;  211.000
292.539; -116.825; -959.000; -813.000
292.678;  -36.375; -325.000; -300.000
292.816; -160.200;-1136.000; -965.000
292.955;  -88.975; -844.000; -684.000
293.094;  -24.075; -173.000; -337.000
293.233;  -48.650; -556.000; -400.000
293.371;  -42.075; -225.000;  -84.000
293.510;  -99.775; -866.000; -780.000
293.649; -126.800; -959.000; -924.000
293.787;  -58.450;-1083.000;-1012.000
293.926;   -6.675; -113.000;  -32.000
294.065;  -46.875; -379.000; -290.000
294.203;   52.525;  298.000;  406.000
294.342;   16.100;   74.000;  156.000
294.481; 6288.825;51180.000; -836.000
294.619;  -28.100; -425.000; -582.000
294.758; -152.575;-1230.000;-1137.000
294.896;   81.025; -125.000;    5.000
295.035; -120.975;-1040.000;-1006.000
295.174; -116.400;-1082.000; -954.000
295.312;  -45.350; -323.000; -203.000
295.451;   -1.800; -307.000; -428.000
295.589;  -53.850; -389.000; -518.000
295.728;   23.325; -292.000; -165.000
295.866;    4.900;  -36.000;  -51.000
296.005;  -69.725; -584.000; -341.000
296.143;  -86.200; -558.000; -596.000
296.282;  -98.975; -957.000; -881.000
296.420;  -89.100; -657.000; -557.000
296.559;  -76.675; -892.000; -633.000
296.697;   19.450; -847.000; -665.000
296.835;   89.300;-1141.000;-1002.000
296.974;   45.250;  -23.000;   39.000
297.112;   21.150; -443.000; -504.000
297.251;  -64.475; -815.000; -755.000
297.389;  112.850; -576.000; -438.000
297.527;   59.850; -145.000;  -83.000
297.666;  -44.850; -486.000; -438.000
297.804;  -67.725; -404.000; -264.000
297.942;    5.675; -136.000; -161.000
298.081;  -10.375; -183.000;   63.000
298.219;   85.800;  -17.000;  -19.000
298.357;   56.775; -144.000;  -71.000
298.495;   42.850; -810.000; -812.000
298.634;   79.950;  245.000;  219.000
298.772;   59.150; -220.000; -338.000
298.910;  -35.000; -309.000; -182.000
299.048;    3.000; -130.000; -153.000
299.187;  -23.725; -350.000; -250.000
299.325;   24.750;   52.000;  122.000
299.463;   55.125; -389.000; -299.000
299.601;  134.250; -327.000; -271.000
299.739; -105.425; -908.000; -883.000
299.877;  -86.975; -791.000; -703.000
300.016;  -48.675;-1095.000; -935.000
300.154;  199.075;  -19.000; -161.000
300.292;   74.125; -428.000; -348.000
300.430;   33.725; -408.000; -291.000
300.568; -106.350; -940.000; -874.000
300.706;  -55.550; -366.000; -469.000
300.844;  -70.075;-1108.000; -979.000
300.982;  135.000;  246.000;  282.000
301.120; -110.475; -965.000; -866.000
301.258;  -52.500; -812.000; -705.000
301.396;   29.850;  104.000;  -41.000
301.534;   96.200; -218.000; -293.000
301.672;   15.950; -664.000; -521.000
301.810;   37.500; -613.000; -545.000
301.948;  133.150;   53.000;  149.000
302.086;  671.875; -250.000;  -32.000
302.224; 1090.425; -610.000; -585.000
302.362;   54.375; -558.000; -622.000
302.500;   -3.575; -923.000; -893.000
302.638;  124.100;  128.000;  245.000
302.776;    3.175; -352.000; -408.000
302.913;   52.975;  447.000;  236.000
303.051;   -9.175;  -86.000;  -23.000
303.189;   56.225;   90.000;  118.000
303.327;  -47.350; -341.000; -256.000
303.465;  -82.125; -832.000; -588.000
303.603; -108.325; -805.000; -604.000
303.740;  105.300;  417.000;  241.000
303.878;   22.200; -800.000; -759.000
304.016;  -92.325; -915.000; -790.000
304.154; -135.075;-1123.000;-1152.000
304.291;  -28.550; -505.000; -554.000
304.429;    2.800;  102.000;   74.000
304.567; -128.100; -908.000; -893.000
304.705;  -68.600; -408.000; -515.000
304.842;  103.275; -616.000; -540.000
304.980;   55.650;  215.000;   35.000
305.118;   54.950; -367.000; -365.000
305.255;  -65.425; -945.000; -927.000
305.393;   63.050;  178.000;  239.000
305.531;  -98.350;-1173.000; -956.000
305.668;  -64.500; -663.000; -582.000
305.806;   92.900; -358.000; -439.000
305.943;  130.075; -629.000; -637.000
306.081;   64.425; -378.000; -267.000
306.219;  -98.675; -863.000; -748.000
306.356;   -1.775;  158.000;   27.000
306.494;   95.775;  981.000;  761.000
306.631;   -2.750;  -11.000;  -55.000
306.769;   21.075; -613.000; -485.000
306.906;  -23.675; -284.000; -258.000
307.044;  -71.725; -473.000; -488.000
307.181;  -70.125; -410.000; -332.000
307.319;   14.875;  112.000;   87.000
307.456; -184.775;-1191.000;-1153.000
307.594; -101.800; -980.000; -727.000
307.731;   -8.150; -371.000; -164.000
307.868;    8.700;  -15.000;   20.000
308.006; -144.300; -961.000; -847.000
308.143;  -66.325; -618.000; -330.000
308.281;  129.200;  -37.000; -254.000
308.418;  -36.325; -748.000; -640.000
308.555;  -73.150; -400.000; -250.000
308.693;  -72.950; -577.000; -573.000
308.830;  -98.150; -712.000; -657.000
308.967;   -7.150; -215.000;  -95.000
309.105;  -55.375; -507.000; -396.000
309.242;   14.550; -468.000; -367.000
309.379;  252.050; -577.000; -655.000
309.517;  -74.125; -936.000; -948.000
309.654; -100.175; -910.000; -734.000
309.791;  -74.325; -662.000; -580.000
309.928; -111.600; -977.000; -914.000
310.065;  197.650;  819.000;  697.000
310.203;   -2.350; -825.000; -850.000
310.340;   -9.675; -465.000; -321.000
310.477;  -82.050; -412.000; -516.000
310.614;  -61.150; -383.000; -473.000
310.751;  -85.625; -427.000; -518.000
310.889;  -17.000;    1.000;   11.000
311.026; -154.100;-1161.000; -939.000
311.163;  -63.400; -386.000; -380.000
311.300;  -81.000; -512.000; -479.000
311.437;  -80.750; -658.000; -619.000
311.574; -165.325;-1226.000; -985.000
311.711;  -52.725; -595.000; -433.000
311.848;  -39.675; -380.000; -388.000
311.985;    9.025;  270.000;   93.000
312.122; -113.225; -932.000; -762.000
312.259; -120.625; -941.000; -994.000
312.396;  -85.100; -508.000; -551.000
312.533; -105.175; -812.000; -790.000
312.670; -132.975;-1070.000; -898.000
312.807;  -28.800; -352.000; -367.000
312.944;  -88.275; -513.000; -611.000
313.081;  -40.000; -150.000; -415.000
313.218;  -89.525;-1111.000; -867.000
313.355;   19.700; -531.000; -449.000
313.492;    2.900; -455.000; -292.000
313.629;  127.875;  815.000;  735.000
313.766; -165.750;-1176.000;-1008.000
313.902;  -14.225; -186.000;   21.000
314.039;  -51.250; -372.000; -289.000
314.176;   35.650;  286.000;  192.000
314.313;  -72.650; -569.000; -473.000
314.450;  -63.175; -788.000; -684.000
314.587;  -73.325; -468.000; -480.000
314.723;    3.100;  -78.000;  130.000
314.860;   41.725;  318.000;  332.000
314.997;   28.425;  223.000;  142.000
315.134;  -49.250; -385.000; -368.000
315.270;  -33.275; -480.000; -496.000
315.407; -133.525;-1094.000; -967.000
315.544;  -48.325; -657.000; -538.000
315.681;  -65.350; -681.000; -565.000
315.817;   40.825; -133.000; -176.000
315.954;   -1.500; -613.000; -392.000
316.091; -122.600;-1045.000;-1023.000
316.227;  -22.375;  -71.000; -179.000
316.364;   -5.300;   23.000;    6.000
316.500;  -39.750; -113.000; -300.000
316.637;  -51.525; -181.000; -302.000
316.774;  -87.500; -625.000; -358.000
316.910;  -93.200; -598.000; -629.000
317.047;  -72.675; -487.000; -351.000
317.183;  -39.525; -435.000; -566.000
317.320;  -20.825; -367.000; -321.000
317.456;  -67.850; -733.000; -805.000
317.593;  -88.675; -598.000; -641.000
317.729;    9.025;  168.000;  -67.000
317.866; -202.300;-1434.000;-1285.000
318.002;  -92.325; -708.000; -948.000
318.139; -108.450; -883.000; -867.000
318.275; -109.575;-1003.000; -738.000
318.412;  -59.450; -517.000; -336.000
318.548;  -35.550; -751.000; -720.000
318.685;  -94.525; -985.000; -888.000
318.821;  -90.725; -762.000; -735.000
318.957;  -21.275;   34.000;  -23.000
319.094;   53.725;  297.000;  154.000
319.230;  -66.050; -756.000; -742.000
319.367;  166.725; -471.000; -520.000
319.503;   64.500; -538.000; -436.000
319.639;  -85.225; -877.000; -793.000
319.775;  -67.600; -750.000; -685.000
319.912;  -58.775; -424.000; -519.000
320.048;  -92.800;-1184.000;-1184.000
320.184;   68.250;   59.000;   70.000
320.321;  -59.125; -497.000; -467.000
320.457;   55.450;  475.000;  662.000
320.593;  -77.050; -375.000; -382.000
320.729; -105.325; -732.000; -734.000
320.866;  -80.250; -577.000; -635.000
321.002;  -80.775; -759.000; -809.000
321.138;  -10.775; -135.000; -211.000
321.274;   79.300; -148.000; -115.000
321.410;  -30.575; -585.000; -353.000
321.546;  -19.225;-1011.000; -911.000
321.683;   51.550;  400.000;  185.000
321.819;    8.250;  -48.000; -117.000
321.955; -111.275; -743.000; -722.000
322.091;  -34.975; -585.000; -540.000
322.227;   -3.375; -382.000; -202.000
322.363;  -14.425; -320.000; -215.000
322.499;  -49.375; -343.000; -331.000
322.635;  178.500;  636.000;  443.000
322.771;   30.325; -139.000;   12.000
322.907;  107.150;  129.000;  327.000
323.043;  -15.425; -115.000; -206.000
323.179;  -29.675; -394.000; -363.000
323.315;   39.300; -401.000; -371.000
323.451;  117.525; -328.000; -236.000
323.587;   84.500;  -60.000;  -77.000
323.723;   30.775; -682.000; -601.000
323.859;   -9.100; -258.000;  -76.000
323.995;  -25.500; -467.000; -409.000
324.131; -127.900; -967.000; -892.000
324.267;  -45.975; -254.000; -276.000
324.402; -126.400; -960.000; -983.000
324.538;  -11.175; -279.000; -104.000
324.674;   22.750;  164.000;   77.000
324.810;  138.900;  226.000;  308.000
324.946;   12.600; -810.000; -658.000
325.082;  -62.650; -568.000; -475.000
325.217;   -7.125;  -62.000;   16.000
325.353;  -98.125; -764.000; -659.000
325.489;  -94.200; -540.000; -506.000
325.625;  -74.850; -579.000; -525.000
325.760;   59.450;  517.000;  376.000
325.896;  -14.200; -515.000; -702.000
326.032;  -47.875; -403.000; -352.000
326.168;  -67.275; -462.000; -369.000
326.303;  -66.500; -352.000; -461.000
326.439;  -15.025; -336.000; -276.000
326.575;   -2.875; -190.000;  -29.000
326.710;   -0.250; -156.000;  -30.000
326.846;   -8.625;  146.000;  103.000
326.982;  -91.825; -530.000; -548.000
327.117;  -63.625; -481.000; -442.000
327.253;  -96.250; -745.000; -742.000
327.388; -139.450;-1137.000;-1153.000
327.524;  -55.700; -811.000; -578.000
327.659;  -31.375;  -58.000;  -22.000
327.795;  -23.825;   69.000;   45.000
327.931;  -90.675; -723.000; -499.000
328.066;  -30.175; -417.000; -276.000
328.202;  -12.025;   12.000; -129.000
328.337;  114.550;  957.000;  713.000
328.473;   43.250;  -12.000;  -74.000
328.608;  -21.050; -256.000; -267.000
328.743;  -90.825; -799.000; -664.000
328.879;   16.725;  214.000;  114.000
329.014;  -44.625; -102.000; -122.000
329.150;  -83.200; -358.000; -483.000
329.285;  -82.450; -465.000; -466.000
329.421;  -55.075; -548.000; -246.000
329.556;  -37.250;  -36.000;   85.000
329.691;  -88.775; -633.000; -615.000
329.827;  -94.200; -626.000; -480.000
329.962;  -53.825;  131.000; -301.000
330.097; -111.925; -673.000; -585.000
330.233;  -51.650; -410.000; -223.000
330.368; -128.325; -839.000; -628.000
330.503;  -20.050;    3.000;   98.000
330.638;   -0.825;  -93.000; -125.000
330.774;  -51.750; -609.000; -530.000
330.909;  -42.425; -434.000; -244.000
331.044;  -97.375; -714.000; -708.000
331.179; -185.150;-1217.000;-1109.000
331.315;   15.150;   77.000;   20.000
331.450;    0.375;  157.000;  285.000
331.585;  -89.650; -805.000; -706.000
331.720;  -86.925; -510.000; -460.000
331.855;   -8.250;  -35.000; -102.000
331.990;  244.175;   62.000;  138.000
332.126;  129.550; -110.000;   71.000
332.261;  -28.525; -379.000; -265.000
332.396;   12.375; -135.000; -242.000
332.531; -103.400;-1074.000;-1031.000
332.666;   24.500; -519.000; -363.000
332.801; -102.825; -726.000; -807.000
332.936;   -9.950; -192.000; -122.000
333.071; -147.050; -870.000; -817.000
333.206;   19.075;  307.000;  379.000
333.341;   33.000;  344.000;  418.000
333.476;  -97.600; -627.000; -623.000
333.611;  -42.875; -251.000; -173.000
333.746;  -47.450; -381.000; -464.000
333.881; -118.075; -973.000; -935.000
334.016; -137.325; -936.000; -917.000
334.151; -128.050; -746.000; -702.000
334.286;   22.250;  152.000;  186.000
334.421;  -11.900; -125.000; -178.000
334.556;  -76.325; -611.000; -567.000
334.690;  -81.425; -631.000; -577.000
334.825;   55.700;  381.000;   83.000
334.960;  -59.975; -285.000; -413.000
335.095;   20.350;  135.000;  -91.000
335.230; -110.325; -722.000; -738.000
335.365; -136.575;-1084.000; -990.000
335.499; -136.050;-1108.000;-1037.000
335.634;   28.600;    9.000;  534.000
335.769;  -90.450; -755.000; -720.000
335.904;  -62.075; -603.000; -561.000
336.038;  -67.900; -735.000; -657.000
336.173; -104.825;-1206.000;-1194.000
336.308;   15.400; -116.000; -189.000
336.443;   29.075; -544.000; -634.000
336.577;  -68.650; -936.000; -787.000
336.712;   78.325;   -4.000;  -12.000
336.847;  -26.675; -724.000; -607.000
336.981;   90.925; -272.000; -208.000
337.116;  326.200;  615.000;  501.000
337.250;  188.500; -434.000; -421.000
337.385;  227.775; -297.000; -208.000
337.520;   65.450; -632.000; -603.000
337.654;  -48.075; -215.000; -126.000
337.789; -130.875; -989.000; -933.000
337.923;  -31.350; -104.000; -205.000
338.058;  -91.200; -673.000; -738.000
338.192;  -21.325; -611.000; -488.000
338.327;  -16.075;  -18.000; -155.000
338.461;  -64.800; -299.000; -469.000
338.596; -109.100; -780.000; -638.000
338.730;  -88.275; -767.000; -803.000
338.865;   75.250;  -46.000; -140.000
338.999;  -56.850; -846.000; -702.000
339.134;  -35.300; -634.000; -536.000
339.268;    5.325; -741.000; -603.000
339.403;  360.700; -740.000; -775.000
339.537;  101.225; -894.000; -820.000
339.671; -111.900; -829.000; -813.000
339.806;  -72.300; -556.000; -512.000
339.940;   -0.250; -261.000; -235.000
340.074;  -97.475; -685.000; -510.000
340.209;  -50.850; -351.000; -230.000
340.343; -101.350; -517.000; -573.000
340.477;  141.475;  998.000; 1036.000
340.612;  -64.075;-1033.000; -900.000
340.746;  140.325; -199.000; -243.000
340.880;  -73.850; -924.000; -785.000
341.014;  -21.000;  -45.000; -154.000
341.149; -104.500; -756.000; -718.000
341.283; -110.100; -839.000; -754.000
341.417;  -89.950;-1124.000; -938.000
341.551;  172.100; -768.000; -708.000
341.685;  -28.350; -633.000; -611.000
341.820;  -51.975; -562.000; -493.000
341.954;  -46.700; -218.000; -349.000
342.088; -141.000;-1102.000;-1019.000
342.222;   50.875;  565.000;  618.000
342.356;  -55.225; -395.000; -335.000
342.490;  -93.525; -880.000; -841.000
342.624;  -51.050; -339.000; -242.000
342.758;   16.400; -364.000; -312.000
342.892;  -58.000; -710.000; -585.000
343.026;  -34.625;  -58.000; -116.000
343.160;  -56.175; -426.000; -376.000
343.294;  -84.300; -474.000; -337.000
343.428;  -20.175; -488.000; -448.000
343.562;   -2.625; -172.000;  -23.000
343.696;  -18.600; -385.000; -314.000
343.830;   -8.475; -362.000; -356.000
343.964;   22.700; -231.000; -168.000
344.098; 1026.375;  199.000;   70.000
344.232;  840.875; -266.000; -127.000
344.366;   88.200; -567.000; -453.000
344.500;   75.325; -665.000; -744.000
344.634;   32.900; -324.000; -164.000
344.768;   -3.600; -531.000; -341.000
344.902;   26.900;  278.000;  256.000
345.035;  -87.025; -556.000; -496.000
345.169; -135.200; -933.000; -656.000
345.303;  -12.900; -308.000; -482.000
345.437;  -65.675; -826.000; -717.000
345.571;  -76.850; -675.000; -594.000
345.704;  -59.125; -309.000; -532.000
345.838;  -22.950; -331.000; -284.000
345.972;  -40.725; -543.000; -495.000
346.106;  180.300; -179.000; -190.000
346.239;  441.050; -312.000; -243.000
346.373;   13.025; -343.000; -302.000
346.507; -140.000; -950.000; -962.000
346.640;  165.675;  -30.000;   13.000
346.774;  -28.700; -650.000; -797.000
346.908;  -14.350; -138.000;  -11.000
347.041; -102.625; -646.000; -593.000
347.175;    9.225;  259.000;   27.000
347.309;  -64.600; -698.000; -628.000
347.442;  -87.725; -883.000; -732.000
347.576;  309.775;  670.000;  668.000
347.709;  215.875; -123.000;  -52.000
347.843;  -82.825; -933.000; -825.000
347.976;   46.600;  235.000;  294.000
348.110; -183.550;-1268.000;-1186.000
348.243; -116.375; -679.000; -772.000
348.377;    4.250;  -26.000;   60.000
348.510;   48.625;  403.000;  540.000
348.644;  -32.975;  -37.000; -159.000
348.777;    8.550;  180.000;  191.000
348.911;  -42.375; -142.000; -112.000
349.044;  203.050;  471.000;  448.000
349.178;  191.100;-1069.000;-1006.000
349.311;  127.175;  141.000;  255.000
349.444;  -25.600; -927.000; -813.000
349.578;  -11.100; -347.000; -200.000
349.711;  -94.375; -959.000; -862.000
349.845;   15.625; -661.000; -591.000
349.978; -148.700;-1224.000;-1137.000
350.111;  -81.300; -546.000; -612.000
350.244;  -79.650; -596.000; -700.000
350.378;   32.675; -392.000; -393.000
350.511;  -66.550; -393.000; -426.000
350.644; -103.750; -808.000; -806.000
350.778;   15.900;  168.000;  104.000
350.911;    0.300;  134.000;  140.000
351.044;  -83.275; -685.000; -615.000
351.177;  -36.925; -321.000; -281.000
351.310;  -37.900;    3.000; -131.000
351.444;  -76.850; -888.000; -788.000
351.577;  143.400;  140.000;   90.000
351.710;  102.675;  593.000;  417.000
351.843;  -23.700; -165.000;  -77.000
351.976;   15.250;  149.000;  -79.000
352.109;  -89.300; -621.000; -612.000
352.242;  -29.275; -464.000; -419.000
352.376;  -63.850; -580.000; -636.000
352.509;  223.875; -437.000; -356.000
352.642;   33.850; -654.000; -604.000
352.775;   54.900; -141.000;  -98.000
352.908; -116.250; -933.000; -904.000
353.041; -111.050; -814.000; -824.000
353.174;  -64.725; -551.000; -424.000
353.307;  -87.050; -753.000; -764.000
353.440;   85.700;  541.000;  453.000
353.573; -113.925; -957.000;-1008.000
353.706;  -49.875; -384.000; -558.000
353.839;   -4.925; -264.000; -220.000
353.971;  -93.275; -657.000; -512.000
354.104;  -77.500; -896.000; -835.000
354.237;  -37.200; -627.000; -662.000
354.370;  -82.300; -846.000; -879.000
354.503; -171.025;-1231.000;-1308.000
354.636;  -37.800; -529.000; -348.000
354.769; -123.500; -937.000; -860.000
354.902;  -10.075; -230.000; -139.000
355.034;  -29.875; -164.000; -220.000
355.167;  -11.500; -262.000; -162.000
355.300;  -96.000;-1061.000; -880.000
355.433;  938.350;  -71.000;  -14.000
355.565; 1432.475; -402.000; -384.000
355.698;  362.025; -356.000; -296.000
355.831;   -9.675; -882.000; -801.000
355.964;  101.425; -285.000; -170.000
356.096;  -79.275; -856.000; -843.000
356.229;   21.925; -523.000; -530.000
356.362;  302.550; -373.000; -266.000
356.494;  583.725; -229.000; -162.000
356.627;  525.575;  269.000;  377.000
356.760;  649.250;  120.000;   53.000
356.892;  899.250; -286.000; -601.000
357.025;  728.800;  403.000;  389.000
357.157;  663.225; -167.000; -179.000
357.290;  640.750; -856.000; -713.000
357.423;  178.575; -667.000; -556.000
357.555;  137.125; -217.000; -228.000
357.688;  152.550; -483.000; -364.000
357.820;  507.475; -870.000; -877.000
357.953; 4098.225; -563.000; -589.000
358.085;  905.775; -632.000; -612.000
358.218; 1347.525;-1131.000; -932.000
358.350;  245.450;  -58.000;  312.000
358.483; -128.875;-1300.000;-1187.000
358.615;    6.200;-1182.000;-1078.000
358.747;  -37.175;-1187.000;-1058.000
358.880;   26.425; -810.000; -744.000
359.012;  -18.000; -376.000; -202.000
359.145;  -46.675; -480.000; -511.000
359.277;   84.175; -962.000; -913.000
359.409; 3371.775;  536.000;  231.000
359.542;  877.150; -738.000; -688.000
359.674;   72.225;   46.000;   13.000
359.806;  -65.725; -565.000; -438.000
359.939;  -61.650; -617.000; -516.000
360.071;  -19.225; -583.000; -579.000
360.203;  -26.925; -411.000; -364.000
360.335;   57.375;  164.000;  -16.000
360.468;  217.025; -249.000; -307.000
360.600; 2670.050; -547.000; -454.000
360.732; 2728.275; -546.000; -423.000
360.864;  375.200;-1216.000;-1044.000
360.996;  339.500; -516.000; -554.000
361.129;   55.900; -389.000; -598.000
361.261;   30.350;  110.000; -113.000
361.393;  -28.700; -252.000; -214.000
361.525;   46.650;   94.000;  244.000
361.657;  -17.525; -821.000; -703.000
361.789;   19.825; -139.000; -155.000
361.921;  255.700; -642.000; -593.000
362.053;  297.875;  524.000;  541.000
362.185;   56.050;  288.000;   72.000
362.318;  -76.750; -709.000; -705.000
362.450;  142.275;  294.000;  444.000
362.582;  166.225; -913.000; -870.000
362.714;  -30.000; -353.000; -332.000
362.846;  -84.825; -606.000; -490.000
362.978; -141.800; -941.000; -811.000
363.109;   51.375; -161.000; -260.000
363.241;  512.125; -739.000; -749.000
363.373;  427.525; -649.000; -564.000
363.505;  623.375; -186.000;  -91.000
363.637;  144.125; -787.000; -601.000
363.769; -119.275;-1067.000;-1080.000
363.901;  -54.825; -596.000; -654.000
364.033; -128.425;-1103.000;-1062.000
364.165;   11.325; -283.000; -283.000
364.296;   73.100; -316.000; -177.000
364.428;   74.225;-1344.000;-1220.000
364.560;  -68.175; -679.000; -661.000
364.692;  -64.350; -738.000; -835.000
364.824;  304.000; -588.000; -456.000
364.955;  458.675; -402.000; -564.000
365.087;  827.925;-1097.000; -852.000
365.219;   16.575; -686.000; -816.000
365.351;  -70.050; -526.000; -572.000
365.482;   51.600;  300.000;  240.000
365.614;  -48.750; -402.000; -314.000
365.746; -100.825; -729.000; -752.000
365.877; -100.625; -706.000; -672.000
366.009;  257.650;  -35.000;  -62.000
366.141;  -97.950;-1249.000;-1134.000
366.272;  -99.850; -803.000; -719.000
366.404; -110.200;-1005.000; -874.000
366.535;   -2.275; -139.000;  -12.000
366.667; -109.650; -644.000; -649.000
366.799;   28.825;  353.000;  203.000
366.930; -117.850; -862.000; -996.000
367.062;  119.175; -639.000; -613.000
367.193;  119.325; -872.000; -842.000
367.325;  -60.375; -580.000; -684.000
367.456;   87.100; -246.000;   31.000
367.588;  148.825; -371.000; -318.000
367.719;   24.375;  -44.000;  -45.000
367.851;   -2.725; -222.000; -241.000
367.982;  -41.125; -875.000; -732.000
368.113;  128.950; -475.000; -358.000
368.245; -105.625; -960.000; -841.000
368.376;  -27.650; -254.000; -302.000
368.508;  -34.325; -188.000; -263.000
368.639; -122.100;-1166.000;-1034.000
368.770;  -10.575; -670.000; -589.000
368.902;  -59.225; -836.000; -926.000
369.033;  -96.875; -906.000; -855.000
369.164;  -49.250; -720.000; -653.000
369.296; -109.500; -452.000; -601.000
369.427;    3.900; -209.000; -144.000
369.558;  -49.000; -593.000; -377.000
369.689;  -89.950; -721.000; -569.000
369.821; -138.575; -951.000; -845.000
369.952;   -6.700;   42.000; -108.000
370.083;  -45.200; -229.000; -108.000
370.214;  -80.550; -735.000; -650.000
370.345;  -13.575;   65.000;   81.000
370.477;  -80.125; -810.000; -790.000
370.608;  268.950; -328.000; -264.000
370.739;  -30.600;-1233.000;-1292.000
370.870;  -19.100;-1102.000; -923.000
371.001;  112.950; -378.000; -467.000
371.132;  -65.100; -754.000; -735.000
371.263;  -16.000;  -42.000; -148.000
371.394; -130.525; -841.000; -748.000
371.525;   34.450;  345.000;  225.000
371.657;  -95.675; -808.000; -670.000
371.788;   83.225;  103.000;  199.000
371.919;  195.825; -384.000; -304.000
372.050; 4069.800;  -91.000; -156.000
372.181; 1193.125; -188.000; -294.000
372.311;  422.950;   42.000; -127.000
372.442;   42.700; -457.000; -451.000
372.573;  -20.975; -444.000; -340.000
372.704; -133.875;-1008.000; -980.000
372.835;   96.775; -228.000; -289.000
372.966;  -70.150; -646.000; -554.000
373.097;  -55.750; -575.000; -711.000
373.228;  -19.975; -717.000; -542.000
373.359;  164.900; -824.000; -536.000
373.490; 1080.950; -881.000; -727.000
373.620; 1322.200;-1001.000; -803.000
373.751; 2045.575; -332.000; -396.000
373.882;  905.825; -663.000; -733.000
374.013;   68.500; -449.000; -262.000
374.143;  -27.775; -581.000; -659.000
374.274;  -91.875; -987.000; -908.000
374.405;  205.425; -388.000; -276.000
374.536;  527.675; -526.000; -387.000
374.666; 1312.875; -759.000; -807.000
374.797;  266.075; -817.000; -868.000
374.928;  999.550; -710.000; -560.000
375.058;  998.800; -535.000; -500.000
375.189;   90.300;  -59.000;  -93.000
375.320;  -96.250; -928.000;-1034.000
375.450;  -32.575; -625.000; -616.000
375.581;  -53.425; -526.000; -436.000
375.712;  -24.050; -574.000; -250.000
375.842;  361.325; -438.000; -415.000
375.973;  258.750; -554.000; -513.000
376.103;  -44.750; -665.000; -648.000
376.234;  -85.625; -531.000; -552.000
376.364;  -44.350; -944.000; -867.000
376.495;  369.550;  925.000;  529.000
376.625;   -5.325; -472.000; -485.000
376.756;   81.250; -709.000; -678.000
376.886;  -70.300;-1178.000;-1026.000
377.017;   43.475;-1048.000;-1061.000
377.147;  324.800; -786.000; -782.000
377.278;   64.250;  174.000;  228.000
377.408; -125.700; -801.000; -815.000
377.538; -106.525; -707.000; -693.000
377.669;  -80.700; -537.000; -613.000
377.799;  -80.600; -645.000; -635.000
377.929;  -47.025; -610.000; -428.000
378.060; -136.850; -781.000; -847.000
378.190;  -48.450; -726.000; -531.000
378.320;  -51.000; -401.000; -406.000
378.451;   -8.575; -131.000;  -22.000
378.581;   -3.625;  -67.000; -110.000
378.711;  161.450; 1035.000;  866.000
378.841;   -8.000; -533.000; -675.000
378.972;  -66.100; -871.000; -751.000
379.102;    6.975; -652.000; -579.000
379.232;  -12.850; -126.000;  -73.000
379.362; -100.525;-1001.000; -885.000
379.492;   26.150; -373.000; -424.000
379.623;  131.225;    0.000;  111.000
379.753;  -93.500;-1107.000; -974.000
379.883;  223.075;   59.000;  156.000
380.013;   21.150;-1081.000;-1017.000
380.143;  -98.875;-1097.000;-1056.000
380.273;  -98.525; -985.000; -861.000
380.403;   11.200; -344.000; -257.000
380.533;  -23.850; -651.000; -664.000
380.663;   75.925;  173.000;  128.000
380.793;  -94.650;-1027.000;-1074.000
380.923;  -14.475; -103.000;  -34.000
381.053; -106.100; -613.000; -623.000
381.183;  -32.400; -106.000; -248.000
381.313;   46.925; -656.000; -470.000
381.443;   61.950; -692.000; -473.000
381.573;  224.800; -402.000; -409.000
381.703;  328.400;-1249.000;-1095.000
381.833; -125.375;-1454.000;-1336.000
381.963;  129.200; -134.000;  -87.000
382.093; 1580.900; -925.000; -909.000
382.223;  456.450; -713.000; -602.000
382.353;    0.575; -801.000; -608.000
382.482;  431.200;-1091.000; -964.000
382.612;  857.425; -872.000; -644.000
382.742;  479.750; -695.000; -622.000
382.872;  317.225; -565.000; -551.000
383.002;   63.850;  347.000; -132.000
383.131;  -19.950; -226.000; -160.000
383.261;  -40.675; -706.000; -768.000
383.391;  299.525; -552.000; -377.000
383.521; 3068.375;  451.000;  263.000
383.650;  670.350; -947.000; -904.000
383.780;  -15.200; -783.000; -656.000
383.910;  122.775;  880.000;  802.000
384.039;   43.075; -794.000; -656.000
384.169;  257.700;-1205.000;-1017.000
384.299;  -21.925; -650.000; -662.000
384.428;  -94.600; -764.000; -680.000
384.558;  -54.700; -308.000; -275.000
384.687;  -35.125; -414.000; -334.000
384.817;    7.075;   75.000;   -2.000
384.947;   27.900; -234.000; -141.000
385.076;  326.500;  982.000;  912.000
385.206;   97.925;  369.000;  480.000
385.335;  -23.975; -549.000; -417.000
385.465;  -76.725; -655.000; -663.000
385.594;  169.500;  -53.000;  -44.000
385.724;  498.725; -868.000; -838.000
385.853;  147.950; -296.000; -270.000
385.982; 1563.800; -743.000; -787.000
386.112; 2417.925;-1052.000; -871.000
386.241;  156.525; -307.000; -312.000
386.371;   32.450; -174.000;  -87.000
386.500;   17.675; -825.000; -789.000
386.629;   49.050; -874.000; -817.000
386.759;   67.250;  -43.000;   68.000
386.888;   -0.600; -170.000; -250.000
387.017;  -82.800; -648.000; -620.000
387.147;  -81.375; -771.000; -798.000
387.276;   10.925; -410.000; -397.000
387.405;   21.125; -398.000; -342.000
387.535;  -21.550; -452.000; -361.000
387.664;  -59.300; -692.000; -620.000
387.793;   70.400; -198.000; -113.000
387.922;  585.550;  255.000;  200.000
388.052;   20.600; -576.000; -423.000
388.181;   15.550; -342.000; -472.000
388.310;   25.125; -889.000; -710.000
388.439;  -35.550; -749.000; -742.000
388.568;  232.350;  365.000;  244.000
388.697; 1214.000; -756.000; -653.000
388.826;  254.050; -768.000; -666.000
388.956;   79.675; -285.000; -307.000
389.085;  -37.475; -347.000; -287.000
389.214; -114.725; -842.000; -872.000
389.343;  -62.750; -645.000; -413.000
389.472;  385.600;  126.000;  149.000
389.601;  517.000;   91.000;    0.000
389.730;   22.150; -568.000; -687.000
389.859;   72.950;  226.000;   46.000
389.988;  216.500; -423.000; -408.000
390.117;  158.025; -168.000; -146.000
390.246;    2.050; -331.000; -320.000
390.375;  128.475; -673.000; -626.000
390.504;  -60.300; -703.000; -621.000
390.633; -106.925; -672.000; -726.000
390.761;  -64.375; -732.000; -645.000
390.890;   36.000;   -4.000; -130.000
391.019;  -13.525; -421.000; -441.000
391.148; -123.225; -826.000; -855.000
391.277;  -60.625; -576.000; -493.000
391.406;  -61.000; -821.000; -805.000
391.534;   28.550;  574.000; -301.000
391.663;  -58.650; -583.000; -645.000
391.792;  -75.050; -673.000; -701.000
391.921;  116.875;   -3.000;   15.000
392.050;  221.200; -287.000; -228.000
392.178;  -36.325;-1206.000;-1061.000
392.307;  182.050; -758.000; -712.000
392.436;   89.075; -427.000; -641.000
392.564;   16.525;  166.000;   -6.000
392.693;  -82.950; -860.000; -682.000
392.822;  249.375; -529.000; -534.000
392.950;  115.275; -880.000; -714.000
393.079;  367.275; -188.000; -328.000
393.208;   26.925; -488.000; -511.000
393.336;   -3.700; -170.000; -145.000
393.465;  -47.875; -317.000; -199.000
393.593;    1.525;   62.000;   79.000
393.722; -153.150;-1121.000; -916.000
393.850;  -26.325; -188.000;  -61.000
393.979; -159.400; -926.000; -805.000
394.107;  -50.950; -517.000; -537.000
394.236;  -32.625; -570.000; -507.000
394.364;  183.650;  383.000;  206.000
394.493;  293.325; -911.000; -767.000
394.621;  -33.575; -955.000; -916.000
394.750;  685.475; -873.000; -923.000
394.878; 2875.625; -247.000; -149.000
395.007; 3796.325; -721.000; -807.000
395.135;  267.150; -790.000; -721.000
395.263;  -78.625;-1038.000;-1040.000
395.392;   12.975;  -25.000; -107.000
395.520; -146.000; -818.000; -679.000
395.648;  -77.375; -865.000; -915.000
395.777;  -19.500; -366.000; -405.000
395.905;  -41.200; -449.000; -564.000
396.033;   10.150;  217.000;  172.000
396.162;  486.200; -399.000; -453.000
396.290;  419.800;  -17.000;   -2.000
396.418;  120.825; -555.000; -514.000
396.546;  -66.450; -571.000; -466.000
396.674; -103.225; -850.000; -878.000
396.803;  -11.025;  -72.000;  -23.000
396.931;  107.375; -179.000; -199.000
397.059;   70.650;-1026.000; -989.000
397.187; -104.675;-1026.000; -975.000
397.315; -143.475; -884.000; -649.000
397.443;  -91.575; -592.000; -443.000
397.572;  -84.375; -578.000; -424.000
397.700;   -6.425; -607.000; -614.000
397.828;   38.900;  120.000;  -90.000
397.956;  -40.600; -508.000; -478.000
398.084;  -80.650; -767.000; -626.000
398.212;   47.675;  137.000;  124.000
398.340;    3.750;  -56.000;  159.000
398.468;   34.875; -390.000; -169.000
398.596; -145.125; -993.000; -953.000
398.724; -118.125; -762.000; -767.000
398.852; -165.575;-1024.000; -976.000
398.980;  -59.975; -560.000; -560.000
399.108;  -49.650; -982.000; -735.000
399.236;   30.850;   13.000;    8.000
399.363;    5.250;  222.000;  196.000
399.491;  -60.250; -404.000; -398.000
399.619; -128.450; -829.000; -800.000
399.747;  -97.300; -859.000; -771.000
399.875;   85.775;  220.000;  234.000
400.003;  -43.025; -359.000; -284.000
400.130;  -83.950; -421.000; -341.000
400.258;  -22.800;  -83.000;   38.000
400.386;  -71.450; -352.000; -168.000
400.514;  -27.375; -526.000; -587.000
400.641;  -85.525; -928.000; -802.000
400.769; -142.450; -979.000; -888.000
400.897; -119.575; -838.000; -793.000
401.025;  -15.750; -166.000; -152.000
401.152;   -0.550;  220.000;   38.000
401.280;  -80.250; -430.000; -429.000
401.408; -114.800; -712.000; -576.000
401.535; -108.150; -735.000; -758.000
401.663; -185.850;-1134.000;-1054.000
401.790;  -94.225; -514.000; -525.000
401.918;   45.775;  436.000;  405.000
402.046;  -10.500;  134.000;  122.000
402.173;  -24.875;  -18.000;    7.000
402.301;  -55.325; -519.000; -397.000
402.428;   42.650;  528.000;  383.000
402.556; -142.925;-1188.000; -913.000
402.683;  -39.725;  -20.000;   -1.000
402.811;  -17.200;  -37.000; -206.000
402.938;  -16.050;   20.000;   27.000
403.066;  228.950; -574.000; -558.000
403.193;  364.175;  299.000;  239.000
403.321;  311.300; -396.000; -574.000
403.448;  355.875;   83.000;   27.000
403.575;  172.075;  -90.000;  -46.000
403.703; -116.350; -732.000; -557.000
403.830;  -56.500; -531.000; -496.000
403.957; -147.900;-1117.000;-1023.000
404.085;    9.050;  -61.000; -172.000
404.212;  110.400;  -50.000;   63.000
404.339;  251.275; -566.000; -306.000
404.467; 5619.900; -612.000; -524.000
404.594; 3763.200; -287.000; -227.000
404.721;  916.325; -869.000; -764.000
404.848;   86.875; -113.000; -202.000
404.976; -109.800; -856.000; -783.000
405.103;  -10.925;  -14.000;  -82.000
405.230;   -8.250;  190.000;  226.000
405.357;   23.575;  117.000;   44.000
405.484;  265.050;  -49.000;    5.000
405.612;   41.475; -548.000; -563.000
405.739;  -61.325; -488.000; -243.000
405.866;   91.300;  669.000;  385.000
405.993;  -49.625; -398.000; -102.000
406.120; -137.475; -801.000; -887.000
406.247;  -50.975; -323.000; -342.000
406.374;  514.225;  540.000;  629.000
406.501;  128.400; -632.000; -702.000
406.628;  -74.850; -621.000; -589.000
406.755;  -98.525; -803.000; -620.000
406.882;  -28.475; -228.000; -277.000
407.009; -117.050; -719.000; -628.000
407.136;   78.150; -480.000; -401.000
407.263;  159.650; -939.000; -829.000
407.390;  -83.475; -692.000; -614.000
407.517; -174.700;-1139.000;-1187.000
407.644;  -51.750; -332.000; -256.000
407.771;  -61.550; -249.000; -287.000
407.898;    9.175;  168.000;  328.000
408.025;  -66.325; -421.000; -313.000
408.151;   -7.450;   82.000;  153.000
408.278;  -67.475; -267.000; -216.000
408.405; -116.100; -931.000; -899.000
408.532;  -77.850; -549.000; -542.000
408.659; -130.875; -677.000; -648.000
408.785; -209.250;-1298.000;-1170.000
408.912;  -55.975; -412.000; -296.000
409.039;  -97.375; -610.000; -686.000
409.166; -108.725; -591.000; -555.000
409.292; -125.925; -571.000; -534.000
409.419; -117.250; -665.000; -649.000
409.546;  -85.950; -431.000; -192.000
409.672; -124.350; -713.000; -545.000
409.799;  -34.800;  -36.000;   34.000
409.926;  -37.800; -180.000; -179.000
410.052; -170.025;-1127.000;-1091.000
410.179;  -45.000; -368.000; -392.000
410.305;  -79.550; -375.000; -493.000
410.432;  -50.075; -220.000; -333.000
410.558; -103.275; -305.000; -380.000
410.685;  -99.200; -688.000; -431.000
410.812;  -98.775; -409.000; -588.000
410.938; -132.625; -964.000; -808.000
411.065; -102.300; -671.000; -645.000
411.191;  -13.050; -189.000; -174.000
411.317; -115.150; -823.000; -742.000
411.444;  -71.825; -317.000; -246.000
411.570;  -84.300; -339.000; -294.000
411.697; -127.800; -758.000; -752.000
411.823; -169.550; -989.000; -999.000
411.949;  -39.550;  -56.000;   17.000
412.076; -126.250; -539.000; -519.000
412.202; -116.000; -758.000; -757.000
412.329; -126.325; -798.000; -752.000
412.455; -115.150; -821.000; -657.000
412.581;  -20.900;  -15.000;  172.000
412.707;  -83.325; -540.000; -457.000
412.834;   15.975;  156.000;  219.000
412.960;  -84.825; -785.000; -784.000
413.086;  -96.350; -743.000; -701.000
413.212;  159.625;  604.000;  578.000
413.339;  -69.125; -685.000; -701.000
413.465;   15.925; -364.000; -310.000
413.591;  -97.050; -757.000; -474.000
413.717;  -59.125; -358.000; -366.000
413.843; -139.650; -839.000; -861.000
413.969;  -59.750;  -47.000; -292.000
414.096; -112.325; -679.000; -679.000
414.222;   -8.250;  -33.000;   85.000
414.348;  -25.750; -652.000; -385.000
414.474;  116.975;   38.000;  -52.000
414.600;  -23.175; -126.000; -144.000
414.726;   -5.675;  -96.000;  -55.000
414.852;  -72.100; -365.000; -342.000
414.978;   35.225;  104.000;  -18.000
415.104;   30.075;   38.000;   80.000
415.230;   20.575; -329.000; -330.000
415.356;   30.500; -409.000; -514.000
415.482;  207.225;   13.000;  -35.000
415.608;  254.225; -247.000; -323.000
415.734;  970.050;   67.000;   38.000
415.860;19963.025; -875.000; -767.000
415.986;13839.825; -685.000; -607.000
416.111; 1141.650; -798.000; -652.000
416.237;  227.450; -424.000; -571.000
416.363; 1112.025; -765.000; -733.000
416.489; 4001.275; -324.000; -251.000
416.615;  398.025; -707.000; -742.000
416.741;  -43.125; -677.000; -784.000
416.866;  -92.550; -673.000; -736.000
416.992; -122.975; -801.000; -818.000
417.118;  -33.800;  -41.000;  -80.000
417.244;  -69.625; -798.000; -531.000
417.369;  -93.675; -801.000; -612.000
417.495;   -3.550; -325.000; -254.000
417.621;  -84.225;-1015.000; -803.000
417.746;   12.075; -579.000; -572.000
417.872;   52.950; -254.000; -144.000
417.998;   37.800; -515.000; -530.000
418.123; 1061.825;-1073.000; -845.000
418.249; 5207.475; -512.000; -601.000
418.374;  708.500; -916.000; -824.000
418.500;  100.575; -383.000; -482.000
418.626;  112.650;   70.000;  -59.000
418.751;  115.375; -549.000; -448.000
418.877;  191.000; -637.000; -643.000
419.002; 1809.300; -688.000; -560.000
419.128;12224.550; -930.000; -721.000
419.253; 2855.200; -967.000; -837.000
419.379;  372.375; -391.000; -338.000
419.504;  401.675;  325.000;  415.000
419.629;  516.025; -393.000; -212.000
419.755; 3552.625; -317.000; -254.000
419.880;20284.125;  -98.000;   67.000
420.006;11197.600; -280.000; -221.000
420.131;28472.350; -662.000; -775.000
420.256; 3956.225; -315.000; -316.000
420.382;  527.250; -665.000; -687.000
420.507;   69.975; -649.000; -778.000
420.632;  146.950; -337.000; -339.000
420.758;  287.250; -251.000; -425.000
420.883;  -87.700; -876.000; -672.000
421.008; -102.150; -775.000; -619.000
421.133;  -90.450; -509.000; -467.000
421.259;  -38.675; -325.000; -259.000
421.384; -109.725; -834.000; -693.000
421.509;  -38.650;-1052.000; -862.000
421.634; 1386.925; -936.000; -820.000
421.759;  568.875; -359.000; -327.000
421.885;  -61.675; -717.000; -656.000
422.010;  -83.675; -673.000; -542.000
422.135; -153.175; -695.000; -727.000
422.260;   21.750;  340.000;  280.000
422.385;  -28.225;   12.000;  -98.000
422.510;   24.025;  151.000;  -26.000
422.635;   19.000;  -87.000;  -43.000
422.760;   98.350; -766.000; -791.000
422.885;   55.475;  -57.000;  -80.000
423.010;  -35.925; -112.000; -169.000
423.135; -105.250; -481.000; -561.000
423.260;   -4.150; -150.000; -245.000
423.385;   72.875;  476.000;  222.000
423.510;   51.975;   71.000;  -22.000
423.635;   88.775;  133.000;   45.000
423.760;   47.625;  383.000;  328.000
423.885;   51.450;  336.000;  391.000
424.010;    6.850;  -68.000;  -13.000
424.135;  -17.925;    5.000;  -33.000
424.259;  -79.125; -654.000; -457.000
424.384;  -62.250; -279.000; -272.000
424.509;  -26.225; -260.000; -186.000
424.634; -107.475; -761.000; -623.000
424.759;  -23.575; -688.000; -544.000
424.883;  -17.450; -506.000; -527.000
425.008;  178.850; -502.000; -410.000
425.133; 1944.300; -679.000; -653.000
425.258;  869.825; -517.000; -381.000
425.382; 1189.000; -867.000; -774.000
425.507; 2912.800; -487.000; -543.000
425.632;  447.550; -802.000; -663.000
425.756;  454.550; -256.000; -146.000
425.881; 6464.850; -831.000; -857.000
426.006;16604.050; -604.000; -355.000
426.130; 2543.800; -696.000; -508.000
426.255;  325.500; -611.000; -491.000
426.379;  132.875; -189.000; -577.000
426.504;  374.675;  660.000;  544.000
426.629; 4014.675; -519.000; -466.000
426.753; 2645.900;   64.000;  -46.000
426.878;  306.750; -252.000; -288.000
427.002;  177.750; -651.000; -668.000
427.127; 1628.550;  -35.000; -158.000
427.251;11114.675;  372.000;  401.000
427.375; 3087.050; -191.000; -173.000
427.500; 2562.850; -616.000; -610.000
427.624;  839.425; -234.000; -400.000
427.749;   93.300; -216.000; -225.000
427.873;  -40.825; -499.000; -412.000
427.997;  -42.850; -222.000; -230.000
428.122;   77.150;  795.000;  703.000
428.246;   86.175;  433.000;  434.000
428.371; -136.325; -869.000; -773.000
428.495; -114.025; -624.000; -646.000
428.619;  -41.250; -186.000; -117.000
428.743;   25.625;   65.000;  132.000
428.868;   40.950; -732.000; -643.000
428.992; 1592.675; -219.000; -326.000
429.116;  629.175; -329.000; -357.000
429.240;  305.200;  419.000;  426.000
429.365;  -32.225; -454.000; -574.000
429.489;  -46.700; -638.000; -647.000
429.613;   12.125; -236.000; -177.000
429.737;   23.850; -563.000; -432.000
429.861;  279.650; -247.000; -133.000
429.985; 5505.400; -425.000; -305.000
430.109; 5819.300; -770.000; -908.000
430.234;  649.575;   76.000;  -50.000
430.358;   68.600; -250.000; -160.000
430.482;  -80.275; -672.000; -564.000
430.606;  -72.575; -655.000; -375.000
430.730;   28.900; -437.000; -388.000
430.854;  161.500; -909.000; -835.000
430.978;  -75.375; -795.000; -764.000
431.102;  -87.625; -499.000; -422.000
431.226; -125.100; -874.000; -815.000
431.350;   25.475;  345.000;  422.000
431.474;  -80.875; -661.000; -373.000
431.597; -166.275;-1060.000; -848.000
431.721;  -68.800; -276.000; -267.000
431.845; -133.550; -704.000; -472.000
431.969;  -83.625; -304.000; -349.000
432.093; -104.500; -395.000; -317.000
432.217;  -26.200;   32.000;   82.000
432.341; -102.125; -523.000; -518.000
432.464;    4.150;   96.000;   40.000
432.588;  234.600; -401.000; -329.000
432.712;  111.300;  -52.000;  -52.000
432.836;   47.150;  213.000;  263.000
432.959;  -10.950; -372.000; -311.000
433.083;   83.500;   11.000;    2.000
433.207;  375.650;  285.000;  930.000
433.330; 5020.650; -391.000; -200.000
433.454; 5953.775; -654.000; -638.000
433.578; 3475.225;  583.000;  278.000
433.701;  614.525; -623.000; -675.000
433.825;  150.775; -292.000; -299.000
433.949;  212.775;   28.000;  -72.000
434.072;   62.850; -410.000; -323.000
434.196;  -13.125; -309.000; -117.000
434.319; 3836.925;25482.000;25124.000
434.443;  763.850; -656.000; -603.000
434.566; 2573.325;  281.000;   62.000
434.690;  397.775; -637.000; -383.000
434.813;   47.850; -251.000; -173.000
434.937;  -83.575; -569.000; -696.000
435.060;  -53.200; -423.000; -332.000
435.184;  377.525; -492.000; -217.000
435.307;  184.550;  159.000;  102.000
435.431;  -19.050;  -40.000;   24.000
435.554;  -80.900; -399.000; -240.000
435.677;  -92.425; -350.000; -258.000
435.801;  -52.650;  -25.000;   49.000
435.924;   -8.175;    1.000;  -67.000
436.048; -127.600;-1019.000; -732.000
436.171;  -61.200; -240.000;  -66.000
436.294;  -33.525; -248.000; -229.000
436.417;   83.350; -963.000; -849.000
436.541;  -92.900; -814.000; -840.000
436.664;  -50.825; -242.000; -316.000
436.787;  -29.225;   13.000;  113.000
436.910; -122.275; -792.000; -422.000
437.034;   11.150;  142.000;  143.000
437.157;   73.325;  -11.000;    0.000
437.280;  -52.150; -392.000; -292.000
437.403;  -72.925; -982.000; -869.000
437.526;  773.900; -903.000; -865.000
437.649; 2667.775; -505.000; -332.000
437.772;  383.475; -692.000; -540.000
437.896;  125.950;  700.000;  544.000
438.019; -100.825; -758.000; -503.000
438.142;  -82.175; -596.000; -506.000
438.265;  -10.375; -639.000; -670.000
438.388;  654.750; -520.000; -410.000
438.511;  115.850; -597.000; -394.000
438.634;  -52.700; -247.000; -125.000
438.757; -149.475; -693.000; -619.000
438.880;  -21.375;  -34.000;  -57.000
439.003;  -82.850; -417.000; -437.000
439.126;  -71.375; -287.000; -167.000
439.248;  -74.650;  -98.000; -139.000
439.371;  -41.425;    9.000;  -53.000
439.494;   22.975;  510.000;  439.000
439.617;  -62.200;   65.000;  -88.000
439.740; -184.225; -968.000; -816.000
439.863; -158.425; -755.000; -595.000
439.986; -129.175; -476.000; -431.000
440.108;  -53.650; -161.000; -112.000
440.231; -178.875; -950.000; -836.000
440.354;  -40.200;  -64.000; -150.000
440.477;   52.650; -566.000; -542.000
440.599;    8.725; -200.000; -225.000
440.722; -121.750; -709.000; -586.000
440.845;   70.425;  751.000;  928.000
440.968; -113.725; -415.000; -311.000
441.090;  -68.450; -199.000;  -33.000
441.213; -167.625;-1021.000; -825.000
441.336;  -51.300; -159.000;   -5.000
441.458;  -82.525; -549.000; -396.000
441.581;  -82.700; -628.000; -629.000
441.703;  -66.900; -152.000;   13.000
441.826; -111.075; -557.000; -400.000
441.948;  -53.225;   56.000;   51.000
442.071;   20.450;  555.000;  424.000
442.193; -130.550; -531.000; -485.000
442.316;   16.375;  152.000;   97.000
442.438;   31.600; -233.000;  -10.000
442.561;   82.075;  272.000;  262.000
442.683;  660.175; -809.000; -522.000
442.806; 1353.700;   -8.000;   74.000
442.928;   50.700; -859.000; -604.000
443.051;  -61.100; -577.000; -373.000
443.173;  -91.900; -341.000; -339.000
443.295;  -78.625; -263.000; -371.000
443.418;  -83.850; -321.000;  -29.000
443.540;  -11.650; -106.000;   -4.000
443.662; -120.750; -563.000; -465.000
443.785;    1.825;  335.000;  199.000
443.907; -104.450; -362.000; -208.000
444.029; -131.200; -767.000; -494.000
444.152; -147.625; -644.000; -554.000
444.274;  -32.950;  -18.000;  -24.000
444.396; -117.100; -461.000; -221.000
444.518; -140.625; -691.000; -454.000
444.640; -114.975; -268.000; -111.000
444.763;  -12.275;  388.000;  249.000
444.885; -130.625; -432.000; -392.000
445.007;  -44.825;   35.000;   86.000
445.129; -130.500; -610.000; -515.000
445.251; -111.350; -372.000; -439.000
445.373; -136.950; -537.000; -386.000
445.495;   -3.325;  242.000;  350.000
445.617;   39.675;  853.000;  753.000
445.739;  -61.850; -215.000;  -97.000
445.861;  -34.500; -245.000; -112.000
445.984;  -22.150; -267.000; -101.000
446.105;  250.300; -418.000; -251.000
446.227;  721.375; -176.000;  -19.000
446.349;   -1.675; -358.000; -249.000
446.471;  -98.400; -615.000; -448.000
446.593;  -72.600; -316.000;   19.000
446.715;   -0.775;  -67.000;   41.000
446.837;   63.600;  697.000;  832.000
446.959; -102.575; -457.000; -478.000
447.081; -141.950; -628.000; -518.000
447.203;   43.125;  862.000;  834.000
447.325; -104.625; -270.000;   42.000
447.446;   -2.650;  286.000;  530.000
447.568; -164.350; -921.000; -803.000
447.690;  -71.525; -236.000; -245.000
447.812; -149.875; -798.000; -519.000
447.933;  -38.100;  155.000;  127.000
448.055;  -74.725; -306.000; -261.000
448.177;  175.750;   31.000;   79.000
448.299;  110.175; -935.000; -727.000
448.420;   22.475;  -25.000;  159.000
448.542;  -53.075;   -3.000;   33.000
448.664;  -28.950;  109.000;  322.000
448.785;  -47.450;  265.000;   83.000
448.907;  -75.800; -614.000; -353.000
449.028;  -25.275; -771.000; -471.000
449.150;   61.625;  492.000;  589.000
449.272; -187.775;-1044.000; -913.000
449.393;   21.275;  612.000;  694.000
449.515; -148.500; -634.000; -581.000
449.636;  -63.250; -264.000; -155.000
449.758;   78.525;  763.000;  622.000
449.879;  -88.550; -498.000; -396.000
450.001;  -92.300; -149.000;  -49.000
450.122;  -42.325;  -95.000;  162.000
450.244;  -23.275;   37.000;  364.000
450.365;  -89.225; -495.000; -301.000
450.486;  -44.575;   80.000;  268.000
450.608;   21.375;  393.000;  326.000
450.729;   55.100;  578.000;  645.000
450.850;   -2.050; -574.000; -466.000
450.972;  739.775; -552.000; -389.000
451.093; 4759.725;  190.000;  588.000
451.214; 1963.575; -516.000; -337.000
451.336;  364.550;  773.000;  579.000
451.457;   51.525;  264.000;  393.000
451.578;  -53.000; -118.000;  -74.000
451.699; -134.775; -546.000; -540.000
451.821;  -58.500; -284.000;  -50.000
451.942;  -12.975;  278.000;  285.000
452.063;   38.475;  228.000;  419.000
452.184;  564.975;  -54.000;  -49.000
452.305; 1040.500;  103.000;  170.000
452.427;  104.550; -549.000; -301.000
452.548;   -4.625;   23.000;   79.000
452.669;  -56.550; -257.000;  -89.000
452.790;  -44.325;    3.000;  -18.000
452.911;  -12.325;  195.000;  259.000
453.032;  -70.450; -289.000;  -60.000
453.153;  -38.250;  -29.000;   81.000
453.274;   56.375;  737.000;  868.000
453.395;  -54.875;  -51.000;  175.000
453.516;  125.750; 1317.000; 1388.000
453.637;  -74.900; -205.000; -150.000
453.758;  -47.900;   15.000;   69.000
453.879; -119.275; -462.000; -250.000
454.000;   87.200; 1086.000;  948.000
454.121; -126.350; -554.000; -326.000
454.242; -106.200; -599.000; -383.000
454.362;  -62.725;  -99.000;  114.000
454.483;  -38.150; -309.000; -229.000
454.604;   50.525;  512.000;  580.000
454.725; -123.525; -627.000; -555.000
454.846; -132.325; -474.000; -406.000
454.967;  -27.200;  230.000;  539.000
455.087;  -50.425;  179.000;  153.000
455.208;   27.475;  554.000;  856.000
455.329;  -64.050;  -22.000;   82.000
455.450;   43.050;  473.000;  633.000
455.570;  -95.650; -234.000; -211.000
455.691;  -42.625;  201.000;  407.000
455.812; -122.775; -270.000;  -92.000
455.932;  -83.875;  107.000;  -97.000
456.053;  -82.475;   36.000;   24.000
456.173; -110.475; -433.000; -355.000
456.294; -126.925; -476.000; -303.000
456.415;  -68.650;  -73.000;   70.000
456.535;  -56.325;  297.000;  273.000
456.656;  -48.075;  132.000;  240.000
456.776;  -72.900;    3.000;  298.000
456.897;   -4.800;  308.000;  513.000
457.017;  -78.425; -153.000;   -3.000
457.138;  -97.625; -402.000; -249.000
457.258;  -30.875;  263.000;  224.000
457.379;  -18.825;  509.000;  521.000
457.499;  -37.675;  443.000;  432.000
457.620; -128.350; -407.000; -231.000
457.740; -105.350; -132.000;  -11.000
457.860;  -65.975;   87.000;   44.000
457.981;  -59.200;  132.000;  124.000
458.101;  -79.450;  -89.000;   40.000
458.221;  -26.275;  336.000;  402.000
458.342;  -59.350;   -4.000;  -37.000
458.462;   15.525;  617.000;  352.000
458.582;  -50.650; -302.000; -294.000
458.703;  -13.500;  303.000;  154.000
458.823;  -22.225;   22.000;  163.000
458.943;    9.050;  341.000;  467.000
459.063;  -25.550; 1124.000;  192.000
459.183;  -30.550;  328.000;  313.000
459.304;    7.825;  315.000;  517.000
459.424;  -78.250; -246.000;  -89.000
459.544;  326.600;  388.000;  764.000
459.664;  804.150;  499.000;  506.000
459.784;  289.750; 1004.000; 1175.000
459.904;   61.275;  867.000;  744.000
460.024;   70.275;  867.000;  684.000
460.144;   10.850;  449.000;  554.000
460.264;  -17.750;  515.000;  327.000
460.385; -101.225; -145.000; -119.000
460.505;   28.525;  905.000;  858.000
460.625; -105.650;  -17.000;  -68.000
460.745;  -23.725;  396.000;  541.000
460.864;  -64.450;  153.000;  469.000
460.984;    1.175;  499.000;  573.000
461.104;  130.075; 1656.000; 1775.000
461.224;   11.300;  657.000;  650.000
461.344;  -34.950;  431.000;  360.000
461.464;  -37.425;  258.000;  513.000
461.584;  -10.000;  283.000;  466.000
461.704;  -51.625;   58.000;  108.000
461.824;  -63.575;  238.000;  259.000
461.943;  -51.500;  191.000;  130.000
462.063;  -74.050;    2.000;  324.000
462.183;   35.375;  639.000;  717.000
462.303;   85.425; 1678.000; 1230.000
462.422;   30.875;  781.000;  840.000
462.542;  -56.925;  271.000;  391.000
462.662;   43.950;  353.000;  380.000
462.782;  232.250;  833.000;  572.000
462.901;  470.400;  545.000;  717.000
463.021;  260.500; 1702.000; 1638.000
463.141;   -6.650;  337.000;  770.000
463.260;  -21.850;  614.000;  474.000
463.380;   21.525;  902.000;  884.000
463.499;  -43.675;  342.000;  332.000
463.619;  -32.600;  581.000;  559.000
463.738;  119.450; 1644.000;  903.000
463.858;   18.625;  657.000;  811.000
463.978;  -41.025;  542.000;  396.000
464.097;   50.375;  921.000; 1114.000
464.217;  103.350; 1196.000; 1143.000
464.336;  105.700; 1068.000; 1130.000
464.455;  -30.150;  328.000;  659.000
464.575;   45.375;  597.000;  602.000
464.694;  180.375; 1204.000; 1179.000
464.814;  124.475; 1190.000; 1138.000
464.933;   69.575; 1095.000; 1027.000
465.052;   83.150; 1412.000; 1054.000
465.172;   88.650;  922.000;  799.000
465.291;  159.700; 1376.000; 1320.000
465.410;    9.925;  462.000;  735.000
465.530;   85.800; 1355.000; 1310.000
465.649;   65.700; 1209.000; 1273.000
465.768;  120.225; 1673.000; 1508.000
465.888;   47.750;  941.000; 1174.000
466.007;   90.050; 1335.000; 1440.000
466.126;   -5.525;  721.000;  641.000
466.245;   37.225; 1176.000; 1187.000
466.364;   20.125;  950.000; 1060.000
466.484;   55.725; 1024.000; 1213.000
466.603;   17.325; 1101.000; 1222.000
466.722;  114.200; 1490.000; 1769.000
466.841;   80.675; 1151.000; 1401.000
466.960;   33.700; 1069.000;  972.000
467.079;  131.175; 1971.000; 1786.000
467.198;   45.250; 1238.000; 1181.000
467.317;   73.075; 1768.000; 1162.000
467.436;   77.250; 1709.000; 1261.000
467.555;  132.050; 1796.000; 1746.000
467.674;   56.500; 1227.000; 1329.000
467.793;   32.675; 1376.000; 1374.000
467.912;   79.850; 1658.000; 1539.000
468.031;  124.825; 2038.000; 1930.000
468.150;  125.025; 1842.000; 1837.000
468.269;  174.950; 2313.000; 2090.000
468.388;  188.575; 2168.000; 2339.000
468.507;  231.550; 2884.000; 2903.000
468.626;  266.975; 2555.000; 2541.000
468.744;  141.550; 2018.000; 2174.000
468.863;  200.950; 2312.000; 2523.000
468.982;   91.525; 1503.000; 1555.000
469.101;  217.125; 2788.000; 2692.000
469.220;  128.450; 2333.000; 2176.000
469.338;  249.150; 2935.000; 3051.000
469.457;  202.100; 2719.000; 2545.000
469.576;  354.650; 3953.000; 3784.000
469.695;  240.725; 2877.000; 3066.000
469.813;  439.800; 4148.000; 4192.000
469.932;  407.175; 4255.000; 4485.000
470.051;  447.050; 4075.000; 4161.000
470.169;  823.850; 4470.000; 4338.000
470.288; 1436.800; 4700.000; 4809.000
470.406;  819.575; 5059.000; 5194.000
470.525;  634.775; 6101.000; 5787.000
470.644;  658.475; 6847.000; 6794.000
470.762;  827.875; 8397.000; 7873.000
470.881;  887.600; 8651.000; 8464.000
470.999; 1057.525; 9685.000; 9151.000
471.118; 1102.125;11174.000;10711.000

