
Integration time [ms]: 200.000
Averaging Nr. [scans]: 10
Smoothing Nr. [pixels]: 0
Data measured with spectrometer [name]: 2101012U2
Wave   ;Sample   ;Dark     ;Reference
[nm]   ;[counts] ;[counts] ;[counts] 

197.733;   98.800;  516.000;  404.000
197.879; -188.600; -610.000; -634.000
198.025; -118.100; -475.000; -420.000
198.171; -171.100; -602.000; -612.000
198.317;  -77.400; -401.000; -316.000
198.463; -125.500; -655.000; -404.000
198.609;   60.800;  181.000; -137.000
198.755; -201.900; -644.000; -410.000
198.901; -154.900; -505.000; -424.000
199.047; -116.600; -615.000; -488.000
199.193;  -89.600; -230.000; -468.000
199.339;  -71.600; -222.000; -369.000
199.485;   79.700;  330.000;  271.000
199.631;   27.900;  227.000;  310.000
199.777; -117.400; -466.000; -398.000
199.923; -131.900; -610.000; -424.000
200.069;   -8.100; -141.000;  -58.000
200.215;  123.100;  128.000;  453.000
200.361;   69.800;  243.000;  477.000
200.507; -137.500; -600.000; -373.000
200.653;  -37.000; -371.000; -194.000
200.798;  -70.500; -215.000; -125.000
200.944;  -30.600; -146.000;  -41.000
201.090;   89.400;   61.000;  222.000
201.236;  -30.600; -116.000; -158.000
201.382;  249.100;  874.000;  903.000
201.528;   -9.000;  -58.000;  -48.000
201.674;  -96.400; -386.000; -293.000
201.819; -114.900; -540.000; -439.000
201.965; -182.300; -699.000; -447.000
202.111;   -9.600; -273.000; -226.000
202.257;  -94.600; -250.000; -238.000
202.402;   -1.500;   13.000;  -36.000
202.548;  -67.100; -169.000; -116.000
202.694;  162.500;  410.000; -183.000
202.840; -139.500; -603.000; -531.000
202.985; -166.000; -681.000; -639.000
203.131; -238.000; -832.000; -666.000
203.277;  -36.000; -199.000; -262.000
203.423; -103.100; -434.000; -520.000
203.568; -107.500; -462.000; -237.000
203.714;  -92.000; -535.000; -542.000
203.860; -191.300; -682.000; -641.000
204.005;    7.900;  112.000;  167.000
204.151;  181.100;  561.000;  556.000
204.296; -105.800; -354.000; -221.000
204.442; -148.700; -600.000; -547.000
204.588; -140.900; -592.000; -579.000
204.733;   48.800;  178.000;  168.000
204.879; -301.800;-1018.000; -822.000
205.025;   28.200;  -99.000;  126.000
205.170;   -1.700;  -17.000;   94.000
205.316;  190.600;  438.000;  661.000
205.461; -187.100; -698.000; -554.000
205.607;  182.800;  609.000;  665.000
205.752; -147.500; -626.000; -551.000
205.898; -130.300; -501.000; -391.000
206.043; -126.400; -578.000; -506.000
206.189; -109.100; -243.000; -285.000
206.334;  164.700;  554.000;  606.000
206.480;  168.700;  409.000;  239.000
206.625; -192.700; -529.000; -552.000
206.771;  -98.900; -451.000; -373.000
206.916;  -66.000; -210.000; -537.000
207.062; -163.000; -545.000; -591.000
207.207; -128.400; -546.000; -443.000
207.353;   91.100;  185.000;  460.000
207.498;    5.700;  196.000;   85.000
207.643;  -94.400; -501.000; -370.000
207.789; -260.600;-1069.000; -910.000
207.934; -188.200; -665.000; -713.000
208.080;  -80.700; -154.000;   66.000
208.225;  -27.900;  -22.000;  -57.000
208.370; -216.300; -727.000; -619.000
208.516; -175.400; -741.000; -487.000
208.661;  -63.900; -127.000;  -69.000
208.806;  -90.300; -165.000; -171.000
208.952; -271.500;-1044.000; -731.000
209.097;  180.800;  378.000;  349.000
209.242; -139.000; -307.000; -382.000
209.387;   97.600;  392.000;  350.000
209.533;  -97.400; -321.000; -350.000
209.678;  147.300;  472.000;  543.000
209.823;  -91.600; -408.000; -310.000
209.969; -239.600; -860.000; -757.000
210.114; -198.900; -907.000; -719.000
210.259; -228.500; -939.000; -889.000
210.404;   -9.300; -171.000;  103.000
210.549;   10.700;  108.000;    3.000
210.695;  -21.100;   -3.000;  -95.000
210.840;   56.200;   94.000;   67.000
210.985; -166.900; -484.000; -303.000
211.130;  142.300;  268.000;  406.000
211.275;   48.100;  207.000;  199.000
211.420; -104.300; -300.000; -289.000
211.566; -131.100; -536.000; -489.000
211.711;   39.100;  218.000;  157.000
211.856; -158.400; -545.000; -519.000
212.001;    7.200;  151.000;   44.000
212.146;  -22.900;  153.000;   49.000
212.291;  -85.100; -210.000; -186.000
212.436;  -30.100; -280.000;   -6.000
212.581; -184.100; -685.000; -653.000
212.726; -166.800; -487.000; -538.000
212.871; -107.500; -552.000; -217.000
213.016; -317.400;-1172.000;-1029.000
213.161;  146.000;  406.000;  291.000
213.306; -132.000; -435.000; -577.000
213.451; -214.300; -778.000; -689.000
213.596; -127.100; -455.000; -347.000
213.741; -110.000; -448.000; -538.000
213.886; -127.400; -498.000; -517.000
214.031;  -43.700; -294.000; -124.000
214.176;  -88.000; -408.000; -341.000
214.321;  -59.600; -296.000; -157.000
214.466;  -21.100; -163.000;  -43.000
214.611;  -22.000;  -61.000;  -10.000
214.756; -254.600; -948.000; -858.000
214.901;  -54.800; -388.000; -226.000
215.046; -256.700; -797.000; -825.000
215.191;   21.700;  128.000;   35.000
215.336;  -19.200; -157.000;  -19.000
215.480; -133.900; -684.000; -505.000
215.625;   -1.900; -175.000;  -19.000
215.770; -178.400; -757.000; -662.000
215.915;    1.700;   -5.000;  -97.000
216.060;    0.600; -113.000;  -21.000
216.205; -225.100; -731.000; -779.000
216.349; -152.800; -470.000; -533.000
216.494; -284.500; -939.000; -867.000
216.639; -245.700; -823.000; -888.000
216.784; -164.700; -577.000; -525.000
216.929;  114.600;  392.000;  281.000
217.073;  -48.900; -244.000;  -31.000
217.218;  -22.400;   78.000;  -47.000
217.363; -175.800; -656.000; -618.000
217.507; -142.200; -623.000; -588.000
217.652; -228.000; -845.000; -874.000
217.797; -188.800; -708.000; -659.000
217.942; -222.800; -856.000; -720.000
218.086;  146.700;  608.000;  539.000
218.231;  -55.100; -174.000;  -26.000
218.376;  -93.300; -337.000; -229.000
218.520;    6.600;  -41.000;   96.000
218.665;  -30.400; -338.000; -204.000
218.810;  -83.000; -275.000; -233.000
218.954;   69.200;  201.000;   35.000
219.099; -234.400; -713.000; -963.000
219.243; -155.700; -589.000; -554.000
219.388;  -66.500; -264.000; -136.000
219.532;    6.700; -116.000; -116.000
219.677; -150.500; -564.000; -521.000
219.822;   30.000;   33.000;   89.000
219.966;    6.900;   17.000;  -99.000
220.111;  -61.700; -328.000;  -40.000
220.255; -198.000; -797.000; -750.000
220.400;  -23.900; -180.000; -146.000
220.544; -137.600; -516.000; -450.000
220.689; -127.900; -422.000; -451.000
220.833;  -42.400; -123.000;  -58.000
220.978;  -87.200; -393.000; -563.000
221.122;   41.800;  319.000;  307.000
221.267; -222.700; -906.000; -837.000
221.411; -149.300; -478.000; -394.000
221.555;  -12.900; -104.000;  -23.000
221.700;  -87.100; -329.000; -222.000
221.844;   84.900;  255.000;  272.000
221.989;  -81.500; -328.000; -311.000
222.133;  -41.800; -289.000; -307.000
222.277;  -46.000;    5.000;   78.000
222.422;   35.500;  227.000;  113.000
222.566;  -55.700; -381.000; -214.000
222.711; -149.500; -414.000; -479.000
222.855; -185.400; -643.000; -586.000
222.999; -174.500; -642.000; -717.000
223.144;  -62.600; -195.000; -194.000
223.288;  105.400;  423.000;  251.000
223.432;   13.400;  184.000;  230.000
223.576;   27.600;  152.000;  -21.000
223.721;  111.500;  364.000;  273.000
223.865; -125.700; -472.000; -475.000
224.009;  501.300; 1673.000; 1631.000
224.153; -167.000; -660.000; -671.000
224.298; -120.300; -531.000; -489.000
224.442;  -35.100;  -74.000;  -33.000
224.586;  -35.900; -169.000; -106.000
224.730; -214.700; -858.000; -670.000
224.875; -218.400; -739.000; -688.000
225.019;   45.200;  102.000;  188.000
225.163;  130.200;  208.000;  341.000
225.307;   25.300;   97.000;  -91.000
225.451;  125.900;  360.000;  481.000
225.595;   44.800;  264.000;  176.000
225.739;  -18.500; -170.000;  -94.000
225.884;   14.300;   86.000;    5.000
226.028; -206.500; -760.000; -626.000
226.172;  -50.800; -260.000; -273.000
226.316; -267.500; -941.000; -902.000
226.460; -152.200; -645.000; -493.000
226.604; -111.300; -406.000; -400.000
226.748; -214.000; -836.000; -733.000
226.892;  -59.300; -227.000; -181.000
227.036; -107.300; -537.000; -447.000
227.180; -131.500; -551.000; -375.000
227.324; -140.300; -561.000; -580.000
227.468; -223.800; -819.000; -717.000
227.612;   12.000;  242.000;  -28.000
227.756; -243.300; -845.000; -698.000
227.900;  138.800;  342.000;  441.000
228.044; -116.900; -509.000; -290.000
228.188;  129.300;  448.000;  568.000
228.332; -192.100; -546.000; -472.000
228.476; -124.100; -223.000; -149.000
228.620;  -53.100; -210.000; -150.000
228.764;  158.200;  431.000;  349.000
228.908;  -20.400; -155.000;   30.000
229.052; -117.400; -615.000; -528.000
229.195;  -22.900; -172.000;   13.000
229.339;  -59.700; -235.000; -305.000
229.483;  -47.200;    5.000; -162.000
229.627;   17.900; -156.000;  139.000
229.771;  -94.500; -218.000; -294.000
229.915;   13.300;  230.000;   79.000
230.059; -212.500; -648.000; -663.000
230.202; -104.800; -370.000; -317.000
230.346;  -51.700; -107.000;  107.000
230.490; -126.600; -489.000; -521.000
230.634; -213.900; -736.000; -553.000
230.777;  162.500;  478.000;  509.000
230.921; -120.800; -450.000; -359.000
231.065;  -65.000; -246.000; -286.000
231.209;   85.500;  261.000;  265.000
231.352;   42.600;   54.000;   40.000
231.496;   66.500;  568.000;  188.000
231.640; -174.600; -693.000; -621.000
231.783;  141.400;  546.000;  525.000
231.927;  -83.700; -294.000; -365.000
232.071; -247.900; -962.000; -736.000
232.214; -247.900; -980.000; -764.000
232.358; -204.100; -683.000; -599.000
232.502;   26.700;  -19.000;    7.000
232.645; -298.200;-1090.000; -927.000
232.789;  -53.000; -257.000; -218.000
232.933;  -79.800; -407.000; -224.000
233.076; -282.500;-1038.000; -897.000
233.220; -241.600; -752.000; -777.000
233.363; -166.500; -669.000; -477.000
233.507;  141.200;  371.000;  129.000
233.650; -195.500; -764.000; -834.000
233.794;   85.300;  438.000;  461.000
233.938;  -92.600; -530.000; -362.000
234.081;  -40.200;  -93.000;   31.000
234.225; -140.900; -631.000; -539.000
234.368; -214.000; -773.000; -723.000
234.512; -117.400; -385.000; -299.000
234.655; -183.300; -582.000; -555.000
234.798; -113.100; -493.000; -466.000
234.942; -260.600; -884.000;-1002.000
235.085; -180.800; -651.000; -443.000
235.229; -146.700; -405.000; -410.000
235.372; -108.500; -247.000; -191.000
235.516; -106.400; -397.000; -321.000
235.659;   51.800;   92.000;  121.000
235.802;  -47.100;  -38.000;  -22.000
235.946;   70.900;  335.000;  215.000
236.089;   46.700;  126.000;  250.000
236.233;   99.500;  275.000;  298.000
236.376; -121.200; -235.000; -378.000
236.519;  -91.500; -297.000; -319.000
236.663;  -24.300; -215.000; -117.000
236.806; -289.900;-1029.000; -999.000
236.949;  142.800;  543.000;  431.000
237.092;  118.200;  412.000;  391.000
237.236; -165.700; -589.000; -502.000
237.379;  147.600;  352.000;  428.000
237.522; -256.200; -879.000; -768.000
237.666;  -45.200; -271.000;   18.000
237.809; -258.000; -851.000; -823.000
237.952;   58.100;  469.000;  271.000
238.095; -137.400; -447.000; -442.000
238.238;  146.100;  688.000;  700.000
238.382;   16.800;  166.000;  103.000
238.525; -160.100; -598.000; -511.000
238.668; -297.000;-1060.000; -985.000
238.811; -176.900; -638.000; -643.000
238.954; -148.000; -483.000; -334.000
239.097;  187.100;  617.000;  664.000
239.241;   85.900;  394.000;  326.000
239.384; -107.000; -254.000; -214.000
239.527; -123.300; -424.000; -224.000
239.670; -285.800; -994.000;-1091.000
239.813; -222.600; -696.000; -658.000
239.956;  203.300;  579.000;  473.000
240.099; -224.300; -778.000; -725.000
240.242;  122.100;  428.000;  432.000
240.385;   79.200;  466.000;  450.000
240.528; -149.800; -706.000; -473.000
240.671;   43.400;  189.000;  134.000
240.814;  -73.500; -441.000; -158.000
240.957; -250.200; -767.000; -578.000
241.100; -210.100; -779.000; -755.000
241.243; -293.000;-1234.000; -893.000
241.386; -112.300; -508.000; -379.000
241.529; -189.700; -735.000; -547.000
241.672; -139.700; -566.000; -495.000
241.815; -232.300; -832.000; -808.000
241.958;  -62.100; -125.000; -182.000
242.101; -167.100; -545.000; -390.000
242.244;  -92.500; -270.000; -325.000
242.387;  -48.000; -304.000; -246.000
242.530;  118.800;  470.000;  134.000
242.673;  -88.800; -381.000; -309.000
242.815; -244.700; -925.000; -899.000
242.958; -135.400; -482.000; -381.000
243.101;   11.000;  132.000;  187.000
243.244; -145.700; -564.000; -521.000
243.387;  -80.700; -313.000; -316.000
243.530; -216.300; -657.000; -674.000
243.672;   11.300;   43.000;  -92.000
243.815; -103.100; -355.000; -283.000
243.958;   24.900;   98.000;  -26.000
244.101;  -13.600;   59.000;  -16.000
244.243;   -5.900;  -47.000;  101.000
244.386; -230.700; -761.000; -630.000
244.529;  -59.100; -132.000; -139.000
244.672; -320.400;-1154.000; -951.000
244.814; -231.300; -621.000; -794.000
244.957;  -91.800; -380.000; -304.000
245.100; -154.400; -489.000; -489.000
245.242; -122.400; -387.000; -374.000
245.385;   19.000;  -59.000;  -39.000
245.528; -238.100; -871.000; -705.000
245.670;  213.900;  612.000;  634.000
245.813; -172.500; -599.000; -547.000
245.956;  -70.700; -324.000; -275.000
246.098; -157.400; -508.000; -650.000
246.241;   14.000;  194.000;   48.000
246.383;  -27.400; -119.000;  -73.000
246.526; -158.100; -454.000; -525.000
246.669; -249.300; -889.000; -780.000
246.811;   68.800;  172.000;   -1.000
246.954; -111.400; -512.000; -426.000
247.096;  -18.800;  -84.000;   -6.000
247.239; -148.500; -482.000; -445.000
247.381; -145.600; -647.000; -488.000
247.524;  158.800;  645.000;  679.000
247.666;  -34.700;   58.000;   11.000
247.809; -229.100; -887.000; -691.000
247.951;    2.600;  -75.000;  138.000
248.094;   62.300;  432.000;  308.000
248.236; -337.800;-1262.000;-1238.000
248.378;  -12.700; -356.000;  -81.000
248.521;  -14.000; -334.000; -337.000
248.663;  -69.700; -236.000; -267.000
248.806;  -73.300; -300.000; -266.000
248.948; -214.700; -886.000; -763.000
249.090;  -99.600; -428.000; -398.000
249.233;  -86.700; -344.000; -381.000
249.375; -151.500; -474.000; -451.000
249.518;  -20.500;  -83.000; -133.000
249.660;   10.700; -103.000;    3.000
249.802; -356.700;-1303.000;-1189.000
249.945; -141.600; -612.000; -540.000
250.087; -221.300; -834.000; -768.000
250.229;  -68.700; -362.000; -480.000
250.371; -149.300; -494.000; -439.000
250.514; -100.600; -310.000; -244.000
250.656; -116.800;   69.000;  102.000
250.798; -232.000; -849.000; -800.000
250.940; -139.100; -322.000; -322.000
251.083;  -56.000; -335.000; -111.000
251.225;  134.600;  338.000;  310.000
251.367;  -80.700; -274.000; -373.000
251.509;  -37.700; -265.000; -210.000
251.651; -196.100; -731.000; -671.000
251.794;  127.500;  538.000;  632.000
251.936; -211.800; -821.000; -747.000
252.078; -163.900; -540.000; -461.000
252.220; -110.300; -645.000; -477.000
252.362;  147.400;  344.000;  462.000
252.504; -147.800; -677.000; -584.000
252.646; -199.100; -875.000; -722.000
252.788;    2.000;   14.000; -128.000
252.931;  -46.800; -257.000; -253.000
253.073;  -95.500; -376.000; -317.000
253.215;    1.000;  141.000;  122.000
253.357;  -17.200;   82.000; -153.000
253.499;  -91.500; -374.000; -234.000
253.641; -185.500; -749.000; -594.000
253.783; -187.300; -609.000; -527.000
253.925; -184.100; -586.000; -591.000
254.067; -220.700; -744.000; -667.000
254.209;  -40.800; -391.000; -259.000
254.351; -263.600; -865.000; -883.000
254.493; -121.400; -441.000; -417.000
254.635; -227.500; -936.000; -818.000
254.777; -170.300; -752.000; -687.000
254.918; -134.400; -512.000; -430.000
255.060;  -92.100; -551.000; -395.000
255.202;  -95.200; -473.000; -261.000
255.344; -135.200; -658.000; -455.000
255.486; -120.000; -471.000; -406.000
255.628; -255.500; -780.000; -781.000
255.770; -173.800; -676.000; -536.000
255.912; -158.200; -559.000; -468.000
256.053; -169.600; -730.000; -508.000
256.195;  325.400; 1008.000;  903.000
256.337; -217.200; -861.000; -595.000
256.479;  136.600;  532.000;  416.000
256.621;  -71.200; -394.000; -212.000
256.762; -179.700; -789.000; -742.000
256.904;  102.900;  485.000;  487.000
257.046;  -81.000; -381.000; -271.000
257.188;  -84.800; -351.000; -264.000
257.329; -119.700; -525.000; -464.000
257.471; -206.500; -939.000; -807.000
257.613; -122.700; -584.000; -498.000
257.755; -331.700;-1073.000; -982.000
257.896;   81.300;  286.000;  392.000
258.038; -131.800; -403.000; -352.000
258.180;  -91.800; -354.000; -279.000
258.321; -161.900; -581.000; -457.000
258.463;   -1.600;  -71.000;  133.000
258.605; -181.700; -562.000; -570.000
258.746; -228.300; -886.000; -772.000
258.888; -299.800;-1026.000;-1020.000
259.029;   60.000;  121.000;   -8.000
259.171; -200.900; -614.000; -550.000
259.313;    9.000;  -49.000;  -47.000
259.454; -136.000; -536.000; -414.000
259.596; -125.200; -483.000; -390.000
259.737; -143.400; -590.000; -474.000
259.879;   85.300;  217.000;  311.000
260.020;  205.700;  901.000;  636.000
260.162;  -29.000; -146.000; -253.000
260.303; -235.700; -768.000; -687.000
260.445; -163.800; -609.000; -613.000
260.586;   58.500;  392.000;  157.000
260.728;  -81.100; -360.000; -248.000
260.869; -147.600; -350.000; -343.000
261.011;  164.800;  706.000;  537.000
261.152; -132.500; -479.000; -319.000
261.293; -141.700; -576.000; -595.000
261.435;  -40.000; -219.000; -184.000
261.576; -102.200; -455.000; -325.000
261.718;  118.700;  420.000;  470.000
261.859; -250.000; -940.000; -949.000
262.000; -261.200; -951.000;-1016.000
262.142;  -38.100;  -52.000;  -60.000
262.283; -235.200; -808.000; -691.000
262.424; -194.400; -666.000; -625.000
262.566; -297.400;-1161.000; -983.000
262.707; -215.900; -840.000; -830.000
262.848; -234.600; -769.000; -726.000
262.990;  -91.100; -362.000; -345.000
263.131;  208.300;  650.000;  681.000
263.272;    6.800;  -61.000;  -41.000
263.413; -184.000; -589.000; -561.000
263.555; -156.700; -669.000; -143.000
263.696; -143.100; -550.000; -641.000
263.837;  -90.200; -449.000; -551.000
263.978;   25.600;   -5.000;  -77.000
264.119; -133.700; -283.000; -264.000
264.261; -184.000; -847.000; -630.000
264.402;    4.700;   33.000;   40.000
264.543; -138.400; -509.000; -524.000
264.684;   -2.100;   61.000;  -50.000
264.825; -145.000; -816.000; -538.000
264.966;   -0.800;  -84.000;  -67.000
265.107; -232.800; -646.000; -670.000
265.248; -257.000; -825.000; -812.000
265.390;  -22.200;  152.000;   -9.000
265.531;  -13.200; -238.000; -107.000
265.672; -185.300; -557.000; -630.000
265.813;  142.700;  563.000;  439.000
265.954; -303.600; -959.000; -940.000
266.095;  -14.100; -372.000; -322.000
266.236; -179.800; -686.000; -548.000
266.377;  -88.400; -243.000; -297.000
266.518; -126.300; -619.000; -547.000
266.659;  121.400;  170.000;  268.000
266.800;   23.300;   83.000;   85.000
266.941; -143.400; -487.000; -478.000
267.082;   92.100;  354.000;   99.000
267.223; -102.400; -344.000; -273.000
267.364; -229.600; -892.000; -686.000
267.504;   -6.900;    3.000;  135.000
267.645;   41.900;  160.000;   67.000
267.786;  -55.900; -147.000;  -86.000
267.927; -138.500; -473.000; -379.000
268.068;  -36.800; -186.000;  -61.000
268.209;  -99.300; -175.000; -413.000
268.350; -134.600; -388.000; -532.000
268.490; -163.600; -648.000; -521.000
268.631;   87.200;  127.000;  225.000
268.772; -230.700; -874.000; -647.000
268.913; -102.300; -328.000; -476.000
269.054;   -8.400; -117.000;   12.000
269.194;  -82.200; -418.000; -402.000
269.335; -280.900;-1137.000;-1074.000
269.476;  -39.200;   33.000;  -35.000
269.617;  -98.600; -347.000; -392.000
269.757; -192.400; -713.000; -646.000
269.898; -186.900; -856.000; -613.000
270.039; -113.100; -415.000; -405.000
270.180; -284.900; -952.000; -816.000
270.320;  -32.100; -190.000; -250.000
270.461;  -79.600; -277.000; -249.000
270.602;  -16.400; -186.000; -156.000
270.742; -238.900; -868.000; -943.000
270.883;  -84.700; -442.000; -390.000
271.023; -136.000; -358.000; -357.000
271.164; -149.900; -607.000; -528.000
271.305; -197.600; -666.000; -654.000
271.445; -199.900; -722.000; -683.000
271.586; -101.400; -462.000; -283.000
271.726;  -82.700; -397.000; -322.000
271.867; -124.100; -594.000; -534.000
272.008;  288.100; -473.000; -285.000
272.148;  252.400;  462.000;  468.000
272.289;   32.700; -113.000; -181.000
272.429;   26.800;   19.000;  185.000
272.570; -194.400; -633.000; -737.000
272.710; -167.000; -825.000; -775.000
272.851;  -26.900;  113.000; -130.000
272.991; -330.100;-1173.000;-1077.000
273.131; -134.100; -419.000; -459.000
273.272; -186.900; -683.000; -723.000
273.412;   34.000; -143.000;  -31.000
273.553;  -82.300; -488.000; -507.000
273.693;  278.500;  913.000;  858.000
273.834; -200.000; -894.000; -692.000
273.974; -144.700; -664.000; -615.000
274.114; -203.600; -772.000; -560.000
274.255;  153.600;  414.000;  373.000
274.395;  -14.300; -180.000; -125.000
274.535;   93.300;  199.000;  350.000
274.676;   81.500;  225.000;   94.000
274.816;   29.500;  110.000;   34.000
274.956; -162.200; -624.000; -690.000
275.097; -165.500;-1014.000; -922.000
275.237; -204.900; -913.000; -803.000
275.377; -195.400; -778.000; -689.000
275.517; -257.500; -878.000; -937.000
275.658; -143.400; -590.000; -555.000
275.798; -119.300; -606.000; -413.000
275.938;   78.700;  215.000;  323.000
276.078; -192.300; -626.000; -395.000
276.218;    1.900;   99.000;  104.000
276.359; -250.200;-1026.000;-1024.000
276.499; -145.700; -605.000; -446.000
276.639;  -40.400; -305.000; -151.000
276.779;  -72.200; -475.000; -357.000
276.919; -222.400; -783.000; -624.000
277.059;  -40.400; -261.000; -212.000
277.199;  -42.500; -357.000; -259.000
277.340;   88.000;  287.000;  175.000
277.480; -226.600; -840.000; -693.000
277.620;   87.300;  192.000;   16.000
277.760; -387.100;-1533.000;-1294.000
277.900;   43.000;  113.000;   33.000
278.040;   50.100;  137.000;  159.000
278.180;  104.400;  270.000;  170.000
278.320;    1.600;   21.000;   56.000
278.460; -106.800; -443.000; -469.000
278.600; -157.200; -708.000; -598.000
278.740;  117.300;  448.000;  224.000
278.880; -139.900; -768.000; -791.000
279.020;   47.400; -194.000; -144.000
279.160; -172.700; -672.000; -595.000
279.300; -226.400; -926.000; -873.000
279.440; -198.100; -709.000; -622.000
279.579;  -65.200;-1014.000; -929.000
279.719;  -91.900; -410.000; -394.000
279.859;   94.400;   -4.000;   41.000
279.999;   55.300; -208.000;  101.000
280.139;  -50.000; -435.000; -387.000
280.279; -169.300; -708.000; -745.000
280.419;  -14.600; -229.000; -147.000
280.559;  -40.600; -259.000; -180.000
280.698; -152.000; -790.000; -639.000
280.838; -182.500; -778.000; -800.000
280.978; -215.400; -846.000; -790.000
281.118; -210.400; -811.000; -704.000
281.257;   24.500;   24.000;    6.000
281.397; -252.400;-1094.000; -960.000
281.537; -166.700; -599.000; -712.000
281.677;  -30.200; -150.000; -101.000
281.816; -150.500; -700.000; -630.000
281.956;  -46.300; -193.000; -257.000
282.096; -121.400; -539.000; -396.000
282.235; -214.200; -672.000; -638.000
282.375;   -5.700; -243.000;  -98.000
282.515; -199.500; -715.000; -707.000
282.654;   38.900;   29.000;  106.000
282.794;   81.100;  388.000;  244.000
282.934; -104.300; -530.000; -491.000
283.073; -233.300;-1030.000; -857.000
283.213;  -90.300; -460.000; -467.000
283.353;  -74.900; -408.000; -349.000
283.492;  -43.500; -264.000; -296.000
283.632;  -90.400; -254.000; -168.000
283.771; -200.300; -859.000; -730.000
283.911; -123.300; -369.000; -260.000
284.050; -181.800; -794.000; -748.000
284.190; -318.400;-1229.000;-1096.000
284.329; -286.400;-1055.000; -964.000
284.469; -105.600; -516.000; -591.000
284.608; -148.100; -559.000; -598.000
284.748; -174.300; -614.000; -570.000
284.887;   26.900;  -87.000;  -20.000
285.027; -223.800; -844.000; -892.000
285.166;  -69.200; -192.000; -249.000
285.306;   -3.700; -116.000;  -33.000
285.445;  -54.200; -229.000; -343.000
285.584; -187.100; -630.000; -494.000
285.724;  -87.100; -282.000; -322.000
285.863; -227.600; -857.000; -507.000
286.002;  -95.200; -366.000; -276.000
286.142; -205.400; -715.000; -622.000
286.281; -128.600; -525.000; -493.000
286.420; -155.200; -554.000; -417.000
286.560;  183.000;  653.000;  623.000
286.699; -259.900; -958.000; -912.000
286.838; -165.200; -590.000; -591.000
286.978; -139.400; -533.000; -537.000
287.117; -260.000;-1085.000; -950.000
287.256;  -62.500; -228.000; -211.000
287.395;  -91.300; -197.000; -378.000
287.535; -109.600; -370.000; -298.000
287.674; -167.100; -509.000; -484.000
287.813;  112.900;  661.000;  533.000
287.952; -233.300;-1010.000; -871.000
288.091; -275.300;-1049.000; -915.000
288.231;   28.700;   13.000;   15.000
288.370; -354.000;-1217.000;-1200.000
288.509; -167.400; -728.000; -645.000
288.648; -186.100; -770.000; -548.000
288.787;  -39.600; -243.000;  -87.000
288.926;  -92.600; -454.000; -475.000
289.065;  245.900;  859.000;  672.000
289.204;  -89.300; -377.000; -217.000
289.344; -185.200; -791.000; -690.000
289.483;   70.200;  416.000;  304.000
289.622;  -50.400; -291.000; -149.000
289.761;   -7.100; -309.000; -166.000
289.900; -190.000; -785.000; -626.000
290.039;   -9.000;  -12.000;  -95.000
290.178;  -53.500; -274.000; -180.000
290.317; -166.500; -618.000; -479.000
290.456;  -92.500; -463.000; -451.000
290.595; -283.200; -961.000; -833.000
290.734; -273.600; -904.000; -891.000
290.873; -120.800; -456.000; -420.000
291.011; -232.900; -833.000; -843.000
291.150; -170.200; -770.000; -682.000
291.289;   -6.600; -343.000; -110.000
291.428; -190.100; -599.000; -480.000
291.567;  -89.300; -370.000; -442.000
291.706;   35.200;  109.000;  154.000
291.845; -163.400; -597.000; -505.000
291.984; -299.000;-1234.000;-1061.000
292.122;  141.800;  602.000;  582.000
292.261;  122.300;  620.000;  463.000
292.400;   45.000; -144.000;  211.000
292.539; -236.700; -959.000; -813.000
292.678;  -61.300; -325.000; -300.000
292.816; -295.700;-1136.000; -965.000
292.955; -166.000; -844.000; -684.000
293.094;  -73.000; -173.000; -337.000
293.233;  -71.000; -556.000; -400.000
293.371;  -58.500; -225.000;  -84.000
293.510; -223.700; -866.000; -780.000
293.649; -236.900; -959.000; -924.000
293.787; -160.300;-1083.000;-1012.000
293.926;   -4.100; -113.000;  -32.000
294.065; -106.300; -379.000; -290.000
294.203;  136.400;  298.000;  406.000
294.342;   72.200;   74.000;  156.000
294.481;11140.600;51180.000; -836.000
294.619;  -29.900; -425.000; -582.000
294.758; -265.800;-1230.000;-1137.000
294.896;  151.300; -125.000;    5.000
295.035; -239.900;-1040.000;-1006.000
295.174; -220.000;-1082.000; -954.000
295.312;  -80.700; -323.000; -203.000
295.451;   -7.000; -307.000; -428.000
295.589;  -95.100; -389.000; -518.000
295.728;   39.800; -292.000; -165.000
295.866;   11.500;  -36.000;  -51.000
296.005; -130.500; -584.000; -341.000
296.143; -119.500; -558.000; -596.000
296.282; -214.700; -957.000; -881.000
296.420; -153.700; -657.000; -557.000
296.559; -187.300; -892.000; -633.000
296.697;   11.300; -847.000; -665.000
296.835;   63.800;-1141.000;-1002.000
296.974;  120.000;  -23.000;   39.000
297.112;    0.000; -443.000; -504.000
297.251; -144.100; -815.000; -755.000
297.389;  140.100; -576.000; -438.000
297.527;   80.100; -145.000;  -83.000
297.666;  -91.900; -486.000; -438.000
297.804; -106.000; -404.000; -264.000
297.942;    6.900; -136.000; -161.000
298.081;   -0.200; -183.000;   63.000
298.219;  145.000;  -17.000;  -19.000
298.357;   81.400; -144.000;  -71.000
298.495;   10.300; -810.000; -812.000
298.634;  133.700;  245.000;  219.000
298.772;   94.300; -220.000; -338.000
298.910;  -58.900; -309.000; -182.000
299.048;    4.600; -130.000; -153.000
299.187;  -48.300; -350.000; -250.000
299.325;   55.000;   52.000;  122.000
299.463;   73.600; -389.000; -299.000
299.601;  155.600; -327.000; -271.000
299.739; -220.200; -908.000; -883.000
299.877; -147.700; -791.000; -703.000
300.016; -151.700;-1095.000; -935.000
300.154;  256.700;  -19.000; -161.000
300.292;   71.500; -428.000; -348.000
300.430;   47.300; -408.000; -291.000
300.568; -208.900; -940.000; -874.000
300.706;  -92.000; -366.000; -469.000
300.844; -172.100;-1108.000; -979.000
300.982;  221.400;  246.000;  282.000
301.120; -172.100; -965.000; -866.000
301.258; -132.600; -812.000; -705.000
301.396;   63.900;  104.000;  -41.000
301.534;  121.700; -218.000; -293.000
301.672;  -24.700; -664.000; -521.000
301.810;  -19.900; -613.000; -545.000
301.948;  267.600;   53.000;  149.000
302.086;  942.700; -250.000;  -32.000
302.224; 1481.000; -610.000; -585.000
302.362;   37.500; -558.000; -622.000
302.500;  -71.800; -923.000; -893.000
302.638;  228.500;  128.000;  245.000
302.776;    4.200; -352.000; -408.000
302.913;   95.700;  447.000;  236.000
303.051;   -7.300;  -86.000;  -23.000
303.189;   99.500;   90.000;  118.000
303.327;  -78.400; -341.000; -256.000
303.465; -151.400; -832.000; -588.000
303.603; -175.600; -805.000; -604.000
303.740;  190.300;  417.000;  241.000
303.878;  -28.000; -800.000; -759.000
304.016; -178.900; -915.000; -790.000
304.154; -251.100;-1123.000;-1152.000
304.291;  -61.300; -505.000; -554.000
304.429;   25.300;  102.000;   74.000
304.567; -241.600; -908.000; -893.000
304.705; -101.500; -408.000; -515.000
304.842;  158.000; -616.000; -540.000
304.980;  100.700;  215.000;   35.000
305.118;   55.600; -367.000; -365.000
305.255; -145.900; -945.000; -927.000
305.393;  156.500;  178.000;  239.000
305.531; -224.300;-1173.000; -956.000
305.668; -123.500; -663.000; -582.000
305.806;  175.700; -358.000; -439.000
305.943;  151.300; -629.000; -637.000
306.081;   93.200; -378.000; -267.000
306.219; -173.700; -863.000; -748.000
306.356;   73.500;  158.000;   27.000
306.494;  261.100;  981.000;  761.000
306.631;   -3.300;  -11.000;  -55.000
306.769;    4.300; -613.000; -485.000
306.906;  -30.000; -284.000; -258.000
307.044;  -99.900; -473.000; -488.000
307.181; -105.000; -410.000; -332.000
307.319;   51.300;  112.000;   87.000
307.456; -338.200;-1191.000;-1153.000
307.594; -190.500; -980.000; -727.000
307.731;    0.600; -371.000; -164.000
307.868;   15.900;  -15.000;   20.000
308.006; -264.100; -961.000; -847.000
308.143; -130.500; -618.000; -330.000
308.281;  346.500;  -37.000; -254.000
308.418;   14.600; -748.000; -640.000
308.555; -122.500; -400.000; -250.000
308.693; -105.200; -577.000; -573.000
308.830; -180.800; -712.000; -657.000
308.967;   10.000; -215.000;  -95.000
309.105;  -52.500; -507.000; -396.000
309.242;  118.200; -468.000; -367.000
309.379;  637.800; -577.000; -655.000
309.517;  -93.100; -936.000; -948.000
309.654; -231.400; -910.000; -734.000
309.791; -115.600; -662.000; -580.000
309.928; -217.100; -977.000; -914.000
310.065;  367.800;  819.000;  697.000
310.203;  -46.900; -825.000; -850.000
310.340;    4.100; -465.000; -321.000
310.477; -136.700; -412.000; -516.000
310.614;  -98.900; -383.000; -473.000
310.751;  -93.100; -427.000; -518.000
310.889;  -15.500;    1.000;   11.000
311.026; -272.000;-1161.000; -939.000
311.163;  -34.300; -386.000; -380.000
311.300; -127.400; -512.000; -479.000
311.437; -146.900; -658.000; -619.000
311.574; -289.000;-1226.000; -985.000
311.711;  -71.100; -595.000; -433.000
311.848;  -51.200; -380.000; -388.000
311.985;   51.300;  270.000;   93.000
312.122; -218.300; -932.000; -762.000
312.259; -230.600; -941.000; -994.000
312.396; -112.600; -508.000; -551.000
312.533; -119.000; -812.000; -790.000
312.670; -260.600;-1070.000; -898.000
312.807;  -58.600; -352.000; -367.000
312.944; -152.200; -513.000; -611.000
313.081;  -40.600; -150.000; -415.000
313.218; -206.500;-1111.000; -867.000
313.355;   66.600; -531.000; -449.000
313.492;   30.500; -455.000; -292.000
313.629;  302.000;  815.000;  735.000
313.766; -273.600;-1176.000;-1008.000
313.902;   29.800; -186.000;   21.000
314.039;  -96.900; -372.000; -289.000
314.176;  111.000;  286.000;  192.000
314.313; -124.500; -569.000; -473.000
314.450; -125.700; -788.000; -684.000
314.587;  -90.500; -468.000; -480.000
314.723;   28.300;  -78.000;  130.000
314.860;  122.300;  318.000;  332.000
314.997;  100.900;  223.000;  142.000
315.134;  -47.600; -385.000; -368.000
315.270;  -33.200; -480.000; -496.000
315.407; -232.300;-1094.000; -967.000
315.544;  -45.500; -657.000; -538.000
315.681; -119.600; -681.000; -565.000
315.817;   77.200; -133.000; -176.000
315.954;   20.800; -613.000; -392.000
316.091; -208.000;-1045.000;-1023.000
316.227;   -2.700;  -71.000; -179.000
316.364;   38.800;   23.000;    6.000
316.500;  -40.900; -113.000; -300.000
316.637;  -64.300; -181.000; -302.000
316.774; -151.200; -625.000; -358.000
316.910; -143.700; -598.000; -629.000
317.047; -102.900; -487.000; -351.000
317.183;  -62.200; -435.000; -566.000
317.320;    0.700; -367.000; -321.000
317.456; -101.400; -733.000; -805.000
317.593; -171.100; -598.000; -641.000
317.729;   23.400;  168.000;  -67.000
317.866; -416.000;-1434.000;-1285.000
318.002; -171.200; -708.000; -948.000
318.139; -185.100; -883.000; -867.000
318.275; -215.100;-1003.000; -738.000
318.412; -122.600; -517.000; -336.000
318.548;  -80.300; -751.000; -720.000
318.685; -188.200; -985.000; -888.000
318.821; -163.100; -762.000; -735.000
318.957;  -14.300;   34.000;  -23.000
319.094;  109.400;  297.000;  154.000
319.230; -149.300; -756.000; -742.000
319.367;  223.600; -471.000; -520.000
319.503;  110.100; -538.000; -436.000
319.639; -153.400; -877.000; -793.000
319.775;  -97.600; -750.000; -685.000
319.912; -100.000; -424.000; -519.000
320.048; -188.000;-1184.000;-1184.000
320.184;  183.800;   59.000;   70.000
320.321;  -74.800; -497.000; -467.000
320.457;  164.300;  475.000;  662.000
320.593; -138.900; -375.000; -382.000
320.729; -198.700; -732.000; -734.000
320.866; -137.400; -577.000; -635.000
321.002; -152.500; -759.000; -809.000
321.138;   -8.700; -135.000; -211.000
321.274;  131.700; -148.000; -115.000
321.410;  -46.400; -585.000; -353.000
321.546;  -90.800;-1011.000; -911.000
321.683;  120.500;  400.000;  185.000
321.819;   39.900;  -48.000; -117.000
321.955; -189.000; -743.000; -722.000
322.091;  -68.000; -585.000; -540.000
322.227;  -48.400; -382.000; -202.000
322.363;  -11.900; -320.000; -215.000
322.499;  -81.900; -343.000; -331.000
322.635;  342.500;  636.000;  443.000
322.771;   53.200; -139.000;   12.000
322.907;  191.300;  129.000;  327.000
323.043;  -12.200; -115.000; -206.000
323.179;  -86.000; -394.000; -363.000
323.315;    8.600; -401.000; -371.000
323.451;  163.300; -328.000; -236.000
323.587;  137.900;  -60.000;  -77.000
323.723;  -11.700; -682.000; -601.000
323.859;    0.300; -258.000;  -76.000
323.995;   -0.200; -467.000; -409.000
324.131; -206.200; -967.000; -892.000
324.267;  -57.700; -254.000; -276.000
324.402; -232.500; -960.000; -983.000
324.538;  -24.500; -279.000; -104.000
324.674;   79.600;  164.000;   77.000
324.810;  293.700;  226.000;  308.000
324.946;   43.600; -810.000; -658.000
325.082; -104.900; -568.000; -475.000
325.217;   17.700;  -62.000;   16.000
325.353; -187.100; -764.000; -659.000
325.489; -152.900; -540.000; -506.000
325.625; -141.500; -579.000; -525.000
325.760;  173.900;  517.000;  376.000
325.896;   19.800; -515.000; -702.000
326.032;  -68.900; -403.000; -352.000
326.168;  -86.000; -462.000; -369.000
326.303;  -82.300; -352.000; -461.000
326.439;  -40.100; -336.000; -276.000
326.575;   34.700; -190.000;  -29.000
326.710;   31.500; -156.000;  -30.000
326.846;    1.200;  146.000;  103.000
326.982; -213.500; -530.000; -548.000
327.117; -135.100; -481.000; -442.000
327.253; -108.400; -745.000; -742.000
327.388; -304.900;-1137.000;-1153.000
327.524;  -95.900; -811.000; -578.000
327.659;  -28.700;  -58.000;  -22.000
327.795;   20.200;   69.000;   45.000
327.931; -182.900; -723.000; -499.000
328.066;  -18.900; -417.000; -276.000
328.202;   22.600;   12.000; -129.000
328.337;  232.900;  957.000;  713.000
328.473;   28.800;  -12.000;  -74.000
328.608;  -23.400; -256.000; -267.000
328.743; -164.000; -799.000; -664.000
328.879;   56.900;  214.000;  114.000
329.014; -113.800; -102.000; -122.000
329.150; -159.900; -358.000; -483.000
329.285; -130.900; -465.000; -466.000
329.421;  -49.200; -548.000; -246.000
329.556;    0.300;  -36.000;   85.000
329.691; -175.000; -633.000; -615.000
329.827; -153.700; -626.000; -480.000
329.962;  -44.400;  131.000; -301.000
330.097; -141.400; -673.000; -585.000
330.233;  -43.000; -410.000; -223.000
330.368; -215.400; -839.000; -628.000
330.503;    4.200;    3.000;   98.000
330.638;   38.900;  -93.000; -125.000
330.774;  -96.500; -609.000; -530.000
330.909;  -56.000; -434.000; -244.000
331.044; -166.600; -714.000; -708.000
331.179; -333.000;-1217.000;-1109.000
331.315;   48.800;   77.000;   20.000
331.450;   14.900;  157.000;  285.000
331.585; -155.800; -805.000; -706.000
331.720; -157.500; -510.000; -460.000
331.855;   35.700;  -35.000; -102.000
331.990;  498.800;   62.000;  138.000
332.126;  256.100; -110.000;   71.000
332.261;  -29.800; -379.000; -265.000
332.396;   16.400; -135.000; -242.000
332.531; -190.800;-1074.000;-1031.000
332.666;   81.100; -519.000; -363.000
332.801; -170.500; -726.000; -807.000
332.936;    6.900; -192.000; -122.000
333.071; -256.000; -870.000; -817.000
333.206;   67.100;  307.000;  379.000
333.341;   99.600;  344.000;  418.000
333.476; -161.800; -627.000; -623.000
333.611;  -63.300; -251.000; -173.000
333.746;  -52.700; -381.000; -464.000
333.881; -221.200; -973.000; -935.000
334.016; -211.100; -936.000; -917.000
334.151; -226.500; -746.000; -702.000
334.286;   87.200;  152.000;  186.000
334.421;   18.500; -125.000; -178.000
334.556; -136.600; -611.000; -567.000
334.690; -159.100; -631.000; -577.000
334.825;  134.400;  381.000;   83.000
334.960;  -97.200; -285.000; -413.000
335.095;   41.000;  135.000;  -91.000
335.230; -175.500; -722.000; -738.000
335.365; -278.400;-1084.000; -990.000
335.499; -247.700;-1108.000;-1037.000
335.634;   77.900;    9.000;  534.000
335.769; -193.700; -755.000; -720.000
335.904; -117.500; -603.000; -561.000
336.038;  -78.500; -735.000; -657.000
336.173; -227.200;-1206.000;-1194.000
336.308;   59.300; -116.000; -189.000
336.443;   46.400; -544.000; -634.000
336.577; -173.000; -936.000; -787.000
336.712;  134.700;   -4.000;  -12.000
336.847; -119.600; -724.000; -607.000
336.981;   91.600; -272.000; -208.000
337.116;  531.200;  615.000;  501.000
337.250;  248.000; -434.000; -421.000
337.385;  509.800; -297.000; -208.000
337.520;  193.900; -632.000; -603.000
337.654;  -20.900; -215.000; -126.000
337.789; -237.700; -989.000; -933.000
337.923;   -4.000; -104.000; -205.000
338.058; -160.100; -673.000; -738.000
338.192;  -68.100; -611.000; -488.000
338.327;   29.200;  -18.000; -155.000
338.461; -117.900; -299.000; -469.000
338.596; -146.400; -780.000; -638.000
338.730; -194.500; -767.000; -803.000
338.865;  233.200;  -46.000; -140.000
338.999;  -75.800; -846.000; -702.000
339.134;  -11.700; -634.000; -536.000
339.268;   41.600; -741.000; -603.000
339.403;  659.300; -740.000; -775.000
339.537;  263.800; -894.000; -820.000
339.671; -166.400; -829.000; -813.000
339.806; -109.400; -556.000; -512.000
339.940;   71.200; -261.000; -235.000
340.074; -156.700; -685.000; -510.000
340.209;  -75.600; -351.000; -230.000
340.343; -139.800; -517.000; -573.000
340.477;  292.900;  998.000; 1036.000
340.612;  -70.300;-1033.000; -900.000
340.746;  305.900; -199.000; -243.000
340.880; -131.700; -924.000; -785.000
341.014;    5.000;  -45.000; -154.000
341.149; -200.000; -756.000; -718.000
341.283; -189.600; -839.000; -754.000
341.417; -214.000;-1124.000; -938.000
341.551;  193.100; -768.000; -708.000
341.685;  -64.500; -633.000; -611.000
341.820;  -65.700; -562.000; -493.000
341.954;  -44.400; -218.000; -349.000
342.088; -280.200;-1102.000;-1019.000
342.222;   98.200;  565.000;  618.000
342.356;  -99.500; -395.000; -335.000
342.490; -180.300; -880.000; -841.000
342.624;  -61.600; -339.000; -242.000
342.758;    9.500; -364.000; -312.000
342.892; -107.400; -710.000; -585.000
343.026;  -46.700;  -58.000; -116.000
343.160; -103.200; -426.000; -376.000
343.294; -133.000; -474.000; -337.000
343.428;  -24.200; -488.000; -448.000
343.562;  -14.100; -172.000;  -23.000
343.696;  -37.100; -385.000; -314.000
343.830;   -7.600; -362.000; -356.000
343.964;   88.300; -231.000; -168.000
344.098; 1419.100;  199.000;   70.000
344.232; 1201.700; -266.000; -127.000
344.366;  148.600; -567.000; -453.000
344.500;   97.700; -665.000; -744.000
344.634;   64.900; -324.000; -164.000
344.768;  -22.700; -531.000; -341.000
344.902;   93.500;  278.000;  256.000
345.035; -117.900; -556.000; -496.000
345.169; -225.500; -933.000; -656.000
345.303;  -21.100; -308.000; -482.000
345.437; -138.300; -826.000; -717.000
345.571; -123.000; -675.000; -594.000
345.704;  -94.600; -309.000; -532.000
345.838;  -29.500; -331.000; -284.000
345.972;  -61.100; -543.000; -495.000
346.106;  341.300; -179.000; -190.000
346.239;  799.000; -312.000; -243.000
346.373;    5.300; -343.000; -302.000
346.507; -274.500; -950.000; -962.000
346.640;  223.100;  -30.000;   13.000
346.774; -104.000; -650.000; -797.000
346.908;   34.600; -138.000;  -11.000
347.041; -186.000; -646.000; -593.000
347.175;   43.700;  259.000;   27.000
347.309; -115.900; -698.000; -628.000
347.442; -195.200; -883.000; -732.000
347.576;  493.800;  670.000;  668.000
347.709;  354.900; -123.000;  -52.000
347.843; -156.200; -933.000; -825.000
347.976;  126.800;  235.000;  294.000
348.110; -337.400;-1268.000;-1186.000
348.243; -201.400; -679.000; -772.000
348.377;   33.800;  -26.000;   60.000
348.510;  137.700;  403.000;  540.000
348.644;  -17.300;  -37.000; -159.000
348.777;   76.400;  180.000;  191.000
348.911;  -63.700; -142.000; -112.000
349.044;  329.900;  471.000;  448.000
349.178;  187.700;-1069.000;-1006.000
349.311;  229.400;  141.000;  255.000
349.444;   21.600; -927.000; -813.000
349.578;  -29.300; -347.000; -200.000
349.711; -182.900; -959.000; -862.000
349.845;  -31.700; -661.000; -591.000
349.978; -297.900;-1224.000;-1137.000
350.111; -156.500; -546.000; -612.000
350.244; -141.500; -596.000; -700.000
350.378;    7.400; -392.000; -393.000
350.511;  -86.300; -393.000; -426.000
350.644; -190.200; -808.000; -806.000
350.778;   39.000;  168.000;  104.000
350.911;   27.600;  134.000;  140.000
351.044; -152.300; -685.000; -615.000
351.177;  -21.800; -321.000; -281.000
351.310;   -8.800;    3.000; -131.000
351.444; -151.700; -888.000; -788.000
351.577;  217.300;  140.000;   90.000
351.710;  210.800;  593.000;  417.000
351.843;  -55.200; -165.000;  -77.000
351.976;   24.800;  149.000;  -79.000
352.109; -140.900; -621.000; -612.000
352.242;  -34.700; -464.000; -419.000
352.376;  -98.500; -580.000; -636.000
352.509;  238.400; -437.000; -356.000
352.642;  -50.500; -654.000; -604.000
352.775;  126.700; -141.000;  -98.000
352.908; -207.200; -933.000; -904.000
353.041; -208.000; -814.000; -824.000
353.174;  -98.200; -551.000; -424.000
353.307; -146.100; -753.000; -764.000
353.440;  170.200;  541.000;  453.000
353.573; -229.700; -957.000;-1008.000
353.706;  -47.000; -384.000; -558.000
353.839;   -6.900; -264.000; -220.000
353.971; -156.100; -657.000; -512.000
354.104; -184.400; -896.000; -835.000
354.237;  -68.800; -627.000; -662.000
354.370; -176.400; -846.000; -879.000
354.503; -359.500;-1231.000;-1308.000
354.636;  -56.600; -529.000; -348.000
354.769; -242.300; -937.000; -860.000
354.902;    2.300; -230.000; -139.000
355.034;   -9.900; -164.000; -220.000
355.167;    3.700; -262.000; -162.000
355.300; -160.300;-1061.000; -880.000
355.433; 1935.300;  -71.000;  -14.000
355.565; 2950.600; -402.000; -384.000
355.698;  750.000; -356.000; -296.000
355.831;  -29.400; -882.000; -801.000
355.964;  173.100; -285.000; -170.000
356.096; -186.500; -856.000; -843.000
356.229;   -8.900; -523.000; -530.000
356.362;  712.400; -373.000; -266.000
356.494; 1176.300; -229.000; -162.000
356.627;  834.700;  269.000;  377.000
356.760; 1297.700;  120.000;   53.000
356.892; 1831.800; -286.000; -601.000
357.025; 1136.000;  403.000;  389.000
357.157; 1010.900; -167.000; -179.000
357.290; 1381.700; -856.000; -713.000
357.423;  351.100; -667.000; -556.000
357.555;  201.200; -217.000; -228.000
357.688;  190.900; -483.000; -364.000
357.820;  676.800; -870.000; -877.000
357.953; 5833.100; -563.000; -589.000
358.085; 1245.800; -632.000; -612.000
358.218; 1754.200;-1131.000; -932.000
358.350;  388.000;  -58.000;  312.000
358.483; -238.300;-1300.000;-1187.000
358.615;  -71.300;-1182.000;-1078.000
358.747; -120.500;-1187.000;-1058.000
358.880;   -1.500; -810.000; -744.000
359.012;   -1.500; -376.000; -202.000
359.145;  -34.100; -480.000; -511.000
359.277;   53.700; -962.000; -913.000
359.409; 4736.200;  536.000;  231.000
359.542; 1174.000; -738.000; -688.000
359.674;  127.700;   46.000;   13.000
359.806;  -73.300; -565.000; -438.000
359.939;  -59.100; -617.000; -516.000
360.071;  -17.000; -583.000; -579.000
360.203;  -46.700; -411.000; -364.000
360.335;  111.700;  164.000;  -16.000
360.468;  349.700; -249.000; -307.000
360.600; 3986.600; -547.000; -454.000
360.732; 5446.100; -546.000; -423.000
360.864;  771.500;-1216.000;-1044.000
360.996;  444.100; -516.000; -554.000
361.129;   73.600; -389.000; -598.000
361.261;   61.500;  110.000; -113.000
361.393;  -24.900; -252.000; -214.000
361.525;  105.700;   94.000;  244.000
361.657; -102.900; -821.000; -703.000
361.789;   59.000; -139.000; -155.000
361.921;  375.400; -642.000; -593.000
362.053;  460.600;  524.000;  541.000
362.185;  137.400;  288.000;   72.000
362.318; -148.900; -709.000; -705.000
362.450;  228.700;  294.000;  444.000
362.582;  100.800; -913.000; -870.000
362.714;  -26.900; -353.000; -332.000
362.846; -121.900; -606.000; -490.000
362.978; -250.700; -941.000; -811.000
363.109;   87.400; -161.000; -260.000
363.241;  770.600; -739.000; -749.000
363.373;  830.700; -649.000; -564.000
363.505; 1339.500; -186.000;  -91.000
363.637;  331.600; -787.000; -601.000
363.769; -236.200;-1067.000;-1080.000
363.901; -102.100; -596.000; -654.000
364.033; -226.700;-1103.000;-1062.000
364.165;   -1.800; -283.000; -283.000
364.296;  207.000; -316.000; -177.000
364.428;  148.100;-1344.000;-1220.000
364.560; -104.800; -679.000; -661.000
364.692;  -92.500; -738.000; -835.000
364.824;  378.700; -588.000; -456.000
364.955;  814.700; -402.000; -564.000
365.087; 1829.200;-1097.000; -852.000
365.219;   62.100; -686.000; -816.000
365.351; -110.100; -526.000; -572.000
365.482;  160.400;  300.000;  240.000
365.614;  -47.200; -402.000; -314.000
365.746; -173.800; -729.000; -752.000
365.877; -176.100; -706.000; -672.000
366.009;  569.500;  -35.000;  -62.000
366.141; -141.900;-1249.000;-1134.000
366.272; -196.800; -803.000; -719.000
366.404; -182.900;-1005.000; -874.000
366.535;   20.800; -139.000;  -12.000
366.667; -178.100; -644.000; -649.000
366.799;  164.600;  353.000;  203.000
366.930; -227.700; -862.000; -996.000
367.062;  284.200; -639.000; -613.000
367.193;  378.100; -872.000; -842.000
367.325; -112.200; -580.000; -684.000
367.456;  113.200; -246.000;   31.000
367.588;  326.700; -371.000; -318.000
367.719;   78.600;  -44.000;  -45.000
367.851;    4.500; -222.000; -241.000
367.982; -131.700; -875.000; -732.000
368.113;  193.000; -475.000; -358.000
368.245; -195.400; -960.000; -841.000
368.376;   -5.800; -254.000; -302.000
368.508;  -22.900; -188.000; -263.000
368.639; -251.300;-1166.000;-1034.000
368.770;  -56.700; -670.000; -589.000
368.902;  -99.100; -836.000; -926.000
369.033; -182.900; -906.000; -855.000
369.164;  -44.700; -720.000; -653.000
369.296; -189.800; -452.000; -601.000
369.427;   20.100; -209.000; -144.000
369.558;  -83.100; -593.000; -377.000
369.689; -137.900; -721.000; -569.000
369.821; -242.500; -951.000; -845.000
369.952;   15.300;   42.000; -108.000
370.083;  -54.500; -229.000; -108.000
370.214; -149.100; -735.000; -650.000
370.345;   30.200;   65.000;   81.000
370.477; -174.600; -810.000; -790.000
370.608;  375.000; -328.000; -264.000
370.739; -134.500;-1233.000;-1292.000
370.870;  -95.800;-1102.000; -923.000
371.001;  152.200; -378.000; -467.000
371.132; -130.700; -754.000; -735.000
371.263;   -8.500;  -42.000; -148.000
371.394; -215.500; -841.000; -748.000
371.525;  108.900;  345.000;  225.000
371.657; -114.300; -808.000; -670.000
371.788;  172.600;  103.000;  199.000
371.919;  264.000; -384.000; -304.000
372.050; 5714.600;  -91.000; -156.000
372.181; 1609.500; -188.000; -294.000
372.311;  585.200;   42.000; -127.000
372.442;   25.200; -457.000; -451.000
372.573;  -30.300; -444.000; -340.000
372.704; -235.800;-1008.000; -980.000
372.835;  138.000; -228.000; -289.000
372.966;  -95.000; -646.000; -554.000
373.097; -101.800; -575.000; -711.000
373.228; -110.100; -717.000; -542.000
373.359;  197.300; -824.000; -536.000
373.490; 1476.300; -881.000; -727.000
373.620; 1744.300;-1001.000; -803.000
373.751; 2756.000; -332.000; -396.000
373.882; 1189.000; -663.000; -733.000
374.013;   89.400; -449.000; -262.000
374.143;  -65.300; -581.000; -659.000
374.274; -190.700; -987.000; -908.000
374.405;  336.400; -388.000; -276.000
374.536;  695.200; -526.000; -387.000
374.666; 1724.100; -759.000; -807.000
374.797;  297.100; -817.000; -868.000
374.928; 1378.300; -710.000; -560.000
375.058; 1365.500; -535.000; -500.000
375.189;  129.200;  -59.000;  -93.000
375.320; -183.000; -928.000;-1034.000
375.450;  -68.800; -625.000; -616.000
375.581;  -61.800; -526.000; -436.000
375.712;  -40.000; -574.000; -250.000
375.842;  516.300; -438.000; -415.000
375.973;  329.400; -554.000; -513.000
376.103;  -73.900; -665.000; -648.000
376.234; -123.300; -531.000; -552.000
376.364;  -54.700; -944.000; -867.000
376.495;  611.200;  925.000;  529.000
376.625;   22.700; -472.000; -485.000
376.756;   83.300; -709.000; -678.000
376.886; -158.500;-1178.000;-1026.000
377.017;  155.500;-1048.000;-1061.000
377.147;  694.900; -786.000; -782.000
377.278;  170.200;  174.000;  228.000
377.408; -220.700; -801.000; -815.000
377.538; -198.600; -707.000; -693.000
377.669; -143.900; -537.000; -613.000
377.799; -165.900; -645.000; -635.000
377.929;  -99.800; -610.000; -428.000
378.060; -241.700; -781.000; -847.000
378.190;  -72.300; -726.000; -531.000
378.320;  -81.300; -401.000; -406.000
378.451;   62.800; -131.000;  -22.000
378.581;    1.200;  -67.000; -110.000
378.711;  329.100; 1035.000;  866.000
378.841;  -12.200; -533.000; -675.000
378.972; -145.900; -871.000; -751.000
379.102;  -17.800; -652.000; -579.000
379.232;    6.100; -126.000;  -73.000
379.362; -207.500;-1001.000; -885.000
379.492;   39.600; -373.000; -424.000
379.623;  219.800;    0.000;  111.000
379.753; -189.700;-1107.000; -974.000
379.883;  385.600;   59.000;  156.000
380.013;  -23.200;-1081.000;-1017.000
380.143; -214.700;-1097.000;-1056.000
380.273; -225.000; -985.000; -861.000
380.403;   47.100; -344.000; -257.000
380.533;  -83.900; -651.000; -664.000
380.663;  163.600;  173.000;  128.000
380.793; -203.800;-1027.000;-1074.000
380.923;   -7.400; -103.000;  -34.000
381.053; -147.400; -613.000; -623.000
381.183;  -30.900; -106.000; -248.000
381.313;   47.700; -656.000; -470.000
381.443;   59.500; -692.000; -473.000
381.573;  356.400; -402.000; -409.000
381.703;  378.600;-1249.000;-1095.000
381.833; -238.300;-1454.000;-1336.000
381.963;  185.100; -134.000;  -87.000
382.093; 2203.300; -925.000; -909.000
382.223;  623.400; -713.000; -602.000
382.353;  -46.600; -801.000; -608.000
382.482;  534.900;-1091.000; -964.000
382.612; 1175.600; -872.000; -644.000
382.742;  636.000; -695.000; -622.000
382.872;  407.400; -565.000; -551.000
383.002;  128.600;  347.000; -132.000
383.131;    1.600; -226.000; -160.000
383.261;  -36.500; -706.000; -768.000
383.391;  569.200; -552.000; -377.000
383.521; 6446.600;  451.000;  263.000
383.650; 1465.300; -947.000; -904.000
383.780;  -12.500; -783.000; -656.000
383.910;  285.400;  880.000;  802.000
384.039;   43.500; -794.000; -656.000
384.169;  311.700;-1205.000;-1017.000
384.299;  -61.900; -650.000; -662.000
384.428; -190.300; -764.000; -680.000
384.558;  -81.900; -308.000; -275.000
384.687;  -39.200; -414.000; -334.000
384.817;   68.100;   75.000;   -2.000
384.947;   79.300; -234.000; -141.000
385.076;  546.700;  982.000;  912.000
385.206;  237.300;  369.000;  480.000
385.335;  -17.400; -549.000; -417.000
385.465; -110.400; -655.000; -663.000
385.594;  238.200;  -53.000;  -44.000
385.724;  602.300; -868.000; -838.000
385.853;  197.800; -296.000; -270.000
385.982; 2175.800; -743.000; -787.000
386.112; 3130.900;-1052.000; -871.000
386.241;  256.800; -307.000; -312.000
386.371;   49.000; -174.000;  -87.000
386.500;    6.200; -825.000; -789.000
386.629;   49.500; -874.000; -817.000
386.759;  169.400;  -43.000;   68.000
386.888;    5.000; -170.000; -250.000
387.017; -116.000; -648.000; -620.000
387.147; -148.100; -771.000; -798.000
387.276;   -0.200; -410.000; -397.000
387.405;   38.800; -398.000; -342.000
387.535;  -55.300; -452.000; -361.000
387.664;  -90.400; -692.000; -620.000
387.793;  125.400; -198.000; -113.000
387.922;  841.300;  255.000;  200.000
388.052;   40.600; -576.000; -423.000
388.181;   49.900; -342.000; -472.000
388.310;   -7.500; -889.000; -710.000
388.439;  -82.300; -749.000; -742.000
388.568;  357.500;  365.000;  244.000
388.697; 1598.600; -756.000; -653.000
388.826;  314.600; -768.000; -666.000
388.956;   96.000; -285.000; -307.000
389.085;  -32.400; -347.000; -287.000
389.214; -179.000; -842.000; -872.000
389.343; -114.500; -645.000; -413.000
389.472;  873.900;  126.000;  149.000
389.601;  983.000;   91.000;    0.000
389.730;   27.600; -568.000; -687.000
389.859;  168.700;  226.000;   46.000
389.988;  350.700; -423.000; -408.000
390.117;  270.200; -168.000; -146.000
390.246;   43.600; -331.000; -320.000
390.375;  173.800; -673.000; -626.000
390.504;  -91.200; -703.000; -621.000
390.633; -144.000; -672.000; -726.000
390.761; -110.000; -732.000; -645.000
390.890;   71.000;   -4.000; -130.000
391.019;  -20.500; -421.000; -441.000
391.148; -206.000; -826.000; -855.000
391.277;  -78.900; -576.000; -493.000
391.406; -142.200; -821.000; -805.000
391.534;   82.300;  574.000; -301.000
391.663; -130.300; -583.000; -645.000
391.792; -158.100; -673.000; -701.000
391.921;  174.600;   -3.000;   15.000
392.050;  250.000; -287.000; -228.000
392.178; -135.300;-1206.000;-1061.000
392.307;  198.300; -758.000; -712.000
392.436;   89.600; -427.000; -641.000
392.564;   80.700;  166.000;   -6.000
392.693; -197.000; -860.000; -682.000
392.822;  344.100; -529.000; -534.000
392.950;  112.000; -880.000; -714.000
393.079;  496.300; -188.000; -328.000
393.208;   40.100; -488.000; -511.000
393.336;   11.000; -170.000; -145.000
393.465;  -40.400; -317.000; -199.000
393.593;   75.600;   62.000;   79.000
393.722; -243.400;-1121.000; -916.000
393.850;   -0.500; -188.000;  -61.000
393.979; -255.600; -926.000; -805.000
394.107; -137.300; -517.000; -537.000
394.236;  -44.100; -570.000; -507.000
394.364;  534.900;  383.000;  206.000
394.493;  737.200; -911.000; -767.000
394.621;   24.100; -955.000; -916.000
394.750; 1500.300; -873.000; -923.000
394.878; 6119.100; -247.000; -149.000
395.007; 7888.400; -721.000; -807.000
395.135;  593.500; -790.000; -721.000
395.263; -107.400;-1038.000;-1040.000
395.392;   55.800;  -25.000; -107.000
395.520; -134.300; -818.000; -679.000
395.648; -163.300; -865.000; -915.000
395.777;  -13.300; -366.000; -405.000
395.905;  -67.700; -449.000; -564.000
396.033;  118.600;  217.000;  172.000
396.162; 1240.800; -399.000; -453.000
396.290; 1065.100;  -17.000;   -2.000
396.418;  189.100; -555.000; -514.000
396.546; -145.200; -571.000; -466.000
396.674; -195.500; -850.000; -878.000
396.803;   56.600;  -72.000;  -23.000
396.931;  183.300; -179.000; -199.000
397.059;   50.000;-1026.000; -989.000
397.187; -198.300;-1026.000; -975.000
397.315; -221.100; -884.000; -649.000
397.443; -156.200; -592.000; -443.000
397.572; -117.000; -578.000; -424.000
397.700;  -14.300; -607.000; -614.000
397.828;   48.900;  120.000;  -90.000
397.956;  -60.200; -508.000; -478.000
398.084;  -81.900; -767.000; -626.000
398.212;  119.200;  137.000;  124.000
398.340;   49.800;  -56.000;  159.000
398.468;   47.100; -390.000; -169.000
398.596; -237.500; -993.000; -953.000
398.724; -191.600; -762.000; -767.000
398.852; -287.500;-1024.000; -976.000
398.980;  -71.500; -560.000; -560.000
399.108; -109.800; -982.000; -735.000
399.236;  111.700;   13.000;    8.000
399.363;   57.400;  222.000;  196.000
399.491; -107.600; -404.000; -398.000
399.619; -216.700; -829.000; -800.000
399.747; -179.300; -859.000; -771.000
399.875;  183.500;  220.000;  234.000
400.003;  -69.300; -359.000; -284.000
400.130; -132.200; -421.000; -341.000
400.258;    6.000;  -83.000;   38.000
400.386;  -93.900; -352.000; -168.000
400.514;  -56.600; -526.000; -587.000
400.641; -145.700; -928.000; -802.000
400.769; -246.600; -979.000; -888.000
400.897; -174.800; -838.000; -793.000
401.025;    7.900; -166.000; -152.000
401.152;   18.000;  220.000;   38.000
401.280; -104.600; -430.000; -429.000
401.408; -203.900; -712.000; -576.000
401.535; -174.800; -735.000; -758.000
401.663; -329.000;-1134.000;-1054.000
401.790; -112.600; -514.000; -525.000
401.918;  110.000;  436.000;  405.000
402.046;   20.400;  134.000;  122.000
402.173;  -42.900;  -18.000;    7.000
402.301;  -66.600; -519.000; -397.000
402.428;  115.000;  528.000;  383.000
402.556; -259.100;-1188.000; -913.000
402.683;    5.300;  -20.000;   -1.000
402.811;   17.000;  -37.000; -206.000
402.938;   14.100;   20.000;   27.000
403.066;  285.700; -574.000; -558.000
403.193;  535.200;  299.000;  239.000
403.321;  427.000; -396.000; -574.000
403.448;  507.900;   83.000;   27.000
403.575;  222.700;  -90.000;  -46.000
403.703; -182.800; -732.000; -557.000
403.830;  -83.000; -531.000; -496.000
403.957; -219.800;-1117.000;-1023.000
404.085;   77.800;  -61.000; -172.000
404.212;  241.000;  -50.000;   63.000
404.339;  598.000; -566.000; -306.000
404.467;11950.400; -612.000; -524.000
404.594; 7040.500; -287.000; -227.000
404.721; 1544.600; -869.000; -764.000
404.848;  183.200; -113.000; -202.000
404.976; -191.700; -856.000; -783.000
405.103;   26.600;  -14.000;  -82.000
405.230;   91.800;  190.000;  226.000
405.357;  142.400;  117.000;   44.000
405.484;  617.300;  -49.000;    5.000
405.612;   93.400; -548.000; -563.000
405.739;  -79.400; -488.000; -243.000
405.866;  223.800;  669.000;  385.000
405.993;  -22.600; -398.000; -102.000
406.120; -193.100; -801.000; -887.000
406.247;  -86.800; -323.000; -342.000
406.374;  793.900;  540.000;  629.000
406.501;   90.600; -632.000; -702.000
406.628; -121.500; -621.000; -589.000
406.755; -151.100; -803.000; -620.000
406.882;  -31.200; -228.000; -277.000
407.009; -156.800; -719.000; -628.000
407.136;  109.200; -480.000; -401.000
407.263;  178.600; -939.000; -829.000
407.390; -100.700; -692.000; -614.000
407.517; -307.200;-1139.000;-1187.000
407.644;  -62.600; -332.000; -256.000
407.771;  -81.000; -249.000; -287.000
407.898;   60.000;  168.000;  328.000
408.025;  -74.000; -421.000; -313.000
408.151;   40.100;   82.000;  153.000
408.278;  -73.100; -267.000; -216.000
408.405; -206.800; -931.000; -899.000
408.532;  -87.600; -549.000; -542.000
408.659; -172.700; -677.000; -648.000
408.785; -334.400;-1298.000;-1170.000
408.912;  -61.300; -412.000; -296.000
409.039; -154.200; -610.000; -686.000
409.166; -153.100; -591.000; -555.000
409.292; -201.900; -571.000; -534.000
409.419; -208.700; -665.000; -649.000
409.546; -102.200; -431.000; -192.000
409.672; -167.400; -713.000; -545.000
409.799;    1.100;  -36.000;   34.000
409.926;  -35.900; -180.000; -179.000
410.052; -313.400;-1127.000;-1091.000
410.179;  -83.300; -368.000; -392.000
410.305; -113.000; -375.000; -493.000
410.432;  -55.200; -220.000; -333.000
410.558; -113.100; -305.000; -380.000
410.685; -146.800; -688.000; -431.000
410.812; -152.800; -409.000; -588.000
410.938; -231.900; -964.000; -808.000
411.065; -145.700; -671.000; -645.000
411.191;   -1.200; -189.000; -174.000
411.317; -193.300; -823.000; -742.000
411.444;  -41.600; -317.000; -246.000
411.570;  -88.000; -339.000; -294.000
411.697; -183.900; -758.000; -752.000
411.823; -294.900; -989.000; -999.000
411.949;  -13.300;  -56.000;   17.000
412.076; -179.400; -539.000; -519.000
412.202; -187.100; -758.000; -757.000
412.329; -219.900; -798.000; -752.000
412.455; -178.900; -821.000; -657.000
412.581;  -27.200;  -15.000;  172.000
412.707; -143.700; -540.000; -457.000
412.834;   58.600;  156.000;  219.000
412.960; -126.800; -785.000; -784.000
413.086; -181.700; -743.000; -701.000
413.212;  297.000;  604.000;  578.000
413.339;  -90.600; -685.000; -701.000
413.465;   15.800; -364.000; -310.000
413.591; -168.400; -757.000; -474.000
413.717;  -70.200; -358.000; -366.000
413.843; -230.900; -839.000; -861.000
413.969;  -61.400;  -47.000; -292.000
414.096; -175.200; -679.000; -679.000
414.222;   36.100;  -33.000;   85.000
414.348;  -70.800; -652.000; -385.000
414.474;  189.600;   38.000;  -52.000
414.600;   34.100; -126.000; -144.000
414.726;   16.700;  -96.000;  -55.000
414.852;  -68.300; -365.000; -342.000
414.978;  126.600;  104.000;  -18.000
415.104;  132.000;   38.000;   80.000
415.230;   76.100; -329.000; -330.000
415.356;  140.300; -409.000; -514.000
415.482;  442.000;   13.000;  -35.000
415.608;  590.900; -247.000; -323.000
415.734; 2072.600;   67.000;   38.000
415.860;41467.400; -875.000; -767.000
415.986;27225.800; -685.000; -607.000
416.111; 2278.000; -798.000; -652.000
416.237;  533.100; -424.000; -571.000
416.363; 2511.800; -765.000; -733.000
416.489; 8395.200; -324.000; -251.000
416.615;  837.700; -707.000; -742.000
416.741;   16.000; -677.000; -784.000
416.866; -151.400; -673.000; -736.000
416.992; -194.000; -801.000; -818.000
417.118;   20.200;  -41.000;  -80.000
417.244; -108.200; -798.000; -531.000
417.369; -127.800; -801.000; -612.000
417.495;   26.900; -325.000; -254.000
417.621; -120.300;-1015.000; -803.000
417.746;   49.500; -579.000; -572.000
417.872;  125.500; -254.000; -144.000
417.998;  183.400; -515.000; -530.000
418.123; 2375.500;-1073.000; -845.000
418.249;10839.600; -512.000; -601.000
418.374; 1393.400; -916.000; -824.000
418.500;  264.300; -383.000; -482.000
418.626;  286.200;   70.000;  -59.000
418.751;  324.300; -549.000; -448.000
418.877;  432.400; -637.000; -643.000
419.002; 4129.500; -688.000; -560.000
419.128;25559.000; -930.000; -721.000
419.253; 5614.400; -967.000; -837.000
419.379;  829.000; -391.000; -338.000
419.504;  831.200;  325.000;  415.000
419.629; 1096.600; -393.000; -212.000
419.755; 7959.300; -317.000; -254.000
419.880;42461.600;  -98.000;   67.000
420.006;23544.600; -280.000; -221.000
420.131;56542.000; -662.000; -775.000
420.256; 7475.700; -315.000; -316.000
420.382; 1052.500; -665.000; -687.000
420.507;  164.700; -649.000; -778.000
420.632;  226.400; -337.000; -339.000
420.758;  375.100; -251.000; -425.000
420.883; -138.000; -876.000; -672.000
421.008; -162.700; -775.000; -619.000
421.133; -130.800; -509.000; -467.000
421.259;  -19.200; -325.000; -259.000
421.384; -206.800; -834.000; -693.000
421.509;  -88.900;-1052.000; -862.000
421.634; 1717.300; -936.000; -820.000
421.759;  684.100; -359.000; -327.000
421.885;  -74.700; -717.000; -656.000
422.010; -136.000; -673.000; -542.000
422.135; -239.700; -695.000; -727.000
422.260;  128.800;  340.000;  280.000
422.385;  -41.400;   12.000;  -98.000
422.510;   62.500;  151.000;  -26.000
422.635;   74.400;  -87.000;  -43.000
422.760;  195.200; -766.000; -791.000
422.885;  160.300;  -57.000;  -80.000
423.010;  -27.700; -112.000; -169.000
423.135; -121.700; -481.000; -561.000
423.260;  -19.700; -150.000; -245.000
423.385;  188.700;  476.000;  222.000
423.510;  100.200;   71.000;  -22.000
423.635;  213.900;  133.000;   45.000
423.760;  197.900;  383.000;  328.000
423.885;  121.500;  336.000;  391.000
424.010;   63.600;  -68.000;  -13.000
424.135;    4.100;    5.000;  -33.000
424.259; -103.900; -654.000; -457.000
424.384;  -43.500; -279.000; -272.000
424.509;    2.900; -260.000; -186.000
424.634; -148.600; -761.000; -623.000
424.759;  -13.100; -688.000; -544.000
424.883;    6.600; -506.000; -527.000
425.008;  394.900; -502.000; -410.000
425.133; 4163.400; -679.000; -653.000
425.258; 1722.400; -517.000; -381.000
425.382; 1783.400; -867.000; -774.000
425.507; 4046.200; -487.000; -543.000
425.632;  689.000; -802.000; -663.000
425.756;  959.700; -256.000; -146.000
425.881;14397.700; -831.000; -857.000
426.006;35231.600; -604.000; -355.000
426.130; 4944.000; -696.000; -508.000
426.255;  667.500; -611.000; -491.000
426.379;  346.000; -189.000; -577.000
426.504;  848.800;  660.000;  544.000
426.629; 8402.700; -519.000; -466.000
426.753; 5158.300;   64.000;  -46.000
426.878;  615.800; -252.000; -288.000
427.002;  374.200; -651.000; -668.000
427.127; 3539.300;  -35.000; -158.000
427.251;23269.000;  372.000;  401.000
427.375; 5871.700; -191.000; -173.000
427.500; 3741.600; -616.000; -610.000
427.624; 1154.700; -234.000; -400.000
427.749;  195.700; -216.000; -225.000
427.873;  -27.300; -499.000; -412.000
427.997;  -37.800; -222.000; -230.000
428.122;  214.300;  795.000;  703.000
428.246;  213.600;  433.000;  434.000
428.371; -206.600; -869.000; -773.000
428.495; -136.500; -624.000; -646.000
428.619;   -9.700; -186.000; -117.000
428.743;  122.000;   65.000;  132.000
428.868;   36.300; -732.000; -643.000
428.992; 2175.600; -219.000; -326.000
429.116;  850.600; -329.000; -357.000
429.240;  471.800;  419.000;  426.000
429.365;  -27.000; -454.000; -574.000
429.489;  -69.900; -638.000; -647.000
429.613;   75.400; -236.000; -177.000
429.737;  126.300; -563.000; -432.000
429.861;  621.400; -247.000; -133.000
429.985;11948.600; -425.000; -305.000
430.109;11776.500; -770.000; -908.000
430.234; 1387.300;   76.000;  -50.000
430.358;  202.500; -250.000; -160.000
430.482;  -63.800; -672.000; -564.000
430.606;  -50.300; -655.000; -375.000
430.730;   85.500; -437.000; -388.000
430.854;  171.400; -909.000; -835.000
430.978; -111.700; -795.000; -764.000
431.102; -111.000; -499.000; -422.000
431.226; -173.600; -874.000; -815.000
431.350;  137.700;  345.000;  422.000
431.474;  -89.000; -661.000; -373.000
431.597; -262.200;-1060.000; -848.000
431.721; -103.300; -276.000; -267.000
431.845; -198.400; -704.000; -472.000
431.969;  -88.300; -304.000; -349.000
432.093; -149.000; -395.000; -317.000
432.217;   39.100;   32.000;   82.000
432.341; -110.800; -523.000; -518.000
432.464;   44.100;   96.000;   40.000
432.588;  326.900; -401.000; -329.000
432.712;  165.200;  -52.000;  -52.000
432.836;  177.200;  213.000;  263.000
432.959;   39.500; -372.000; -311.000
433.083;  234.500;   11.000;    2.000
433.207;  840.100;  285.000;  930.000
433.330;10997.600; -391.000; -200.000
433.454;12152.200; -654.000; -638.000
433.578; 7253.600;  583.000;  278.000
433.701; 1194.000; -623.000; -675.000
433.825;  270.700; -292.000; -299.000
433.949;  313.000;   28.000;  -72.000
434.072;   66.600; -410.000; -323.000
434.196;   23.800; -309.000; -117.000
434.319; 7825.400;25482.000;25124.000
434.443; 1569.600; -656.000; -603.000
434.566; 5399.000;  281.000;   62.000
434.690;  851.700; -637.000; -383.000
434.813;  131.700; -251.000; -173.000
434.937;  -70.500; -569.000; -696.000
435.060;  -19.300; -423.000; -332.000
435.184;  450.100; -492.000; -217.000
435.307;  255.800;  159.000;  102.000
435.431;   30.800;  -40.000;   24.000
435.554;  -81.700; -399.000; -240.000
435.677; -122.200; -350.000; -258.000
435.801;   11.500;  -25.000;   49.000
435.924;   43.300;    1.000;  -67.000
436.048; -214.300;-1019.000; -732.000
436.171; -118.500; -240.000;  -66.000
436.294;   24.900; -248.000; -229.000
436.417;  221.600; -963.000; -849.000
436.541; -137.700; -814.000; -840.000
436.664;  -60.800; -242.000; -316.000
436.787;   37.600;   13.000;  113.000
436.910; -171.100; -792.000; -422.000
437.034;   93.200;  142.000;  143.000
437.157;  129.400;  -11.000;    0.000
437.280;  -91.600; -392.000; -292.000
437.403; -186.900; -982.000; -869.000
437.526;  944.700; -903.000; -865.000
437.649; 3187.900; -505.000; -332.000
437.772;  312.000; -692.000; -540.000
437.896;  269.200;  700.000;  544.000
438.019; -144.300; -758.000; -503.000
438.142; -145.100; -596.000; -506.000
438.265;  -11.200; -639.000; -670.000
438.388;  901.200; -520.000; -410.000
438.511;  115.500; -597.000; -394.000
438.634;  -50.800; -247.000; -125.000
438.757; -196.100; -693.000; -619.000
438.880;   -4.800;  -34.000;  -57.000
439.003; -125.400; -417.000; -437.000
439.126; -100.700; -287.000; -167.000
439.248;  -80.000;  -98.000; -139.000
439.371;  -30.300;    9.000;  -53.000
439.494;  135.200;  510.000;  439.000
439.617;  -36.400;   65.000;  -88.000
439.740; -329.000; -968.000; -816.000
439.863; -218.800; -755.000; -595.000
439.986; -197.900; -476.000; -431.000
440.108;  -76.300; -161.000; -112.000
440.231; -309.700; -950.000; -836.000
440.354;  -36.300;  -64.000; -150.000
440.477;   77.500; -566.000; -542.000
440.599;   41.500; -200.000; -225.000
440.722; -195.400; -709.000; -586.000
440.845;  187.900;  751.000;  928.000
440.968; -169.200; -415.000; -311.000
441.090;  -82.900; -199.000;  -33.000
441.213; -312.800;-1021.000; -825.000
441.336;  -37.800; -159.000;   -5.000
441.458;  -90.100; -549.000; -396.000
441.581; -108.100; -628.000; -629.000
441.703;  -91.400; -152.000;   13.000
441.826; -152.400; -557.000; -400.000
441.948;  -25.200;   56.000;   51.000
442.071;  155.100;  555.000;  424.000
442.193; -195.300; -531.000; -485.000
442.316;   97.800;  152.000;   97.000
442.438;  134.700; -233.000;  -10.000
442.561;  192.000;  272.000;  262.000
442.683;  849.900; -809.000; -522.000
442.806; 1631.300;   -8.000;   74.000
442.928;  -42.700; -859.000; -604.000
443.051; -106.200; -577.000; -373.000
443.173; -147.600; -341.000; -339.000
443.295; -122.800; -263.000; -371.000
443.418;  -76.700; -321.000;  -29.000
443.540;   27.600; -106.000;   -4.000
443.662; -215.700; -563.000; -465.000
443.785;   42.100;  335.000;  199.000
443.907; -160.100; -362.000; -208.000
444.029; -195.600; -767.000; -494.000
444.152; -241.600; -644.000; -554.000
444.274;  -50.900;  -18.000;  -24.000
444.396; -168.800; -461.000; -221.000
444.518; -196.500; -691.000; -454.000
444.640; -153.700; -268.000; -111.000
444.763;   37.300;  388.000;  249.000
444.885; -174.300; -432.000; -392.000
445.007;  -39.800;   35.000;   86.000
445.129; -187.800; -610.000; -515.000
445.251; -158.500; -372.000; -439.000
445.373; -225.100; -537.000; -386.000
445.495;   51.000;  242.000;  350.000
445.617;  186.500;  853.000;  753.000
445.739;  -74.300; -215.000;  -97.000
445.861;  -26.500; -245.000; -112.000
445.984;  -28.700; -267.000; -101.000
446.105;  310.500; -418.000; -251.000
446.227;  877.600; -176.000;  -19.000
446.349;  -21.900; -358.000; -249.000
446.471; -173.000; -615.000; -448.000
446.593; -105.300; -316.000;   19.000
446.715;   17.700;  -67.000;   41.000
446.837;  175.900;  697.000;  832.000
446.959; -140.400; -457.000; -478.000
447.081; -247.200; -628.000; -518.000
447.203;  217.100;  862.000;  834.000
447.325; -107.200; -270.000;   42.000
447.446;   51.700;  286.000;  530.000
447.568; -297.600; -921.000; -803.000
447.690; -112.500; -236.000; -245.000
447.812; -262.900; -798.000; -519.000
447.933;   28.800;  155.000;  127.000
448.055;  -97.300; -306.000; -261.000
448.177;  309.800;   31.000;   79.000
448.299;   68.200; -935.000; -727.000
448.420;   57.600;  -25.000;  159.000
448.542;  -34.900;   -3.000;   33.000
448.664;   22.600;  109.000;  322.000
448.785;   27.800;  265.000;   83.000
448.907; -152.500; -614.000; -353.000
449.028;  -67.800; -771.000; -471.000
449.150;  160.700;  492.000;  589.000
449.272; -283.500;-1044.000; -913.000
449.393;  111.800;  612.000;  694.000
449.515; -237.900; -634.000; -581.000
449.636;  -57.300; -264.000; -155.000
449.758;  199.900;  763.000;  622.000
449.879; -106.800; -498.000; -396.000
450.001; -101.200; -149.000;  -49.000
450.122;    1.500;  -95.000;  162.000
450.244;   42.100;   37.000;  364.000
450.365; -116.900; -495.000; -301.000
450.486;   -1.400;   80.000;  268.000
450.608;  100.000;  393.000;  326.000
450.729;  212.800;  578.000;  645.000
450.850;  105.900; -574.000; -466.000
450.972; 1702.200; -552.000; -389.000
451.093;10467.500;  190.000;  588.000
451.214; 3973.500; -516.000; -337.000
451.336;  781.200;  773.000;  579.000
451.457;  163.800;  264.000;  393.000
451.578;  -35.200; -118.000;  -74.000
451.699; -195.000; -546.000; -540.000
451.821;  -52.100; -284.000;  -50.000
451.942;   87.400;  278.000;  285.000
452.063;  125.400;  228.000;  419.000
452.184; 1314.400;  -54.000;  -49.000
452.305; 2253.400;  103.000;  170.000
452.427;  253.300; -549.000; -301.000
452.548;   15.100;   23.000;   79.000
452.669;  -60.100; -257.000;  -89.000
452.790;  -40.000;    3.000;  -18.000
452.911;   32.900;  195.000;  259.000
453.032;  -48.300; -289.000;  -60.000
453.153;  -17.700;  -29.000;   81.000
453.274;  191.900;  737.000;  868.000
453.395;  -18.900;  -51.000;  175.000
453.516;  346.300; 1317.000; 1388.000
453.637;  -79.600; -205.000; -150.000
453.758;  -66.700;   15.000;   69.000
453.879; -160.200; -462.000; -250.000
454.000;  218.800; 1086.000;  948.000
454.121; -188.700; -554.000; -326.000
454.242; -195.500; -599.000; -383.000
454.362;  -32.800;  -99.000;  114.000
454.483;  -17.100; -309.000; -229.000
454.604;  159.000;  512.000;  580.000
454.725; -184.200; -627.000; -555.000
454.846; -197.500; -474.000; -406.000
454.967;   35.600;  230.000;  539.000
455.087;  -28.700;  179.000;  153.000
455.208;   99.900;  554.000;  856.000
455.329;  -67.500;  -22.000;   82.000
455.450;  155.300;  473.000;  633.000
455.570;  -96.800; -234.000; -211.000
455.691;  -33.000;  201.000;  407.000
455.812; -162.100; -270.000;  -92.000
455.932;  -50.000;  107.000;  -97.000
456.053;  -72.400;   36.000;   24.000
456.173; -131.800; -433.000; -355.000
456.294; -196.500; -476.000; -303.000
456.415;  -85.200;  -73.000;   70.000
456.535;    0.100;  297.000;  273.000
456.656;  -35.400;  132.000;  240.000
456.776;  -64.400;    3.000;  298.000
456.897;   48.300;  308.000;  513.000
457.017;  -98.200; -153.000;   -3.000
457.138; -179.800; -402.000; -249.000
457.258;   21.100;  263.000;  224.000
457.379;   52.000;  509.000;  521.000
457.499;   38.200;  443.000;  432.000
457.620; -218.400; -407.000; -231.000
457.740; -143.500; -132.000;  -11.000
457.860;  -47.600;   87.000;   44.000
457.981;  -24.700;  132.000;  124.000
458.101; -103.800;  -89.000;   40.000
458.221;   -3.900;  336.000;  402.000
458.342;  -41.100;   -4.000;  -37.000
458.462;  120.600;  617.000;  352.000
458.582;  -31.200; -302.000; -294.000
458.703;   97.200;  303.000;  154.000
458.823;   18.100;   22.000;  163.000
458.943;   78.100;  341.000;  467.000
459.063;   16.200; 1124.000;  192.000
459.183;   -2.100;  328.000;  313.000
459.304;  124.500;  315.000;  517.000
459.424;  -66.400; -246.000;  -89.000
459.544;  805.000;  388.000;  764.000
459.664; 1761.000;  499.000;  506.000
459.784;  616.200; 1004.000; 1175.000
459.904;  163.000;  867.000;  744.000
460.024;  189.200;  867.000;  684.000
460.144;   44.000;  449.000;  554.000
460.264;   38.700;  515.000;  327.000
460.385; -147.700; -145.000; -119.000
460.505;  138.400;  905.000;  858.000
460.625; -130.900;  -17.000;  -68.000
460.745;   20.900;  396.000;  541.000
460.864;  -71.500;  153.000;  469.000
460.984;   86.400;  499.000;  573.000
461.104;  382.400; 1656.000; 1775.000
461.224;   90.700;  657.000;  650.000
461.344;    8.300;  431.000;  360.000
461.464;   16.700;  258.000;  513.000
461.584;   24.500;  283.000;  466.000
461.704;  -90.200;   58.000;  108.000
461.824;  -51.600;  238.000;  259.000
461.943;   -8.000;  191.000;  130.000
462.063;  -89.600;    2.000;  324.000
462.183;  106.500;  639.000;  717.000
462.303;  263.300; 1678.000; 1230.000
462.422;  166.600;  781.000;  840.000
462.542;  -27.200;  271.000;  391.000
462.662;  117.600;  353.000;  380.000
462.782;  597.800;  833.000;  572.000
462.901; 1025.100;  545.000;  717.000
463.021;  583.900; 1702.000; 1638.000
463.141;   50.200;  337.000;  770.000
463.260;   15.800;  614.000;  474.000
463.380;   75.400;  902.000;  884.000
463.499;  -45.100;  342.000;  332.000
463.619;  -13.300;  581.000;  559.000
463.738;  289.700; 1644.000;  903.000
463.858;   94.000;  657.000;  811.000
463.978;   35.300;  542.000;  396.000
464.097;  207.700;  921.000; 1114.000
464.217;  322.000; 1196.000; 1143.000
464.336;  297.700; 1068.000; 1130.000
464.455;   -2.100;  328.000;  659.000
464.575;  155.500;  597.000;  602.000
464.694;  379.200; 1204.000; 1179.000
464.814;  327.300; 1190.000; 1138.000
464.933;  211.700; 1095.000; 1027.000
465.052;  274.200; 1412.000; 1054.000
465.172;  192.900;  922.000;  799.000
465.291;  334.700; 1376.000; 1320.000
465.410;   98.400;  462.000;  735.000
465.530;  286.300; 1355.000; 1310.000
465.649;  210.100; 1209.000; 1273.000
465.768;  364.200; 1673.000; 1508.000
465.888;  203.300;  941.000; 1174.000
466.007;  294.300; 1335.000; 1440.000
466.126;   18.300;  721.000;  641.000
466.245;  189.300; 1176.000; 1187.000
466.364;  147.900;  950.000; 1060.000
466.484;  161.300; 1024.000; 1213.000
466.603;  170.800; 1101.000; 1222.000
466.722;  312.800; 1490.000; 1769.000
466.841;  225.400; 1151.000; 1401.000
466.960;  180.800; 1069.000;  972.000
467.079;  349.000; 1971.000; 1786.000
467.198;  171.900; 1238.000; 1181.000
467.317;  256.500; 1768.000; 1162.000
467.436;  220.200; 1709.000; 1261.000
467.555;  336.400; 1796.000; 1746.000
467.674;  213.000; 1227.000; 1329.000
467.793;  152.200; 1376.000; 1374.000
467.912;  242.600; 1658.000; 1539.000
468.031;  348.600; 2038.000; 1930.000
468.150;  359.400; 1842.000; 1837.000
468.269;  470.400; 2313.000; 2090.000
468.388;  448.600; 2168.000; 2339.000
468.507;  563.400; 2884.000; 2903.000
468.626;  666.800; 2555.000; 2541.000
468.744;  395.300; 2018.000; 2174.000
468.863;  491.600; 2312.000; 2523.000
468.982;  275.800; 1503.000; 1555.000
469.101;  475.800; 2788.000; 2692.000
469.220;  374.300; 2333.000; 2176.000
469.338;  558.100; 2935.000; 3051.000
469.457;  469.100; 2719.000; 2545.000
469.576;  786.400; 3953.000; 3784.000
469.695;  557.800; 2877.000; 3066.000
469.813;  949.300; 4148.000; 4192.000
469.932;  878.900; 4255.000; 4485.000
470.051;  949.200; 4075.000; 4161.000
470.169; 1909.500; 4470.000; 4338.000
470.288; 2988.500; 4700.000; 4809.000
470.406; 1736.600; 5059.000; 5194.000
470.525; 1336.400; 6101.000; 5787.000
470.644; 1339.400; 6847.000; 6794.000
470.762; 1739.600; 8397.000; 7873.000
470.881; 1917.600; 8651.000; 8464.000
470.999; 2179.400; 9685.000; 9151.000
471.118; 2257.800;11174.000;10711.000

