
Integration time [ms]: 200.000
Averaging Nr. [scans]: 10
Smoothing Nr. [pixels]: 0
Data measured with spectrometer [name]: 2101012U2
Wave   ;Sample   ;Dark     ;Reference
[nm]   ;[counts] ;[counts] ;[counts] 

197.733;  129.000;  516.000;  404.000
197.879; -170.100; -610.000; -634.000
198.025; -134.300; -475.000; -420.000
198.171; -188.500; -602.000; -612.000
198.317;  -53.800; -401.000; -316.000
198.463; -135.800; -655.000; -404.000
198.609;   34.400;  181.000; -137.000
198.755; -209.000; -644.000; -410.000
198.901; -146.200; -505.000; -424.000
199.047; -125.700; -615.000; -488.000
199.193;  -93.700; -230.000; -468.000
199.339;  -87.700; -222.000; -369.000
199.485;   76.000;  330.000;  271.000
199.631;   27.000;  227.000;  310.000
199.777; -100.400; -466.000; -398.000
199.923; -119.600; -610.000; -424.000
200.069;  -22.000; -141.000;  -58.000
200.215;   92.000;  128.000;  453.000
200.361;   69.200;  243.000;  477.000
200.507; -155.800; -600.000; -373.000
200.653;  -68.000; -371.000; -194.000
200.798;  -67.000; -215.000; -125.000
200.944;   -7.100; -146.000;  -41.000
201.090;   92.300;   61.000;  222.000
201.236;  -13.500; -116.000; -158.000
201.382;  271.000;  874.000;  903.000
201.528;    0.900;  -58.000;  -48.000
201.674;  -68.200; -386.000; -293.000
201.819; -146.500; -540.000; -439.000
201.965; -185.300; -699.000; -447.000
202.111;  -40.800; -273.000; -226.000
202.257;  -81.600; -250.000; -238.000
202.402;   14.300;   13.000;  -36.000
202.548;  -52.200; -169.000; -116.000
202.694;  168.300;  410.000; -183.000
202.840; -183.400; -603.000; -531.000
202.985; -169.500; -681.000; -639.000
203.131; -239.500; -832.000; -666.000
203.277;  -53.600; -199.000; -262.000
203.423; -124.100; -434.000; -520.000
203.568;  -94.800; -462.000; -237.000
203.714; -124.900; -535.000; -542.000
203.860; -184.000; -682.000; -641.000
204.005;   13.500;  112.000;  167.000
204.151;  114.300;  561.000;  556.000
204.296; -118.200; -354.000; -221.000
204.442; -173.500; -600.000; -547.000
204.588; -163.800; -592.000; -579.000
204.733;   53.200;  178.000;  168.000
204.879; -294.000;-1018.000; -822.000
205.025;   17.300;  -99.000;  126.000
205.170;   11.100;  -17.000;   94.000
205.316;  158.600;  438.000;  661.000
205.461; -168.800; -698.000; -554.000
205.607;  175.200;  609.000;  665.000
205.752; -182.100; -626.000; -551.000
205.898; -125.900; -501.000; -391.000
206.043; -138.200; -578.000; -506.000
206.189;  -74.500; -243.000; -285.000
206.334;  167.100;  554.000;  606.000
206.480;  159.400;  409.000;  239.000
206.625; -190.900; -529.000; -552.000
206.771;  -99.900; -451.000; -373.000
206.916;  -78.600; -210.000; -537.000
207.062; -167.500; -545.000; -591.000
207.207; -138.800; -546.000; -443.000
207.353;  121.600;  185.000;  460.000
207.498;   27.500;  196.000;   85.000
207.643; -107.000; -501.000; -370.000
207.789; -280.000;-1069.000; -910.000
207.934; -196.600; -665.000; -713.000
208.080;  -35.800; -154.000;   66.000
208.225;  -36.700;  -22.000;  -57.000
208.370; -203.600; -727.000; -619.000
208.516; -166.600; -741.000; -487.000
208.661;  -29.800; -127.000;  -69.000
208.806;  -52.300; -165.000; -171.000
208.952; -256.000;-1044.000; -731.000
209.097;  170.900;  378.000;  349.000
209.242;  -89.100; -307.000; -382.000
209.387;  125.600;  392.000;  350.000
209.533; -116.900; -321.000; -350.000
209.678;  181.800;  472.000;  543.000
209.823; -112.300; -408.000; -310.000
209.969; -231.000; -860.000; -757.000
210.114; -246.500; -907.000; -719.000
210.259; -259.600; -939.000; -889.000
210.404;  -18.400; -171.000;  103.000
210.549;   19.400;  108.000;    3.000
210.695;  -38.100;   -3.000;  -95.000
210.840;   40.400;   94.000;   67.000
210.985; -123.900; -484.000; -303.000
211.130;  147.700;  268.000;  406.000
211.275;   41.500;  207.000;  199.000
211.420; -133.500; -300.000; -289.000
211.566; -165.900; -536.000; -489.000
211.711;   39.400;  218.000;  157.000
211.856; -110.000; -545.000; -519.000
212.001;   29.900;  151.000;   44.000
212.146;  -10.100;  153.000;   49.000
212.291;  -85.500; -210.000; -186.000
212.436;  -74.700; -280.000;   -6.000
212.581; -189.200; -685.000; -653.000
212.726; -149.100; -487.000; -538.000
212.871; -103.700; -552.000; -217.000
213.016; -295.400;-1172.000;-1029.000
213.161;  158.500;  406.000;  291.000
213.306; -142.800; -435.000; -577.000
213.451; -194.300; -778.000; -689.000
213.596; -109.500; -455.000; -347.000
213.741; -104.100; -448.000; -538.000
213.886; -151.600; -498.000; -517.000
214.031;  -61.400; -294.000; -124.000
214.176; -115.800; -408.000; -341.000
214.321;  -51.200; -296.000; -157.000
214.466;  -37.000; -163.000;  -43.000
214.611;    0.000;  -61.000;  -10.000
214.756; -252.100; -948.000; -858.000
214.901;  -45.500; -388.000; -226.000
215.046; -243.400; -797.000; -825.000
215.191;   42.600;  128.000;   35.000
215.336;  -29.600; -157.000;  -19.000
215.480; -139.500; -684.000; -505.000
215.625;  -42.700; -175.000;  -19.000
215.770; -182.300; -757.000; -662.000
215.915;  -12.500;   -5.000;  -97.000
216.060;   -5.800; -113.000;  -21.000
216.205; -229.100; -731.000; -779.000
216.349; -152.400; -470.000; -533.000
216.494; -283.000; -939.000; -867.000
216.639; -266.900; -823.000; -888.000
216.784; -192.700; -577.000; -525.000
216.929;   93.300;  392.000;  281.000
217.073;  -36.600; -244.000;  -31.000
217.218;   32.700;   78.000;  -47.000
217.363; -188.200; -656.000; -618.000
217.507; -168.200; -623.000; -588.000
217.652; -282.700; -845.000; -874.000
217.797; -182.400; -708.000; -659.000
217.942; -219.600; -856.000; -720.000
218.086;  161.500;  608.000;  539.000
218.231;  -17.100; -174.000;  -26.000
218.376;  -65.100; -337.000; -229.000
218.520;    4.600;  -41.000;   96.000
218.665;  -94.100; -338.000; -204.000
218.810; -116.400; -275.000; -233.000
218.954;   20.900;  201.000;   35.000
219.099; -263.700; -713.000; -963.000
219.243; -157.100; -589.000; -554.000
219.388;  -66.300; -264.000; -136.000
219.532;  -34.500; -116.000; -116.000
219.677; -146.900; -564.000; -521.000
219.822;   -0.800;   33.000;   89.000
219.966;    1.600;   17.000;  -99.000
220.111;  -94.900; -328.000;  -40.000
220.255; -195.600; -797.000; -750.000
220.400;  -49.200; -180.000; -146.000
220.544; -139.400; -516.000; -450.000
220.689; -118.800; -422.000; -451.000
220.833;  -26.700; -123.000;  -58.000
220.978; -126.200; -393.000; -563.000
221.122;   54.900;  319.000;  307.000
221.267; -279.600; -906.000; -837.000
221.411; -122.800; -478.000; -394.000
221.555;  -31.300; -104.000;  -23.000
221.700; -110.400; -329.000; -222.000
221.844;   52.800;  255.000;  272.000
221.989;  -69.200; -328.000; -311.000
222.133;  -77.300; -289.000; -307.000
222.277;  -22.500;    5.000;   78.000
222.422;   49.500;  227.000;  113.000
222.566;  -42.700; -381.000; -214.000
222.711; -126.200; -414.000; -479.000
222.855; -172.900; -643.000; -586.000
222.999; -168.900; -642.000; -717.000
223.144;  -47.600; -195.000; -194.000
223.288;  100.600;  423.000;  251.000
223.432;   41.500;  184.000;  230.000
223.576;   47.400;  152.000;  -21.000
223.721;   69.400;  364.000;  273.000
223.865; -116.800; -472.000; -475.000
224.009;  484.600; 1673.000; 1631.000
224.153; -150.400; -660.000; -671.000
224.298; -156.400; -531.000; -489.000
224.442;  -26.500;  -74.000;  -33.000
224.586;   -6.500; -169.000; -106.000
224.730; -233.400; -858.000; -670.000
224.875; -256.700; -739.000; -688.000
225.019;   18.600;  102.000;  188.000
225.163;  156.000;  208.000;  341.000
225.307;   47.300;   97.000;  -91.000
225.451;   96.200;  360.000;  481.000
225.595;   65.900;  264.000;  176.000
225.739;   -9.500; -170.000;  -94.000
225.884;   15.500;   86.000;    5.000
226.028; -180.300; -760.000; -626.000
226.172;  -61.000; -260.000; -273.000
226.316; -237.300; -941.000; -902.000
226.460; -141.700; -645.000; -493.000
226.604; -108.500; -406.000; -400.000
226.748; -202.600; -836.000; -733.000
226.892;  -41.900; -227.000; -181.000
227.036;  -96.500; -537.000; -447.000
227.180; -130.300; -551.000; -375.000
227.324; -131.000; -561.000; -580.000
227.468; -250.900; -819.000; -717.000
227.612;   27.300;  242.000;  -28.000
227.756; -223.600; -845.000; -698.000
227.900;   92.600;  342.000;  441.000
228.044; -125.100; -509.000; -290.000
228.188;  125.300;  448.000;  568.000
228.332; -196.500; -546.000; -472.000
228.476;  -67.800; -223.000; -149.000
228.620;  -49.500; -210.000; -150.000
228.764;  138.500;  431.000;  349.000
228.908;  -32.500; -155.000;   30.000
229.052; -103.700; -615.000; -528.000
229.195;  -27.700; -172.000;   13.000
229.339;  -30.500; -235.000; -305.000
229.483;  -86.300;    5.000; -162.000
229.627;   12.000; -156.000;  139.000
229.771;  -64.600; -218.000; -294.000
229.915;   23.500;  230.000;   79.000
230.059; -204.900; -648.000; -663.000
230.202;  -62.400; -370.000; -317.000
230.346;  -17.200; -107.000;  107.000
230.490; -140.100; -489.000; -521.000
230.634; -221.500; -736.000; -553.000
230.777;  118.200;  478.000;  509.000
230.921; -106.300; -450.000; -359.000
231.065; -132.900; -246.000; -286.000
231.209;   75.500;  261.000;  265.000
231.352;   29.500;   54.000;   40.000
231.496;   37.800;  568.000;  188.000
231.640; -186.100; -693.000; -621.000
231.783;   99.700;  546.000;  525.000
231.927; -102.000; -294.000; -365.000
232.071; -264.400; -962.000; -736.000
232.214; -235.200; -980.000; -764.000
232.358; -176.900; -683.000; -599.000
232.502;    5.400;  -19.000;    7.000
232.645; -310.900;-1090.000; -927.000
232.789;  -42.500; -257.000; -218.000
232.933;  -85.800; -407.000; -224.000
233.076; -272.000;-1038.000; -897.000
233.220; -197.000; -752.000; -777.000
233.363; -167.600; -669.000; -477.000
233.507;  108.400;  371.000;  129.000
233.650; -203.200; -764.000; -834.000
233.794;  101.400;  438.000;  461.000
233.938; -153.600; -530.000; -362.000
234.081;  -39.500;  -93.000;   31.000
234.225; -146.800; -631.000; -539.000
234.368; -254.400; -773.000; -723.000
234.512;  -99.400; -385.000; -299.000
234.655; -166.400; -582.000; -555.000
234.798; -128.400; -493.000; -466.000
234.942; -282.100; -884.000;-1002.000
235.085; -139.800; -651.000; -443.000
235.229; -140.400; -405.000; -410.000
235.372; -120.300; -247.000; -191.000
235.516; -126.400; -397.000; -321.000
235.659;   64.000;   92.000;  121.000
235.802;  -20.400;  -38.000;  -22.000
235.946;   54.800;  335.000;  215.000
236.089;   87.100;  126.000;  250.000
236.233;  111.100;  275.000;  298.000
236.376; -116.200; -235.000; -378.000
236.519; -110.200; -297.000; -319.000
236.663;  -57.300; -215.000; -117.000
236.806; -301.000;-1029.000; -999.000
236.949;  150.700;  543.000;  431.000
237.092;  152.200;  412.000;  391.000
237.236; -167.800; -589.000; -502.000
237.379;  157.200;  352.000;  428.000
237.522; -244.700; -879.000; -768.000
237.666;  -39.700; -271.000;   18.000
237.809; -267.900; -851.000; -823.000
237.952;  101.400;  469.000;  271.000
238.095; -143.600; -447.000; -442.000
238.238;  184.800;  688.000;  700.000
238.382;  -23.100;  166.000;  103.000
238.525; -144.200; -598.000; -511.000
238.668; -281.100;-1060.000; -985.000
238.811; -185.000; -638.000; -643.000
238.954; -119.400; -483.000; -334.000
239.097;  211.000;  617.000;  664.000
239.241;   39.600;  394.000;  326.000
239.384;  -69.900; -254.000; -214.000
239.527; -104.700; -424.000; -224.000
239.670; -306.300; -994.000;-1091.000
239.813; -205.100; -696.000; -658.000
239.956;  170.600;  579.000;  473.000
240.099; -241.600; -778.000; -725.000
240.242;  124.700;  428.000;  432.000
240.385;   84.100;  466.000;  450.000
240.528; -146.500; -706.000; -473.000
240.671;   37.600;  189.000;  134.000
240.814; -103.500; -441.000; -158.000
240.957; -214.400; -767.000; -578.000
241.100; -186.700; -779.000; -755.000
241.243; -279.000;-1234.000; -893.000
241.386; -151.500; -508.000; -379.000
241.529; -184.200; -735.000; -547.000
241.672; -122.600; -566.000; -495.000
241.815; -222.200; -832.000; -808.000
241.958;  -53.700; -125.000; -182.000
242.101; -135.500; -545.000; -390.000
242.244; -106.500; -270.000; -325.000
242.387;  -77.300; -304.000; -246.000
242.530;  131.500;  470.000;  134.000
242.673;  -56.400; -381.000; -309.000
242.815; -254.300; -925.000; -899.000
242.958; -148.500; -482.000; -381.000
243.101;   42.500;  132.000;  187.000
243.244; -138.400; -564.000; -521.000
243.387;  -95.400; -313.000; -316.000
243.530; -195.200; -657.000; -674.000
243.672;    4.900;   43.000;  -92.000
243.815; -104.400; -355.000; -283.000
243.958;  -19.600;   98.000;  -26.000
244.101;   31.600;   59.000;  -16.000
244.243;  -15.700;  -47.000;  101.000
244.386; -213.800; -761.000; -630.000
244.529;  -47.700; -132.000; -139.000
244.672; -327.000;-1154.000; -951.000
244.814; -224.400; -621.000; -794.000
244.957; -111.600; -380.000; -304.000
245.100; -150.500; -489.000; -489.000
245.242;  -83.200; -387.000; -374.000
245.385;  -13.300;  -59.000;  -39.000
245.528; -225.300; -871.000; -705.000
245.670;  164.800;  612.000;  634.000
245.813; -153.400; -599.000; -547.000
245.956;  -72.400; -324.000; -275.000
246.098; -166.900; -508.000; -650.000
246.241;   35.500;  194.000;   48.000
246.383;  -37.400; -119.000;  -73.000
246.526; -132.100; -454.000; -525.000
246.669; -257.600; -889.000; -780.000
246.811;   33.300;  172.000;   -1.000
246.954; -125.700; -512.000; -426.000
247.096;  -33.800;  -84.000;   -6.000
247.239; -143.200; -482.000; -445.000
247.381; -154.100; -647.000; -488.000
247.524;  214.900;  645.000;  679.000
247.666;  -13.900;   58.000;   11.000
247.809; -244.200; -887.000; -691.000
247.951;  -29.600;  -75.000;  138.000
248.094;   69.400;  432.000;  308.000
248.236; -335.500;-1262.000;-1238.000
248.378;   10.700; -356.000;  -81.000
248.521;  -30.300; -334.000; -337.000
248.663;  -86.700; -236.000; -267.000
248.806;  -43.400; -300.000; -266.000
248.948; -185.200; -886.000; -763.000
249.090;  -96.500; -428.000; -398.000
249.233; -108.600; -344.000; -381.000
249.375; -146.900; -474.000; -451.000
249.518;  -31.500;  -83.000; -133.000
249.660;  -16.200; -103.000;    3.000
249.802; -366.600;-1303.000;-1189.000
249.945; -149.900; -612.000; -540.000
250.087; -241.100; -834.000; -768.000
250.229;  -90.400; -362.000; -480.000
250.371; -159.400; -494.000; -439.000
250.514;  -83.000; -310.000; -244.000
250.656;   20.800;   69.000;  102.000
250.798; -250.900; -849.000; -800.000
250.940; -132.600; -322.000; -322.000
251.083;  -31.500; -335.000; -111.000
251.225;  147.800;  338.000;  310.000
251.367; -105.900; -274.000; -373.000
251.509;  -60.600; -265.000; -210.000
251.651; -197.700; -731.000; -671.000
251.794;  130.100;  538.000;  632.000
251.936; -227.500; -821.000; -747.000
252.078; -159.000; -540.000; -461.000
252.220; -135.800; -645.000; -477.000
252.362;  189.300;  344.000;  462.000
252.504; -126.300; -677.000; -584.000
252.646; -228.300; -875.000; -722.000
252.788;    6.000;   14.000; -128.000
252.931;  -69.800; -257.000; -253.000
253.073;  -68.000; -376.000; -317.000
253.215;  -29.600;  141.000;  122.000
253.357;  -36.600;   82.000; -153.000
253.499; -111.800; -374.000; -234.000
253.641; -194.500; -749.000; -594.000
253.783; -175.700; -609.000; -527.000
253.925; -176.300; -586.000; -591.000
254.067; -197.100; -744.000; -667.000
254.209;  -63.900; -391.000; -259.000
254.351; -259.400; -865.000; -883.000
254.493; -143.700; -441.000; -417.000
254.635; -199.200; -936.000; -818.000
254.777; -182.700; -752.000; -687.000
254.918; -152.300; -512.000; -430.000
255.060; -112.100; -551.000; -395.000
255.202; -131.000; -473.000; -261.000
255.344; -149.500; -658.000; -455.000
255.486; -147.500; -471.000; -406.000
255.628; -214.900; -780.000; -781.000
255.770; -164.000; -676.000; -536.000
255.912; -159.900; -559.000; -468.000
256.053; -178.000; -730.000; -508.000
256.195;  333.100; 1008.000;  903.000
256.337; -201.700; -861.000; -595.000
256.479;  118.400;  532.000;  416.000
256.621;  -62.700; -394.000; -212.000
256.762; -185.500; -789.000; -742.000
256.904;  134.800;  485.000;  487.000
257.046; -101.700; -381.000; -271.000
257.188;  -83.300; -351.000; -264.000
257.329; -158.200; -525.000; -464.000
257.471; -235.400; -939.000; -807.000
257.613; -150.200; -584.000; -498.000
257.755; -307.400;-1073.000; -982.000
257.896;   87.700;  286.000;  392.000
258.038; -136.900; -403.000; -352.000
258.180;  -81.900; -354.000; -279.000
258.321; -179.600; -581.000; -457.000
258.463;    2.000;  -71.000;  133.000
258.605; -187.700; -562.000; -570.000
258.746; -227.900; -886.000; -772.000
258.888; -323.000;-1026.000;-1020.000
259.029;   61.000;  121.000;   -8.000
259.171; -162.800; -614.000; -550.000
259.313;   15.900;  -49.000;  -47.000
259.454; -148.300; -536.000; -414.000
259.596; -105.200; -483.000; -390.000
259.737; -158.900; -590.000; -474.000
259.879;   79.800;  217.000;  311.000
260.020;  231.900;  901.000;  636.000
260.162;  -38.600; -146.000; -253.000
260.303; -235.300; -768.000; -687.000
260.445; -157.800; -609.000; -613.000
260.586;   63.600;  392.000;  157.000
260.728;  -77.100; -360.000; -248.000
260.869; -150.900; -350.000; -343.000
261.011;  193.100;  706.000;  537.000
261.152; -117.400; -479.000; -319.000
261.293; -179.900; -576.000; -595.000
261.435;  -45.800; -219.000; -184.000
261.576;  -88.900; -455.000; -325.000
261.718;  130.900;  420.000;  470.000
261.859; -271.700; -940.000; -949.000
262.000; -258.900; -951.000;-1016.000
262.142;  -54.100;  -52.000;  -60.000
262.283; -245.600; -808.000; -691.000
262.424; -169.100; -666.000; -625.000
262.566; -319.800;-1161.000; -983.000
262.707; -249.800; -840.000; -830.000
262.848; -271.900; -769.000; -726.000
262.990;  -75.300; -362.000; -345.000
263.131;  156.000;  650.000;  681.000
263.272;  -19.100;  -61.000;  -41.000
263.413; -184.200; -589.000; -561.000
263.555; -126.900; -669.000; -143.000
263.696; -180.900; -550.000; -641.000
263.837; -119.000; -449.000; -551.000
263.978;   -7.000;   -5.000;  -77.000
264.119;  -81.500; -283.000; -264.000
264.261; -253.800; -847.000; -630.000
264.402;    9.600;   33.000;   40.000
264.543; -154.600; -509.000; -524.000
264.684;  -24.100;   61.000;  -50.000
264.825; -123.500; -816.000; -538.000
264.966;   15.500;  -84.000;  -67.000
265.107; -228.900; -646.000; -670.000
265.248; -237.400; -825.000; -812.000
265.390;   24.000;  152.000;   -9.000
265.531;  -57.800; -238.000; -107.000
265.672; -171.600; -557.000; -630.000
265.813;  155.800;  563.000;  439.000
265.954; -287.100; -959.000; -940.000
266.095;   -9.300; -372.000; -322.000
266.236; -180.300; -686.000; -548.000
266.377;  -83.600; -243.000; -297.000
266.518; -152.000; -619.000; -547.000
266.659;   68.700;  170.000;  268.000
266.800;   21.500;   83.000;   85.000
266.941; -136.600; -487.000; -478.000
267.082;   47.200;  354.000;   99.000
267.223; -123.600; -344.000; -273.000
267.364; -241.900; -892.000; -686.000
267.504;  -39.200;    3.000;  135.000
267.645;  -10.200;  160.000;   67.000
267.786;  -25.300; -147.000;  -86.000
267.927; -105.000; -473.000; -379.000
268.068;  -41.300; -186.000;  -61.000
268.209;  -95.100; -175.000; -413.000
268.350; -121.500; -388.000; -532.000
268.490; -126.600; -648.000; -521.000
268.631;   72.700;  127.000;  225.000
268.772; -224.100; -874.000; -647.000
268.913;  -83.600; -328.000; -476.000
269.054;  -28.800; -117.000;   12.000
269.194;  -80.900; -418.000; -402.000
269.335; -304.000;-1137.000;-1074.000
269.476;  -15.700;   33.000;  -35.000
269.617;  -81.400; -347.000; -392.000
269.757; -188.600; -713.000; -646.000
269.898; -238.400; -856.000; -613.000
270.039; -135.400; -415.000; -405.000
270.180; -288.000; -952.000; -816.000
270.320;  -50.100; -190.000; -250.000
270.461;  -66.200; -277.000; -249.000
270.602;   -5.600; -186.000; -156.000
270.742; -255.700; -868.000; -943.000
270.883; -100.600; -442.000; -390.000
271.023; -124.100; -358.000; -357.000
271.164; -122.100; -607.000; -528.000
271.305; -184.300; -666.000; -654.000
271.445; -198.900; -722.000; -683.000
271.586; -124.800; -462.000; -283.000
271.726;  -92.800; -397.000; -322.000
271.867; -144.100; -594.000; -534.000
272.008;  344.400; -473.000; -285.000
272.148;  240.600;  462.000;  468.000
272.289;   -7.600; -113.000; -181.000
272.429;   70.900;   19.000;  185.000
272.570; -198.700; -633.000; -737.000
272.710; -157.400; -825.000; -775.000
272.851;   -0.400;  113.000; -130.000
272.991; -326.800;-1173.000;-1077.000
273.131; -108.400; -419.000; -459.000
273.272; -180.300; -683.000; -723.000
273.412;   12.900; -143.000;  -31.000
273.553; -109.100; -488.000; -507.000
273.693;  273.400;  913.000;  858.000
273.834; -169.300; -894.000; -692.000
273.974; -143.600; -664.000; -615.000
274.114; -170.800; -772.000; -560.000
274.255;  158.200;  414.000;  373.000
274.395;   11.200; -180.000; -125.000
274.535;  106.800;  199.000;  350.000
274.676;   66.600;  225.000;   94.000
274.816;   24.500;  110.000;   34.000
274.956; -135.700; -624.000; -690.000
275.097; -141.000;-1014.000; -922.000
275.237; -217.700; -913.000; -803.000
275.377; -180.100; -778.000; -689.000
275.517; -317.200; -878.000; -937.000
275.658; -104.500; -590.000; -555.000
275.798; -133.700; -606.000; -413.000
275.938;   38.300;  215.000;  323.000
276.078; -168.800; -626.000; -395.000
276.218;   64.600;   99.000;  104.000
276.359; -252.800;-1026.000;-1024.000
276.499; -121.300; -605.000; -446.000
276.639;  -74.400; -305.000; -151.000
276.779;  -73.700; -475.000; -357.000
276.919; -203.100; -783.000; -624.000
277.059;  -26.500; -261.000; -212.000
277.199;  -61.300; -357.000; -259.000
277.340;   95.300;  287.000;  175.000
277.480; -218.500; -840.000; -693.000
277.620;   56.600;  192.000;   16.000
277.760; -375.900;-1533.000;-1294.000
277.900;   43.900;  113.000;   33.000
278.040;   51.400;  137.000;  159.000
278.180;  126.600;  270.000;  170.000
278.320;    8.500;   21.000;   56.000
278.460; -117.600; -443.000; -469.000
278.600; -179.900; -708.000; -598.000
278.740;  147.600;  448.000;  224.000
278.880; -104.100; -768.000; -791.000
279.020;   49.100; -194.000; -144.000
279.160; -156.200; -672.000; -595.000
279.300; -260.100; -926.000; -873.000
279.440; -190.200; -709.000; -622.000
279.579;  -77.500;-1014.000; -929.000
279.719; -108.500; -410.000; -394.000
279.859;  149.300;   -4.000;   41.000
279.999;   67.900; -208.000;  101.000
280.139;  -61.700; -435.000; -387.000
280.279; -139.900; -708.000; -745.000
280.419;    7.200; -229.000; -147.000
280.559;  -61.900; -259.000; -180.000
280.698; -170.300; -790.000; -639.000
280.838; -186.500; -778.000; -800.000
280.978; -196.200; -846.000; -790.000
281.118; -208.700; -811.000; -704.000
281.257;   20.700;   24.000;    6.000
281.397; -221.300;-1094.000; -960.000
281.537; -152.600; -599.000; -712.000
281.677;  -33.000; -150.000; -101.000
281.816; -159.700; -700.000; -630.000
281.956;  -49.400; -193.000; -257.000
282.096; -112.400; -539.000; -396.000
282.235; -199.500; -672.000; -638.000
282.375;  -10.400; -243.000;  -98.000
282.515; -192.000; -715.000; -707.000
282.654;   48.700;   29.000;  106.000
282.794;   73.100;  388.000;  244.000
282.934; -111.100; -530.000; -491.000
283.073; -224.100;-1030.000; -857.000
283.213;  -92.600; -460.000; -467.000
283.353;  -57.900; -408.000; -349.000
283.492;  -79.700; -264.000; -296.000
283.632;  -76.300; -254.000; -168.000
283.771; -173.600; -859.000; -730.000
283.911;  -82.600; -369.000; -260.000
284.050; -203.700; -794.000; -748.000
284.190; -313.700;-1229.000;-1096.000
284.329; -268.800;-1055.000; -964.000
284.469; -114.800; -516.000; -591.000
284.608;  -91.500; -559.000; -598.000
284.748; -126.800; -614.000; -570.000
284.887;   33.800;  -87.000;  -20.000
285.027; -220.100; -844.000; -892.000
285.166;  -49.200; -192.000; -249.000
285.306;   50.100; -116.000;  -33.000
285.445;  -71.800; -229.000; -343.000
285.584; -184.300; -630.000; -494.000
285.724;  -55.400; -282.000; -322.000
285.863; -198.800; -857.000; -507.000
286.002; -103.300; -366.000; -276.000
286.142; -220.300; -715.000; -622.000
286.281; -158.700; -525.000; -493.000
286.420; -148.700; -554.000; -417.000
286.560;  233.600;  653.000;  623.000
286.699; -255.600; -958.000; -912.000
286.838; -190.300; -590.000; -591.000
286.978; -184.000; -533.000; -537.000
287.117; -258.000;-1085.000; -950.000
287.256;  -31.200; -228.000; -211.000
287.395;  -59.600; -197.000; -378.000
287.535; -101.600; -370.000; -298.000
287.674; -141.800; -509.000; -484.000
287.813;  168.700;  661.000;  533.000
287.952; -266.000;-1010.000; -871.000
288.091; -304.500;-1049.000; -915.000
288.231;   83.000;   13.000;   15.000
288.370; -376.600;-1217.000;-1200.000
288.509; -187.700; -728.000; -645.000
288.648; -187.600; -770.000; -548.000
288.787;  -34.500; -243.000;  -87.000
288.926; -106.500; -454.000; -475.000
289.065;  202.400;  859.000;  672.000
289.204;  -77.600; -377.000; -217.000
289.344; -163.500; -791.000; -690.000
289.483;   68.500;  416.000;  304.000
289.622;  -30.100; -291.000; -149.000
289.761;   -2.400; -309.000; -166.000
289.900; -204.800; -785.000; -626.000
290.039;   -3.500;  -12.000;  -95.000
290.178;  -72.800; -274.000; -180.000
290.317; -133.400; -618.000; -479.000
290.456; -117.000; -463.000; -451.000
290.595; -281.100; -961.000; -833.000
290.734; -232.600; -904.000; -891.000
290.873; -126.000; -456.000; -420.000
291.011; -216.400; -833.000; -843.000
291.150; -214.200; -770.000; -682.000
291.289;  -20.700; -343.000; -110.000
291.428; -160.500; -599.000; -480.000
291.567; -123.400; -370.000; -442.000
291.706;   24.900;  109.000;  154.000
291.845; -164.900; -597.000; -505.000
291.984; -342.100;-1234.000;-1061.000
292.122;  158.800;  602.000;  582.000
292.261;  154.000;  620.000;  463.000
292.400;   76.200; -144.000;  211.000
292.539; -235.800; -959.000; -813.000
292.678;  -23.500; -325.000; -300.000
292.816; -305.000;-1136.000; -965.000
292.955; -183.700; -844.000; -684.000
293.094;   -9.100; -173.000; -337.000
293.233;  -85.600; -556.000; -400.000
293.371;  -88.300; -225.000;  -84.000
293.510; -211.300; -866.000; -780.000
293.649; -228.400; -959.000; -924.000
293.787; -135.400;-1083.000;-1012.000
293.926;   23.700; -113.000;  -32.000
294.065;  -88.900; -379.000; -290.000
294.203;  134.100;  298.000;  406.000
294.342;   68.900;   74.000;  156.000
294.481;11019.400;51180.000; -836.000
294.619;  -68.600; -425.000; -582.000
294.758; -279.100;-1230.000;-1137.000
294.896;  162.600; -125.000;    5.000
295.035; -236.600;-1040.000;-1006.000
295.174; -229.100;-1082.000; -954.000
295.312;  -52.200; -323.000; -203.000
295.451;   20.300; -307.000; -428.000
295.589;  -96.900; -389.000; -518.000
295.728;   69.900; -292.000; -165.000
295.866;   25.500;  -36.000;  -51.000
296.005; -100.100; -584.000; -341.000
296.143;  -78.700; -558.000; -596.000
296.282; -187.800; -957.000; -881.000
296.420; -129.700; -657.000; -557.000
296.559; -144.400; -892.000; -633.000
296.697;   26.100; -847.000; -665.000
296.835;  139.500;-1141.000;-1002.000
296.974;  110.300;  -23.000;   39.000
297.112;   54.900; -443.000; -504.000
297.251; -121.400; -815.000; -755.000
297.389;  175.000; -576.000; -438.000
297.527;  119.200; -145.000;  -83.000
297.666;  -53.100; -486.000; -438.000
297.804;  -69.500; -404.000; -264.000
297.942;   37.400; -136.000; -161.000
298.081;   43.700; -183.000;   63.000
298.219;  137.600;  -17.000;  -19.000
298.357;  112.300; -144.000;  -71.000
298.495;   90.300; -810.000; -812.000
298.634;  207.100;  245.000;  219.000
298.772;  118.700; -220.000; -338.000
298.910;  -77.700; -309.000; -182.000
299.048;   34.800; -130.000; -153.000
299.187;  -24.300; -350.000; -250.000
299.325;   56.500;   52.000;  122.000
299.463;  123.300; -389.000; -299.000
299.601;  247.700; -327.000; -271.000
299.739; -194.200; -908.000; -883.000
299.877; -142.600; -791.000; -703.000
300.016; -100.800;-1095.000; -935.000
300.154;  369.000;  -19.000; -161.000
300.292;  143.000; -428.000; -348.000
300.430;  101.700; -408.000; -291.000
300.568; -189.600; -940.000; -874.000
300.706;  -64.100; -366.000; -469.000
300.844; -105.000;-1108.000; -979.000
300.982;  263.200;  246.000;  282.000
301.120; -216.300; -965.000; -866.000
301.258;  -95.700; -812.000; -705.000
301.396;  107.000;  104.000;  -41.000
301.534;  206.600; -218.000; -293.000
301.672;   11.400; -664.000; -521.000
301.810;   60.800; -613.000; -545.000
301.948;  343.300;   53.000;  149.000
302.086; 1166.500; -250.000;  -32.000
302.224; 1850.700; -610.000; -585.000
302.362;   92.200; -558.000; -622.000
302.500;  -19.200; -923.000; -893.000
302.638;  233.200;  128.000;  245.000
302.776;   20.000; -352.000; -408.000
302.913;  160.300;  447.000;  236.000
303.051;   31.000;  -86.000;  -23.000
303.189;  154.200;   90.000;  118.000
303.327;  -30.300; -341.000; -256.000
303.465; -133.500; -832.000; -588.000
303.603; -169.700; -805.000; -604.000
303.740;  215.100;  417.000;  241.000
303.878;   51.000; -800.000; -759.000
304.016; -177.600; -915.000; -790.000
304.154; -254.500;-1123.000;-1152.000
304.291;  -60.300; -505.000; -554.000
304.429;   48.300;  102.000;   74.000
304.567; -235.700; -908.000; -893.000
304.705;  -94.200; -408.000; -515.000
304.842;  201.600; -616.000; -540.000
304.980;  196.000;  215.000;   35.000
305.118;  108.300; -367.000; -365.000
305.255; -116.400; -945.000; -927.000
305.393;  153.700;  178.000;  239.000
305.531; -175.000;-1173.000; -956.000
305.668; -119.700; -663.000; -582.000
305.806;  201.500; -358.000; -439.000
305.943;  201.900; -629.000; -637.000
306.081;  114.700; -378.000; -267.000
306.219; -201.600; -863.000; -748.000
306.356;   47.900;  158.000;   27.000
306.494;  281.700;  981.000;  761.000
306.631;   55.600;  -11.000;  -55.000
306.769;   27.600; -613.000; -485.000
306.906;    8.800; -284.000; -258.000
307.044;  -85.700; -473.000; -488.000
307.181;  -76.500; -410.000; -332.000
307.319;   63.900;  112.000;   87.000
307.456; -311.200;-1191.000;-1153.000
307.594; -177.400; -980.000; -727.000
307.731;   -7.000; -371.000; -164.000
307.868;   17.700;  -15.000;   20.000
308.006; -247.800; -961.000; -847.000
308.143;  -99.100; -618.000; -330.000
308.281;  520.300;  -37.000; -254.000
308.418;   77.900; -748.000; -640.000
308.555;  -68.400; -400.000; -250.000
308.693; -144.900; -577.000; -573.000
308.830; -186.300; -712.000; -657.000
308.967;   19.300; -215.000;  -95.000
309.105;  -52.900; -507.000; -396.000
309.242;  113.900; -468.000; -367.000
309.379;  923.900; -577.000; -655.000
309.517;  -52.600; -936.000; -948.000
309.654; -215.100; -910.000; -734.000
309.791; -111.700; -662.000; -580.000
309.928; -214.000; -977.000; -914.000
310.065;  396.900;  819.000;  697.000
310.203;   -3.600; -825.000; -850.000
310.340;   44.900; -465.000; -321.000
310.477; -126.600; -412.000; -516.000
310.614; -103.500; -383.000; -473.000
310.751;  -92.400; -427.000; -518.000
310.889;   17.100;    1.000;   11.000
311.026; -280.900;-1161.000; -939.000
311.163;  -65.300; -386.000; -380.000
311.300; -108.500; -512.000; -479.000
311.437; -146.700; -658.000; -619.000
311.574; -268.000;-1226.000; -985.000
311.711; -102.000; -595.000; -433.000
311.848;  -26.700; -380.000; -388.000
311.985;   65.700;  270.000;   93.000
312.122; -205.300; -932.000; -762.000
312.259; -218.800; -941.000; -994.000
312.396; -131.100; -508.000; -551.000
312.533; -136.100; -812.000; -790.000
312.670; -236.900;-1070.000; -898.000
312.807;  -50.800; -352.000; -367.000
312.944; -101.300; -513.000; -611.000
313.081;  -34.000; -150.000; -415.000
313.218; -185.400;-1111.000; -867.000
313.355;   43.100; -531.000; -449.000
313.492;   64.400; -455.000; -292.000
313.629;  289.300;  815.000;  735.000
313.766; -283.400;-1176.000;-1008.000
313.902;    0.500; -186.000;   21.000
314.039;  -71.100; -372.000; -289.000
314.176;   72.100;  286.000;  192.000
314.313; -121.700; -569.000; -473.000
314.450; -140.200; -788.000; -684.000
314.587;  -63.800; -468.000; -480.000
314.723;   54.300;  -78.000;  130.000
314.860;  138.900;  318.000;  332.000
314.997;   91.300;  223.000;  142.000
315.134;  -37.400; -385.000; -368.000
315.270;  -56.300; -480.000; -496.000
315.407; -223.100;-1094.000; -967.000
315.544;  -88.200; -657.000; -538.000
315.681; -108.200; -681.000; -565.000
315.817;   60.500; -133.000; -176.000
315.954;   62.100; -613.000; -392.000
316.091; -264.100;-1045.000;-1023.000
316.227;   -3.100;  -71.000; -179.000
316.364;   11.800;   23.000;    6.000
316.500;  -37.500; -113.000; -300.000
316.637;  -57.500; -181.000; -302.000
316.774; -139.600; -625.000; -358.000
316.910; -136.500; -598.000; -629.000
317.047; -118.100; -487.000; -351.000
317.183;  -72.900; -435.000; -566.000
317.320;  -30.900; -367.000; -321.000
317.456; -129.700; -733.000; -805.000
317.593; -130.600; -598.000; -641.000
317.729;   37.200;  168.000;  -67.000
317.866; -371.800;-1434.000;-1285.000
318.002; -160.900; -708.000; -948.000
318.139; -176.600; -883.000; -867.000
318.275; -176.200;-1003.000; -738.000
318.412;  -92.900; -517.000; -336.000
318.548;  -40.200; -751.000; -720.000
318.685; -186.200; -985.000; -888.000
318.821; -180.600; -762.000; -735.000
318.957;    5.800;   34.000;  -23.000
319.094;  118.100;  297.000;  154.000
319.230; -125.100; -756.000; -742.000
319.367;  231.700; -471.000; -520.000
319.503;  143.100; -538.000; -436.000
319.639; -192.000; -877.000; -793.000
319.775; -123.700; -750.000; -685.000
319.912;  -75.000; -424.000; -519.000
320.048; -149.700;-1184.000;-1184.000
320.184;  176.100;   59.000;   70.000
320.321;  -68.500; -497.000; -467.000
320.457;  179.000;  475.000;  662.000
320.593;  -93.000; -375.000; -382.000
320.729; -191.500; -732.000; -734.000
320.866; -118.400; -577.000; -635.000
321.002; -138.300; -759.000; -809.000
321.138;   17.900; -135.000; -211.000
321.274;  138.800; -148.000; -115.000
321.410;  -12.300; -585.000; -353.000
321.546;  -39.400;-1011.000; -911.000
321.683;  144.500;  400.000;  185.000
321.819;   54.900;  -48.000; -117.000
321.955; -197.300; -743.000; -722.000
322.091;  -34.100; -585.000; -540.000
322.227;    8.400; -382.000; -202.000
322.363;   -1.100; -320.000; -215.000
322.499;  -45.500; -343.000; -331.000
322.635;  339.700;  636.000;  443.000
322.771;   84.100; -139.000;   12.000
322.907;  184.500;  129.000;  327.000
323.043;  -39.200; -115.000; -206.000
323.179;  -18.600; -394.000; -363.000
323.315;   90.800; -401.000; -371.000
323.451;  220.500; -328.000; -236.000
323.587;  132.400;  -60.000;  -77.000
323.723;   55.400; -682.000; -601.000
323.859;  -10.900; -258.000;  -76.000
323.995;  -51.300; -467.000; -409.000
324.131; -232.300; -967.000; -892.000
324.267;  -74.800; -254.000; -276.000
324.402; -225.900; -960.000; -983.000
324.538;   14.900; -279.000; -104.000
324.674;  106.600;  164.000;   77.000
324.810;  348.800;  226.000;  308.000
324.946;   75.200; -810.000; -658.000
325.082; -164.000; -568.000; -475.000
325.217;   31.200;  -62.000;   16.000
325.353; -182.000; -764.000; -659.000
325.489; -149.100; -540.000; -506.000
325.625; -128.700; -579.000; -525.000
325.760;  187.900;  517.000;  376.000
325.896;  -54.200; -515.000; -702.000
326.032;  -64.000; -403.000; -352.000
326.168; -123.700; -462.000; -369.000
326.303; -125.200; -352.000; -461.000
326.439;   -5.900; -336.000; -276.000
326.575;   38.700; -190.000;  -29.000
326.710;   26.400; -156.000;  -30.000
326.846;    8.100;  146.000;  103.000
326.982; -139.900; -530.000; -548.000
327.117; -110.200; -481.000; -442.000
327.253; -152.900; -745.000; -742.000
327.388; -212.500;-1137.000;-1153.000
327.524;  -76.400; -811.000; -578.000
327.659;  -10.100;  -58.000;  -22.000
327.795;   30.900;   69.000;   45.000
327.931; -157.400; -723.000; -499.000
328.066;  -18.200; -417.000; -276.000
328.202;   49.900;   12.000; -129.000
328.337;  268.200;  957.000;  713.000
328.473;   18.800;  -12.000;  -74.000
328.608;  -11.300; -256.000; -267.000
328.743; -162.400; -799.000; -664.000
328.879;   74.900;  214.000;  114.000
329.014; -103.000; -102.000; -122.000
329.150; -135.600; -358.000; -483.000
329.285; -110.300; -465.000; -466.000
329.421;  -40.500; -548.000; -246.000
329.556;  -28.900;  -36.000;   85.000
329.691; -177.800; -633.000; -615.000
329.827; -160.300; -626.000; -480.000
329.962;  -69.800;  131.000; -301.000
330.097; -167.300; -673.000; -585.000
330.233;  -59.600; -410.000; -223.000
330.368; -185.900; -839.000; -628.000
330.503;   16.800;    3.000;   98.000
330.638;   36.500;  -93.000; -125.000
330.774;  -86.600; -609.000; -530.000
330.909;  -62.700; -434.000; -244.000
331.044; -191.100; -714.000; -708.000
331.179; -330.500;-1217.000;-1109.000
331.315;   44.800;   77.000;   20.000
331.450;  103.300;  157.000;  285.000
331.585; -147.000; -805.000; -706.000
331.720; -138.900; -510.000; -460.000
331.855;   30.300;  -35.000; -102.000
331.990;  447.200;   62.000;  138.000
332.126;  285.000; -110.000;   71.000
332.261;    2.100; -379.000; -265.000
332.396;   37.500; -135.000; -242.000
332.531; -199.800;-1074.000;-1031.000
332.666;   73.100; -519.000; -363.000
332.801; -197.300; -726.000; -807.000
332.936;  -44.100; -192.000; -122.000
333.071; -272.400; -870.000; -817.000
333.206;   67.900;  307.000;  379.000
333.341;  107.600;  344.000;  418.000
333.476; -154.700; -627.000; -623.000
333.611;  -68.400; -251.000; -173.000
333.746;  -41.700; -381.000; -464.000
333.881; -198.400; -973.000; -935.000
334.016; -239.000; -936.000; -917.000
334.151; -253.200; -746.000; -702.000
334.286;   99.900;  152.000;  186.000
334.421;   40.300; -125.000; -178.000
334.556; -115.700; -611.000; -567.000
334.690; -108.800; -631.000; -577.000
334.825;  148.200;  381.000;   83.000
334.960;  -98.900; -285.000; -413.000
335.095;   74.700;  135.000;  -91.000
335.230; -186.700; -722.000; -738.000
335.365; -250.900;-1084.000; -990.000
335.499; -220.700;-1108.000;-1037.000
335.634;   54.200;    9.000;  534.000
335.769; -189.500; -755.000; -720.000
335.904;  -79.300; -603.000; -561.000
336.038;  -67.400; -735.000; -657.000
336.173; -184.000;-1206.000;-1194.000
336.308;   46.000; -116.000; -189.000
336.443;   87.700; -544.000; -634.000
336.577; -113.400; -936.000; -787.000
336.712;  188.100;   -4.000;  -12.000
336.847;  -33.200; -724.000; -607.000
336.981;  165.600; -272.000; -208.000
337.116;  584.200;  615.000;  501.000
337.250;  319.900; -434.000; -421.000
337.385;  440.800; -297.000; -208.000
337.520;  110.700; -632.000; -603.000
337.654;  -43.400; -215.000; -126.000
337.789; -204.300; -989.000; -933.000
337.923;   -8.300; -104.000; -205.000
338.058; -154.900; -673.000; -738.000
338.192;  -30.200; -611.000; -488.000
338.327;   21.800;  -18.000; -155.000
338.461;  -81.300; -299.000; -469.000
338.596; -172.900; -780.000; -638.000
338.730; -143.500; -767.000; -803.000
338.865;  188.600;  -46.000; -140.000
338.999;  -85.700; -846.000; -702.000
339.134;  -46.300; -634.000; -536.000
339.268;    5.800; -741.000; -603.000
339.403;  613.300; -740.000; -775.000
339.537;  223.500; -894.000; -820.000
339.671; -223.500; -829.000; -813.000
339.806; -127.000; -556.000; -512.000
339.940;   45.600; -261.000; -235.000
340.074; -127.400; -685.000; -510.000
340.209;  -84.100; -351.000; -230.000
340.343; -113.100; -517.000; -573.000
340.477;  369.700;  998.000; 1036.000
340.612; -137.600;-1033.000; -900.000
340.746;  263.500; -199.000; -243.000
340.880; -117.100; -924.000; -785.000
341.014;    2.300;  -45.000; -154.000
341.149; -169.200; -756.000; -718.000
341.283; -195.900; -839.000; -754.000
341.417; -144.300;-1124.000; -938.000
341.551;  322.100; -768.000; -708.000
341.685;  -33.400; -633.000; -611.000
341.820;  -68.700; -562.000; -493.000
341.954;  -63.300; -218.000; -349.000
342.088; -244.600;-1102.000;-1019.000
342.222;   96.100;  565.000;  618.000
342.356;  -56.000; -395.000; -335.000
342.490; -144.700; -880.000; -841.000
342.624;  -40.700; -339.000; -242.000
342.758;   54.200; -364.000; -312.000
342.892; -120.100; -710.000; -585.000
343.026;  -11.000;  -58.000; -116.000
343.160; -111.700; -426.000; -376.000
343.294; -105.200; -474.000; -337.000
343.428;    4.300; -488.000; -448.000
343.562;   23.400; -172.000;  -23.000
343.696;  -56.800; -385.000; -314.000
343.830;   -2.500; -362.000; -356.000
343.964;   78.500; -231.000; -168.000
344.098; 1859.600;  199.000;   70.000
344.232; 1538.000; -266.000; -127.000
344.366;  194.700; -567.000; -453.000
344.500;  178.500; -665.000; -744.000
344.634;  115.600; -324.000; -164.000
344.768;  -27.000; -531.000; -341.000
344.902;  101.100;  278.000;  256.000
345.035; -133.400; -556.000; -496.000
345.169; -231.100; -933.000; -656.000
345.303;  -14.900; -308.000; -482.000
345.437; -113.000; -826.000; -717.000
345.571; -129.600; -675.000; -594.000
345.704; -114.900; -309.000; -532.000
345.838;    6.800; -331.000; -284.000
345.972;  -57.000; -543.000; -495.000
346.106;  303.500; -179.000; -190.000
346.239;  812.600; -312.000; -243.000
346.373;   46.100; -343.000; -302.000
346.507; -285.200; -950.000; -962.000
346.640;  325.400;  -30.000;   13.000
346.774;  -63.500; -650.000; -797.000
346.908;   11.100; -138.000;  -11.000
347.041; -184.900; -646.000; -593.000
347.175;   50.300;  259.000;   27.000
347.309; -117.900; -698.000; -628.000
347.442; -184.500; -883.000; -732.000
347.576;  585.700;  670.000;  668.000
347.709;  423.900; -123.000;  -52.000
347.843; -136.900; -933.000; -825.000
347.976;  132.800;  235.000;  294.000
348.110; -328.000;-1268.000;-1186.000
348.243; -175.600; -679.000; -772.000
348.377;   67.100;  -26.000;   60.000
348.510;  133.300;  403.000;  540.000
348.644;  -35.100;  -37.000; -159.000
348.777;   32.200;  180.000;  191.000
348.911;  -29.100; -142.000; -112.000
349.044;  391.200;  471.000;  448.000
349.178;  325.700;-1069.000;-1006.000
349.311;  236.700;  141.000;  255.000
349.444;   10.600; -927.000; -813.000
349.578;  -18.000; -347.000; -200.000
349.711; -173.700; -959.000; -862.000
349.845;   46.300; -661.000; -591.000
349.978; -269.000;-1224.000;-1137.000
350.111; -169.400; -546.000; -612.000
350.244;  -98.300; -596.000; -700.000
350.378;   59.600; -392.000; -393.000
350.511; -100.700; -393.000; -426.000
350.644; -175.000; -808.000; -806.000
350.778;   59.300;  168.000;  104.000
350.911;   42.100;  134.000;  140.000
351.044; -146.200; -685.000; -615.000
351.177;  -14.100; -321.000; -281.000
351.310;   16.400;    3.000; -131.000
351.444; -108.700; -888.000; -788.000
351.577;  300.600;  140.000;   90.000
351.710;  251.500;  593.000;  417.000
351.843;  -39.500; -165.000;  -77.000
351.976;   48.700;  149.000;  -79.000
352.109; -170.200; -621.000; -612.000
352.242;  -17.200; -464.000; -419.000
352.376;  -63.700; -580.000; -636.000
352.509;  362.900; -437.000; -356.000
352.642;   67.700; -654.000; -604.000
352.775;  148.100; -141.000;  -98.000
352.908; -221.700; -933.000; -904.000
353.041; -197.700; -814.000; -824.000
353.174;  -80.500; -551.000; -424.000
353.307; -129.000; -753.000; -764.000
353.440;  166.200;  541.000;  453.000
353.573; -184.900; -957.000;-1008.000
353.706;  -71.200; -384.000; -558.000
353.839;    9.200; -264.000; -220.000
353.971; -139.300; -657.000; -512.000
354.104; -142.800; -896.000; -835.000
354.237;  -58.600; -627.000; -662.000
354.370; -144.100; -846.000; -879.000
354.503; -343.400;-1231.000;-1308.000
354.636;  -48.900; -529.000; -348.000
354.769; -217.700; -937.000; -860.000
354.902;   -4.500; -230.000; -139.000
355.034;  -18.600; -164.000; -220.000
355.167;  -14.300; -262.000; -162.000
355.300; -150.100;-1061.000; -880.000
355.433; 1801.700;  -71.000;  -14.000
355.565; 2694.400; -402.000; -384.000
355.698;  714.000; -356.000; -296.000
355.831;   17.700; -882.000; -801.000
355.964;  219.400; -285.000; -170.000
356.096; -173.700; -856.000; -843.000
356.229;   83.100; -523.000; -530.000
356.362;  603.000; -373.000; -266.000
356.494; 1060.000; -229.000; -162.000
356.627; 1021.500;  269.000;  377.000
356.760; 1190.200;  120.000;   53.000
356.892; 1676.900; -286.000; -601.000
357.025; 1368.400;  403.000;  389.000
357.157; 1240.100; -167.000; -179.000
357.290; 1048.600; -856.000; -713.000
357.423;  337.300; -667.000; -556.000
357.555;  228.500; -217.000; -228.000
357.688;  283.100; -483.000; -364.000
357.820;  814.700; -870.000; -877.000
357.953; 6801.400; -563.000; -589.000
358.085; 1519.400; -632.000; -612.000
358.218; 2405.500;-1131.000; -932.000
358.350;  449.700;  -58.000;  312.000
358.483; -221.000;-1300.000;-1187.000
358.615;    3.300;-1182.000;-1078.000
358.747;  -86.500;-1187.000;-1058.000
358.880;  102.000; -810.000; -744.000
359.012;   39.200; -376.000; -202.000
359.145;  -42.600; -480.000; -511.000
359.277;  123.100; -962.000; -913.000
359.409; 5807.700;  536.000;  231.000
359.542; 1456.300; -738.000; -688.000
359.674;  169.400;   46.000;   13.000
359.806;  -69.600; -565.000; -438.000
359.939;  -46.700; -617.000; -516.000
360.071;   -4.000; -583.000; -579.000
360.203;  -26.500; -411.000; -364.000
360.335;  148.800;  164.000;  -16.000
360.468;  364.800; -249.000; -307.000
360.600; 4568.400; -547.000; -454.000
360.732; 4837.200; -546.000; -423.000
360.864;  651.400;-1216.000;-1044.000
360.996;  652.500; -516.000; -554.000
361.129;  167.700; -389.000; -598.000
361.261;   94.300;  110.000; -113.000
361.393;   -6.100; -252.000; -214.000
361.525;  137.000;   94.000;  244.000
361.657;  -58.900; -821.000; -703.000
361.789;   66.400; -139.000; -155.000
361.921;  499.600; -642.000; -593.000
362.053;  565.100;  524.000;  541.000
362.185;  137.600;  288.000;   72.000
362.318; -150.300; -709.000; -705.000
362.450;  341.200;  294.000;  444.000
362.582;  273.100; -913.000; -870.000
362.714;  -13.400; -353.000; -332.000
362.846; -130.200; -606.000; -490.000
362.978; -264.300; -941.000; -811.000
363.109;  132.500; -161.000; -260.000
363.241;  948.600; -739.000; -749.000
363.373;  773.200; -649.000; -564.000
363.505; 1155.000; -186.000;  -91.000
363.637;  290.600; -787.000; -601.000
363.769; -213.700;-1067.000;-1080.000
363.901; -101.500; -596.000; -654.000
364.033; -197.400;-1103.000;-1062.000
364.165;   32.100; -283.000; -283.000
364.296;  191.700; -316.000; -177.000
364.428;   93.300;-1344.000;-1220.000
364.560; -101.300; -679.000; -661.000
364.692; -110.100; -738.000; -835.000
364.824;  584.700; -588.000; -456.000
364.955;  834.400; -402.000; -564.000
365.087; 1489.100;-1097.000; -852.000
365.219;   71.300; -686.000; -816.000
365.351;  -61.800; -526.000; -572.000
365.482;  164.100;  300.000;  240.000
365.614;  -39.200; -402.000; -314.000
365.746; -142.000; -729.000; -752.000
365.877; -182.900; -706.000; -672.000
366.009;  503.300;  -35.000;  -62.000
366.141; -180.900;-1249.000;-1134.000
366.272; -180.500; -803.000; -719.000
366.404; -173.400;-1005.000; -874.000
366.535;   14.200; -139.000;  -12.000
366.667; -167.200; -644.000; -649.000
366.799;  121.700;  353.000;  203.000
366.930; -151.900; -862.000; -996.000
367.062;  260.400; -639.000; -613.000
367.193;  237.500; -872.000; -842.000
367.325;  -89.300; -580.000; -684.000
367.456;  155.100; -246.000;   31.000
367.588;  290.000; -371.000; -318.000
367.719;   88.900;  -44.000;  -45.000
367.851;   30.300; -222.000; -241.000
367.982;  -55.100; -875.000; -732.000
368.113;  256.200; -475.000; -358.000
368.245; -203.300; -960.000; -841.000
368.376;   30.200; -254.000; -302.000
368.508;  -26.600; -188.000; -263.000
368.639; -242.200;-1166.000;-1034.000
368.770;   -2.300; -670.000; -589.000
368.902;  -90.500; -836.000; -926.000
369.033; -206.400; -906.000; -855.000
369.164;  -63.400; -720.000; -653.000
369.296; -186.400; -452.000; -601.000
369.427;   39.500; -209.000; -144.000
369.558;  -77.200; -593.000; -377.000
369.689; -130.900; -721.000; -569.000
369.821; -205.000; -951.000; -845.000
369.952;   17.200;   42.000; -108.000
370.083;  -44.700; -229.000; -108.000
370.214; -116.400; -735.000; -650.000
370.345;    1.000;   65.000;   81.000
370.477; -114.100; -810.000; -790.000
370.608;  519.700; -328.000; -264.000
370.739;  -61.400;-1233.000;-1292.000
370.870;  -23.200;-1102.000; -923.000
371.001;  228.100; -378.000; -467.000
371.132; -102.900; -754.000; -735.000
371.263;   23.500;  -42.000; -148.000
371.394; -207.300; -841.000; -748.000
371.525;  141.700;  345.000;  225.000
371.657; -135.000; -808.000; -670.000
371.788;  192.300;  103.000;  199.000
371.919;  381.900; -384.000; -304.000
372.050; 7131.900;  -91.000; -156.000
372.181; 1998.000; -188.000; -294.000
372.311;  796.300;   42.000; -127.000
372.442;   96.300; -457.000; -451.000
372.573;   22.100; -444.000; -340.000
372.704; -218.200;-1008.000; -980.000
372.835;  232.800; -228.000; -289.000
372.966;  -95.500; -646.000; -554.000
373.097;  -94.800; -575.000; -711.000
373.228;  -37.100; -717.000; -542.000
373.359;  277.000; -824.000; -536.000
373.490; 1936.600; -881.000; -727.000
373.620; 2294.200;-1001.000; -803.000
373.751; 3648.000; -332.000; -396.000
373.882; 1500.400; -663.000; -733.000
374.013;  158.800; -449.000; -262.000
374.143;  -20.900; -581.000; -659.000
374.274; -176.900; -987.000; -908.000
374.405;  359.800; -388.000; -276.000
374.536;  909.200; -526.000; -387.000
374.666; 2197.000; -759.000; -807.000
374.797;  484.900; -817.000; -868.000
374.928; 1747.100; -710.000; -560.000
375.058; 1814.000; -535.000; -500.000
375.189;  195.600;  -59.000;  -93.000
375.320; -177.900; -928.000;-1034.000
375.450;  -23.900; -625.000; -616.000
375.581;  -50.600; -526.000; -436.000
375.712;    5.100; -574.000; -250.000
375.842;  675.300; -438.000; -415.000
375.973;  462.800; -554.000; -513.000
376.103;  -30.400; -665.000; -648.000
376.234; -104.300; -531.000; -552.000
376.364;  -62.300; -944.000; -867.000
376.495;  711.500;  925.000;  529.000
376.625;   27.100; -472.000; -485.000
376.756;  182.000; -709.000; -678.000
376.886; -119.100;-1178.000;-1026.000
377.017;   75.900;-1048.000;-1061.000
377.147;  619.800; -786.000; -782.000
377.278;  162.000;  174.000;  228.000
377.408; -205.000; -801.000; -815.000
377.538; -197.300; -707.000; -693.000
377.669; -139.200; -537.000; -613.000
377.799; -150.500; -645.000; -635.000
377.929;  -47.500; -610.000; -428.000
378.060; -188.300; -781.000; -847.000
378.190;  -81.300; -726.000; -531.000
378.320;  -76.700; -401.000; -406.000
378.451;   53.500; -131.000;  -22.000
378.581;   40.400;  -67.000; -110.000
378.711;  375.700; 1035.000;  866.000
378.841;   21.800; -533.000; -675.000
378.972;  -78.400; -871.000; -751.000
379.102;   54.600; -652.000; -579.000
379.232;   -8.600; -126.000;  -73.000
379.362; -171.500;-1001.000; -885.000
379.492;  100.300; -373.000; -424.000
379.623;  290.100;    0.000;  111.000
379.753; -153.500;-1107.000; -974.000
379.883;  500.800;   59.000;  156.000
380.013;   23.700;-1081.000;-1017.000
380.143; -187.700;-1097.000;-1056.000
380.273; -131.200; -985.000; -861.000
380.403;    5.500; -344.000; -257.000
380.533;   20.900; -651.000; -664.000
380.663;  180.900;  173.000;  128.000
380.793; -175.100;-1027.000;-1074.000
380.923;   29.900; -103.000;  -34.000
381.053; -155.500; -613.000; -623.000
381.183;   20.200; -106.000; -248.000
381.313;   98.700; -656.000; -470.000
381.443;  123.100; -692.000; -473.000
381.573;  513.900; -402.000; -409.000
381.703;  647.500;-1249.000;-1095.000
381.833; -192.700;-1454.000;-1336.000
381.963;  298.300; -134.000;  -87.000
382.093; 2754.900; -925.000; -909.000
382.223;  790.500; -713.000; -602.000
382.353;   45.400; -801.000; -608.000
382.482;  778.500;-1091.000; -964.000
382.612; 1557.100; -872.000; -644.000
382.742;  864.900; -695.000; -622.000
382.872;  553.900; -565.000; -551.000
383.002;  209.000;  347.000; -132.000
383.131;    8.100; -226.000; -160.000
383.261;  -15.000; -706.000; -768.000
383.391;  536.500; -552.000; -377.000
383.521; 5637.300;  451.000;  263.000
383.650; 1175.500; -947.000; -904.000
383.780;   -8.400; -783.000; -656.000
383.910;  286.500;  880.000;  802.000
384.039;   83.100; -794.000; -656.000
384.169;  481.100;-1205.000;-1017.000
384.299;   42.200; -650.000; -662.000
384.428; -120.800; -764.000; -680.000
384.558;  -26.800; -308.000; -275.000
384.687;    5.100; -414.000; -334.000
384.817;  132.000;   75.000;   -2.000
384.947;  122.100; -234.000; -141.000
385.076;  637.600;  982.000;  912.000
385.206;  252.800;  369.000;  480.000
385.335;  -31.400; -549.000; -417.000
385.465;  -97.500; -655.000; -663.000
385.594;  336.300;  -53.000;  -44.000
385.724;  906.900; -868.000; -838.000
385.853;  295.700; -296.000; -270.000
385.982; 2860.300; -743.000; -787.000
386.112; 4177.300;-1052.000; -871.000
386.241;  328.400; -307.000; -312.000
386.371;   75.000; -174.000;  -87.000
386.500;   62.400; -825.000; -789.000
386.629;  111.500; -874.000; -817.000
386.759;  178.900;  -43.000;   68.000
386.888;   84.400; -170.000; -250.000
387.017;  -74.200; -648.000; -620.000
387.147; -126.500; -771.000; -798.000
387.276;   56.600; -410.000; -397.000
387.405;   78.300; -398.000; -342.000
387.535;  -50.000; -452.000; -361.000
387.664;  -51.200; -692.000; -620.000
387.793;  207.200; -198.000; -113.000
387.922; 1098.300;  255.000;  200.000
388.052;   91.300; -576.000; -423.000
388.181;  129.300; -342.000; -472.000
388.310;  108.000; -889.000; -710.000
388.439;  -16.300; -749.000; -742.000
388.568;  481.000;  365.000;  244.000
388.697; 2131.800; -756.000; -653.000
388.826;  421.900; -768.000; -666.000
388.956;  157.600; -285.000; -307.000
389.085;  -25.000; -347.000; -287.000
389.214; -178.500; -842.000; -872.000
389.343;  -60.200; -645.000; -413.000
389.472;  794.100;  126.000;  149.000
389.601;  987.400;   91.000;    0.000
389.730;   58.800; -568.000; -687.000
389.859;  182.800;  226.000;   46.000
389.988;  449.600; -423.000; -408.000
390.117;  275.300; -168.000; -146.000
390.246;   42.700; -331.000; -320.000
390.375;  276.400; -673.000; -626.000
390.504; -104.400; -703.000; -621.000
390.633; -172.400; -672.000; -726.000
390.761;  -79.500; -732.000; -645.000
390.890;  114.200;   -4.000; -130.000
391.019;   35.500; -421.000; -441.000
391.148; -206.800; -826.000; -855.000
391.277;  -64.200; -576.000; -493.000
391.406;  -72.400; -821.000; -805.000
391.534;  125.000;  574.000; -301.000
391.663;  -99.300; -583.000; -645.000
391.792; -116.400; -673.000; -701.000
391.921;  256.700;   -3.000;   15.000
392.050;  435.200; -287.000; -228.000
392.178;  -19.900;-1206.000;-1061.000
392.307;  365.100; -758.000; -712.000
392.436;  172.600; -427.000; -641.000
392.564;   86.000;  166.000;   -6.000
392.693; -129.600; -860.000; -682.000
392.822;  455.200; -529.000; -534.000
392.950;  192.600; -880.000; -714.000
393.079;  727.700; -188.000; -328.000
393.208;   98.900; -488.000; -511.000
393.336;   51.300; -170.000; -145.000
393.465;  -64.600; -317.000; -199.000
393.593;   50.900;   62.000;   79.000
393.722; -262.300;-1121.000; -916.000
393.850;  -17.300; -188.000;  -61.000
393.979; -269.800; -926.000; -805.000
394.107;  -81.400; -517.000; -537.000
394.236;    7.200; -570.000; -507.000
394.364;  578.000;  383.000;  206.000
394.493;  970.600; -911.000; -767.000
394.621;   25.400; -955.000; -916.000
394.750; 1309.400; -873.000; -923.000
394.878; 5307.500; -247.000; -149.000
395.007; 6956.000; -721.000; -807.000
395.135;  476.200; -790.000; -721.000
395.263; -157.300;-1038.000;-1040.000
395.392;   64.500;  -25.000; -107.000
395.520; -264.000; -818.000; -679.000
395.648; -109.600; -865.000; -915.000
395.777;   43.300; -366.000; -405.000
395.905;  -30.900; -449.000; -564.000
396.033;  117.200;  217.000;  172.000
396.162; 1616.300; -399.000; -453.000
396.290; 1370.000;  -17.000;   -2.000
396.418;  276.400; -555.000; -514.000
396.546; -115.900; -571.000; -466.000
396.674; -126.900; -850.000; -878.000
396.803;   65.600;  -72.000;  -23.000
396.931;  238.100; -179.000; -199.000
397.059;  185.400;-1026.000; -989.000
397.187; -174.000;-1026.000; -975.000
397.315; -248.100; -884.000; -649.000
397.443; -151.000; -592.000; -443.000
397.572; -124.100; -578.000; -424.000
397.700;   49.700; -607.000; -614.000
397.828;   48.900;  120.000;  -90.000
397.956;  -52.600; -508.000; -478.000
398.084;  -92.700; -767.000; -626.000
398.212;  149.100;  137.000;  124.000
398.340;   91.500;  -56.000;  159.000
398.468;   92.900; -390.000; -169.000
398.596; -236.300; -993.000; -953.000
398.724; -228.500; -762.000; -767.000
398.852; -260.500;-1024.000; -976.000
398.980;  -44.000; -560.000; -560.000
399.108;  -50.200; -982.000; -735.000
399.236;  117.200;   13.000;    8.000
399.363;   73.500;  222.000;  196.000
399.491;  -61.100; -404.000; -398.000
399.619; -216.900; -829.000; -800.000
399.747; -154.400; -859.000; -771.000
399.875;  223.600;  220.000;  234.000
400.003;  -94.200; -359.000; -284.000
400.130; -132.100; -421.000; -341.000
400.258;   15.800;  -83.000;   38.000
400.386;  -86.600; -352.000; -168.000
400.514;  -11.800; -526.000; -587.000
400.641; -105.200; -928.000; -802.000
400.769; -242.700; -979.000; -888.000
400.897; -126.700; -838.000; -793.000
401.025;   46.200; -166.000; -152.000
401.152;   76.600;  220.000;   38.000
401.280; -121.600; -430.000; -429.000
401.408; -180.100; -712.000; -576.000
401.535; -165.600; -735.000; -758.000
401.663; -319.500;-1134.000;-1054.000
401.790;  -97.900; -514.000; -525.000
401.918;  156.000;  436.000;  405.000
402.046;   21.700;  134.000;  122.000
402.173;   -3.600;  -18.000;    7.000
402.301; -107.500; -519.000; -397.000
402.428;  127.400;  528.000;  383.000
402.556; -239.900;-1188.000; -913.000
402.683;    2.400;  -20.000;   -1.000
402.811;   12.700;  -37.000; -206.000
402.938;   55.800;   20.000;   27.000
403.066;  444.600; -574.000; -558.000
403.193;  625.900;  299.000;  239.000
403.321;  536.900; -396.000; -574.000
403.448;  682.500;   83.000;   27.000
403.575;  315.500;  -90.000;  -46.000
403.703; -181.000; -732.000; -557.000
403.830;  -73.000; -531.000; -496.000
403.957; -251.600;-1117.000;-1023.000
404.085;   84.500;  -61.000; -172.000
404.212;  211.400;  -50.000;   63.000
404.339;  545.800; -566.000; -306.000
404.467;10548.600; -612.000; -524.000
404.594; 6704.400; -287.000; -227.000
404.721; 1648.300; -869.000; -764.000
404.848;  184.200; -113.000; -202.000
404.976; -176.400; -856.000; -783.000
405.103;   60.500;  -14.000;  -82.000
405.230;   86.800;  190.000;  226.000
405.357;  143.500;  117.000;   44.000
405.484;  554.000;  -49.000;    5.000
405.612;  119.100; -548.000; -563.000
405.739;  -44.800; -488.000; -243.000
405.866;  220.400;  669.000;  385.000
405.993;  -27.500; -398.000; -102.000
406.120; -234.300; -801.000; -887.000
406.247;  -52.400; -323.000; -342.000
406.374;  977.000;  540.000;  629.000
406.501;  262.200; -632.000; -702.000
406.628; -102.300; -621.000; -589.000
406.755; -140.400; -803.000; -620.000
406.882;  -27.300; -228.000; -277.000
407.009; -160.300; -719.000; -628.000
407.136;  166.600; -480.000; -401.000
407.263;  322.600; -939.000; -829.000
407.390; -105.200; -692.000; -614.000
407.517; -290.200;-1139.000;-1187.000
407.644;  -46.000; -332.000; -256.000
407.771; -117.700; -249.000; -287.000
407.898;   91.600;  168.000;  328.000
408.025;  -60.900; -421.000; -313.000
408.151;   25.700;   82.000;  153.000
408.278;  -51.600; -267.000; -216.000
408.405; -195.900; -931.000; -899.000
408.532; -112.600; -549.000; -542.000
408.659; -164.600; -677.000; -648.000
408.785; -376.500;-1298.000;-1170.000
408.912;  -70.700; -412.000; -296.000
409.039; -152.100; -610.000; -686.000
409.166; -159.500; -591.000; -555.000
409.292; -156.200; -571.000; -534.000
409.419; -206.300; -665.000; -649.000
409.546; -136.500; -431.000; -192.000
409.672; -201.900; -713.000; -545.000
409.799;  -21.100;  -36.000;   34.000
409.926;   -1.000; -180.000; -179.000
410.052; -289.200;-1127.000;-1091.000
410.179;  -58.500; -368.000; -392.000
410.305; -129.900; -375.000; -493.000
410.432;  -41.800; -220.000; -333.000
410.558; -106.200; -305.000; -380.000
410.685; -188.000; -688.000; -431.000
410.812; -125.000; -409.000; -588.000
410.938; -219.600; -964.000; -808.000
411.065; -128.100; -671.000; -645.000
411.191;    4.000; -189.000; -174.000
411.317; -164.400; -823.000; -742.000
411.444;  -67.000; -317.000; -246.000
411.570;  -91.700; -339.000; -294.000
411.697; -214.100; -758.000; -752.000
411.823; -275.800; -989.000; -999.000
411.949;  -37.200;  -56.000;   17.000
412.076; -178.000; -539.000; -519.000
412.202; -202.600; -758.000; -757.000
412.329; -205.100; -798.000; -752.000
412.455; -190.700; -821.000; -657.000
412.581;   13.300;  -15.000;  172.000
412.707;  -67.700; -540.000; -457.000
412.834;   92.000;  156.000;  219.000
412.960; -137.800; -785.000; -784.000
413.086; -159.400; -743.000; -701.000
413.212;  368.400;  604.000;  578.000
413.339;  -79.200; -685.000; -701.000
413.465;   45.500; -364.000; -310.000
413.591; -155.300; -757.000; -474.000
413.717;  -41.200; -358.000; -366.000
413.843; -243.800; -839.000; -861.000
413.969;  -81.600;  -47.000; -292.000
414.096; -137.500; -679.000; -679.000
414.222;   10.500;  -33.000;   85.000
414.348;   12.200; -652.000; -385.000
414.474;  255.100;   38.000;  -52.000
414.600;   28.300; -126.000; -144.000
414.726;   17.900;  -96.000;  -55.000
414.852;  -74.600; -365.000; -342.000
414.978;  121.600;  104.000;  -18.000
415.104;  104.800;   38.000;   80.000
415.230;  118.500; -329.000; -330.000
415.356;  107.800; -409.000; -514.000
415.482;  426.400;   13.000;  -35.000
415.608;  550.200; -247.000; -323.000
415.734; 1857.300;   67.000;   38.000
415.860;38083.800; -875.000; -767.000
415.986;24851.800; -685.000; -607.000
416.111; 2079.700; -798.000; -652.000
416.237;  450.300; -424.000; -571.000
416.363; 2252.800; -765.000; -733.000
416.489; 7374.000; -324.000; -251.000
416.615;  691.400; -707.000; -742.000
416.741;  -34.700; -677.000; -784.000
416.866; -152.000; -673.000; -736.000
416.992; -207.500; -801.000; -818.000
417.118;   41.300;  -41.000;  -80.000
417.244;  -88.600; -798.000; -531.000
417.369; -123.500; -801.000; -612.000
417.495;   13.500; -325.000; -254.000
417.621; -110.000;-1015.000; -803.000
417.746;   48.300; -579.000; -572.000
417.872;  117.400; -254.000; -144.000
417.998;  109.700; -515.000; -530.000
418.123; 2084.900;-1073.000; -845.000
418.249; 9659.400; -512.000; -601.000
418.374; 1203.600; -916.000; -824.000
418.500;  231.100; -383.000; -482.000
418.626;  279.300;   70.000;  -59.000
418.751;  260.600; -549.000; -448.000
418.877;  370.300; -637.000; -643.000
419.002; 3625.100; -688.000; -560.000
419.128;22729.900; -930.000; -721.000
419.253; 4983.700; -967.000; -837.000
419.379;  694.600; -391.000; -338.000
419.504;  757.500;  325.000;  415.000
419.629;  974.500; -393.000; -212.000
419.755; 6832.300; -317.000; -254.000
419.880;36601.500;  -98.000;   67.000
420.006;20955.800; -280.000; -221.000
420.131;51508.500; -662.000; -775.000
420.256; 6703.600; -315.000; -316.000
420.382;  909.300; -665.000; -687.000
420.507;  147.000; -649.000; -778.000
420.632;  317.800; -337.000; -339.000
420.758;  562.500; -251.000; -425.000
420.883;  -88.900; -876.000; -672.000
421.008; -130.800; -775.000; -619.000
421.133;  -90.600; -509.000; -467.000
421.259;  -30.200; -325.000; -259.000
421.384; -212.600; -834.000; -693.000
421.509;  -42.600;-1052.000; -862.000
421.634; 2505.700; -936.000; -820.000
421.759;  953.200; -359.000; -327.000
421.885;  -59.400; -717.000; -656.000
422.010; -115.600; -673.000; -542.000
422.135; -251.200; -695.000; -727.000
422.260;  144.600;  340.000;  280.000
422.385;   -4.100;   12.000;  -98.000
422.510;   63.100;  151.000;  -26.000
422.635;  107.100;  -87.000;  -43.000
422.760;  280.700; -766.000; -791.000
422.885;  121.500;  -57.000;  -80.000
423.010;   -7.100; -112.000; -169.000
423.135; -131.400; -481.000; -561.000
423.260;   70.900; -150.000; -245.000
423.385;  218.300;  476.000;  222.000
423.510;  133.400;   71.000;  -22.000
423.635;  256.800;  133.000;   45.000
423.760;  173.600;  383.000;  328.000
423.885;  159.000;  336.000;  391.000
424.010;   50.900;  -68.000;  -13.000
424.135;   32.100;    5.000;  -33.000
424.259; -107.800; -654.000; -457.000
424.384; -108.400; -279.000; -272.000
424.509;   15.400; -260.000; -186.000
424.634; -144.100; -761.000; -623.000
424.759;   24.500; -688.000; -544.000
424.883;   15.700; -506.000; -527.000
425.008;  381.200; -502.000; -410.000
425.133; 3789.200; -679.000; -653.000
425.258; 1543.500; -517.000; -381.000
425.382; 2122.000; -867.000; -774.000
425.507; 4837.600; -487.000; -543.000
425.632;  739.500; -802.000; -663.000
425.756;  804.000; -256.000; -146.000
425.881;12159.400; -831.000; -857.000
426.006;29457.000; -604.000; -355.000
426.130; 4196.300; -696.000; -508.000
426.255;  569.400; -611.000; -491.000
426.379;  282.000; -189.000; -577.000
426.504;  803.700;  660.000;  544.000
426.629; 7891.900; -519.000; -466.000
426.753; 4789.900;   64.000;  -46.000
426.878;  601.800; -252.000; -288.000
427.002;  290.800; -651.000; -668.000
427.127; 3228.800;  -35.000; -158.000
427.251;20815.900;  372.000;  401.000
427.375; 5217.800; -191.000; -173.000
427.500; 4422.700; -616.000; -610.000
427.624; 1358.600; -234.000; -400.000
427.749;  239.300; -216.000; -225.000
427.873;  -30.800; -499.000; -412.000
427.997;   -3.800; -222.000; -230.000
428.122;  216.100;  795.000;  703.000
428.246;  240.200;  433.000;  434.000
428.371; -190.300; -869.000; -773.000
428.495; -181.000; -624.000; -646.000
428.619;   48.700; -186.000; -117.000
428.743;  106.900;   65.000;  132.000
428.868;  122.000; -732.000; -643.000
428.992; 2781.200; -219.000; -326.000
429.116; 1071.300; -329.000; -357.000
429.240;  588.600;  419.000;  426.000
429.365;    7.600; -454.000; -574.000
429.489;  -20.900; -638.000; -647.000
429.613;  115.600; -236.000; -177.000
429.737;  110.300; -563.000; -432.000
429.861;  605.600; -247.000; -133.000
429.985;10814.500; -425.000; -305.000
430.109;10546.300; -770.000; -908.000
430.234; 1231.900;   76.000;  -50.000
430.358;  141.000; -250.000; -160.000
430.482;  -90.500; -672.000; -564.000
430.606;  -53.000; -655.000; -375.000
430.730;  106.400; -437.000; -388.000
430.854;  362.900; -909.000; -835.000
430.978;  -70.800; -795.000; -764.000
431.102;  -76.600; -499.000; -422.000
431.226; -164.300; -874.000; -815.000
431.350;  189.000;  345.000;  422.000
431.474;  -74.000; -661.000; -373.000
431.597; -246.700;-1060.000; -848.000
431.721; -133.300; -276.000; -267.000
431.845; -210.900; -704.000; -472.000
431.969;  -95.200; -304.000; -349.000
432.093; -147.700; -395.000; -317.000
432.217;   44.200;   32.000;   82.000
432.341; -117.100; -523.000; -518.000
432.464;   69.900;   96.000;   40.000
432.588;  536.000; -401.000; -329.000
432.712;  256.700;  -52.000;  -52.000
432.836;  170.500;  213.000;  263.000
432.959;  -14.700; -372.000; -311.000
433.083;  201.400;   11.000;    2.000
433.207;  759.400;  285.000;  930.000
433.330; 9544.400; -391.000; -200.000
433.454;10706.600; -654.000; -638.000
433.578; 6358.100;  583.000;  278.000
433.701; 1104.000; -623.000; -675.000
433.825;  312.100; -292.000; -299.000
433.949;  428.000;   28.000;  -72.000
434.072;  131.100; -410.000; -323.000
434.196;   13.800; -309.000; -117.000
434.319; 8049.900;25482.000;25124.000
434.443; 1552.700; -656.000; -603.000
434.566; 4811.200;  281.000;   62.000
434.690;  709.900; -637.000; -383.000
434.813;  138.700; -251.000; -173.000
434.937; -112.700; -569.000; -696.000
435.060;    3.800; -423.000; -332.000
435.184;  763.000; -492.000; -217.000
435.307;  386.300;  159.000;  102.000
435.431;   30.400;  -40.000;   24.000
435.554; -118.500; -399.000; -240.000
435.677; -112.700; -350.000; -258.000
435.801;  -18.200;  -25.000;   49.000
435.924;   29.700;    1.000;  -67.000
436.048; -174.400;-1019.000; -732.000
436.171;  -95.000; -240.000;  -66.000
436.294;   12.400; -248.000; -229.000
436.417;  158.400; -963.000; -849.000
436.541; -128.600; -814.000; -840.000
436.664;  -47.900; -242.000; -316.000
436.787;   58.600;   13.000;  113.000
436.910; -183.700; -792.000; -422.000
437.034;   97.600;  142.000;  143.000
437.157;  226.800;  -11.000;    0.000
437.280;  -43.100; -392.000; -292.000
437.403; -111.000; -982.000; -869.000
437.526; 1493.300; -903.000; -865.000
437.649; 4709.900; -505.000; -332.000
437.772;  628.200; -692.000; -540.000
437.896;  305.900;  700.000;  544.000
438.019; -125.700; -758.000; -503.000
438.142; -148.800; -596.000; -506.000
438.265;   37.600; -639.000; -670.000
438.388; 1269.200; -520.000; -410.000
438.511;  231.700; -597.000; -394.000
438.634;  -49.200; -247.000; -125.000
438.757; -223.200; -693.000; -619.000
438.880;   49.000;  -34.000;  -57.000
439.003; -128.000; -417.000; -437.000
439.126;  -76.400; -287.000; -167.000
439.248;  -74.300;  -98.000; -139.000
439.371;  -28.900;    9.000;  -53.000
439.494;  150.300;  510.000;  439.000
439.617;  -35.500;   65.000;  -88.000
439.740; -315.600; -968.000; -816.000
439.863; -211.200; -755.000; -595.000
439.986; -170.300; -476.000; -431.000
440.108;  -40.800; -161.000; -112.000
440.231; -275.600; -950.000; -836.000
440.354;  -15.000;  -64.000; -150.000
440.477;  151.700; -566.000; -542.000
440.599;   91.200; -200.000; -225.000
440.722; -195.700; -709.000; -586.000
440.845;  204.400;  751.000;  928.000
440.968; -131.600; -415.000; -311.000
441.090;  -71.500; -199.000;  -33.000
441.213; -284.400;-1021.000; -825.000
441.336;  -66.800; -159.000;   -5.000
441.458;  -96.900; -549.000; -396.000
441.581; -113.700; -628.000; -629.000
441.703;  -79.500; -152.000;   13.000
441.826; -156.800; -557.000; -400.000
441.948;  -27.000;   56.000;   51.000
442.071;  101.100;  555.000;  424.000
442.193; -156.200; -531.000; -485.000
442.316;   87.600;  152.000;   97.000
442.438;  117.800; -233.000;  -10.000
442.561;  206.900;  272.000;  262.000
442.683; 1285.500; -809.000; -522.000
442.806; 2387.000;   -8.000;   74.000
442.928;   64.500; -859.000; -604.000
443.051;  -80.500; -577.000; -373.000
443.173; -115.800; -341.000; -339.000
443.295; -129.400; -263.000; -371.000
443.418;  -76.800; -321.000;  -29.000
443.540;   29.100; -106.000;   -4.000
443.662; -191.900; -563.000; -465.000
443.785;    8.200;  335.000;  199.000
443.907; -150.500; -362.000; -208.000
444.029; -234.000; -767.000; -494.000
444.152; -205.500; -644.000; -554.000
444.274;    2.300;  -18.000;  -24.000
444.396; -188.200; -461.000; -221.000
444.518; -214.100; -691.000; -454.000
444.640; -159.800; -268.000; -111.000
444.763;   17.800;  388.000;  249.000
444.885; -172.900; -432.000; -392.000
445.007;    3.600;   35.000;   86.000
445.129; -188.000; -610.000; -515.000
445.251; -152.500; -372.000; -439.000
445.373; -219.600; -537.000; -386.000
445.495;   84.400;  242.000;  350.000
445.617;  214.100;  853.000;  753.000
445.739;  -55.000; -215.000;  -97.000
445.861;  -21.700; -245.000; -112.000
445.984;  -13.300; -267.000; -101.000
446.105;  540.800; -418.000; -251.000
446.227; 1282.500; -176.000;  -19.000
446.349;   49.800; -358.000; -249.000
446.471; -141.200; -615.000; -448.000
446.593;  -63.700; -316.000;   19.000
446.715;   49.100;  -67.000;   41.000
446.837;  217.600;  697.000;  832.000
446.959; -160.000; -457.000; -478.000
447.081; -208.900; -628.000; -518.000
447.203;  182.400;  862.000;  834.000
447.325; -110.400; -270.000;   42.000
447.446;   48.800;  286.000;  530.000
447.568; -265.300; -921.000; -803.000
447.690; -141.200; -236.000; -245.000
447.812; -221.300; -798.000; -519.000
447.933;   13.400;  155.000;  127.000
448.055;  -70.100; -306.000; -261.000
448.177;  409.400;   31.000;   79.000
448.299;  180.700; -935.000; -727.000
448.420;   90.400;  -25.000;  159.000
448.542;  -35.400;   -3.000;   33.000
448.664;    8.600;  109.000;  322.000
448.785;  -16.900;  265.000;   83.000
448.907; -132.600; -614.000; -353.000
449.028;   13.400; -771.000; -471.000
449.150;  222.200;  492.000;  589.000
449.272; -277.700;-1044.000; -913.000
449.393;  123.900;  612.000;  694.000
449.515; -238.700; -634.000; -581.000
449.636;  -69.300; -264.000; -155.000
449.758;  222.100;  763.000;  622.000
449.879; -158.600; -498.000; -396.000
450.001;  -77.100; -149.000;  -49.000
450.122;  -13.700;  -95.000;  162.000
450.244;    3.200;   37.000;  364.000
450.365; -169.200; -495.000; -301.000
450.486;   -2.800;   80.000;  268.000
450.608;  113.700;  393.000;  326.000
450.729;  168.400;  578.000;  645.000
450.850;   49.100; -574.000; -466.000
450.972; 1465.600; -552.000; -389.000
451.093; 8896.300;  190.000;  588.000
451.214; 3356.700; -516.000; -337.000
451.336;  702.900;  773.000;  579.000
451.457;  148.600;  264.000;  393.000
451.578;   -4.800; -118.000;  -74.000
451.699; -179.700; -546.000; -540.000
451.821;  -61.500; -284.000;  -50.000
451.942;   50.200;  278.000;  285.000
452.063;  120.900;  228.000;  419.000
452.184; 1170.600;  -54.000;  -49.000
452.305; 1957.000;  103.000;  170.000
452.427;  222.100; -549.000; -301.000
452.548;   21.500;   23.000;   79.000
452.669;  -41.700; -257.000;  -89.000
452.790;  -15.600;    3.000;  -18.000
452.911;   37.300;  195.000;  259.000
453.032;  -63.700; -289.000;  -60.000
453.153;    0.800;  -29.000;   81.000
453.274;  203.700;  737.000;  868.000
453.395;  -24.700;  -51.000;  175.000
453.516;  345.300; 1317.000; 1388.000
453.637;  -79.800; -205.000; -150.000
453.758;  -30.300;   15.000;   69.000
453.879; -179.700; -462.000; -250.000
454.000;  224.700; 1086.000;  948.000
454.121; -152.000; -554.000; -326.000
454.242; -176.700; -599.000; -383.000
454.362;  -61.900;  -99.000;  114.000
454.483;  -19.300; -309.000; -229.000
454.604;  164.300;  512.000;  580.000
454.725; -204.600; -627.000; -555.000
454.846; -181.000; -474.000; -406.000
454.967;    6.600;  230.000;  539.000
455.087;  -34.300;  179.000;  153.000
455.208;  112.900;  554.000;  856.000
455.329;  -67.800;  -22.000;   82.000
455.450;  105.300;  473.000;  633.000
455.570; -129.300; -234.000; -211.000
455.691;   42.000;  201.000;  407.000
455.812; -139.900; -270.000;  -92.000
455.932;  -76.800;  107.000;  -97.000
456.053;  -87.700;   36.000;   24.000
456.173; -171.300; -433.000; -355.000
456.294; -230.600; -476.000; -303.000
456.415;  -59.600;  -73.000;   70.000
456.535;    0.700;  297.000;  273.000
456.656;  -18.300;  132.000;  240.000
456.776;  -79.600;    3.000;  298.000
456.897;   49.200;  308.000;  513.000
457.017;  -91.100; -153.000;   -3.000
457.138; -145.700; -402.000; -249.000
457.258;    3.900;  263.000;  224.000
457.379;   50.300;  509.000;  521.000
457.499;   -7.800;  443.000;  432.000
457.620; -173.500; -407.000; -231.000
457.740; -143.400; -132.000;  -11.000
457.860;  -12.900;   87.000;   44.000
457.981;  -35.100;  132.000;  124.000
458.101;  -75.800;  -89.000;   40.000
458.221;   21.100;  336.000;  402.000
458.342;  -51.600;   -4.000;  -37.000
458.462;   96.300;  617.000;  352.000
458.582;  -67.300; -302.000; -294.000
458.703;   61.600;  303.000;  154.000
458.823;  -10.800;   22.000;  163.000
458.943;  132.100;  341.000;  467.000
459.063;   16.100; 1124.000;  192.000
459.183;   16.500;  328.000;  313.000
459.304;   82.900;  315.000;  517.000
459.424;  -35.100; -246.000;  -89.000
459.544;  725.700;  388.000;  764.000
459.664; 1552.900;  499.000;  506.000
459.784;  598.100; 1004.000; 1175.000
459.904;  165.800;  867.000;  744.000
460.024;  233.400;  867.000;  684.000
460.144;   60.400;  449.000;  554.000
460.264;   57.800;  515.000;  327.000
460.385; -135.600; -145.000; -119.000
460.505;  158.100;  905.000;  858.000
460.625; -106.100;  -17.000;  -68.000
460.745;   10.800;  396.000;  541.000
460.864;  -24.500;  153.000;  469.000
460.984;  107.100;  499.000;  573.000
461.104;  368.200; 1656.000; 1775.000
461.224;   86.200;  657.000;  650.000
461.344;   37.100;  431.000;  360.000
461.464;  -23.700;  258.000;  513.000
461.584;   62.900;  283.000;  466.000
461.704;  -35.100;   58.000;  108.000
461.824;  -72.200;  238.000;  259.000
461.943;  -37.800;  191.000;  130.000
462.063;  -84.100;    2.000;  324.000
462.183;  136.400;  639.000;  717.000
462.303;  304.900; 1678.000; 1230.000
462.422;  181.800;  781.000;  840.000
462.542;   -0.200;  271.000;  391.000
462.662;  113.900;  353.000;  380.000
462.782;  532.000;  833.000;  572.000
462.901;  894.400;  545.000;  717.000
463.021;  609.300; 1702.000; 1638.000
463.141;   47.700;  337.000;  770.000
463.260;   46.000;  614.000;  474.000
463.380;  112.800;  902.000;  884.000
463.499;   15.100;  342.000;  332.000
463.619;    7.600;  581.000;  559.000
463.738;  307.100; 1644.000;  903.000
463.858;   85.300;  657.000;  811.000
463.978;   15.100;  542.000;  396.000
464.097;  215.300;  921.000; 1114.000
464.217;  304.000; 1196.000; 1143.000
464.336;  293.000; 1068.000; 1130.000
464.455;   13.800;  328.000;  659.000
464.575;  161.300;  597.000;  602.000
464.694;  392.900; 1204.000; 1179.000
464.814;  324.200; 1190.000; 1138.000
464.933;  210.400; 1095.000; 1027.000
465.052;  299.100; 1412.000; 1054.000
465.172;  222.700;  922.000;  799.000
465.291;  323.000; 1376.000; 1320.000
465.410;  106.900;  462.000;  735.000
465.530;  232.400; 1355.000; 1310.000
465.649;  226.300; 1209.000; 1273.000
465.768;  338.100; 1673.000; 1508.000
465.888;  165.500;  941.000; 1174.000
466.007;  281.900; 1335.000; 1440.000
466.126;   98.700;  721.000;  641.000
466.245;  194.000; 1176.000; 1187.000
466.364;  131.600;  950.000; 1060.000
466.484;  174.000; 1024.000; 1213.000
466.603;  142.000; 1101.000; 1222.000
466.722;  338.600; 1490.000; 1769.000
466.841;  258.600; 1151.000; 1401.000
466.960;  140.700; 1069.000;  972.000
467.079;  364.000; 1971.000; 1786.000
467.198;  171.500; 1238.000; 1181.000
467.317;  241.400; 1768.000; 1162.000
467.436;  226.600; 1709.000; 1261.000
467.555;  380.600; 1796.000; 1746.000
467.674;  191.000; 1227.000; 1329.000
467.793;  145.800; 1376.000; 1374.000
467.912;  223.800; 1658.000; 1539.000
468.031;  378.300; 2038.000; 1930.000
468.150;  370.100; 1842.000; 1837.000
468.269;  499.200; 2313.000; 2090.000
468.388;  465.400; 2168.000; 2339.000
468.507;  629.400; 2884.000; 2903.000
468.626;  633.000; 2555.000; 2541.000
468.744;  312.700; 2018.000; 2174.000
468.863;  491.900; 2312.000; 2523.000
468.982;  252.600; 1503.000; 1555.000
469.101;  518.900; 2788.000; 2692.000
469.220;  392.700; 2333.000; 2176.000
469.338;  592.800; 2935.000; 3051.000
469.457;  466.100; 2719.000; 2545.000
469.576;  795.100; 3953.000; 3784.000
469.695;  577.700; 2877.000; 3066.000
469.813;  941.900; 4148.000; 4192.000
469.932;  929.400; 4255.000; 4485.000
470.051;  892.000; 4075.000; 4161.000
470.169; 1807.600; 4470.000; 4338.000
470.288; 2844.200; 4700.000; 4809.000
470.406; 1669.300; 5059.000; 5194.000
470.525; 1301.800; 6101.000; 5787.000
470.644; 1402.600; 6847.000; 6794.000
470.762; 1788.500; 8397.000; 7873.000
470.881; 1900.300; 8651.000; 8464.000
470.999; 2120.700; 9685.000; 9151.000
471.118; 2326.200;11174.000;10711.000

