
Integration time [ms]: 100.000
Averaging Nr. [scans]: 40
Smoothing Nr. [pixels]: 0
Data measured with spectrometer [name]: 2101012U2
Wave   ;Sample   ;Dark     ;Reference
[nm]   ;[counts] ;[counts] ;[counts] 

197.733;   54.700;  516.000;  404.000
197.879;  -69.350; -610.000; -634.000
198.025;  -42.675; -475.000; -420.000
198.171;  -71.325; -602.000; -612.000
198.317;  -31.100; -401.000; -316.000
198.463;  -46.350; -655.000; -404.000
198.609;   19.425;  181.000; -137.000
198.755;  -72.550; -644.000; -410.000
198.901;  -59.100; -505.000; -424.000
199.047;  -62.525; -615.000; -488.000
199.193;  -34.525; -230.000; -468.000
199.339;  -40.600; -222.000; -369.000
199.485;   47.775;  330.000;  271.000
199.631;   14.350;  227.000;  310.000
199.777;  -40.600; -466.000; -398.000
199.923;  -61.525; -610.000; -424.000
200.069;    3.725; -141.000;  -58.000
200.215;   48.425;  128.000;  453.000
200.361;   41.050;  243.000;  477.000
200.507;  -55.800; -600.000; -373.000
200.653;  -31.700; -371.000; -194.000
200.798;  -23.425; -215.000; -125.000
200.944;   -4.850; -146.000;  -41.000
201.090;   32.475;   61.000;  222.000
201.236;   -3.625; -116.000; -158.000
201.382;  109.300;  874.000;  903.000
201.528;   -2.450;  -58.000;  -48.000
201.674;  -57.600; -386.000; -293.000
201.819;  -63.600; -540.000; -439.000
201.965;  -81.975; -699.000; -447.000
202.111;  -20.550; -273.000; -226.000
202.257;  -36.325; -250.000; -238.000
202.402;   -2.425;   13.000;  -36.000
202.548;  -30.625; -169.000; -116.000
202.694;   86.850;  410.000; -183.000
202.840;  -82.200; -603.000; -531.000
202.985;  -89.350; -681.000; -639.000
203.131;  -90.875; -832.000; -666.000
203.277;  -24.275; -199.000; -262.000
203.423;  -49.450; -434.000; -520.000
203.568;  -44.075; -462.000; -237.000
203.714;  -52.700; -535.000; -542.000
203.860;  -86.475; -682.000; -641.000
204.005;    6.400;  112.000;  167.000
204.151;   68.350;  561.000;  556.000
204.296;  -42.850; -354.000; -221.000
204.442;  -83.150; -600.000; -547.000
204.588;  -78.825; -592.000; -579.000
204.733;   14.275;  178.000;  168.000
204.879; -125.550;-1018.000; -822.000
205.025;   -8.550;  -99.000;  126.000
205.170;   -1.800;  -17.000;   94.000
205.316;   71.850;  438.000;  661.000
205.461;  -82.700; -698.000; -554.000
205.607;   70.100;  609.000;  665.000
205.752;  -70.150; -626.000; -551.000
205.898;  -58.625; -501.000; -391.000
206.043;  -66.900; -578.000; -506.000
206.189;  -45.275; -243.000; -285.000
206.334;   83.800;  554.000;  606.000
206.480;   67.175;  409.000;  239.000
206.625;  -65.625; -529.000; -552.000
206.771;  -54.750; -451.000; -373.000
206.916;  -22.800; -210.000; -537.000
207.062;  -64.075; -545.000; -591.000
207.207;  -69.200; -546.000; -443.000
207.353;   45.200;  185.000;  460.000
207.498;   13.350;  196.000;   85.000
207.643;  -59.250; -501.000; -370.000
207.789; -112.950;-1069.000; -910.000
207.934;  -99.975; -665.000; -713.000
208.080;  -17.475; -154.000;   66.000
208.225;  -16.725;  -22.000;  -57.000
208.370;  -86.100; -727.000; -619.000
208.516;  -72.850; -741.000; -487.000
208.661;  -16.225; -127.000;  -69.000
208.806;  -21.400; -165.000; -171.000
208.952; -119.275;-1044.000; -731.000
209.097;   61.725;  378.000;  349.000
209.242;  -54.175; -307.000; -382.000
209.387;   67.825;  392.000;  350.000
209.533;  -58.550; -321.000; -350.000
209.678;   77.175;  472.000;  543.000
209.823;  -59.075; -408.000; -310.000
209.969;  -83.800; -860.000; -757.000
210.114; -105.150; -907.000; -719.000
210.259; -115.950; -939.000; -889.000
210.404;  -13.325; -171.000;  103.000
210.549;   11.250;  108.000;    3.000
210.695;  -24.500;   -3.000;  -95.000
210.840;   20.850;   94.000;   67.000
210.985;  -62.025; -484.000; -303.000
211.130;   67.575;  268.000;  406.000
211.275;   24.750;  207.000;  199.000
211.420;  -41.525; -300.000; -289.000
211.566;  -69.850; -536.000; -489.000
211.711;    6.425;  218.000;  157.000
211.856;  -53.875; -545.000; -519.000
212.001;    0.450;  151.000;   44.000
212.146;    9.050;  153.000;   49.000
212.291;  -22.950; -210.000; -186.000
212.436;  -21.900; -280.000;   -6.000
212.581;  -84.350; -685.000; -653.000
212.726;  -70.150; -487.000; -538.000
212.871;  -66.850; -552.000; -217.000
213.016; -136.575;-1172.000;-1029.000
213.161;   55.300;  406.000;  291.000
213.306;  -73.100; -435.000; -577.000
213.451;  -89.675; -778.000; -689.000
213.596;  -43.400; -455.000; -347.000
213.741;  -60.600; -448.000; -538.000
213.886;  -63.525; -498.000; -517.000
214.031;  -24.175; -294.000; -124.000
214.176;  -50.550; -408.000; -341.000
214.321;  -23.275; -296.000; -157.000
214.466;  -29.625; -163.000;  -43.000
214.611;  -22.950;  -61.000;  -10.000
214.756; -108.750; -948.000; -858.000
214.901;  -30.325; -388.000; -226.000
215.046; -118.375; -797.000; -825.000
215.191;   14.750;  128.000;   35.000
215.336;  -18.500; -157.000;  -19.000
215.480;  -64.825; -684.000; -505.000
215.625;   -5.875; -175.000;  -19.000
215.770; -101.000; -757.000; -662.000
215.915;   -4.225;   -5.000;  -97.000
216.060;   -4.100; -113.000;  -21.000
216.205; -102.200; -731.000; -779.000
216.349;  -78.650; -470.000; -533.000
216.494; -118.625; -939.000; -867.000
216.639; -119.300; -823.000; -888.000
216.784;  -79.025; -577.000; -525.000
216.929;   36.000;  392.000;  281.000
217.073;  -19.125; -244.000;  -31.000
217.218;   10.925;   78.000;  -47.000
217.363;  -89.225; -656.000; -618.000
217.507;  -77.650; -623.000; -588.000
217.652; -115.275; -845.000; -874.000
217.797;  -94.750; -708.000; -659.000
217.942;  -94.600; -856.000; -720.000
218.086;   77.300;  608.000;  539.000
218.231;  -11.600; -174.000;  -26.000
218.376;  -30.200; -337.000; -229.000
218.520;    2.550;  -41.000;   96.000
218.665;  -24.450; -338.000; -204.000
218.810;  -50.500; -275.000; -233.000
218.954;   11.500;  201.000;   35.000
219.099; -104.925; -713.000; -963.000
219.243;  -85.575; -589.000; -554.000
219.388;  -22.475; -264.000; -136.000
219.532;   -8.925; -116.000; -116.000
219.677;  -82.000; -564.000; -521.000
219.822;    2.050;   33.000;   89.000
219.966;   -0.350;   17.000;  -99.000
220.111;  -28.575; -328.000;  -40.000
220.255;  -99.450; -797.000; -750.000
220.400;  -31.550; -180.000; -146.000
220.544;  -61.200; -516.000; -450.000
220.689;  -56.625; -422.000; -451.000
220.833;  -22.025; -123.000;  -58.000
220.978;  -56.925; -393.000; -563.000
221.122;    9.175;  319.000;  307.000
221.267; -129.475; -906.000; -837.000
221.411;  -66.375; -478.000; -394.000
221.555;  -19.700; -104.000;  -23.000
221.700;  -37.325; -329.000; -222.000
221.844;   28.550;  255.000;  272.000
221.989;  -51.275; -328.000; -311.000
222.133;  -38.300; -289.000; -307.000
222.277;   -7.300;    5.000;   78.000
222.422;    9.725;  227.000;  113.000
222.566;  -32.250; -381.000; -214.000
222.711;  -56.450; -414.000; -479.000
222.855;  -73.200; -643.000; -586.000
222.999;  -78.475; -642.000; -717.000
223.144;  -33.050; -195.000; -194.000
223.288;   50.125;  423.000;  251.000
223.432;   23.625;  184.000;  230.000
223.576;   14.300;  152.000;  -21.000
223.721;   37.850;  364.000;  273.000
223.865;  -67.975; -472.000; -475.000
224.009;  262.200; 1673.000; 1631.000
224.153;  -89.575; -660.000; -671.000
224.298;  -76.675; -531.000; -489.000
224.442;  -24.500;  -74.000;  -33.000
224.586;   -8.975; -169.000; -106.000
224.730; -106.575; -858.000; -670.000
224.875; -103.425; -739.000; -688.000
225.019;    6.175;  102.000;  188.000
225.163;   55.050;  208.000;  341.000
225.307;    8.975;   97.000;  -91.000
225.451;   24.975;  360.000;  481.000
225.595;   21.450;  264.000;  176.000
225.739;  -13.775; -170.000;  -94.000
225.884;   16.550;   86.000;    5.000
226.028;  -97.050; -760.000; -626.000
226.172;  -33.775; -260.000; -273.000
226.316; -104.975; -941.000; -902.000
226.460;  -69.175; -645.000; -493.000
226.604;  -53.475; -406.000; -400.000
226.748; -101.300; -836.000; -733.000
226.892;  -35.700; -227.000; -181.000
227.036;  -46.300; -537.000; -447.000
227.180;  -43.075; -551.000; -375.000
227.324;  -76.675; -561.000; -580.000
227.468; -112.575; -819.000; -717.000
227.612;   -4.650;  242.000;  -28.000
227.756;  -88.425; -845.000; -698.000
227.900;   43.700;  342.000;  441.000
228.044;  -57.300; -509.000; -290.000
228.188;   40.050;  448.000;  568.000
228.332;  -81.000; -546.000; -472.000
228.476;  -29.550; -223.000; -149.000
228.620;  -22.625; -210.000; -150.000
228.764;   44.650;  431.000;  349.000
228.908;  -20.525; -155.000;   30.000
229.052;  -73.375; -615.000; -528.000
229.195;  -10.625; -172.000;   13.000
229.339;  -46.950; -235.000; -305.000
229.483;  -30.550;    5.000; -162.000
229.627;    3.275; -156.000;  139.000
229.771;  -44.325; -218.000; -294.000
229.915;   -1.025;  230.000;   79.000
230.059;  -76.800; -648.000; -663.000
230.202;  -43.425; -370.000; -317.000
230.346;  -18.900; -107.000;  107.000
230.490;  -69.025; -489.000; -521.000
230.634; -106.200; -736.000; -553.000
230.777;   62.225;  478.000;  509.000
230.921;  -47.875; -450.000; -359.000
231.065;  -48.175; -246.000; -286.000
231.209;   25.225;  261.000;  265.000
231.352;   20.975;   54.000;   40.000
231.496;   20.925;  568.000;  188.000
231.640;  -84.300; -693.000; -621.000
231.783;   72.150;  546.000;  525.000
231.927;  -41.500; -294.000; -365.000
232.071; -118.900; -962.000; -736.000
232.214; -117.100; -980.000; -764.000
232.358;  -96.500; -683.000; -599.000
232.502;    1.575;  -19.000;    7.000
232.645; -136.550;-1090.000; -927.000
232.789;  -26.550; -257.000; -218.000
232.933;  -36.650; -407.000; -224.000
233.076; -116.025;-1038.000; -897.000
233.220; -102.350; -752.000; -777.000
233.363;  -59.750; -669.000; -477.000
233.507;   51.250;  371.000;  129.000
233.650; -102.325; -764.000; -834.000
233.794;   40.150;  438.000;  461.000
233.938;  -63.475; -530.000; -362.000
234.081;  -10.425;  -93.000;   31.000
234.225;  -70.625; -631.000; -539.000
234.368; -112.275; -773.000; -723.000
234.512;  -46.600; -385.000; -299.000
234.655;  -84.225; -582.000; -555.000
234.798;  -54.875; -493.000; -466.000
234.942; -112.900; -884.000;-1002.000
235.085;  -84.325; -651.000; -443.000
235.229;  -72.425; -405.000; -410.000
235.372;  -36.500; -247.000; -191.000
235.516;  -49.775; -397.000; -321.000
235.659;   20.875;   92.000;  121.000
235.802;  -12.625;  -38.000;  -22.000
235.946;   26.650;  335.000;  215.000
236.089;   25.200;  126.000;  250.000
236.233;   38.675;  275.000;  298.000
236.376;  -58.025; -235.000; -378.000
236.519;  -58.500; -297.000; -319.000
236.663;  -11.950; -215.000; -117.000
236.806; -134.075;-1029.000; -999.000
236.949;   43.675;  543.000;  431.000
237.092;   58.325;  412.000;  391.000
237.236;  -82.975; -589.000; -502.000
237.379;   44.125;  352.000;  428.000
237.522; -115.625; -879.000; -768.000
237.666;  -24.125; -271.000;   18.000
237.809; -117.525; -851.000; -823.000
237.952;   24.150;  469.000;  271.000
238.095;  -57.525; -447.000; -442.000
238.238;   63.200;  688.000;  700.000
238.382;   -0.275;  166.000;  103.000
238.525;  -70.050; -598.000; -511.000
238.668; -130.975;-1060.000; -985.000
238.811;  -70.600; -638.000; -643.000
238.954;  -52.950; -483.000; -334.000
239.097;   73.125;  617.000;  664.000
239.241;   24.550;  394.000;  326.000
239.384;  -36.850; -254.000; -214.000
239.527;  -55.850; -424.000; -224.000
239.670; -139.900; -994.000;-1091.000
239.813; -100.150; -696.000; -658.000
239.956;   71.750;  579.000;  473.000
240.099; -104.300; -778.000; -725.000
240.242;   45.725;  428.000;  432.000
240.385;   35.175;  466.000;  450.000
240.528;  -86.250; -706.000; -473.000
240.671;   12.625;  189.000;  134.000
240.814;  -49.950; -441.000; -158.000
240.957;  -93.525; -767.000; -578.000
241.100; -103.875; -779.000; -755.000
241.243; -138.925;-1234.000; -893.000
241.386;  -70.575; -508.000; -379.000
241.529;  -84.000; -735.000; -547.000
241.672;  -66.025; -566.000; -495.000
241.815; -112.100; -832.000; -808.000
241.958;  -27.675; -125.000; -182.000
242.101;  -73.675; -545.000; -390.000
242.244;  -43.600; -270.000; -325.000
242.387;  -44.075; -304.000; -246.000
242.530;   40.750;  470.000;  134.000
242.673;  -37.850; -381.000; -309.000
242.815; -114.000; -925.000; -899.000
242.958;  -58.925; -482.000; -381.000
243.101;   -3.500;  132.000;  187.000
243.244;  -91.375; -564.000; -521.000
243.387;  -49.425; -313.000; -316.000
243.530;  -90.650; -657.000; -674.000
243.672;  -11.750;   43.000;  -92.000
243.815;  -43.475; -355.000; -283.000
243.958;  -11.125;   98.000;  -26.000
244.101;   -3.900;   59.000;  -16.000
244.243;  -11.900;  -47.000;  101.000
244.386;  -96.950; -761.000; -630.000
244.529;  -48.350; -132.000; -139.000
244.672; -157.700;-1154.000; -951.000
244.814; -103.350; -621.000; -794.000
244.957;  -52.100; -380.000; -304.000
245.100;  -76.225; -489.000; -489.000
245.242;  -67.525; -387.000; -374.000
245.385;   -6.200;  -59.000;  -39.000
245.528; -108.175; -871.000; -705.000
245.670;   84.525;  612.000;  634.000
245.813;  -84.275; -599.000; -547.000
245.956;  -28.675; -324.000; -275.000
246.098;  -66.300; -508.000; -650.000
246.241;   -4.800;  194.000;   48.000
246.383;  -20.900; -119.000;  -73.000
246.526;  -71.500; -454.000; -525.000
246.669; -115.775; -889.000; -780.000
246.811;   16.075;  172.000;   -1.000
246.954;  -68.325; -512.000; -426.000
247.096;  -16.625;  -84.000;   -6.000
247.239;  -58.825; -482.000; -445.000
247.381;  -66.325; -647.000; -488.000
247.524;   94.650;  645.000;  679.000
247.666;  -14.150;   58.000;   11.000
247.809; -117.125; -887.000; -691.000
247.951;  -34.500;  -75.000;  138.000
248.094;   18.525;  432.000;  308.000
248.236; -173.375;-1262.000;-1238.000
248.378;  -11.650; -356.000;  -81.000
248.521;  -26.050; -334.000; -337.000
248.663;  -29.675; -236.000; -267.000
248.806;  -28.800; -300.000; -266.000
248.948; -107.800; -886.000; -763.000
249.090;  -64.250; -428.000; -398.000
249.233;  -64.750; -344.000; -381.000
249.375;  -73.875; -474.000; -451.000
249.518;  -14.400;  -83.000; -133.000
249.660;   -0.750; -103.000;    3.000
249.802; -159.950;-1303.000;-1189.000
249.945;  -72.925; -612.000; -540.000
250.087; -105.650; -834.000; -768.000
250.229;  -53.900; -362.000; -480.000
250.371;  -71.725; -494.000; -439.000
250.514;  -40.150; -310.000; -244.000
250.656;   -9.000;   69.000;  102.000
250.798; -124.825; -849.000; -800.000
250.940;  -54.975; -322.000; -322.000
251.083;  -31.450; -335.000; -111.000
251.225;   66.300;  338.000;  310.000
251.367;  -46.450; -274.000; -373.000
251.509;  -41.875; -265.000; -210.000
251.651;  -95.175; -731.000; -671.000
251.794;   41.475;  538.000;  632.000
251.936; -109.050; -821.000; -747.000
252.078;  -87.275; -540.000; -461.000
252.220;  -76.725; -645.000; -477.000
252.362;   59.425;  344.000;  462.000
252.504;  -83.675; -677.000; -584.000
252.646;  -96.725; -875.000; -722.000
252.788;   -8.600;   14.000; -128.000
252.931;  -45.400; -257.000; -253.000
253.073;  -54.125; -376.000; -317.000
253.215;   -9.375;  141.000;  122.000
253.357;  -24.300;   82.000; -153.000
253.499;  -54.375; -374.000; -234.000
253.641;  -95.550; -749.000; -594.000
253.783;  -92.125; -609.000; -527.000
253.925;  -82.750; -586.000; -591.000
254.067; -104.200; -744.000; -667.000
254.209;  -44.500; -391.000; -259.000
254.351; -135.650; -865.000; -883.000
254.493;  -81.275; -441.000; -417.000
254.635; -120.500; -936.000; -818.000
254.777;  -96.475; -752.000; -687.000
254.918;  -50.650; -512.000; -430.000
255.060;  -65.025; -551.000; -395.000
255.202;  -62.125; -473.000; -261.000
255.344;  -78.050; -658.000; -455.000
255.486;  -68.850; -471.000; -406.000
255.628; -110.600; -780.000; -781.000
255.770;  -72.975; -676.000; -536.000
255.912;  -72.875; -559.000; -468.000
256.053;  -78.750; -730.000; -508.000
256.195;  145.800; 1008.000;  903.000
256.337;  -88.900; -861.000; -595.000
256.479;   56.200;  532.000;  416.000
256.621;  -44.575; -394.000; -212.000
256.762; -100.725; -789.000; -742.000
256.904;   41.350;  485.000;  487.000
257.046;  -47.875; -381.000; -271.000
257.188;  -39.125; -351.000; -264.000
257.329;  -70.975; -525.000; -464.000
257.471; -103.325; -939.000; -807.000
257.613;  -54.875; -584.000; -498.000
257.755; -145.125;-1073.000; -982.000
257.896;   23.925;  286.000;  392.000
258.038;  -73.200; -403.000; -352.000
258.180;  -45.125; -354.000; -279.000
258.321;  -70.325; -581.000; -457.000
258.463;  -19.950;  -71.000;  133.000
258.605;  -85.250; -562.000; -570.000
258.746; -109.475; -886.000; -772.000
258.888; -140.150;-1026.000;-1020.000
259.029;   18.375;  121.000;   -8.000
259.171;  -80.825; -614.000; -550.000
259.313;    3.175;  -49.000;  -47.000
259.454;  -64.200; -536.000; -414.000
259.596;  -58.750; -483.000; -390.000
259.737;  -68.750; -590.000; -474.000
259.879;   27.775;  217.000;  311.000
260.020;   94.525;  901.000;  636.000
260.162;  -24.050; -146.000; -253.000
260.303; -109.975; -768.000; -687.000
260.445;  -87.075; -609.000; -613.000
260.586;   17.625;  392.000;  157.000
260.728;  -45.450; -360.000; -248.000
260.869;  -67.625; -350.000; -343.000
261.011;   62.250;  706.000;  537.000
261.152;  -61.000; -479.000; -319.000
261.293;  -89.750; -576.000; -595.000
261.435;  -28.725; -219.000; -184.000
261.576;  -67.850; -455.000; -325.000
261.718;   49.750;  420.000;  470.000
261.859; -128.300; -940.000; -949.000
262.000; -124.475; -951.000;-1016.000
262.142;  -36.975;  -52.000;  -60.000
262.283; -117.075; -808.000; -691.000
262.424;  -97.225; -666.000; -625.000
262.566; -149.300;-1161.000; -983.000
262.707; -113.125; -840.000; -830.000
262.848; -109.600; -769.000; -726.000
262.990;  -52.375; -362.000; -345.000
263.131;   67.300;  650.000;  681.000
263.272;   -7.150;  -61.000;  -41.000
263.413;  -84.275; -589.000; -561.000
263.555;  -70.650; -669.000; -143.000
263.696;  -80.600; -550.000; -641.000
263.837;  -62.225; -449.000; -551.000
263.978;   -1.125;   -5.000;  -77.000
264.119;  -54.725; -283.000; -264.000
264.261; -103.825; -847.000; -630.000
264.402;  -18.875;   33.000;   40.000
264.543;  -78.450; -509.000; -524.000
264.684;  -12.750;   61.000;  -50.000
264.825;  -70.625; -816.000; -538.000
264.966;   -9.775;  -84.000;  -67.000
265.107; -101.850; -646.000; -670.000
265.248; -119.425; -825.000; -812.000
265.390;  -15.000;  152.000;   -9.000
265.531;  -21.950; -238.000; -107.000
265.672;  -81.550; -557.000; -630.000
265.813;   59.850;  563.000;  439.000
265.954; -138.900; -959.000; -940.000
266.095;  -35.025; -372.000; -322.000
266.236; -111.150; -686.000; -548.000
266.377;  -49.050; -243.000; -297.000
266.518;  -60.525; -619.000; -547.000
266.659;   22.150;  170.000;  268.000
266.800;    3.025;   83.000;   85.000
266.941;  -70.850; -487.000; -478.000
267.082;    7.050;  354.000;   99.000
267.223;  -59.125; -344.000; -273.000
267.364; -107.025; -892.000; -686.000
267.504;  -27.250;    3.000;  135.000
267.645;    1.600;  160.000;   67.000
267.786;  -27.125; -147.000;  -86.000
267.927;  -58.825; -473.000; -379.000
268.068;   -6.225; -186.000;  -61.000
268.209;  -41.125; -175.000; -413.000
268.350;  -71.800; -388.000; -532.000
268.490;  -95.350; -648.000; -521.000
268.631;   20.500;  127.000;  225.000
268.772; -105.950; -874.000; -647.000
268.913;  -56.700; -328.000; -476.000
269.054;  -18.425; -117.000;   12.000
269.194;  -45.675; -418.000; -402.000
269.335; -155.075;-1137.000;-1074.000
269.476;  -10.200;   33.000;  -35.000
269.617;  -42.675; -347.000; -392.000
269.757;  -90.650; -713.000; -646.000
269.898; -100.900; -856.000; -613.000
270.039;  -55.125; -415.000; -405.000
270.180; -127.175; -952.000; -816.000
270.320;  -39.850; -190.000; -250.000
270.461;  -33.900; -277.000; -249.000
270.602;  -31.850; -186.000; -156.000
270.742; -130.400; -868.000; -943.000
270.883;  -54.900; -442.000; -390.000
271.023;  -71.300; -358.000; -357.000
271.164;  -79.875; -607.000; -528.000
271.305; -103.975; -666.000; -654.000
271.445;  -92.125; -722.000; -683.000
271.586;  -66.300; -462.000; -283.000
271.726;  -52.575; -397.000; -322.000
271.867;  -56.025; -594.000; -534.000
272.008;   76.850; -473.000; -285.000
272.148;   99.400;  462.000;  468.000
272.289;    0.175; -113.000; -181.000
272.429;    3.600;   19.000;  185.000
272.570;  -82.425; -633.000; -737.000
272.710; -100.375; -825.000; -775.000
272.851;  -32.475;  113.000; -130.000
272.991; -159.325;-1173.000;-1077.000
273.131;  -67.200; -419.000; -459.000
273.272;  -85.300; -683.000; -723.000
273.412;   -5.800; -143.000;  -31.000
273.553;  -66.450; -488.000; -507.000
273.693;  112.125;  913.000;  858.000
273.834; -109.075; -894.000; -692.000
273.974;  -96.050; -664.000; -615.000
274.114; -104.475; -772.000; -560.000
274.255;   55.575;  414.000;  373.000
274.395;  -25.950; -180.000; -125.000
274.535;   38.075;  199.000;  350.000
274.676;   23.200;  225.000;   94.000
274.816;   -8.650;  110.000;   34.000
274.956;  -82.725; -624.000; -690.000
275.097;  -96.050;-1014.000; -922.000
275.237; -113.650; -913.000; -803.000
275.377;  -95.400; -778.000; -689.000
275.517; -143.625; -878.000; -937.000
275.658;  -65.775; -590.000; -555.000
275.798;  -78.425; -606.000; -413.000
275.938;   15.425;  215.000;  323.000
276.078;  -74.775; -626.000; -395.000
276.218;   -3.575;   99.000;  104.000
276.359; -126.600;-1026.000;-1024.000
276.499;  -74.525; -605.000; -446.000
276.639;  -20.025; -305.000; -151.000
276.779;  -64.125; -475.000; -357.000
276.919; -113.950; -783.000; -624.000
277.059;  -22.100; -261.000; -212.000
277.199;  -46.575; -357.000; -259.000
277.340;   35.200;  287.000;  175.000
277.480;  -89.225; -840.000; -693.000
277.620;   12.050;  192.000;   16.000
277.760; -189.250;-1533.000;-1294.000
277.900;    3.600;  113.000;   33.000
278.040;    9.225;  137.000;  159.000
278.180;   16.900;  270.000;  170.000
278.320;    1.725;   21.000;   56.000
278.460;  -59.475; -443.000; -469.000
278.600;  -83.850; -708.000; -598.000
278.740;   42.075;  448.000;  224.000
278.880; -105.650; -768.000; -791.000
279.020;  -16.100; -194.000; -144.000
279.160;  -90.775; -672.000; -595.000
279.300; -110.050; -926.000; -873.000
279.440;  -95.150; -709.000; -622.000
279.579;  -72.500;-1014.000; -929.000
279.719;  -53.475; -410.000; -394.000
279.859;   39.725;   -4.000;   41.000
279.999;    7.650; -208.000;  101.000
280.139;  -45.325; -435.000; -387.000
280.279;  -88.725; -708.000; -745.000
280.419;  -24.550; -229.000; -147.000
280.559;  -43.150; -259.000; -180.000
280.698;  -92.225; -790.000; -639.000
280.838;  -97.025; -778.000; -800.000
280.978;  -90.875; -846.000; -790.000
281.118; -101.450; -811.000; -704.000
281.257;    8.650;   24.000;    6.000
281.397; -120.450;-1094.000; -960.000
281.537;  -84.950; -599.000; -712.000
281.677;  -17.375; -150.000; -101.000
281.816;  -83.100; -700.000; -630.000
281.956;  -20.450; -193.000; -257.000
282.096;  -53.450; -539.000; -396.000
282.235;  -89.625; -672.000; -638.000
282.375;  -15.900; -243.000;  -98.000
282.515;  -90.075; -715.000; -707.000
282.654;    8.975;   29.000;  106.000
282.794;   22.950;  388.000;  244.000
282.934;  -59.375; -530.000; -491.000
283.073; -111.725;-1030.000; -857.000
283.213;  -38.950; -460.000; -467.000
283.353;  -62.325; -408.000; -349.000
283.492;  -33.400; -264.000; -296.000
283.632;  -43.500; -254.000; -168.000
283.771;  -92.200; -859.000; -730.000
283.911;  -42.500; -369.000; -260.000
284.050; -103.875; -794.000; -748.000
284.190; -149.050;-1229.000;-1096.000
284.329; -148.225;-1055.000; -964.000
284.469;  -83.450; -516.000; -591.000
284.608;  -50.750; -559.000; -598.000
284.748;  -86.100; -614.000; -570.000
284.887;    5.000;  -87.000;  -20.000
285.027; -108.225; -844.000; -892.000
285.166;  -32.675; -192.000; -249.000
285.306;    7.700; -116.000;  -33.000
285.445;  -30.200; -229.000; -343.000
285.584;  -86.150; -630.000; -494.000
285.724;  -52.450; -282.000; -322.000
285.863;  -99.675; -857.000; -507.000
286.002;  -55.600; -366.000; -276.000
286.142;  -84.975; -715.000; -622.000
286.281;  -60.650; -525.000; -493.000
286.420;  -61.725; -554.000; -417.000
286.560;   97.575;  653.000;  623.000
286.699; -121.225; -958.000; -912.000
286.838;  -77.525; -590.000; -591.000
286.978;  -81.875; -533.000; -537.000
287.117; -132.175;-1085.000; -950.000
287.256;  -21.225; -228.000; -211.000
287.395;  -52.475; -197.000; -378.000
287.535;  -45.250; -370.000; -298.000
287.674;  -82.250; -509.000; -484.000
287.813;   42.450;  661.000;  533.000
287.952; -133.050;-1010.000; -871.000
288.091; -123.100;-1049.000; -915.000
288.231;   12.975;   13.000;   15.000
288.370; -164.125;-1217.000;-1200.000
288.509;  -85.175; -728.000; -645.000
288.648;  -81.950; -770.000; -548.000
288.787;  -44.150; -243.000;  -87.000
288.926;  -61.450; -454.000; -475.000
289.065;   96.150;  859.000;  672.000
289.204;  -45.750; -377.000; -217.000
289.344;  -81.275; -791.000; -690.000
289.483;   25.000;  416.000;  304.000
289.622;  -36.700; -291.000; -149.000
289.761;  -17.800; -309.000; -166.000
289.900; -100.200; -785.000; -626.000
290.039;   -6.825;  -12.000;  -95.000
290.178;  -39.450; -274.000; -180.000
290.317;  -74.275; -618.000; -479.000
290.456;  -70.000; -463.000; -451.000
290.595; -120.300; -961.000; -833.000
290.734; -131.175; -904.000; -891.000
290.873;  -67.250; -456.000; -420.000
291.011; -108.900; -833.000; -843.000
291.150; -100.675; -770.000; -682.000
291.289;  -28.325; -343.000; -110.000
291.428;  -81.300; -599.000; -480.000
291.567;  -61.825; -370.000; -442.000
291.706;   -6.000;  109.000;  154.000
291.845;  -83.225; -597.000; -505.000
291.984; -148.000;-1234.000;-1061.000
292.122;   67.700;  602.000;  582.000
292.261;   50.025;  620.000;  463.000
292.400;    8.975; -144.000;  211.000
292.539; -124.575; -959.000; -813.000
292.678;  -44.650; -325.000; -300.000
292.816; -143.900;-1136.000; -965.000
292.955; -100.400; -844.000; -684.000
293.094;  -15.550; -173.000; -337.000
293.233;  -68.450; -556.000; -400.000
293.371;  -30.150; -225.000;  -84.000
293.510; -101.425; -866.000; -780.000
293.649; -118.675; -959.000; -924.000
293.787; -108.000;-1083.000;-1012.000
293.926;    0.375; -113.000;  -32.000
294.065;  -37.950; -379.000; -290.000
294.203;   39.625;  298.000;  406.000
294.342;   34.225;   74.000;  156.000
294.481; 6518.825;51180.000; -836.000
294.619;  -24.550; -425.000; -582.000
294.758; -139.650;-1230.000;-1137.000
294.896;   22.125; -125.000;    5.000
295.035; -127.450;-1040.000;-1006.000
295.174; -121.400;-1082.000; -954.000
295.312;  -23.475; -323.000; -203.000
295.451;  -26.125; -307.000; -428.000
295.589;  -54.950; -389.000; -518.000
295.728;   -4.975; -292.000; -165.000
295.866;    3.950;  -36.000;  -51.000
296.005;  -68.075; -584.000; -341.000
296.143;  -66.475; -558.000; -596.000
296.282;  -98.950; -957.000; -881.000
296.420;  -84.025; -657.000; -557.000
296.559;  -92.475; -892.000; -633.000
296.697;  -37.150; -847.000; -665.000
296.835;  -48.250;-1141.000;-1002.000
296.974;   32.825;  -23.000;   39.000
297.112;  -13.875; -443.000; -504.000
297.251;  -77.650; -815.000; -755.000
297.389;    4.950; -576.000; -438.000
297.527;    8.450; -145.000;  -83.000
297.666;  -42.375; -486.000; -438.000
297.804;  -43.750; -404.000; -264.000
297.942;  -11.550; -136.000; -161.000
298.081;   -0.425; -183.000;   63.000
298.219;   30.150;  -17.000;  -19.000
298.357;   11.375; -144.000;  -71.000
298.495;  -43.675; -810.000; -812.000
298.634;   40.875;  245.000;  219.000
298.772;    1.400; -220.000; -338.000
298.910;  -48.350; -309.000; -182.000
299.048;  -31.325; -130.000; -153.000
299.187;  -30.775; -350.000; -250.000
299.325;   15.650;   52.000;  122.000
299.463;   -9.175; -389.000; -299.000
299.601;   32.600; -327.000; -271.000
299.739; -119.925; -908.000; -883.000
299.877;  -81.525; -791.000; -703.000
300.016;  -79.425;-1095.000; -935.000
300.154;   67.325;  -19.000; -161.000
300.292;  -27.425; -428.000; -348.000
300.430;   -5.425; -408.000; -291.000
300.568; -119.450; -940.000; -874.000
300.706;  -66.975; -366.000; -469.000
300.844; -102.675;-1108.000; -979.000
300.982;   84.000;  246.000;  282.000
301.120; -108.375; -965.000; -866.000
301.258;  -74.150; -812.000; -705.000
301.396;   18.350;  104.000;  -41.000
301.534;   -5.950; -218.000; -293.000
301.672;  -61.050; -664.000; -521.000
301.810;  -33.675; -613.000; -545.000
301.948;   67.600;   53.000;  149.000
302.086;  332.400; -250.000;  -32.000
302.224;  401.550; -610.000; -585.000
302.362;  -37.450; -558.000; -622.000
302.500;  -80.625; -923.000; -893.000
302.638;   44.025;  128.000;  245.000
302.776;  -29.200; -352.000; -408.000
302.913;   33.000;  447.000;  236.000
303.051;  -19.900;  -86.000;  -23.000
303.189;   26.000;   90.000;  118.000
303.327;  -31.975; -341.000; -256.000
303.465;  -83.200; -832.000; -588.000
303.603;  -86.500; -805.000; -604.000
303.740;   56.550;  417.000;  241.000
303.878;  -39.525; -800.000; -759.000
304.016;  -97.250; -915.000; -790.000
304.154; -126.125;-1123.000;-1152.000
304.291;  -42.975; -505.000; -554.000
304.429;    1.775;  102.000;   74.000
304.567; -128.525; -908.000; -893.000
304.705;  -45.425; -408.000; -515.000
304.842;    7.325; -616.000; -540.000
304.980;   41.975;  215.000;   35.000
305.118;   -1.050; -367.000; -365.000
305.255;  -95.000; -945.000; -927.000
305.393;   53.400;  178.000;  239.000
305.531; -121.500;-1173.000; -956.000
305.668;  -68.425; -663.000; -582.000
305.806;   26.725; -358.000; -439.000
305.943;   10.775; -629.000; -637.000
306.081;    4.900; -378.000; -267.000
306.219;  -99.650; -863.000; -748.000
306.356;   12.900;  158.000;   27.000
306.494;  112.000;  981.000;  761.000
306.631;   13.325;  -11.000;  -55.000
306.769;  -11.225; -613.000; -485.000
306.906;    2.400; -284.000; -258.000
307.044;  -42.350; -473.000; -488.000
307.181;  -48.550; -410.000; -332.000
307.319;   11.300;  112.000;   87.000
307.456; -151.300;-1191.000;-1153.000
307.594;  -95.450; -980.000; -727.000
307.731;  -36.275; -371.000; -164.000
307.868;   -3.550;  -15.000;   20.000
308.006; -122.625; -961.000; -847.000
308.143;  -52.175; -618.000; -330.000
308.281;  104.550;  -37.000; -254.000
308.418;  -57.025; -748.000; -640.000
308.555;  -52.725; -400.000; -250.000
308.693;  -63.725; -577.000; -573.000
308.830;  -93.900; -712.000; -657.000
308.967;   -3.425; -215.000;  -95.000
309.105;  -28.550; -507.000; -396.000
309.242;   14.825; -468.000; -367.000
309.379;  149.350; -577.000; -655.000
309.517;  -73.050; -936.000; -948.000
309.654;  -88.300; -910.000; -734.000
309.791;  -64.875; -662.000; -580.000
309.928;  -97.675; -977.000; -914.000
310.065;  143.825;  819.000;  697.000
310.203;  -45.750; -825.000; -850.000
310.340;  -20.550; -465.000; -321.000
310.477;  -65.875; -412.000; -516.000
310.614;  -58.500; -383.000; -473.000
310.751;  -54.400; -427.000; -518.000
310.889;   -9.700;    1.000;   11.000
311.026; -117.950;-1161.000; -939.000
311.163;  -42.650; -386.000; -380.000
311.300;  -58.325; -512.000; -479.000
311.437;  -53.150; -658.000; -619.000
311.574; -122.375;-1226.000; -985.000
311.711;  -47.625; -595.000; -433.000
311.848;  -12.250; -380.000; -388.000
311.985;   22.600;  270.000;   93.000
312.122; -104.700; -932.000; -762.000
312.259;  -96.325; -941.000; -994.000
312.396;  -61.350; -508.000; -551.000
312.533;  -78.500; -812.000; -790.000
312.670; -111.000;-1070.000; -898.000
312.807;  -27.075; -352.000; -367.000
312.944;  -49.800; -513.000; -611.000
313.081;  -11.775; -150.000; -415.000
313.218;  -83.100;-1111.000; -867.000
313.355;   13.075; -531.000; -449.000
313.492;   20.025; -455.000; -292.000
313.629;  141.800;  815.000;  735.000
313.766; -127.525;-1176.000;-1008.000
313.902;    8.325; -186.000;   21.000
314.039;  -38.225; -372.000; -289.000
314.176;   41.750;  286.000;  192.000
314.313;  -59.700; -569.000; -473.000
314.450;  -61.750; -788.000; -684.000
314.587;  -44.850; -468.000; -480.000
314.723;   23.250;  -78.000;  130.000
314.860;   68.675;  318.000;  332.000
314.997;   41.675;  223.000;  142.000
315.134;    1.500; -385.000; -368.000
315.270;   -8.775; -480.000; -496.000
315.407;  -61.375;-1094.000; -967.000
315.544;   -7.600; -657.000; -538.000
315.681;  -41.250; -681.000; -565.000
315.817;   65.625; -133.000; -176.000
315.954;   91.175; -613.000; -392.000
316.091;  -95.575;-1045.000;-1023.000
316.227;  -15.250;  -71.000; -179.000
316.364;    0.725;   23.000;    6.000
316.500;  -28.125; -113.000; -300.000
316.637;  -35.800; -181.000; -302.000
316.774;  -79.475; -625.000; -358.000
316.910;  -91.450; -598.000; -629.000
317.047;  -58.700; -487.000; -351.000
317.183;  -50.725; -435.000; -566.000
317.320;   10.550; -367.000; -321.000
317.456;  -57.075; -733.000; -805.000
317.593;  -77.325; -598.000; -641.000
317.729;    1.600;  168.000;  -67.000
317.866; -180.500;-1434.000;-1285.000
318.002;  -76.225; -708.000; -948.000
318.139; -104.875; -883.000; -867.000
318.275; -116.450;-1003.000; -738.000
318.412;  -46.275; -517.000; -336.000
318.548;  -69.400; -751.000; -720.000
318.685;  -93.750; -985.000; -888.000
318.821;  -92.650; -762.000; -735.000
318.957;  -15.400;   34.000;  -23.000
319.094;   29.825;  297.000;  154.000
319.230;  -74.800; -756.000; -742.000
319.367;   41.150; -471.000; -520.000
319.503;    0.375; -538.000; -436.000
319.639;  -88.650; -877.000; -793.000
319.775;  -86.425; -750.000; -685.000
319.912;  -57.225; -424.000; -519.000
320.048;  -89.375;-1184.000;-1184.000
320.184;   85.050;   59.000;   70.000
320.321;  -50.575; -497.000; -467.000
320.457;   58.725;  475.000;  662.000
320.593;  -54.525; -375.000; -382.000
320.729;  -98.650; -732.000; -734.000
320.866;  -61.300; -577.000; -635.000
321.002;  -91.950; -759.000; -809.000
321.138;  -27.550; -135.000; -211.000
321.274;   30.800; -148.000; -115.000
321.410;  -38.925; -585.000; -353.000
321.546;  -70.675;-1011.000; -911.000
321.683;   41.975;  400.000;  185.000
321.819;   -5.525;  -48.000; -117.000
321.955; -104.075; -743.000; -722.000
322.091;  -66.925; -585.000; -540.000
322.227;  -32.425; -382.000; -202.000
322.363;  -40.800; -320.000; -215.000
322.499;  -39.275; -343.000; -331.000
322.635;  114.500;  636.000;  443.000
322.771;   -8.200; -139.000;   12.000
322.907;   51.000;  129.000;  327.000
323.043;  -15.200; -115.000; -206.000
323.179;  -45.375; -394.000; -363.000
323.315;  -23.375; -401.000; -371.000
323.451;   42.700; -328.000; -236.000
323.587;   57.600;  -60.000;  -77.000
323.723;  -36.225; -682.000; -601.000
323.859;  -16.050; -258.000;  -76.000
323.995;  -34.025; -467.000; -409.000
324.131; -123.075; -967.000; -892.000
324.267;  -43.800; -254.000; -276.000
324.402; -122.850; -960.000; -983.000
324.538;  -33.825; -279.000; -104.000
324.674;   17.400;  164.000;   77.000
324.810;   72.900;  226.000;  308.000
324.946;  -22.525; -810.000; -658.000
325.082;  -60.750; -568.000; -475.000
325.217;   -1.475;  -62.000;   16.000
325.353;  -95.125; -764.000; -659.000
325.489;  -96.325; -540.000; -506.000
325.625;  -87.325; -579.000; -525.000
325.760;   73.625;  517.000;  376.000
325.896;   -9.225; -515.000; -702.000
326.032;  -40.675; -403.000; -352.000
326.168;  -58.075; -462.000; -369.000
326.303;  -65.650; -352.000; -461.000
326.439;   -9.150; -336.000; -276.000
326.575;   -0.800; -190.000;  -29.000
326.710;  -20.300; -156.000;  -30.000
326.846;  -14.875;  146.000;  103.000
326.982;  -90.225; -530.000; -548.000
327.117;  -66.425; -481.000; -442.000
327.253;  -85.550; -745.000; -742.000
327.388; -123.750;-1137.000;-1153.000
327.524;  -85.900; -811.000; -578.000
327.659;  -20.975;  -58.000;  -22.000
327.795;  -21.850;   69.000;   45.000
327.931;  -72.925; -723.000; -499.000
328.066;  -20.900; -417.000; -276.000
328.202;  -34.050;   12.000; -129.000
328.337;   87.600;  957.000;  713.000
328.473;   53.550;  -12.000;  -74.000
328.608;  -25.650; -256.000; -267.000
328.743;  -88.175; -799.000; -664.000
328.879;   -0.050;  214.000;  114.000
329.014;  -36.225; -102.000; -122.000
329.150;  -78.750; -358.000; -483.000
329.285;  -75.850; -465.000; -466.000
329.421;  -45.925; -548.000; -246.000
329.556;  -17.450;  -36.000;   85.000
329.691;  -93.050; -633.000; -615.000
329.827;  -66.450; -626.000; -480.000
329.962;  -54.025;  131.000; -301.000
330.097;  -77.300; -673.000; -585.000
330.233;  -49.175; -410.000; -223.000
330.368; -123.800; -839.000; -628.000
330.503;  -20.025;    3.000;   98.000
330.638;  -11.000;  -93.000; -125.000
330.774;  -83.400; -609.000; -530.000
330.909;  -41.550; -434.000; -244.000
331.044;  -89.575; -714.000; -708.000
331.179; -157.975;-1217.000;-1109.000
331.315;   -2.375;   77.000;   20.000
331.450;   28.125;  157.000;  285.000
331.585;  -91.450; -805.000; -706.000
331.720;  -73.950; -510.000; -460.000
331.855;    7.650;  -35.000; -102.000
331.990;  344.650;   62.000;  138.000
332.126;  174.625; -110.000;   71.000
332.261;   10.125; -379.000; -265.000
332.396;   21.900; -135.000; -242.000
332.531;  -68.325;-1074.000;-1031.000
332.666;   68.700; -519.000; -363.000
332.801;  -84.300; -726.000; -807.000
332.936;  -23.025; -192.000; -122.000
333.071; -104.525; -870.000; -817.000
333.206;   20.375;  307.000;  379.000
333.341;   47.050;  344.000;  418.000
333.476;  -57.625; -627.000; -623.000
333.611;  -32.650; -251.000; -173.000
333.746;  -38.100; -381.000; -464.000
333.881; -109.900; -973.000; -935.000
334.016; -110.075; -936.000; -917.000
334.151;  -99.600; -746.000; -702.000
334.286;   33.475;  152.000;  186.000
334.421;   14.575; -125.000; -178.000
334.556;  -40.725; -611.000; -567.000
334.690;  -51.350; -631.000; -577.000
334.825;   86.475;  381.000;   83.000
334.960;  -14.775; -285.000; -413.000
335.095;   36.325;  135.000;  -91.000
335.230;  -50.300; -722.000; -738.000
335.365;  -93.800;-1084.000; -990.000
335.499;  -79.925;-1108.000;-1037.000
335.634;   62.325;    9.000;  534.000
335.769;  -60.725; -755.000; -720.000
335.904;   -5.000; -603.000; -561.000
336.038;    7.350; -735.000; -657.000
336.173;  -54.525;-1206.000;-1194.000
336.308;   75.650; -116.000; -189.000
336.443;   98.750; -544.000; -634.000
336.577;   19.950; -936.000; -787.000
336.712;  152.900;   -4.000;  -12.000
336.847;   59.350; -724.000; -607.000
336.981;  151.975; -272.000; -208.000
337.116;  466.125;  615.000;  501.000
337.250;  234.025; -434.000; -421.000
337.385;  350.025; -297.000; -208.000
337.520;  133.975; -632.000; -603.000
337.654;  -25.850; -215.000; -126.000
337.789; -124.750; -989.000; -933.000
337.923;  -30.875; -104.000; -205.000
338.058;  -85.075; -673.000; -738.000
338.192;  -45.150; -611.000; -488.000
338.327;   -7.725;  -18.000; -155.000
338.461;  -57.275; -299.000; -469.000
338.596;  -88.475; -780.000; -638.000
338.730;  -79.850; -767.000; -803.000
338.865;  127.375;  -46.000; -140.000
338.999;  -14.550; -846.000; -702.000
339.134;  -18.750; -634.000; -536.000
339.268;   25.525; -741.000; -603.000
339.403;  451.150; -740.000; -775.000
339.537;  205.250; -894.000; -820.000
339.671; -106.250; -829.000; -813.000
339.806;  -32.525; -556.000; -512.000
339.940;   14.675; -261.000; -235.000
340.074; -100.150; -685.000; -510.000
340.209;  -45.925; -351.000; -230.000
340.343;  -93.225; -517.000; -573.000
340.477;  129.950;  998.000; 1036.000
340.612;  -45.700;-1033.000; -900.000
340.746;  152.975; -199.000; -243.000
340.880; -102.075; -924.000; -785.000
341.014;  -37.475;  -45.000; -154.000
341.149; -112.575; -756.000; -718.000
341.283; -105.150; -839.000; -754.000
341.417; -114.725;-1124.000; -938.000
341.551;   -3.375; -768.000; -708.000
341.685;  -46.150; -633.000; -611.000
341.820;  -66.900; -562.000; -493.000
341.954;  -39.650; -218.000; -349.000
342.088; -157.850;-1102.000;-1019.000
342.222;   56.275;  565.000;  618.000
342.356;  -73.700; -395.000; -335.000
342.490; -107.725; -880.000; -841.000
342.624;  -55.675; -339.000; -242.000
342.758;  -21.700; -364.000; -312.000
342.892;  -94.325; -710.000; -585.000
343.026;  -42.275;  -58.000; -116.000
343.160;  -58.700; -426.000; -376.000
343.294;  -74.125; -474.000; -337.000
343.428;  -62.100; -488.000; -448.000
343.562;  -25.450; -172.000;  -23.000
343.696;  -44.900; -385.000; -314.000
343.830;  -34.300; -362.000; -356.000
343.964;  -14.575; -231.000; -168.000
344.098;  505.175;  199.000;   70.000
344.232;  407.375; -266.000; -127.000
344.366;   59.325; -567.000; -453.000
344.500;  -22.000; -665.000; -744.000
344.634;   -6.825; -324.000; -164.000
344.768;  -46.625; -531.000; -341.000
344.902;   17.150;  278.000;  256.000
345.035;  -65.400; -556.000; -496.000
345.169; -130.550; -933.000; -656.000
345.303;  -55.950; -308.000; -482.000
345.437;  -82.050; -826.000; -717.000
345.571;  -57.300; -675.000; -594.000
345.704;  -70.125; -309.000; -532.000
345.838;  -18.100; -331.000; -284.000
345.972;  -46.525; -543.000; -495.000
346.106;  212.400; -179.000; -190.000
346.239;  415.375; -312.000; -243.000
346.373;   -5.225; -343.000; -302.000
346.507; -128.475; -950.000; -962.000
346.640;   55.925;  -30.000;   13.000
346.774;  -67.875; -650.000; -797.000
346.908;  -27.975; -138.000;  -11.000
347.041;  -94.950; -646.000; -593.000
347.175;    4.425;  259.000;   27.000
347.309;  -84.575; -698.000; -628.000
347.442;  -94.025; -883.000; -732.000
347.576;  182.725;  670.000;  668.000
347.709;   83.650; -123.000;  -52.000
347.843; -105.625; -933.000; -825.000
347.976;   14.075;  235.000;  294.000
348.110; -175.200;-1268.000;-1186.000
348.243; -105.900; -679.000; -772.000
348.377;   15.975;  -26.000;   60.000
348.510;   41.100;  403.000;  540.000
348.644;  -27.500;  -37.000; -159.000
348.777;  -13.200;  180.000;  191.000
348.911;  -45.900; -142.000; -112.000
349.044;  113.925;  471.000;  448.000
349.178;   37.050;-1069.000;-1006.000
349.311;  101.050;  141.000;  255.000
349.444;    6.600; -927.000; -813.000
349.578;  -30.600; -347.000; -200.000
349.711; -115.875; -959.000; -862.000
349.845;  -47.000; -661.000; -591.000
349.978; -140.500;-1224.000;-1137.000
350.111;  -90.400; -546.000; -612.000
350.244;  -87.175; -596.000; -700.000
350.378;  -49.675; -392.000; -393.000
350.511;  -70.075; -393.000; -426.000
350.644; -104.675; -808.000; -806.000
350.778;   20.725;  168.000;  104.000
350.911;    2.750;  134.000;  140.000
351.044;  -79.375; -685.000; -615.000
351.177;  -31.975; -321.000; -281.000
351.310;  -16.025;    3.000; -131.000
351.444;  -97.950; -888.000; -788.000
351.577;   62.725;  140.000;   90.000
351.710;   77.725;  593.000;  417.000
351.843;  -24.025; -165.000;  -77.000
351.976;    1.425;  149.000;  -79.000
352.109; -100.675; -621.000; -612.000
352.242;  -46.750; -464.000; -419.000
352.376;  -56.650; -580.000; -636.000
352.509;   57.750; -437.000; -356.000
352.642;  -59.950; -654.000; -604.000
352.775;   21.050; -141.000;  -98.000
352.908; -101.525; -933.000; -904.000
353.041;  -98.325; -814.000; -824.000
353.174;  -45.300; -551.000; -424.000
353.307;  -70.725; -753.000; -764.000
353.440;   66.750;  541.000;  453.000
353.573;  -65.350; -957.000;-1008.000
353.706;  -12.925; -384.000; -558.000
353.839;  -11.275; -264.000; -220.000
353.971;  -73.075; -657.000; -512.000
354.104;  -91.500; -896.000; -835.000
354.237;  -55.000; -627.000; -662.000
354.370;  -80.775; -846.000; -879.000
354.503; -147.875;-1231.000;-1308.000
354.636;   -3.750; -529.000; -348.000
354.769;  -98.350; -937.000; -860.000
354.902;   -7.200; -230.000; -139.000
355.034;    2.375; -164.000; -220.000
355.167;    7.025; -262.000; -162.000
355.300;  -49.200;-1061.000; -880.000
355.433; 1320.275;  -71.000;  -14.000
355.565; 2025.175; -402.000; -384.000
355.698;  537.900; -356.000; -296.000
355.831;   20.550; -882.000; -801.000
355.964;   56.575; -285.000; -170.000
356.096;  -34.025; -856.000; -843.000
356.229;   30.500; -523.000; -530.000
356.362;  481.250; -373.000; -266.000
356.494;  805.550; -229.000; -162.000
356.627;  382.325;  269.000;  377.000
356.760;  829.375;  120.000;   53.000
356.892; 1319.650; -286.000; -601.000
357.025;  452.625;  403.000;  389.000
357.157;  372.350; -167.000; -179.000
357.290;  929.150; -856.000; -713.000
357.423;  328.550; -667.000; -556.000
357.555;  172.450; -217.000; -228.000
357.688;  244.200; -483.000; -364.000
357.820;  304.175; -870.000; -877.000
357.953; 2271.450; -563.000; -589.000
358.085;  432.275; -632.000; -612.000
358.218;  399.525;-1131.000; -932.000
358.350;   93.700;  -58.000;  312.000
358.483; -146.625;-1300.000;-1187.000
358.615; -116.000;-1182.000;-1078.000
358.747; -117.100;-1187.000;-1058.000
358.880;  -29.500; -810.000; -744.000
359.012;  -22.600; -376.000; -202.000
359.145;  -44.900; -480.000; -511.000
359.277;    0.450; -962.000; -913.000
359.409; 1902.025;  536.000;  231.000
359.542;  461.800; -738.000; -688.000
359.674;   31.525;   46.000;   13.000
359.806;  -56.725; -565.000; -438.000
359.939;  -44.050; -617.000; -516.000
360.071;   15.600; -583.000; -579.000
360.203;  -25.350; -411.000; -364.000
360.335;   33.050;  164.000;  -16.000
360.468;  141.700; -249.000; -307.000
360.600; 1686.775; -547.000; -454.000
360.732; 3453.825; -546.000; -423.000
360.864;  524.575;-1216.000;-1044.000
360.996;  122.425; -516.000; -554.000
361.129;  -29.425; -389.000; -598.000
361.261;   -7.900;  110.000; -113.000
361.393;  -46.775; -252.000; -214.000
361.525;    1.575;   94.000;  244.000
361.657; -107.425; -821.000; -703.000
361.789;  -23.625; -139.000; -155.000
361.921;   30.125; -642.000; -593.000
362.053;  120.450;  524.000;  541.000
362.185;   20.375;  288.000;   72.000
362.318; -100.325; -709.000; -705.000
362.450;   74.975;  294.000;  444.000
362.582;  -28.825; -913.000; -870.000
362.714;  -36.175; -353.000; -332.000
362.846;  -90.100; -606.000; -490.000
362.978; -125.900; -941.000; -811.000
363.109;  -14.725; -161.000; -260.000
363.241;  225.475; -739.000; -749.000
363.373;  548.550; -649.000; -564.000
363.505;  875.200; -186.000;  -91.000
363.637;  193.675; -787.000; -601.000
363.769; -126.900;-1067.000;-1080.000
363.901;  -69.300; -596.000; -654.000
364.033; -139.675;-1103.000;-1062.000
364.165;  -25.275; -283.000; -283.000
364.296;   79.175; -316.000; -177.000
364.428;  136.500;-1344.000;-1220.000
364.560;  -64.050; -679.000; -661.000
364.692;  -79.150; -738.000; -835.000
364.824;   41.275; -588.000; -456.000
364.955;  407.125; -402.000; -564.000
365.087; 1232.575;-1097.000; -852.000
365.219;   47.650; -686.000; -816.000
365.351;  -58.550; -526.000; -572.000
365.482;   18.050;  300.000;  240.000
365.614;  -54.075; -402.000; -314.000
365.746; -104.175; -729.000; -752.000
365.877;  -75.900; -706.000; -672.000
366.009;  360.500;  -35.000;  -62.000
366.141;  -45.900;-1249.000;-1134.000
366.272; -123.850; -803.000; -719.000
366.404; -112.000;-1005.000; -874.000
366.535;   -3.200; -139.000;  -12.000
366.667; -106.575; -644.000; -649.000
366.799;   17.700;  353.000;  203.000
366.930; -117.075; -862.000; -996.000
367.062;  151.375; -639.000; -613.000
367.193;  258.800; -872.000; -842.000
367.325;  -64.225; -580.000; -684.000
367.456;   37.200; -246.000;   31.000
367.588;  218.025; -371.000; -318.000
367.719;   29.850;  -44.000;  -45.000
367.851;  -41.125; -222.000; -241.000
367.982;  -83.150; -875.000; -732.000
368.113;   31.975; -475.000; -358.000
368.245; -128.950; -960.000; -841.000
368.376;  -38.825; -254.000; -302.000
368.508;  -49.300; -188.000; -263.000
368.639; -158.975;-1166.000;-1034.000
368.770;  -63.375; -670.000; -589.000
368.902; -102.975; -836.000; -926.000
369.033; -120.850; -906.000; -855.000
369.164;  -38.200; -720.000; -653.000
369.296;  -98.725; -452.000; -601.000
369.427;  -15.950; -209.000; -144.000
369.558;  -63.650; -593.000; -377.000
369.689;  -83.300; -721.000; -569.000
369.821; -122.750; -951.000; -845.000
369.952;  -22.150;   42.000; -108.000
370.083;  -55.175; -229.000; -108.000
370.214;  -95.550; -735.000; -650.000
370.345;  -12.550;   65.000;   81.000
370.477;  -95.775; -810.000; -790.000
370.608;  112.200; -328.000; -264.000
370.739; -104.675;-1233.000;-1292.000
370.870;  -89.450;-1102.000; -923.000
371.001;   21.025; -378.000; -467.000
371.132;  -80.250; -754.000; -735.000
371.263;  -27.975;  -42.000; -148.000
371.394; -135.900; -841.000; -748.000
371.525;   32.025;  345.000;  225.000
371.657;  -99.275; -808.000; -670.000
371.788;   44.975;  103.000;  199.000
371.919;   68.250; -384.000; -304.000
372.050; 2001.475;  -91.000; -156.000
372.181;  637.525; -188.000; -294.000
372.311;  194.400;   42.000; -127.000
372.442;  -11.975; -457.000; -451.000
372.573;  -28.775; -444.000; -340.000
372.704; -128.125;-1008.000; -980.000
372.835;    3.750; -228.000; -289.000
372.966;  -70.100; -646.000; -554.000
373.097;  -82.850; -575.000; -711.000
373.228;  -77.525; -717.000; -542.000
373.359;   26.100; -824.000; -536.000
373.490;  387.525; -881.000; -727.000
373.620;  501.725;-1001.000; -803.000
373.751;  962.150; -332.000; -396.000
373.882;  433.975; -663.000; -733.000
374.013;   15.500; -449.000; -262.000
374.143;  -44.575; -581.000; -659.000
374.274;  -99.500; -987.000; -908.000
374.405;   83.825; -388.000; -276.000
374.536;  249.975; -526.000; -387.000
374.666;  603.125; -759.000; -807.000
374.797;   85.000; -817.000; -868.000
374.928;  401.650; -710.000; -560.000
375.058;  422.825; -535.000; -500.000
375.189;   38.950;  -59.000;  -93.000
375.320;  -94.175; -928.000;-1034.000
375.450;  -30.500; -625.000; -616.000
375.581;  -31.550; -526.000; -436.000
375.712;  -44.975; -574.000; -250.000
375.842;   90.100; -438.000; -415.000
375.973;   74.725; -554.000; -513.000
376.103;  -77.250; -665.000; -648.000
376.234;  -93.300; -531.000; -552.000
376.364;  -93.550; -944.000; -867.000
376.495;  198.900;  925.000;  529.000
376.625;  -34.525; -472.000; -485.000
376.756;  -22.200; -709.000; -678.000
376.886;  -98.800;-1178.000;-1026.000
377.017;  102.675;-1048.000;-1061.000
377.147;  530.800; -786.000; -782.000
377.278;   80.625;  174.000;  228.000
377.408; -100.125; -801.000; -815.000
377.538;  -89.125; -707.000; -693.000
377.669;  -71.450; -537.000; -613.000
377.799; -107.925; -645.000; -635.000
377.929;  -74.375; -610.000; -428.000
378.060; -119.300; -781.000; -847.000
378.190;  -23.900; -726.000; -531.000
378.320;  -35.325; -401.000; -406.000
378.451;   -1.075; -131.000;  -22.000
378.581;  -15.950;  -67.000; -110.000
378.711;  120.175; 1035.000;  866.000
378.841;  -47.625; -533.000; -675.000
378.972;  -89.100; -871.000; -751.000
379.102;  -33.550; -652.000; -579.000
379.232;  -19.100; -126.000;  -73.000
379.362; -101.750;-1001.000; -885.000
379.492;  -21.100; -373.000; -424.000
379.623;   69.200;    0.000;  111.000
379.753;  -93.975;-1107.000; -974.000
379.883;  133.000;   59.000;  156.000
380.013;  -33.825;-1081.000;-1017.000
380.143;  -98.675;-1097.000;-1056.000
380.273;  -78.625; -985.000; -861.000
380.403;   34.775; -344.000; -257.000
380.533;   16.150; -651.000; -664.000
380.663;   23.500;  173.000;  128.000
380.793; -138.075;-1027.000;-1074.000
380.923;  -35.300; -103.000;  -34.000
381.053; -101.000; -613.000; -623.000
381.183;  -43.650; -106.000; -248.000
381.313;  -43.400; -656.000; -470.000
381.443;  -31.450; -692.000; -473.000
381.573;   23.275; -402.000; -409.000
381.703;   -6.750;-1249.000;-1095.000
381.833; -170.025;-1454.000;-1336.000
381.963;   36.075; -134.000;  -87.000
382.093;  667.350; -925.000; -909.000
382.223;  180.250; -713.000; -602.000
382.353;  -62.975; -801.000; -608.000
382.482;  125.250;-1091.000; -964.000
382.612;  341.050; -872.000; -644.000
382.742;  179.650; -695.000; -622.000
382.872;   53.950; -565.000; -551.000
383.002;   16.250;  347.000; -132.000
383.131;  -37.100; -226.000; -160.000
383.261;  -36.000; -706.000; -768.000
383.391;  280.450; -552.000; -377.000
383.521; 4008.475;  451.000;  263.000
383.650; 1132.025; -947.000; -904.000
383.780;   16.500; -783.000; -656.000
383.910;   99.425;  880.000;  802.000
384.039;  -64.575; -794.000; -656.000
384.169;   -7.375;-1205.000;-1017.000
384.299;  -71.350; -650.000; -662.000
384.428; -108.300; -764.000; -680.000
384.558;  -51.700; -308.000; -275.000
384.687;  -52.850; -414.000; -334.000
384.817;   -3.350;   75.000;   -2.000
384.947;  -23.675; -234.000; -141.000
385.076;  189.975;  982.000;  912.000
385.206;   70.775;  369.000;  480.000
385.335;  -59.750; -549.000; -417.000
385.465;  -95.275; -655.000; -663.000
385.594;   45.575;  -53.000;  -44.000
385.724;  168.075; -868.000; -838.000
385.853;   31.500; -296.000; -270.000
385.982;  634.125; -743.000; -787.000
386.112; 1142.750;-1052.000; -871.000
386.241;   59.725; -307.000; -312.000
386.371;  -29.375; -174.000;  -87.000
386.500;  -57.950; -825.000; -789.000
386.629;   -4.550; -874.000; -817.000
386.759;   69.275;  -43.000;   68.000
386.888;  -22.950; -170.000; -250.000
387.017;  -78.400; -648.000; -620.000
387.147; -104.975; -771.000; -798.000
387.276;  -45.650; -410.000; -397.000
387.405;  -28.825; -398.000; -342.000
387.535;  -73.825; -452.000; -361.000
387.664;  -56.850; -692.000; -620.000
387.793;   12.700; -198.000; -113.000
387.922;  273.125;  255.000;  200.000
388.052;  -31.950; -576.000; -423.000
388.181;  -41.225; -342.000; -472.000
388.310;  -61.825; -889.000; -710.000
388.439;  -93.300; -749.000; -742.000
388.568;   74.350;  365.000;  244.000
388.697;  505.575; -756.000; -653.000
388.826;   72.275; -768.000; -666.000
388.956;   -0.475; -285.000; -307.000
389.085;  -36.550; -347.000; -287.000
389.214; -104.750; -842.000; -872.000
389.343;  -78.525; -645.000; -413.000
389.472;  466.375;  126.000;  149.000
389.601;  562.975;   91.000;    0.000
389.730;  -18.750; -568.000; -687.000
389.859;   40.725;  226.000;   46.000
389.988;   69.150; -423.000; -408.000
390.117;   69.275; -168.000; -146.000
390.246;  -53.425; -331.000; -320.000
390.375;  -40.575; -673.000; -626.000
390.504;  -71.200; -703.000; -621.000
390.633; -113.750; -672.000; -726.000
390.761;  -79.450; -732.000; -645.000
390.890;  -12.575;   -4.000; -130.000
391.019;  -61.225; -421.000; -441.000
391.148; -131.825; -826.000; -855.000
391.277;  -89.800; -576.000; -493.000
391.406;  -96.550; -821.000; -805.000
391.534;    0.400;  574.000; -301.000
391.663;  -89.450; -583.000; -645.000
391.792; -109.475; -673.000; -701.000
391.921;   16.300;   -3.000;   15.000
392.050;   45.575; -287.000; -228.000
392.178; -101.425;-1206.000;-1061.000
392.307;   18.775; -758.000; -712.000
392.436;    0.400; -427.000; -641.000
392.564;    4.425;  166.000;   -6.000
392.693;  -90.675; -860.000; -682.000
392.822;   67.375; -529.000; -534.000
392.950;    3.300; -880.000; -714.000
393.079;  137.850; -188.000; -328.000
393.208;  -17.850; -488.000; -511.000
393.336;  -18.875; -170.000; -145.000
393.465;  -36.350; -317.000; -199.000
393.593;   -0.925;   62.000;   79.000
393.722; -146.750;-1121.000; -916.000
393.850;  -17.325; -188.000;  -61.000
393.979; -130.700; -926.000; -805.000
394.107;  -65.175; -517.000; -537.000
394.236;  -40.300; -570.000; -507.000
394.364;  137.025;  383.000;  206.000
394.493;  178.275; -911.000; -767.000
394.621;    8.475; -955.000; -916.000
394.750; 1016.975; -873.000; -923.000
394.878; 3995.275; -247.000; -149.000
395.007; 5793.625; -721.000; -807.000
395.135;  499.325; -790.000; -721.000
395.263;  -64.000;-1038.000;-1040.000
395.392;    6.000;  -25.000; -107.000
395.520; -110.575; -818.000; -679.000
395.648; -117.075; -865.000; -915.000
395.777;  -54.550; -366.000; -405.000
395.905;  -82.075; -449.000; -564.000
396.033;    3.800;  217.000;  172.000
396.162;  287.325; -399.000; -453.000
396.290;  269.775;  -17.000;   -2.000
396.418;  -11.725; -555.000; -514.000
396.546;  -82.100; -571.000; -466.000
396.674; -119.725; -850.000; -878.000
396.803;  -11.250;  -72.000;  -23.000
396.931;  -10.925; -179.000; -199.000
397.059;  -84.800;-1026.000; -989.000
397.187; -137.275;-1026.000; -975.000
397.315; -144.825; -884.000; -649.000
397.443; -104.675; -592.000; -443.000
397.572;  -92.025; -578.000; -424.000
397.700;  -89.200; -607.000; -614.000
397.828;  -21.025;  120.000;  -90.000
397.956;  -40.650; -508.000; -478.000
398.084;  -35.000; -767.000; -626.000
398.212;    1.575;  137.000;  124.000
398.340;    2.975;  -56.000;  159.000
398.468;  -27.525; -390.000; -169.000
398.596; -145.275; -993.000; -953.000
398.724; -123.600; -762.000; -767.000
398.852; -162.500;-1024.000; -976.000
398.980;  -76.375; -560.000; -560.000
399.108;  -88.475; -982.000; -735.000
399.236;   -2.175;   13.000;    8.000
399.363;   11.550;  222.000;  196.000
399.491;  -62.650; -404.000; -398.000
399.619; -107.300; -829.000; -800.000
399.747; -101.225; -859.000; -771.000
399.875;   54.450;  220.000;  234.000
400.003;  -57.275; -359.000; -284.000
400.130;  -92.375; -421.000; -341.000
400.258;  -28.325;  -83.000;   38.000
400.386;  -70.375; -352.000; -168.000
400.514;  -89.025; -526.000; -587.000
400.641; -120.625; -928.000; -802.000
400.769; -143.525; -979.000; -888.000
400.897; -115.725; -838.000; -793.000
401.025;  -40.500; -166.000; -152.000
401.152;   -1.000;  220.000;   38.000
401.280;  -98.175; -430.000; -429.000
401.408; -112.075; -712.000; -576.000
401.535; -119.975; -735.000; -758.000
401.663; -182.150;-1134.000;-1054.000
401.790;  -86.950; -514.000; -525.000
401.918;   27.900;  436.000;  405.000
402.046;  -30.525;  134.000;  122.000
402.173;  -33.700;  -18.000;    7.000
402.301;  -81.575; -519.000; -397.000
402.428;   25.150;  528.000;  383.000
402.556; -140.925;-1188.000; -913.000
402.683;  -34.325;  -20.000;   -1.000
402.811;  -36.325;  -37.000; -206.000
402.938;  -23.425;   20.000;   27.000
403.066;   42.775; -574.000; -558.000
403.193;  172.675;  299.000;  239.000
403.321;  115.450; -396.000; -574.000
403.448;  188.375;   83.000;   27.000
403.575;   61.600;  -90.000;  -46.000
403.703;  -97.175; -732.000; -557.000
403.830;  -53.575; -531.000; -496.000
403.957; -134.700;-1117.000;-1023.000
404.085;   10.750;  -61.000; -172.000
404.212;  113.900;  -50.000;   63.000
404.339;  383.575; -566.000; -306.000
404.467; 7914.450; -612.000; -524.000
404.594; 4954.825; -287.000; -227.000
404.721;  934.100; -869.000; -764.000
404.848;   88.125; -113.000; -202.000
404.976; -101.625; -856.000; -783.000
405.103;   -2.725;  -14.000;  -82.000
405.230;    5.200;  190.000;  226.000
405.357;   44.875;  117.000;   44.000
405.484;  373.575;  -49.000;    5.000
405.612;   98.575; -548.000; -563.000
405.739;  -37.875; -488.000; -243.000
405.866;   73.350;  669.000;  385.000
405.993;  -48.925; -398.000; -102.000
406.120; -145.425; -801.000; -887.000
406.247;  -57.675; -323.000; -342.000
406.374;  163.475;  540.000;  629.000
406.501;  -22.100; -632.000; -702.000
406.628; -102.350; -621.000; -589.000
406.755; -109.275; -803.000; -620.000
406.882;  -64.175; -228.000; -277.000
407.009; -122.900; -719.000; -628.000
407.136;  -29.175; -480.000; -401.000
407.263;    7.375; -939.000; -829.000
407.390;  -89.175; -692.000; -614.000
407.517; -180.900;-1139.000;-1187.000
407.644;  -77.025; -332.000; -256.000
407.771;  -76.175; -249.000; -287.000
407.898;   -7.025;  168.000;  328.000
408.025;  -85.000; -421.000; -313.000
408.151;  -18.650;   82.000;  153.000
408.278;  -71.325; -267.000; -216.000
408.405; -123.725; -931.000; -899.000
408.532;  -83.775; -549.000; -542.000
408.659; -124.775; -677.000; -648.000
408.785; -177.975;-1298.000;-1170.000
408.912;  -84.400; -412.000; -296.000
409.039; -108.550; -610.000; -686.000
409.166; -103.100; -591.000; -555.000
409.292; -112.050; -571.000; -534.000
409.419; -123.925; -665.000; -649.000
409.546;  -88.325; -431.000; -192.000
409.672; -110.675; -713.000; -545.000
409.799;  -44.725;  -36.000;   34.000
409.926;  -54.900; -180.000; -179.000
410.052; -180.425;-1127.000;-1091.000
410.179;  -70.475; -368.000; -392.000
410.305;  -79.450; -375.000; -493.000
410.432;  -39.500; -220.000; -333.000
410.558;  -84.875; -305.000; -380.000
410.685; -108.375; -688.000; -431.000
410.812; -102.900; -409.000; -588.000
410.938; -149.875; -964.000; -808.000
411.065; -111.875; -671.000; -645.000
411.191;  -40.175; -189.000; -174.000
411.317; -125.750; -823.000; -742.000
411.444;  -75.400; -317.000; -246.000
411.570;  -80.875; -339.000; -294.000
411.697; -135.325; -758.000; -752.000
411.823; -192.150; -989.000; -999.000
411.949;  -44.075;  -56.000;   17.000
412.076; -116.225; -539.000; -519.000
412.202; -122.775; -758.000; -757.000
412.329; -127.850; -798.000; -752.000
412.455; -112.725; -821.000; -657.000
412.581;  -28.525;  -15.000;  172.000
412.707;  -99.325; -540.000; -457.000
412.834;    0.475;  156.000;  219.000
412.960; -101.250; -785.000; -784.000
413.086;  -98.175; -743.000; -701.000
413.212;  131.125;  604.000;  578.000
413.339;  -85.825; -685.000; -701.000
413.465;  -54.225; -364.000; -310.000
413.591; -105.425; -757.000; -474.000
413.717;  -53.400; -358.000; -366.000
413.843; -140.925; -839.000; -861.000
413.969;  -60.625;  -47.000; -292.000
414.096; -100.150; -679.000; -679.000
414.222;  -19.175;  -33.000;   85.000
414.348;  -67.525; -652.000; -385.000
414.474;   22.575;   38.000;  -52.000
414.600;  -15.975; -126.000; -144.000
414.726;  -14.350;  -96.000;  -55.000
414.852;  -40.025; -365.000; -342.000
414.978;   38.075;  104.000;  -18.000
415.104;   46.400;   38.000;   80.000
415.230;   31.250; -329.000; -330.000
415.356;   54.675; -409.000; -514.000
415.482;  221.925;   13.000;  -35.000
415.608;  379.375; -247.000; -323.000
415.734; 1286.975;   67.000;   38.000
415.860;26308.025; -875.000; -767.000
415.986;21510.550; -685.000; -607.000
416.111; 2005.850; -798.000; -652.000
416.237;  407.400; -424.000; -571.000
416.363; 1466.025; -765.000; -733.000
416.489; 5973.575; -324.000; -251.000
416.615;  803.575; -707.000; -742.000
416.741;   24.900; -677.000; -784.000
416.866;  -71.775; -673.000; -736.000
416.992; -106.650; -801.000; -818.000
417.118;  -30.225;  -41.000;  -80.000
417.244;  -78.525; -798.000; -531.000
417.369;  -80.325; -801.000; -612.000
417.495;  -15.475; -325.000; -254.000
417.621;  -86.075;-1015.000; -803.000
417.746;    9.300; -579.000; -572.000
417.872;   46.725; -254.000; -144.000
417.998;  101.775; -515.000; -530.000
418.123; 1408.375;-1073.000; -845.000
418.249; 7723.775; -512.000; -601.000
418.374; 1289.300; -916.000; -824.000
418.500;  186.850; -383.000; -482.000
418.626;  159.525;   70.000;  -59.000
418.751;  143.975; -549.000; -448.000
418.877;  271.100; -637.000; -643.000
419.002; 2311.925; -688.000; -560.000
419.128;17412.550; -930.000; -721.000
419.253; 4797.425; -967.000; -837.000
419.379;  647.750; -391.000; -338.000
419.504;  506.575;  325.000;  415.000
419.629;  711.025; -393.000; -212.000
419.755; 4619.875; -317.000; -254.000
419.880;29956.200;  -98.000;   67.000
420.006;15503.550; -280.000; -221.000
420.131;39571.250; -662.000; -775.000
420.256; 6343.750; -315.000; -316.000
420.382;  841.425; -665.000; -687.000
420.507;  140.275; -649.000; -778.000
420.632;   58.375; -337.000; -339.000
420.758;  114.900; -251.000; -425.000
420.883;  -89.300; -876.000; -672.000
421.008; -105.050; -775.000; -619.000
421.133;  -87.300; -509.000; -467.000
421.259;  -57.675; -325.000; -259.000
421.384; -123.925; -834.000; -693.000
421.509;  -99.875;-1052.000; -862.000
421.634;  535.725; -936.000; -820.000
421.759;  279.900; -359.000; -327.000
421.885;  -70.950; -717.000; -656.000
422.010; -100.025; -673.000; -542.000
422.135; -156.950; -695.000; -727.000
422.260;   29.375;  340.000;  280.000
422.385;  -33.225;   12.000;  -98.000
422.510;  -10.425;  151.000;  -26.000
422.635;  -21.150;  -87.000;  -43.000
422.760;   23.425; -766.000; -791.000
422.885;   36.400;  -57.000;  -80.000
423.010;  -42.850; -112.000; -169.000
423.135;  -94.650; -481.000; -561.000
423.260;  -37.475; -150.000; -245.000
423.385;   39.600;  476.000;  222.000
423.510;   10.375;   71.000;  -22.000
423.635;   18.050;  133.000;   45.000
423.760;   56.575;  383.000;  328.000
423.885;   33.625;  336.000;  391.000
424.010;  -14.425;  -68.000;  -13.000
424.135;  -37.500;    5.000;  -33.000
424.259; -100.525; -654.000; -457.000
424.384;  -56.375; -279.000; -272.000
424.509;  -36.025; -260.000; -186.000
424.634;  -77.600; -761.000; -623.000
424.759;  -52.100; -688.000; -544.000
424.883;   -1.775; -506.000; -527.000
425.008;  184.075; -502.000; -410.000
425.133; 2574.025; -679.000; -653.000
425.258; 1369.925; -517.000; -381.000
425.382;  658.200; -867.000; -774.000
425.507; 1710.000; -487.000; -543.000
425.632;  426.050; -802.000; -663.000
425.756;  583.050; -256.000; -146.000
425.881; 8231.550; -831.000; -857.000
426.006;25115.975; -604.000; -355.000
426.130; 4184.825; -696.000; -508.000
426.255;  574.525; -611.000; -491.000
426.379;  240.950; -189.000; -577.000
426.504;  460.475;  660.000;  544.000
426.629; 5530.675; -519.000; -466.000
426.753; 4248.875;   64.000;  -46.000
426.878;  496.350; -252.000; -288.000
427.002;  288.400; -651.000; -668.000
427.127; 1892.775;  -35.000; -158.000
427.251;15399.125;  372.000;  401.000
427.375; 4961.350; -191.000; -173.000
427.500; 1701.975; -616.000; -610.000
427.624;  585.375; -234.000; -400.000
427.749;  105.375; -216.000; -225.000
427.873;  -12.300; -499.000; -412.000
427.997;  -41.650; -222.000; -230.000
428.122;   67.000;  795.000;  703.000
428.246;   41.675;  433.000;  434.000
428.371; -121.050; -869.000; -773.000
428.495;  -99.700; -624.000; -646.000
428.619;  -34.875; -186.000; -117.000
428.743;   -1.925;   65.000;  132.000
428.868;  -52.850; -732.000; -643.000
428.992;  792.425; -219.000; -326.000
429.116;  343.150; -329.000; -357.000
429.240;  171.700;  419.000;  426.000
429.365;  -43.625; -454.000; -574.000
429.489;  -44.075; -638.000; -647.000
429.613;   25.700; -236.000; -177.000
429.737;   65.725; -563.000; -432.000
429.861;  352.725; -247.000; -133.000
429.985; 7272.525; -425.000; -305.000
430.109; 9093.225; -770.000; -908.000
430.234; 1108.850;   76.000;  -50.000
430.358;  147.975; -250.000; -160.000
430.482;  -46.275; -672.000; -564.000
430.606;  -64.050; -655.000; -375.000
430.730;  -47.025; -437.000; -388.000
430.854;  -22.650; -909.000; -835.000
430.978;  -79.325; -795.000; -764.000
431.102;  -86.675; -499.000; -422.000
431.226; -124.500; -874.000; -815.000
431.350;   21.325;  345.000;  422.000
431.474;  -83.025; -661.000; -373.000
431.597; -152.275;-1060.000; -848.000
431.721;  -80.350; -276.000; -267.000
431.845; -138.950; -704.000; -472.000
431.969;  -85.600; -304.000; -349.000
432.093;  -90.075; -395.000; -317.000
432.217;  -18.975;   32.000;   82.000
432.341;  -89.425; -523.000; -518.000
432.464;  -14.850;   96.000;   40.000
432.588;   22.525; -401.000; -329.000
432.712;   21.025;  -52.000;  -52.000
432.836;   62.125;  213.000;  263.000
432.959;    6.075; -372.000; -311.000
433.083;  135.275;   11.000;    2.000
433.207;  504.750;  285.000;  930.000
433.330; 6755.975; -391.000; -200.000
433.454; 9298.200; -654.000; -638.000
433.578; 5239.150;  583.000;  278.000
433.701; 1093.925; -623.000; -675.000
433.825;  151.875; -292.000; -299.000
433.949;   90.700;   28.000;  -72.000
434.072;   17.725; -410.000; -323.000
434.196;  -17.150; -309.000; -117.000
434.319; 3507.450;25482.000;25124.000
434.443;  810.225; -656.000; -603.000
434.566; 3611.550;  281.000;   62.000
434.690;  748.725; -637.000; -383.000
434.813;  131.450; -251.000; -173.000
434.937;  -50.375; -569.000; -696.000
435.060;  -58.250; -423.000; -332.000
435.184;   79.275; -492.000; -217.000
435.307;   59.275;  159.000;  102.000
435.431;  -26.150;  -40.000;   24.000
435.554;  -80.200; -399.000; -240.000
435.677;  -98.550; -350.000; -258.000
435.801;  -58.325;  -25.000;   49.000
435.924;  -39.525;    1.000;  -67.000
436.048; -151.075;-1019.000; -732.000
436.171;  -86.175; -240.000;  -66.000
436.294;  -10.125; -248.000; -229.000
436.417;  174.500; -963.000; -849.000
436.541;  -36.450; -814.000; -840.000
436.664;  -65.000; -242.000; -316.000
436.787;  -13.675;   13.000;  113.000
436.910; -116.175; -792.000; -422.000
437.034;  -11.425;  142.000;  143.000
437.157;   26.300;  -11.000;    0.000
437.280;  -77.575; -392.000; -292.000
437.403; -138.225; -982.000; -869.000
437.526;  239.200; -903.000; -865.000
437.649; 1216.325; -505.000; -332.000
437.772;  173.400; -692.000; -540.000
437.896;   75.725;  700.000;  544.000
438.019;  -99.425; -758.000; -503.000
438.142; -105.550; -596.000; -506.000
438.265;  -99.700; -639.000; -670.000
438.388;  140.325; -520.000; -410.000
438.511;  -23.550; -597.000; -394.000
438.634;  -69.025; -247.000; -125.000
438.757; -140.150; -693.000; -619.000
438.880;  -51.800;  -34.000;  -57.000
439.003;  -95.875; -417.000; -437.000
439.126;  -82.325; -287.000; -167.000
439.248;  -73.550;  -98.000; -139.000
439.371;  -65.225;    9.000;  -53.000
439.494;   26.100;  510.000;  439.000
439.617;  -61.225;   65.000;  -88.000
439.740; -165.650; -968.000; -816.000
439.863; -157.875; -755.000; -595.000
439.986; -114.925; -476.000; -431.000
440.108;  -48.150; -161.000; -112.000
440.231; -160.225; -950.000; -836.000
440.354;  -74.650;  -64.000; -150.000
440.477;  -86.100; -566.000; -542.000
440.599;  -70.925; -200.000; -225.000
440.722; -140.925; -709.000; -586.000
440.845;   47.150;  751.000;  928.000
440.968; -122.600; -415.000; -311.000
441.090;  -69.800; -199.000;  -33.000
441.213; -178.575;-1021.000; -825.000
441.336;  -56.875; -159.000;   -5.000
441.458;  -88.900; -549.000; -396.000
441.581; -121.250; -628.000; -629.000
441.703;  -70.825; -152.000;   13.000
441.826; -118.025; -557.000; -400.000
441.948;  -53.975;   56.000;   51.000
442.071;    9.700;  555.000;  424.000
442.193; -120.200; -531.000; -485.000
442.316;   -6.025;  152.000;   97.000
442.438;   69.750; -233.000;  -10.000
442.561;   67.575;  272.000;  262.000
442.683;  232.025; -809.000; -522.000
442.806;  591.300;   -8.000;   74.000
442.928;  -49.975; -859.000; -604.000
443.051;  -66.875; -577.000; -373.000
443.173;  -87.775; -341.000; -339.000
443.295;  -91.650; -263.000; -371.000
443.418;  -79.150; -321.000;  -29.000
443.540;  -44.150; -106.000;   -4.000
443.662; -131.100; -563.000; -465.000
443.785;  -22.925;  335.000;  199.000
443.907; -103.050; -362.000; -208.000
444.029; -145.075; -767.000; -494.000
444.152; -143.475; -644.000; -554.000
444.274;  -58.275;  -18.000;  -24.000
444.396; -118.875; -461.000; -221.000
444.518; -147.775; -691.000; -454.000
444.640; -105.200; -268.000; -111.000
444.763;  -32.175;  388.000;  249.000
444.885; -110.050; -432.000; -392.000
445.007;  -44.250;   35.000;   86.000
445.129; -127.575; -610.000; -515.000
445.251; -110.975; -372.000; -439.000
445.373; -146.225; -537.000; -386.000
445.495;  -18.750;  242.000;  350.000
445.617;   37.525;  853.000;  753.000
445.739;  -84.100; -215.000;  -97.000
445.861;  -56.550; -245.000; -112.000
445.984;  -70.925; -267.000; -101.000
446.105;   17.350; -418.000; -251.000
446.227;  263.975; -176.000;  -19.000
446.349;  -62.325; -358.000; -249.000
446.471; -125.775; -615.000; -448.000
446.593;  -82.875; -316.000;   19.000
446.715;  -32.975;  -67.000;   41.000
446.837;   61.175;  697.000;  832.000
446.959; -113.375; -457.000; -478.000
447.081; -143.425; -628.000; -518.000
447.203;   33.400;  862.000;  834.000
447.325; -107.450; -270.000;   42.000
447.446;  -20.350;  286.000;  530.000
447.568; -152.850; -921.000; -803.000
447.690;  -82.500; -236.000; -245.000
447.812; -162.225; -798.000; -519.000
447.933;  -42.375;  155.000;  127.000
448.055;  -63.750; -306.000; -261.000
448.177;   60.075;   31.000;   79.000
448.299;  -35.625; -935.000; -727.000
448.420;  -14.025;  -25.000;  159.000
448.542;  -51.325;   -3.000;   33.000
448.664;  -36.950;  109.000;  322.000
448.785;  -51.525;  265.000;   83.000
448.907; -106.475; -614.000; -353.000
449.028;  -90.275; -771.000; -471.000
449.150;   20.425;  492.000;  589.000
449.272; -180.225;-1044.000; -913.000
449.393;   30.000;  612.000;  694.000
449.515; -148.975; -634.000; -581.000
449.636;  -82.200; -264.000; -155.000
449.758;   52.575;  763.000;  622.000
449.879;  -97.275; -498.000; -396.000
450.001;  -85.900; -149.000;  -49.000
450.122;  -47.975;  -95.000;  162.000
450.244;  -20.975;   37.000;  364.000
450.365;  -84.750; -495.000; -301.000
450.486;  -10.400;   80.000;  268.000
450.608;   19.775;  393.000;  326.000
450.729;   89.775;  578.000;  645.000
450.850;   47.150; -574.000; -466.000
450.972; 1037.025; -552.000; -389.000
451.093; 6869.375;  190.000;  588.000
451.214; 3506.275; -516.000; -337.000
451.336;  586.725;  773.000;  579.000
451.457;  105.475;  264.000;  393.000
451.578;  -44.500; -118.000;  -74.000
451.699; -122.300; -546.000; -540.000
451.821;  -72.050; -284.000;  -50.000
451.942;    5.075;  278.000;  285.000
452.063;   55.025;  228.000;  419.000
452.184;  710.925;  -54.000;  -49.000
452.305; 1535.025;  103.000;  170.000
452.427;  271.550; -549.000; -301.000
452.548;   -8.850;   23.000;   79.000
452.669;  -61.575; -257.000;  -89.000
452.790;  -64.950;    3.000;  -18.000
452.911;  -16.775;  195.000;  259.000
453.032;  -84.300; -289.000;  -60.000
453.153;  -62.350;  -29.000;   81.000
453.274;   56.400;  737.000;  868.000
453.395;  -53.950;  -51.000;  175.000
453.516;  104.450; 1317.000; 1388.000
453.637;  -83.225; -205.000; -150.000
453.758;  -69.650;   15.000;   69.000
453.879; -113.800; -462.000; -250.000
454.000;   58.000; 1086.000;  948.000
454.121; -143.275; -554.000; -326.000
454.242; -113.025; -599.000; -383.000
454.362;  -70.900;  -99.000;  114.000
454.483;  -24.475; -309.000; -229.000
454.604;   72.300;  512.000;  580.000
454.725; -127.625; -627.000; -555.000
454.846; -129.450; -474.000; -406.000
454.967;  -38.150;  230.000;  539.000
455.087;  -48.000;  179.000;  153.000
455.208;  -14.775;  554.000;  856.000
455.329;  -53.325;  -22.000;   82.000
455.450;   21.850;  473.000;  633.000
455.570;  -68.400; -234.000; -211.000
455.691;  -56.375;  201.000;  407.000
455.812; -103.375; -270.000;  -92.000
455.932;  -65.425;  107.000;  -97.000
456.053;  -81.225;   36.000;   24.000
456.173; -123.450; -433.000; -355.000
456.294; -128.050; -476.000; -303.000
456.415;  -68.250;  -73.000;   70.000
456.535;  -38.175;  297.000;  273.000
456.656;  -48.075;  132.000;  240.000
456.776;  -73.750;    3.000;  298.000
456.897;  -16.025;  308.000;  513.000
457.017;  -74.475; -153.000;   -3.000
457.138; -115.400; -402.000; -249.000
457.258;  -46.250;  263.000;  224.000
457.379;  -19.575;  509.000;  521.000
457.499;  -30.450;  443.000;  432.000
457.620; -127.000; -407.000; -231.000
457.740;  -94.800; -132.000;  -11.000
457.860;  -59.625;   87.000;   44.000
457.981;  -39.400;  132.000;  124.000
458.101;  -78.900;  -89.000;   40.000
458.221;  -25.450;  336.000;  402.000
458.342;  -53.250;   -4.000;  -37.000
458.462;   36.100;  617.000;  352.000
458.582;  -14.025; -302.000; -294.000
458.703;   32.575;  303.000;  154.000
458.823;  -11.925;   22.000;  163.000
458.943;   49.500;  341.000;  467.000
459.063;   13.075; 1124.000;  192.000
459.183;   -9.400;  328.000;  313.000
459.304;    5.825;  315.000;  517.000
459.424;  -56.625; -246.000;  -89.000
459.544;  429.650;  388.000;  764.000
459.664; 1165.625;  499.000;  506.000
459.784;  443.750; 1004.000; 1175.000
459.904;   66.050;  867.000;  744.000
460.024;   45.150;  867.000;  684.000
460.144;  -17.075;  449.000;  554.000
460.264;  -11.550;  515.000;  327.000
460.385;  -97.150; -145.000; -119.000
460.505;   17.225;  905.000;  858.000
460.625;  -90.975;  -17.000;  -68.000
460.745;  -34.550;  396.000;  541.000
460.864;  -39.200;  153.000;  469.000
460.984;   28.000;  499.000;  573.000
461.104;  150.625; 1656.000; 1775.000
461.224;    1.725;  657.000;  650.000
461.344;  -26.950;  431.000;  360.000
461.464;  -43.325;  258.000;  513.000
461.584;  -32.200;  283.000;  466.000
461.704;  -57.250;   58.000;  108.000
461.824;  -58.900;  238.000;  259.000
461.943;  -55.525;  191.000;  130.000
462.063;  -79.075;    2.000;  324.000
462.183;    8.350;  639.000;  717.000
462.303;   83.075; 1678.000; 1230.000
462.422;   23.325;  781.000;  840.000
462.542;  -49.425;  271.000;  391.000
462.662;   26.825;  353.000;  380.000
462.782;  324.300;  833.000;  572.000
462.901;  660.600;  545.000;  717.000
463.021;  359.775; 1702.000; 1638.000
463.141;    1.750;  337.000;  770.000
463.260;  -14.850;  614.000;  474.000
463.380;   12.950;  902.000;  884.000
463.499;  -29.550;  342.000;  332.000
463.619;  -37.875;  581.000;  559.000
463.738;   83.100; 1644.000;  903.000
463.858;   -4.225;  657.000;  811.000
463.978;  -38.225;  542.000;  396.000
464.097;   40.050;  921.000; 1114.000
464.217;  119.950; 1196.000; 1143.000
464.336;  139.400; 1068.000; 1130.000
464.455;  -34.250;  328.000;  659.000
464.575;   -4.225;  597.000;  602.000
464.694;  129.100; 1204.000; 1179.000
464.814;  133.400; 1190.000; 1138.000
464.933;   75.425; 1095.000; 1027.000
465.052;   99.750; 1412.000; 1054.000
465.172;   76.900;  922.000;  799.000
465.291;  134.900; 1376.000; 1320.000
465.410;    6.550;  462.000;  735.000
465.530;   65.125; 1355.000; 1310.000
465.649;   66.525; 1209.000; 1273.000
465.768;  138.850; 1673.000; 1508.000
465.888;   59.125;  941.000; 1174.000
466.007;   75.925; 1335.000; 1440.000
466.126;    1.075;  721.000;  641.000
466.245;   21.625; 1176.000; 1187.000
466.364;   23.375;  950.000; 1060.000
466.484;   39.125; 1024.000; 1213.000
466.603;   33.775; 1101.000; 1222.000
466.722;   97.650; 1490.000; 1769.000
466.841;   65.800; 1151.000; 1401.000
466.960;   31.725; 1069.000;  972.000
467.079;  106.125; 1971.000; 1786.000
467.198;   33.975; 1238.000; 1181.000
467.317;   83.075; 1768.000; 1162.000
467.436;   61.350; 1709.000; 1261.000
467.555;  113.125; 1796.000; 1746.000
467.674;   46.400; 1227.000; 1329.000
467.793;   34.225; 1376.000; 1374.000
467.912;   76.825; 1658.000; 1539.000
468.031;  137.975; 2038.000; 1930.000
468.150;  130.075; 1842.000; 1837.000
468.269;  192.250; 2313.000; 2090.000
468.388;  181.200; 2168.000; 2339.000
468.507;  245.675; 2884.000; 2903.000
468.626;  247.150; 2555.000; 2541.000
468.744;  137.600; 2018.000; 2174.000
468.863;  181.650; 2312.000; 2523.000
468.982;   81.875; 1503.000; 1555.000
469.101;  211.300; 2788.000; 2692.000
469.220;  152.575; 2333.000; 2176.000
469.338;  234.225; 2935.000; 3051.000
469.457;  194.150; 2719.000; 2545.000
469.576;  339.900; 3953.000; 3784.000
469.695;  234.350; 2877.000; 3066.000
469.813;  411.075; 4148.000; 4192.000
469.932;  424.575; 4255.000; 4485.000
470.051;  412.075; 4075.000; 4161.000
470.169;  947.025; 4470.000; 4338.000
470.288; 1871.575; 4700.000; 4809.000
470.406; 1092.200; 5059.000; 5194.000
470.525;  661.550; 6101.000; 5787.000
470.644;  650.500; 6847.000; 6794.000
470.762;  796.600; 8397.000; 7873.000
470.881;  890.650; 8651.000; 8464.000
470.999; 1046.075; 9685.000; 9151.000
471.118; 1110.925;11174.000;10711.000

