
Integration time [ms]: 200.000
Averaging Nr. [scans]: 10
Smoothing Nr. [pixels]: 0
Data measured with spectrometer [name]: 2101012U2
Wave   ;Sample   ;Dark     ;Reference
[nm]   ;[counts] ;[counts] ;[counts] 

197.733;  123.600;  516.000;  404.000
197.879; -178.100; -610.000; -634.000
198.025; -120.900; -475.000; -420.000
198.171; -148.400; -602.000; -612.000
198.317;  -75.600; -401.000; -316.000
198.463; -138.300; -655.000; -404.000
198.609;   38.400;  181.000; -137.000
198.755; -185.600; -644.000; -410.000
198.901; -144.000; -505.000; -424.000
199.047; -136.000; -615.000; -488.000
199.193;  -73.200; -230.000; -468.000
199.339; -113.300; -222.000; -369.000
199.485;   86.300;  330.000;  271.000
199.631;   70.000;  227.000;  310.000
199.777;  -93.000; -466.000; -398.000
199.923; -152.800; -610.000; -424.000
200.069;    2.000; -141.000;  -58.000
200.215;   96.500;  128.000;  453.000
200.361;   62.100;  243.000;  477.000
200.507; -138.000; -600.000; -373.000
200.653;  -45.100; -371.000; -194.000
200.798;  -77.100; -215.000; -125.000
200.944;  -29.800; -146.000;  -41.000
201.090;   87.800;   61.000;  222.000
201.236;   -6.200; -116.000; -158.000
201.382;  234.800;  874.000;  903.000
201.528;   21.800;  -58.000;  -48.000
201.674;  -74.200; -386.000; -293.000
201.819; -142.300; -540.000; -439.000
201.965; -176.600; -699.000; -447.000
202.111;  -44.400; -273.000; -226.000
202.257;  -83.400; -250.000; -238.000
202.402;   17.700;   13.000;  -36.000
202.548;  -81.900; -169.000; -116.000
202.694;  175.800;  410.000; -183.000
202.840; -157.400; -603.000; -531.000
202.985; -170.200; -681.000; -639.000
203.131; -253.100; -832.000; -666.000
203.277;  -41.100; -199.000; -262.000
203.423; -104.900; -434.000; -520.000
203.568;  -85.600; -462.000; -237.000
203.714; -136.600; -535.000; -542.000
203.860; -152.300; -682.000; -641.000
204.005;   26.600;  112.000;  167.000
204.151;  172.900;  561.000;  556.000
204.296; -123.700; -354.000; -221.000
204.442; -144.800; -600.000; -547.000
204.588; -185.600; -592.000; -579.000
204.733;   34.700;  178.000;  168.000
204.879; -282.800;-1018.000; -822.000
205.025;    0.400;  -99.000;  126.000
205.170;  -37.200;  -17.000;   94.000
205.316;  180.900;  438.000;  661.000
205.461; -173.500; -698.000; -554.000
205.607;  178.400;  609.000;  665.000
205.752; -178.700; -626.000; -551.000
205.898; -107.500; -501.000; -391.000
206.043; -133.100; -578.000; -506.000
206.189;  -93.400; -243.000; -285.000
206.334;  147.900;  554.000;  606.000
206.480;  107.000;  409.000;  239.000
206.625; -176.500; -529.000; -552.000
206.771;  -85.800; -451.000; -373.000
206.916;  -96.500; -210.000; -537.000
207.062; -150.100; -545.000; -591.000
207.207; -117.600; -546.000; -443.000
207.353;  128.400;  185.000;  460.000
207.498;   40.400;  196.000;   85.000
207.643;  -94.900; -501.000; -370.000
207.789; -275.300;-1069.000; -910.000
207.934; -193.300; -665.000; -713.000
208.080;  -66.600; -154.000;   66.000
208.225;  -34.700;  -22.000;  -57.000
208.370; -188.100; -727.000; -619.000
208.516; -162.200; -741.000; -487.000
208.661;  -60.700; -127.000;  -69.000
208.806;  -47.900; -165.000; -171.000
208.952; -263.200;-1044.000; -731.000
209.097;  137.900;  378.000;  349.000
209.242; -100.700; -307.000; -382.000
209.387;  139.000;  392.000;  350.000
209.533; -114.800; -321.000; -350.000
209.678;  141.600;  472.000;  543.000
209.823; -105.500; -408.000; -310.000
209.969; -230.000; -860.000; -757.000
210.114; -246.500; -907.000; -719.000
210.259; -232.500; -939.000; -889.000
210.404;   12.400; -171.000;  103.000
210.549;   71.600;  108.000;    3.000
210.695;  -37.900;   -3.000;  -95.000
210.840;   57.000;   94.000;   67.000
210.985; -123.900; -484.000; -303.000
211.130;  143.600;  268.000;  406.000
211.275;   44.500;  207.000;  199.000
211.420; -103.900; -300.000; -289.000
211.566; -146.000; -536.000; -489.000
211.711;   40.100;  218.000;  157.000
211.856; -167.400; -545.000; -519.000
212.001;   39.300;  151.000;   44.000
212.146;  -10.600;  153.000;   49.000
212.291;  -80.500; -210.000; -186.000
212.436;  -66.600; -280.000;   -6.000
212.581; -177.300; -685.000; -653.000
212.726; -164.300; -487.000; -538.000
212.871;  -73.200; -552.000; -217.000
213.016; -328.900;-1172.000;-1029.000
213.161;  133.300;  406.000;  291.000
213.306; -154.700; -435.000; -577.000
213.451; -208.100; -778.000; -689.000
213.596;  -75.800; -455.000; -347.000
213.741; -113.400; -448.000; -538.000
213.886; -160.400; -498.000; -517.000
214.031;  -43.700; -294.000; -124.000
214.176; -102.300; -408.000; -341.000
214.321;   -3.000; -296.000; -157.000
214.466;  -38.300; -163.000;  -43.000
214.611;  -20.300;  -61.000;  -10.000
214.756; -250.600; -948.000; -858.000
214.901;  -18.700; -388.000; -226.000
215.046; -273.500; -797.000; -825.000
215.191;   46.000;  128.000;   35.000
215.336;  -49.500; -157.000;  -19.000
215.480; -138.600; -684.000; -505.000
215.625;  -27.300; -175.000;  -19.000
215.770; -169.400; -757.000; -662.000
215.915;   -4.800;   -5.000;  -97.000
216.060;    4.300; -113.000;  -21.000
216.205; -234.200; -731.000; -779.000
216.349; -148.500; -470.000; -533.000
216.494; -288.100; -939.000; -867.000
216.639; -213.900; -823.000; -888.000
216.784; -188.300; -577.000; -525.000
216.929;  117.800;  392.000;  281.000
217.073;  -18.700; -244.000;  -31.000
217.218;   36.200;   78.000;  -47.000
217.363; -173.100; -656.000; -618.000
217.507; -176.700; -623.000; -588.000
217.652; -270.600; -845.000; -874.000
217.797; -185.300; -708.000; -659.000
217.942; -263.200; -856.000; -720.000
218.086;  139.100;  608.000;  539.000
218.231;  -17.400; -174.000;  -26.000
218.376;  -55.500; -337.000; -229.000
218.520;    6.600;  -41.000;   96.000
218.665;  -51.800; -338.000; -204.000
218.810;  -87.900; -275.000; -233.000
218.954;   85.000;  201.000;   35.000
219.099; -229.600; -713.000; -963.000
219.243; -116.500; -589.000; -554.000
219.388;  -70.000; -264.000; -136.000
219.532;  -33.600; -116.000; -116.000
219.677; -165.600; -564.000; -521.000
219.822;   29.800;   33.000;   89.000
219.966;    1.200;   17.000;  -99.000
220.111;  -32.600; -328.000;  -40.000
220.255; -206.200; -797.000; -750.000
220.400;  -35.400; -180.000; -146.000
220.544; -142.100; -516.000; -450.000
220.689; -134.100; -422.000; -451.000
220.833;  -27.400; -123.000;  -58.000
220.978;  -56.300; -393.000; -563.000
221.122;   76.100;  319.000;  307.000
221.267; -242.000; -906.000; -837.000
221.411; -133.700; -478.000; -394.000
221.555;    8.400; -104.000;  -23.000
221.700; -102.100; -329.000; -222.000
221.844;   78.100;  255.000;  272.000
221.989;  -95.000; -328.000; -311.000
222.133;  -66.700; -289.000; -307.000
222.277;  -11.800;    5.000;   78.000
222.422;   65.500;  227.000;  113.000
222.566;  -75.400; -381.000; -214.000
222.711; -126.900; -414.000; -479.000
222.855; -143.500; -643.000; -586.000
222.999; -143.900; -642.000; -717.000
223.144;  -33.400; -195.000; -194.000
223.288;  117.900;  423.000;  251.000
223.432;   44.000;  184.000;  230.000
223.576;   44.100;  152.000;  -21.000
223.721;   99.900;  364.000;  273.000
223.865; -113.600; -472.000; -475.000
224.009;  434.200; 1673.000; 1631.000
224.153; -154.300; -660.000; -671.000
224.298; -150.200; -531.000; -489.000
224.442;  -15.500;  -74.000;  -33.000
224.586;    3.000; -169.000; -106.000
224.730; -186.800; -858.000; -670.000
224.875; -190.700; -739.000; -688.000
225.019;   22.700;  102.000;  188.000
225.163;  112.600;  208.000;  341.000
225.307;   48.900;   97.000;  -91.000
225.451;  123.900;  360.000;  481.000
225.595;   73.000;  264.000;  176.000
225.739;  -56.300; -170.000;  -94.000
225.884;   49.000;   86.000;    5.000
226.028; -214.200; -760.000; -626.000
226.172;  -73.200; -260.000; -273.000
226.316; -244.900; -941.000; -902.000
226.460; -154.300; -645.000; -493.000
226.604; -100.100; -406.000; -400.000
226.748; -219.800; -836.000; -733.000
226.892;  -47.400; -227.000; -181.000
227.036; -110.100; -537.000; -447.000
227.180; -134.500; -551.000; -375.000
227.324; -149.100; -561.000; -580.000
227.468; -253.200; -819.000; -717.000
227.612;   60.400;  242.000;  -28.000
227.756;  -65.100; -845.000; -698.000
227.900;  102.700;  342.000;  441.000
228.044; -115.400; -509.000; -290.000
228.188;  134.800;  448.000;  568.000
228.332; -181.400; -546.000; -472.000
228.476;   -7.900; -223.000; -149.000
228.620;  -42.600; -210.000; -150.000
228.764;  164.700;  431.000;  349.000
228.908;  -51.800; -155.000;   30.000
229.052; -100.400; -615.000; -528.000
229.195;  -40.600; -172.000;   13.000
229.339;  -43.000; -235.000; -305.000
229.483;  -40.700;    5.000; -162.000
229.627;   30.600; -156.000;  139.000
229.771;  -92.100; -218.000; -294.000
229.915;   23.200;  230.000;   79.000
230.059; -205.300; -648.000; -663.000
230.202;  -69.100; -370.000; -317.000
230.346;  -32.700; -107.000;  107.000
230.490; -105.200; -489.000; -521.000
230.634; -224.900; -736.000; -553.000
230.777;  169.600;  478.000;  509.000
230.921; -127.400; -450.000; -359.000
231.065;  -85.400; -246.000; -286.000
231.209;   43.400;  261.000;  265.000
231.352;   77.400;   54.000;   40.000
231.496;   70.500;  568.000;  188.000
231.640; -157.600; -693.000; -621.000
231.783;  140.800;  546.000;  525.000
231.927;  -82.000; -294.000; -365.000
232.071; -274.100; -962.000; -736.000
232.214; -230.700; -980.000; -764.000
232.358; -212.300; -683.000; -599.000
232.502;   38.100;  -19.000;    7.000
232.645; -292.700;-1090.000; -927.000
232.789;  -34.300; -257.000; -218.000
232.933;  -93.700; -407.000; -224.000
233.076; -250.200;-1038.000; -897.000
233.220; -218.700; -752.000; -777.000
233.363; -137.300; -669.000; -477.000
233.507;  126.500;  371.000;  129.000
233.650; -193.800; -764.000; -834.000
233.794;   69.200;  438.000;  461.000
233.938; -104.000; -530.000; -362.000
234.081;  -74.800;  -93.000;   31.000
234.225; -127.000; -631.000; -539.000
234.368; -242.800; -773.000; -723.000
234.512;  -55.100; -385.000; -299.000
234.655; -173.900; -582.000; -555.000
234.798; -127.500; -493.000; -466.000
234.942; -286.200; -884.000;-1002.000
235.085; -145.800; -651.000; -443.000
235.229; -160.900; -405.000; -410.000
235.372; -111.400; -247.000; -191.000
235.516; -123.300; -397.000; -321.000
235.659;   40.100;   92.000;  121.000
235.802;  -16.400;  -38.000;  -22.000
235.946;   53.500;  335.000;  215.000
236.089;   64.400;  126.000;  250.000
236.233;  118.600;  275.000;  298.000
236.376;  -88.200; -235.000; -378.000
236.519;  -94.500; -297.000; -319.000
236.663;  -47.500; -215.000; -117.000
236.806; -278.000;-1029.000; -999.000
236.949;  141.900;  543.000;  431.000
237.092;  140.600;  412.000;  391.000
237.236; -168.000; -589.000; -502.000
237.379;  140.900;  352.000;  428.000
237.522; -245.200; -879.000; -768.000
237.666;  -40.000; -271.000;   18.000
237.809; -279.900; -851.000; -823.000
237.952;   99.800;  469.000;  271.000
238.095; -127.300; -447.000; -442.000
238.238;  201.600;  688.000;  700.000
238.382;   24.400;  166.000;  103.000
238.525; -155.900; -598.000; -511.000
238.668; -279.900;-1060.000; -985.000
238.811; -162.300; -638.000; -643.000
238.954; -113.600; -483.000; -334.000
239.097;  211.100;  617.000;  664.000
239.241;   70.300;  394.000;  326.000
239.384;  -60.300; -254.000; -214.000
239.527; -119.500; -424.000; -224.000
239.670; -304.000; -994.000;-1091.000
239.813; -208.300; -696.000; -658.000
239.956;  171.700;  579.000;  473.000
240.099; -205.800; -778.000; -725.000
240.242;  136.800;  428.000;  432.000
240.385;  102.400;  466.000;  450.000
240.528; -157.100; -706.000; -473.000
240.671;   38.600;  189.000;  134.000
240.814;  -91.700; -441.000; -158.000
240.957; -196.600; -767.000; -578.000
241.100; -174.700; -779.000; -755.000
241.243; -294.100;-1234.000; -893.000
241.386; -118.800; -508.000; -379.000
241.529; -196.000; -735.000; -547.000
241.672; -117.500; -566.000; -495.000
241.815; -259.700; -832.000; -808.000
241.958;  -35.600; -125.000; -182.000
242.101; -143.300; -545.000; -390.000
242.244;  -83.100; -270.000; -325.000
242.387;  -81.800; -304.000; -246.000
242.530;  116.200;  470.000;  134.000
242.673; -101.200; -381.000; -309.000
242.815; -215.000; -925.000; -899.000
242.958; -133.200; -482.000; -381.000
243.101;   44.100;  132.000;  187.000
243.244; -176.000; -564.000; -521.000
243.387;  -82.400; -313.000; -316.000
243.530; -190.500; -657.000; -674.000
243.672;   11.000;   43.000;  -92.000
243.815;  -84.600; -355.000; -283.000
243.958;   13.800;   98.000;  -26.000
244.101;   20.900;   59.000;  -16.000
244.243;  -12.400;  -47.000;  101.000
244.386; -252.600; -761.000; -630.000
244.529;  -47.500; -132.000; -139.000
244.672; -321.100;-1154.000; -951.000
244.814; -224.300; -621.000; -794.000
244.957;  -96.700; -380.000; -304.000
245.100; -145.700; -489.000; -489.000
245.242; -110.400; -387.000; -374.000
245.385;   -0.700;  -59.000;  -39.000
245.528; -258.600; -871.000; -705.000
245.670;  191.400;  612.000;  634.000
245.813; -158.300; -599.000; -547.000
245.956;  -52.700; -324.000; -275.000
246.098; -158.800; -508.000; -650.000
246.241;   17.200;  194.000;   48.000
246.383;  -49.600; -119.000;  -73.000
246.526; -138.300; -454.000; -525.000
246.669; -270.600; -889.000; -780.000
246.811;   46.100;  172.000;   -1.000
246.954; -126.400; -512.000; -426.000
247.096;  -34.000;  -84.000;   -6.000
247.239; -165.700; -482.000; -445.000
247.381; -135.100; -647.000; -488.000
247.524;  162.400;  645.000;  679.000
247.666;  -11.300;   58.000;   11.000
247.809; -254.300; -887.000; -691.000
247.951;   -8.600;  -75.000;  138.000
248.094;   70.200;  432.000;  308.000
248.236; -321.700;-1262.000;-1238.000
248.378;   -7.100; -356.000;  -81.000
248.521;  -55.500; -334.000; -337.000
248.663;  -61.300; -236.000; -267.000
248.806;  -41.900; -300.000; -266.000
248.948; -190.800; -886.000; -763.000
249.090;  -66.200; -428.000; -398.000
249.233;  -98.000; -344.000; -381.000
249.375; -134.200; -474.000; -451.000
249.518;  -11.700;  -83.000; -133.000
249.660;    6.400; -103.000;    3.000
249.802; -358.800;-1303.000;-1189.000
249.945; -117.000; -612.000; -540.000
250.087; -262.900; -834.000; -768.000
250.229;  -89.100; -362.000; -480.000
250.371; -122.000; -494.000; -439.000
250.514;  -87.400; -310.000; -244.000
250.656;  -18.800;   69.000;  102.000
250.798; -224.300; -849.000; -800.000
250.940; -124.800; -322.000; -322.000
251.083;  -28.300; -335.000; -111.000
251.225;  116.500;  338.000;  310.000
251.367;  -65.100; -274.000; -373.000
251.509;  -52.500; -265.000; -210.000
251.651; -155.600; -731.000; -671.000
251.794;  138.800;  538.000;  632.000
251.936; -208.900; -821.000; -747.000
252.078; -152.100; -540.000; -461.000
252.220; -155.400; -645.000; -477.000
252.362;  173.300;  344.000;  462.000
252.504; -128.700; -677.000; -584.000
252.646; -206.100; -875.000; -722.000
252.788;   23.300;   14.000; -128.000
252.931;  -72.200; -257.000; -253.000
253.073;  -91.800; -376.000; -317.000
253.215;    3.700;  141.000;  122.000
253.357;  -14.200;   82.000; -153.000
253.499;  -88.800; -374.000; -234.000
253.641; -151.200; -749.000; -594.000
253.783; -168.100; -609.000; -527.000
253.925; -170.200; -586.000; -591.000
254.067; -235.800; -744.000; -667.000
254.209;  -61.600; -391.000; -259.000
254.351; -275.000; -865.000; -883.000
254.493; -105.600; -441.000; -417.000
254.635; -221.200; -936.000; -818.000
254.777; -142.000; -752.000; -687.000
254.918; -166.700; -512.000; -430.000
255.060; -137.500; -551.000; -395.000
255.202; -138.500; -473.000; -261.000
255.344; -148.100; -658.000; -455.000
255.486; -133.000; -471.000; -406.000
255.628; -217.300; -780.000; -781.000
255.770; -198.700; -676.000; -536.000
255.912; -122.500; -559.000; -468.000
256.053; -177.300; -730.000; -508.000
256.195;  333.000; 1008.000;  903.000
256.337; -178.400; -861.000; -595.000
256.479;  150.100;  532.000;  416.000
256.621;  -86.200; -394.000; -212.000
256.762; -207.600; -789.000; -742.000
256.904;  122.500;  485.000;  487.000
257.046;  -94.300; -381.000; -271.000
257.188;  -85.800; -351.000; -264.000
257.329; -166.000; -525.000; -464.000
257.471; -233.000; -939.000; -807.000
257.613; -123.900; -584.000; -498.000
257.755; -287.000;-1073.000; -982.000
257.896;   78.300;  286.000;  392.000
258.038; -159.100; -403.000; -352.000
258.180;  -74.200; -354.000; -279.000
258.321; -147.300; -581.000; -457.000
258.463;  -12.300;  -71.000;  133.000
258.605; -165.100; -562.000; -570.000
258.746; -194.700; -886.000; -772.000
258.888; -302.200;-1026.000;-1020.000
259.029;   39.800;  121.000;   -8.000
259.171; -182.000; -614.000; -550.000
259.313;   25.600;  -49.000;  -47.000
259.454; -157.700; -536.000; -414.000
259.596;  -94.100; -483.000; -390.000
259.737; -142.400; -590.000; -474.000
259.879;   88.900;  217.000;  311.000
260.020;  205.400;  901.000;  636.000
260.162;   -1.200; -146.000; -253.000
260.303; -240.800; -768.000; -687.000
260.445; -139.000; -609.000; -613.000
260.586;  111.100;  392.000;  157.000
260.728;  -60.200; -360.000; -248.000
260.869; -116.600; -350.000; -343.000
261.011;  199.000;  706.000;  537.000
261.152;  -79.800; -479.000; -319.000
261.293; -166.300; -576.000; -595.000
261.435;  -50.600; -219.000; -184.000
261.576; -119.900; -455.000; -325.000
261.718;  136.100;  420.000;  470.000
261.859; -232.100; -940.000; -949.000
262.000; -272.100; -951.000;-1016.000
262.142;  -39.600;  -52.000;  -60.000
262.283; -241.500; -808.000; -691.000
262.424; -155.500; -666.000; -625.000
262.566; -298.900;-1161.000; -983.000
262.707; -230.800; -840.000; -830.000
262.848; -260.600; -769.000; -726.000
262.990;  -75.500; -362.000; -345.000
263.131;  182.900;  650.000;  681.000
263.272;    3.900;  -61.000;  -41.000
263.413; -163.500; -589.000; -561.000
263.555; -133.300; -669.000; -143.000
263.696; -165.900; -550.000; -641.000
263.837; -112.500; -449.000; -551.000
263.978;  -13.600;   -5.000;  -77.000
264.119;  -98.800; -283.000; -264.000
264.261; -219.200; -847.000; -630.000
264.402;   27.800;   33.000;   40.000
264.543; -109.600; -509.000; -524.000
264.684;   -5.200;   61.000;  -50.000
264.825; -119.400; -816.000; -538.000
264.966;   -0.400;  -84.000;  -67.000
265.107; -200.800; -646.000; -670.000
265.248; -254.800; -825.000; -812.000
265.390;   -6.200;  152.000;   -9.000
265.531;    3.500; -238.000; -107.000
265.672; -163.700; -557.000; -630.000
265.813;  151.000;  563.000;  439.000
265.954; -279.900; -959.000; -940.000
266.095;   -2.300; -372.000; -322.000
266.236; -174.900; -686.000; -548.000
266.377;  -70.800; -243.000; -297.000
266.518; -137.800; -619.000; -547.000
266.659;   81.300;  170.000;  268.000
266.800;   35.000;   83.000;   85.000
266.941; -141.300; -487.000; -478.000
267.082;   47.900;  354.000;   99.000
267.223; -102.000; -344.000; -273.000
267.364; -242.500; -892.000; -686.000
267.504;   23.300;    3.000;  135.000
267.645;    3.000;  160.000;   67.000
267.786;  -47.700; -147.000;  -86.000
267.927; -117.400; -473.000; -379.000
268.068;  -18.700; -186.000;  -61.000
268.209;  -97.000; -175.000; -413.000
268.350;  -82.100; -388.000; -532.000
268.490; -157.800; -648.000; -521.000
268.631;   99.800;  127.000;  225.000
268.772; -197.900; -874.000; -647.000
268.913;  -69.300; -328.000; -476.000
269.054;    4.200; -117.000;   12.000
269.194;  -98.100; -418.000; -402.000
269.335; -321.300;-1137.000;-1074.000
269.476;  -12.400;   33.000;  -35.000
269.617;  -71.700; -347.000; -392.000
269.757; -177.300; -713.000; -646.000
269.898; -212.400; -856.000; -613.000
270.039; -112.800; -415.000; -405.000
270.180; -262.600; -952.000; -816.000
270.320;  -30.700; -190.000; -250.000
270.461;  -98.600; -277.000; -249.000
270.602;   31.500; -186.000; -156.000
270.742; -254.400; -868.000; -943.000
270.883; -115.900; -442.000; -390.000
271.023; -105.900; -358.000; -357.000
271.164; -102.200; -607.000; -528.000
271.305; -234.700; -666.000; -654.000
271.445; -164.400; -722.000; -683.000
271.586; -145.100; -462.000; -283.000
271.726;  -99.300; -397.000; -322.000
271.867; -104.000; -594.000; -534.000
272.008;  327.800; -473.000; -285.000
272.148;  264.600;  462.000;  468.000
272.289;    7.700; -113.000; -181.000
272.429;   27.400;   19.000;  185.000
272.570; -176.500; -633.000; -737.000
272.710; -209.800; -825.000; -775.000
272.851;   -9.700;  113.000; -130.000
272.991; -318.800;-1173.000;-1077.000
273.131;  -95.800; -419.000; -459.000
273.272; -167.500; -683.000; -723.000
273.412;   31.800; -143.000;  -31.000
273.553;  -73.400; -488.000; -507.000
273.693;  335.200;  913.000;  858.000
273.834; -183.300; -894.000; -692.000
273.974; -109.400; -664.000; -615.000
274.114; -177.800; -772.000; -560.000
274.255;  153.700;  414.000;  373.000
274.395;   -3.800; -180.000; -125.000
274.535;  104.200;  199.000;  350.000
274.676;   78.300;  225.000;   94.000
274.816;   46.700;  110.000;   34.000
274.956; -154.000; -624.000; -690.000
275.097; -147.800;-1014.000; -922.000
275.237; -216.500; -913.000; -803.000
275.377; -191.000; -778.000; -689.000
275.517; -286.600; -878.000; -937.000
275.658;  -88.000; -590.000; -555.000
275.798; -130.300; -606.000; -413.000
275.938;   68.200;  215.000;  323.000
276.078; -137.100; -626.000; -395.000
276.218;   55.300;   99.000;  104.000
276.359; -289.800;-1026.000;-1024.000
276.499; -143.300; -605.000; -446.000
276.639;  -46.800; -305.000; -151.000
276.779;  -93.400; -475.000; -357.000
276.919; -169.300; -783.000; -624.000
277.059;  -15.300; -261.000; -212.000
277.199;  -73.200; -357.000; -259.000
277.340;  126.100;  287.000;  175.000
277.480; -212.400; -840.000; -693.000
277.620;   87.900;  192.000;   16.000
277.760; -401.400;-1533.000;-1294.000
277.900;   76.600;  113.000;   33.000
278.040;   69.400;  137.000;  159.000
278.180;   79.000;  270.000;  170.000
278.320;    8.000;   21.000;   56.000
278.460; -122.300; -443.000; -469.000
278.600; -183.200; -708.000; -598.000
278.740;  174.800;  448.000;  224.000
278.880;  -86.900; -768.000; -791.000
279.020;   50.500; -194.000; -144.000
279.160; -145.900; -672.000; -595.000
279.300; -236.900; -926.000; -873.000
279.440; -150.800; -709.000; -622.000
279.579;  -61.300;-1014.000; -929.000
279.719;  -57.700; -410.000; -394.000
279.859;  155.300;   -4.000;   41.000
279.999;   62.200; -208.000;  101.000
280.139;  -46.400; -435.000; -387.000
280.279; -147.400; -708.000; -745.000
280.419;    3.900; -229.000; -147.000
280.559;  -51.700; -259.000; -180.000
280.698; -177.800; -790.000; -639.000
280.838; -165.100; -778.000; -800.000
280.978; -197.500; -846.000; -790.000
281.118; -205.900; -811.000; -704.000
281.257;   58.300;   24.000;    6.000
281.397; -198.600;-1094.000; -960.000
281.537; -142.800; -599.000; -712.000
281.677;  -31.000; -150.000; -101.000
281.816; -151.300; -700.000; -630.000
281.956;  -47.800; -193.000; -257.000
282.096; -109.800; -539.000; -396.000
282.235; -190.900; -672.000; -638.000
282.375;   17.500; -243.000;  -98.000
282.515; -172.500; -715.000; -707.000
282.654;  109.700;   29.000;  106.000
282.794;  102.000;  388.000;  244.000
282.934;  -63.400; -530.000; -491.000
283.073; -246.300;-1030.000; -857.000
283.213;  -71.000; -460.000; -467.000
283.353;  -48.700; -408.000; -349.000
283.492;  -24.000; -264.000; -296.000
283.632;  -59.900; -254.000; -168.000
283.771; -184.700; -859.000; -730.000
283.911;  -82.600; -369.000; -260.000
284.050; -201.900; -794.000; -748.000
284.190; -286.900;-1229.000;-1096.000
284.329; -233.900;-1055.000; -964.000
284.469; -110.900; -516.000; -591.000
284.608;  -94.600; -559.000; -598.000
284.748; -134.500; -614.000; -570.000
284.887;   33.000;  -87.000;  -20.000
285.027; -232.200; -844.000; -892.000
285.166;  -23.300; -192.000; -249.000
285.306;   43.000; -116.000;  -33.000
285.445;  -46.000; -229.000; -343.000
285.584; -161.900; -630.000; -494.000
285.724;  -54.300; -282.000; -322.000
285.863; -210.300; -857.000; -507.000
286.002;  -60.000; -366.000; -276.000
286.142; -177.400; -715.000; -622.000
286.281;  -94.300; -525.000; -493.000
286.420; -120.100; -554.000; -417.000
286.560;  252.400;  653.000;  623.000
286.699; -241.100; -958.000; -912.000
286.838; -114.500; -590.000; -591.000
286.978; -161.000; -533.000; -537.000
287.117; -253.100;-1085.000; -950.000
287.256;  -41.000; -228.000; -211.000
287.395;  -76.000; -197.000; -378.000
287.535;  -87.400; -370.000; -298.000
287.674; -135.000; -509.000; -484.000
287.813;  167.000;  661.000;  533.000
287.952; -235.800;-1010.000; -871.000
288.091; -280.800;-1049.000; -915.000
288.231;   56.500;   13.000;   15.000
288.370; -316.400;-1217.000;-1200.000
288.509; -171.300; -728.000; -645.000
288.648; -164.800; -770.000; -548.000
288.787;    2.000; -243.000;  -87.000
288.926;  -69.500; -454.000; -475.000
289.065;  298.000;  859.000;  672.000
289.204;  -56.300; -377.000; -217.000
289.344; -138.700; -791.000; -690.000
289.483;   75.700;  416.000;  304.000
289.622;  -25.700; -291.000; -149.000
289.761;    6.200; -309.000; -166.000
289.900; -180.500; -785.000; -626.000
290.039;   -8.600;  -12.000;  -95.000
290.178;  -40.700; -274.000; -180.000
290.317; -139.900; -618.000; -479.000
290.456; -115.900; -463.000; -451.000
290.595; -272.300; -961.000; -833.000
290.734; -254.700; -904.000; -891.000
290.873; -123.400; -456.000; -420.000
291.011; -180.900; -833.000; -843.000
291.150; -188.800; -770.000; -682.000
291.289;  -41.000; -343.000; -110.000
291.428; -172.800; -599.000; -480.000
291.567;  -79.600; -370.000; -442.000
291.706;   38.100;  109.000;  154.000
291.845; -119.300; -597.000; -505.000
291.984; -313.600;-1234.000;-1061.000
292.122;  217.100;  602.000;  582.000
292.261;  126.700;  620.000;  463.000
292.400;   64.500; -144.000;  211.000
292.539; -231.700; -959.000; -813.000
292.678;  -37.700; -325.000; -300.000
292.816; -290.900;-1136.000; -965.000
292.955; -162.100; -844.000; -684.000
293.094;   -7.100; -173.000; -337.000
293.233;  -58.000; -556.000; -400.000
293.371;  -44.000; -225.000;  -84.000
293.510; -200.200; -866.000; -780.000
293.649; -242.400; -959.000; -924.000
293.787;  -95.500;-1083.000;-1012.000
293.926;   37.500; -113.000;  -32.000
294.065;  -51.500; -379.000; -290.000
294.203;  103.100;  298.000;  406.000
294.342;   82.500;   74.000;  156.000
294.481;11542.100;51180.000; -836.000
294.619;  -23.700; -425.000; -582.000
294.758; -274.700;-1230.000;-1137.000
294.896;  191.400; -125.000;    5.000
295.035; -231.000;-1040.000;-1006.000
295.174; -197.500;-1082.000; -954.000
295.312;  -26.400; -323.000; -203.000
295.451;    2.000; -307.000; -428.000
295.589;  -78.000; -389.000; -518.000
295.728;   69.100; -292.000; -165.000
295.866;   66.400;  -36.000;  -51.000
296.005; -102.700; -584.000; -341.000
296.143; -101.800; -558.000; -596.000
296.282; -164.200; -957.000; -881.000
296.420; -136.500; -657.000; -557.000
296.559; -161.600; -892.000; -633.000
296.697;   69.800; -847.000; -665.000
296.835;  169.800;-1141.000;-1002.000
296.974;  132.100;  -23.000;   39.000
297.112;   47.800; -443.000; -504.000
297.251; -113.600; -815.000; -755.000
297.389;  190.500; -576.000; -438.000
297.527;  131.000; -145.000;  -83.000
297.666;  -53.900; -486.000; -438.000
297.804;  -66.600; -404.000; -264.000
297.942;   22.400; -136.000; -161.000
298.081;   73.500; -183.000;   63.000
298.219;  148.500;  -17.000;  -19.000
298.357;  125.400; -144.000;  -71.000
298.495;   93.100; -810.000; -812.000
298.634;  182.500;  245.000;  219.000
298.772;  137.200; -220.000; -338.000
298.910;  -52.000; -309.000; -182.000
299.048;    3.400; -130.000; -153.000
299.187;  -36.500; -350.000; -250.000
299.325;   68.300;   52.000;  122.000
299.463;  143.400; -389.000; -299.000
299.601;  226.500; -327.000; -271.000
299.739; -190.600; -908.000; -883.000
299.877; -122.600; -791.000; -703.000
300.016; -105.500;-1095.000; -935.000
300.154;  391.700;  -19.000; -161.000
300.292;  151.800; -428.000; -348.000
300.430;  152.100; -408.000; -291.000
300.568; -206.000; -940.000; -874.000
300.706;  -84.600; -366.000; -469.000
300.844; -132.300;-1108.000; -979.000
300.982;  290.500;  246.000;  282.000
301.120; -221.600; -965.000; -866.000
301.258; -110.600; -812.000; -705.000
301.396;  113.200;  104.000;  -41.000
301.534;  187.500; -218.000; -293.000
301.672;   56.200; -664.000; -521.000
301.810;  141.700; -613.000; -545.000
301.948;  314.100;   53.000;  149.000
302.086; 1124.600; -250.000;  -32.000
302.224; 1931.100; -610.000; -585.000
302.362;  111.400; -558.000; -622.000
302.500;  -15.600; -923.000; -893.000
302.638;  244.100;  128.000;  245.000
302.776;   62.100; -352.000; -408.000
302.913;  143.300;  447.000;  236.000
303.051;   43.000;  -86.000;  -23.000
303.189;  152.000;   90.000;  118.000
303.327;  -41.200; -341.000; -256.000
303.465; -122.100; -832.000; -588.000
303.603; -158.500; -805.000; -604.000
303.740;  229.900;  417.000;  241.000
303.878;   41.400; -800.000; -759.000
304.016; -164.600; -915.000; -790.000
304.154; -246.200;-1123.000;-1152.000
304.291;  -33.600; -505.000; -554.000
304.429;   58.500;  102.000;   74.000
304.567; -224.000; -908.000; -893.000
304.705;  -44.000; -408.000; -515.000
304.842;  226.200; -616.000; -540.000
304.980;  152.200;  215.000;   35.000
305.118;  127.900; -367.000; -365.000
305.255; -134.000; -945.000; -927.000
305.393;  162.800;  178.000;  239.000
305.531; -192.600;-1173.000; -956.000
305.668; -106.900; -663.000; -582.000
305.806;  193.300; -358.000; -439.000
305.943;  225.400; -629.000; -637.000
306.081;  131.900; -378.000; -267.000
306.219; -161.200; -863.000; -748.000
306.356;   76.500;  158.000;   27.000
306.494;  301.600;  981.000;  761.000
306.631;   59.500;  -11.000;  -55.000
306.769;   67.600; -613.000; -485.000
306.906;   49.100; -284.000; -258.000
307.044;  -94.800; -473.000; -488.000
307.181;  -81.100; -410.000; -332.000
307.319;   64.700;  112.000;   87.000
307.456; -301.300;-1191.000;-1153.000
307.594; -152.900; -980.000; -727.000
307.731;   12.400; -371.000; -164.000
307.868;   22.200;  -15.000;   20.000
308.006; -268.000; -961.000; -847.000
308.143;  -96.200; -618.000; -330.000
308.281;  448.200;  -37.000; -254.000
308.418;   37.700; -748.000; -640.000
308.555; -117.900; -400.000; -250.000
308.693;  -91.200; -577.000; -573.000
308.830; -170.900; -712.000; -657.000
308.967;   41.300; -215.000;  -95.000
309.105;    6.600; -507.000; -396.000
309.242;  163.600; -468.000; -367.000
309.379;  880.500; -577.000; -655.000
309.517;  -14.200; -936.000; -948.000
309.654; -145.700; -910.000; -734.000
309.791;  -95.200; -662.000; -580.000
309.928; -179.300; -977.000; -914.000
310.065;  427.000;  819.000;  697.000
310.203;   18.700; -825.000; -850.000
310.340;   73.500; -465.000; -321.000
310.477;  -95.900; -412.000; -516.000
310.614;  -83.300; -383.000; -473.000
310.751; -102.100; -427.000; -518.000
310.889;   12.800;    1.000;   11.000
311.026; -271.300;-1161.000; -939.000
311.163;  -21.500; -386.000; -380.000
311.300; -110.000; -512.000; -479.000
311.437; -112.800; -658.000; -619.000
311.574; -284.100;-1226.000; -985.000
311.711;  -52.700; -595.000; -433.000
311.848;    8.400; -380.000; -388.000
311.985;   66.100;  270.000;   93.000
312.122; -215.600; -932.000; -762.000
312.259; -190.400; -941.000; -994.000
312.396; -135.000; -508.000; -551.000
312.533; -118.700; -812.000; -790.000
312.670; -210.500;-1070.000; -898.000
312.807;  -15.400; -352.000; -367.000
312.944; -110.300; -513.000; -611.000
313.081;    5.400; -150.000; -415.000
313.218; -168.300;-1111.000; -867.000
313.355;   88.500; -531.000; -449.000
313.492;   70.100; -455.000; -292.000
313.629;  347.100;  815.000;  735.000
313.766; -244.400;-1176.000;-1008.000
313.902;   61.200; -186.000;   21.000
314.039;  -40.200; -372.000; -289.000
314.176;  153.100;  286.000;  192.000
314.313; -123.200; -569.000; -473.000
314.450;  -93.200; -788.000; -684.000
314.587;  -76.600; -468.000; -480.000
314.723;   58.800;  -78.000;  130.000
314.860;  108.000;  318.000;  332.000
314.997;  115.900;  223.000;  142.000
315.134;  -39.300; -385.000; -368.000
315.270;  -21.500; -480.000; -496.000
315.407; -217.500;-1094.000; -967.000
315.544;  -26.200; -657.000; -538.000
315.681;  -55.300; -681.000; -565.000
315.817;  123.100; -133.000; -176.000
315.954;   81.200; -613.000; -392.000
316.091; -205.600;-1045.000;-1023.000
316.227;   41.300;  -71.000; -179.000
316.364;   29.300;   23.000;    6.000
316.500;  -34.900; -113.000; -300.000
316.637;  -16.900; -181.000; -302.000
316.774; -137.500; -625.000; -358.000
316.910; -156.000; -598.000; -629.000
317.047;  -99.500; -487.000; -351.000
317.183;  -70.600; -435.000; -566.000
317.320;  -36.400; -367.000; -321.000
317.456; -121.500; -733.000; -805.000
317.593; -130.500; -598.000; -641.000
317.729;   43.700;  168.000;  -67.000
317.866; -370.800;-1434.000;-1285.000
318.002; -164.800; -708.000; -948.000
318.139; -174.700; -883.000; -867.000
318.275; -166.600;-1003.000; -738.000
318.412; -101.600; -517.000; -336.000
318.548;  -11.200; -751.000; -720.000
318.685; -137.000; -985.000; -888.000
318.821; -144.100; -762.000; -735.000
318.957;   -5.800;   34.000;  -23.000
319.094;  117.600;  297.000;  154.000
319.230; -106.000; -756.000; -742.000
319.367;  305.800; -471.000; -520.000
319.503;  126.300; -538.000; -436.000
319.639; -150.100; -877.000; -793.000
319.775;  -99.000; -750.000; -685.000
319.912;  -64.600; -424.000; -519.000
320.048; -173.000;-1184.000;-1184.000
320.184;  196.000;   59.000;   70.000
320.321;  -83.000; -497.000; -467.000
320.457;  214.100;  475.000;  662.000
320.593;  -93.700; -375.000; -382.000
320.729; -191.200; -732.000; -734.000
320.866; -115.700; -577.000; -635.000
321.002; -115.400; -759.000; -809.000
321.138;    3.000; -135.000; -211.000
321.274;  182.700; -148.000; -115.000
321.410;   -2.600; -585.000; -353.000
321.546;  -41.000;-1011.000; -911.000
321.683;  169.800;  400.000;  185.000
321.819;   63.600;  -48.000; -117.000
321.955; -195.800; -743.000; -722.000
322.091;  -36.100; -585.000; -540.000
322.227;   50.300; -382.000; -202.000
322.363;    3.100; -320.000; -215.000
322.499;  -48.900; -343.000; -331.000
322.635;  347.400;  636.000;  443.000
322.771;  130.000; -139.000;   12.000
322.907;  219.800;  129.000;  327.000
323.043;   -8.900; -115.000; -206.000
323.179;  -43.300; -394.000; -363.000
323.315;  108.400; -401.000; -371.000
323.451;  281.800; -328.000; -236.000
323.587;  150.900;  -60.000;  -77.000
323.723;   46.500; -682.000; -601.000
323.859;    8.800; -258.000;  -76.000
323.995;  -48.400; -467.000; -409.000
324.131; -208.200; -967.000; -892.000
324.267;   -6.500; -254.000; -276.000
324.402; -204.600; -960.000; -983.000
324.538;   -1.700; -279.000; -104.000
324.674;  118.900;  164.000;   77.000
324.810;  402.700;  226.000;  308.000
324.946;   66.400; -810.000; -658.000
325.082; -120.600; -568.000; -475.000
325.217;   14.500;  -62.000;   16.000
325.353; -158.200; -764.000; -659.000
325.489; -127.000; -540.000; -506.000
325.625; -118.400; -579.000; -525.000
325.760;  151.100;  517.000;  376.000
325.896;  -37.400; -515.000; -702.000
326.032;  -74.300; -403.000; -352.000
326.168;  -79.000; -462.000; -369.000
326.303;  -71.000; -352.000; -461.000
326.439;    3.000; -336.000; -276.000
326.575;   49.800; -190.000;  -29.000
326.710;   42.000; -156.000;  -30.000
326.846;    0.800;  146.000;  103.000
326.982; -146.000; -530.000; -548.000
327.117; -103.500; -481.000; -442.000
327.253; -141.400; -745.000; -742.000
327.388; -213.800;-1137.000;-1153.000
327.524;  -24.000; -811.000; -578.000
327.659;   15.400;  -58.000;  -22.000
327.795;   31.600;   69.000;   45.000
327.931; -135.500; -723.000; -499.000
328.066;    0.400; -417.000; -276.000
328.202;   22.400;   12.000; -129.000
328.337;  252.300;  957.000;  713.000
328.473;   -9.800;  -12.000;  -74.000
328.608;  -34.800; -256.000; -267.000
328.743; -122.100; -799.000; -664.000
328.879;   86.300;  214.000;  114.000
329.014;  -83.500; -102.000; -122.000
329.150; -105.200; -358.000; -483.000
329.285; -106.000; -465.000; -466.000
329.421;  -54.400; -548.000; -246.000
329.556;   39.200;  -36.000;   85.000
329.691; -151.700; -633.000; -615.000
329.827; -141.400; -626.000; -480.000
329.962;  -54.500;  131.000; -301.000
330.097; -119.100; -673.000; -585.000
330.233;  -62.500; -410.000; -223.000
330.368; -225.400; -839.000; -628.000
330.503;   23.200;    3.000;   98.000
330.638;   77.800;  -93.000; -125.000
330.774;  -70.100; -609.000; -530.000
330.909;  -24.300; -434.000; -244.000
331.044; -148.300; -714.000; -708.000
331.179; -300.400;-1217.000;-1109.000
331.315;   60.100;   77.000;   20.000
331.450;   96.200;  157.000;  285.000
331.585; -125.500; -805.000; -706.000
331.720; -127.800; -510.000; -460.000
331.855;   26.200;  -35.000; -102.000
331.990;  395.700;   62.000;  138.000
332.126;  269.400; -110.000;   71.000
332.261;    0.700; -379.000; -265.000
332.396;   22.600; -135.000; -242.000
332.531; -205.800;-1074.000;-1031.000
332.666;   83.800; -519.000; -363.000
332.801; -157.400; -726.000; -807.000
332.936;   14.800; -192.000; -122.000
333.071; -263.400; -870.000; -817.000
333.206;   84.400;  307.000;  379.000
333.341;  135.900;  344.000;  418.000
333.476; -132.200; -627.000; -623.000
333.611;  -41.100; -251.000; -173.000
333.746;  -65.000; -381.000; -464.000
333.881; -221.500; -973.000; -935.000
334.016; -211.400; -936.000; -917.000
334.151; -233.700; -746.000; -702.000
334.286;  130.900;  152.000;  186.000
334.421;   -6.300; -125.000; -178.000
334.556; -107.600; -611.000; -567.000
334.690; -107.100; -631.000; -577.000
334.825;  216.500;  381.000;   83.000
334.960;  -55.400; -285.000; -413.000
335.095;   96.700;  135.000;  -91.000
335.230; -153.300; -722.000; -738.000
335.365; -236.600;-1084.000; -990.000
335.499; -220.200;-1108.000;-1037.000
335.634;  126.200;    9.000;  534.000
335.769; -162.000; -755.000; -720.000
335.904;  -43.500; -603.000; -561.000
336.038;  -55.400; -735.000; -657.000
336.173; -162.500;-1206.000;-1194.000
336.308;   91.300; -116.000; -189.000
336.443;   68.700; -544.000; -634.000
336.577; -102.500; -936.000; -787.000
336.712;  178.800;   -4.000;  -12.000
336.847;   -6.900; -724.000; -607.000
336.981;  184.200; -272.000; -208.000
337.116;  638.700;  615.000;  501.000
337.250;  401.700; -434.000; -421.000
337.385;  402.900; -297.000; -208.000
337.520;  102.000; -632.000; -603.000
337.654;  -52.800; -215.000; -126.000
337.789; -206.500; -989.000; -933.000
337.923;  -29.600; -104.000; -205.000
338.058; -156.500; -673.000; -738.000
338.192;  -52.000; -611.000; -488.000
338.327;   59.700;  -18.000; -155.000
338.461;  -68.300; -299.000; -469.000
338.596; -138.600; -780.000; -638.000
338.730; -203.800; -767.000; -803.000
338.865;  191.800;  -46.000; -140.000
338.999;  -75.600; -846.000; -702.000
339.134;  -57.400; -634.000; -536.000
339.268;   14.000; -741.000; -603.000
339.403;  608.800; -740.000; -775.000
339.537;  165.000; -894.000; -820.000
339.671; -175.400; -829.000; -813.000
339.806;  -89.400; -556.000; -512.000
339.940;   69.800; -261.000; -235.000
340.074; -149.900; -685.000; -510.000
340.209;  -43.900; -351.000; -230.000
340.343; -157.300; -517.000; -573.000
340.477;  362.400;  998.000; 1036.000
340.612; -128.700;-1033.000; -900.000
340.746;  229.900; -199.000; -243.000
340.880; -105.200; -924.000; -785.000
341.014;    0.000;  -45.000; -154.000
341.149; -195.700; -756.000; -718.000
341.283; -170.400; -839.000; -754.000
341.417; -143.600;-1124.000; -938.000
341.551;  336.700; -768.000; -708.000
341.685;    3.700; -633.000; -611.000
341.820;  -74.800; -562.000; -493.000
341.954;  -73.600; -218.000; -349.000
342.088; -253.500;-1102.000;-1019.000
342.222;  132.400;  565.000;  618.000
342.356;  -73.900; -395.000; -335.000
342.490; -157.000; -880.000; -841.000
342.624;  -36.700; -339.000; -242.000
342.758;   36.800; -364.000; -312.000
342.892;  -76.900; -710.000; -585.000
343.026;  -38.300;  -58.000; -116.000
343.160;  -31.000; -426.000; -376.000
343.294; -122.300; -474.000; -337.000
343.428;   18.600; -488.000; -448.000
343.562;    1.800; -172.000;  -23.000
343.696;    1.300; -385.000; -314.000
343.830;   17.200; -362.000; -356.000
343.964;   88.800; -231.000; -168.000
344.098; 1878.200;  199.000;   70.000
344.232; 1618.300; -266.000; -127.000
344.366;  199.600; -567.000; -453.000
344.500;  168.100; -665.000; -744.000
344.634;  112.700; -324.000; -164.000
344.768;   39.100; -531.000; -341.000
344.902;   98.700;  278.000;  256.000
345.035; -102.100; -556.000; -496.000
345.169; -262.600; -933.000; -656.000
345.303;    7.200; -308.000; -482.000
345.437;  -94.100; -826.000; -717.000
345.571; -104.600; -675.000; -594.000
345.704;  -95.100; -309.000; -532.000
345.838;   -0.800; -331.000; -284.000
345.972;  -43.800; -543.000; -495.000
346.106;  307.100; -179.000; -190.000
346.239;  802.600; -312.000; -243.000
346.373;   66.200; -343.000; -302.000
346.507; -235.600; -950.000; -962.000
346.640;  367.300;  -30.000;   13.000
346.774;  -41.400; -650.000; -797.000
346.908;   26.700; -138.000;  -11.000
347.041; -106.100; -646.000; -593.000
347.175;   60.400;  259.000;   27.000
347.309; -103.000; -698.000; -628.000
347.442; -162.200; -883.000; -732.000
347.576;  630.600;  670.000;  668.000
347.709;  461.400; -123.000;  -52.000
347.843; -152.000; -933.000; -825.000
347.976;  146.100;  235.000;  294.000
348.110; -326.300;-1268.000;-1186.000
348.243; -173.000; -679.000; -772.000
348.377;   65.600;  -26.000;   60.000
348.510;  173.500;  403.000;  540.000
348.644;   -9.100;  -37.000; -159.000
348.777;   57.400;  180.000;  191.000
348.911;  -66.400; -142.000; -112.000
349.044;  414.700;  471.000;  448.000
349.178;  347.000;-1069.000;-1006.000
349.311;  259.700;  141.000;  255.000
349.444;  -11.100; -927.000; -813.000
349.578;   48.200; -347.000; -200.000
349.711; -176.000; -959.000; -862.000
349.845;   35.800; -661.000; -591.000
349.978; -259.200;-1224.000;-1137.000
350.111; -126.700; -546.000; -612.000
350.244;  -89.100; -596.000; -700.000
350.378;   94.600; -392.000; -393.000
350.511; -101.800; -393.000; -426.000
350.644; -172.100; -808.000; -806.000
350.778;   53.800;  168.000;  104.000
350.911;   80.000;  134.000;  140.000
351.044; -141.500; -685.000; -615.000
351.177;  -23.900; -321.000; -281.000
351.310;   21.700;    3.000; -131.000
351.444; -103.100; -888.000; -788.000
351.577;  319.700;  140.000;   90.000
351.710;  245.500;  593.000;  417.000
351.843;  -41.500; -165.000;  -77.000
351.976;   40.700;  149.000;  -79.000
352.109; -150.400; -621.000; -612.000
352.242;    0.800; -464.000; -419.000
352.376;  -53.600; -580.000; -636.000
352.509;  440.500; -437.000; -356.000
352.642;   70.500; -654.000; -604.000
352.775;  156.000; -141.000;  -98.000
352.908; -219.000; -933.000; -904.000
353.041; -173.600; -814.000; -824.000
353.174;  -63.500; -551.000; -424.000
353.307; -115.700; -753.000; -764.000
353.440;  179.500;  541.000;  453.000
353.573; -188.500; -957.000;-1008.000
353.706;   -2.000; -384.000; -558.000
353.839;   22.900; -264.000; -220.000
353.971; -148.000; -657.000; -512.000
354.104; -151.600; -896.000; -835.000
354.237;  -63.300; -627.000; -662.000
354.370; -122.300; -846.000; -879.000
354.503; -314.800;-1231.000;-1308.000
354.636;    4.300; -529.000; -348.000
354.769; -207.200; -937.000; -860.000
354.902;   39.300; -230.000; -139.000
355.034;   16.500; -164.000; -220.000
355.167;   32.000; -262.000; -162.000
355.300; -151.100;-1061.000; -880.000
355.433; 1693.000;  -71.000;  -14.000
355.565; 2609.500; -402.000; -384.000
355.698;  673.300; -356.000; -296.000
355.831;   16.500; -882.000; -801.000
355.964;  245.200; -285.000; -170.000
356.096; -121.700; -856.000; -843.000
356.229;   74.600; -523.000; -530.000
356.362;  561.900; -373.000; -266.000
356.494; 1056.100; -229.000; -162.000
356.627;  982.900;  269.000;  377.000
356.760; 1183.700;  120.000;   53.000
356.892; 1613.700; -286.000; -601.000
357.025; 1368.900;  403.000;  389.000
357.157; 1236.200; -167.000; -179.000
357.290;  996.600; -856.000; -713.000
357.423;  313.200; -667.000; -556.000
357.555;  253.900; -217.000; -228.000
357.688;  303.900; -483.000; -364.000
357.820;  829.200; -870.000; -877.000
357.953; 6725.000; -563.000; -589.000
358.085; 1561.100; -632.000; -612.000
358.218; 2646.800;-1131.000; -932.000
358.350;  519.600;  -58.000;  312.000
358.483; -204.500;-1300.000;-1187.000
358.615;   58.300;-1182.000;-1078.000
358.747;  -59.900;-1187.000;-1058.000
358.880;  103.800; -810.000; -744.000
359.012;   -0.200; -376.000; -202.000
359.145;  -26.200; -480.000; -511.000
359.277;  114.100; -962.000; -913.000
359.409; 5688.900;  536.000;  231.000
359.542; 1407.300; -738.000; -688.000
359.674;  199.500;   46.000;   13.000
359.806;  -70.400; -565.000; -438.000
359.939;  -53.100; -617.000; -516.000
360.071;  -19.300; -583.000; -579.000
360.203;    7.400; -411.000; -364.000
360.335;  174.900;  164.000;  -16.000
360.468;  373.600; -249.000; -307.000
360.600; 4468.900; -547.000; -454.000
360.732; 4385.100; -546.000; -423.000
360.864;  565.100;-1216.000;-1044.000
360.996;  629.100; -516.000; -554.000
361.129;  120.000; -389.000; -598.000
361.261;   58.900;  110.000; -113.000
361.393;  -35.600; -252.000; -214.000
361.525;  127.400;   94.000;  244.000
361.657;  -36.700; -821.000; -703.000
361.789;  103.600; -139.000; -155.000
361.921;  566.900; -642.000; -593.000
362.053;  599.800;  524.000;  541.000
362.185;  154.500;  288.000;   72.000
362.318;  -77.600; -709.000; -705.000
362.450;  353.700;  294.000;  444.000
362.582;  405.100; -913.000; -870.000
362.714;  -18.300; -353.000; -332.000
362.846; -117.900; -606.000; -490.000
362.978; -236.400; -941.000; -811.000
363.109;  118.300; -161.000; -260.000
363.241;  932.000; -739.000; -749.000
363.373;  790.600; -649.000; -564.000
363.505; 1101.500; -186.000;  -91.000
363.637;  279.900; -787.000; -601.000
363.769; -235.100;-1067.000;-1080.000
363.901;  -93.300; -596.000; -654.000
364.033; -229.100;-1103.000;-1062.000
364.165;   80.300; -283.000; -283.000
364.296;  181.700; -316.000; -177.000
364.428;   98.100;-1344.000;-1220.000
364.560; -108.200; -679.000; -661.000
364.692;  -97.500; -738.000; -835.000
364.824;  631.700; -588.000; -456.000
364.955;  813.000; -402.000; -564.000
365.087; 1335.900;-1097.000; -852.000
365.219;   26.200; -686.000; -816.000
365.351;  -92.500; -526.000; -572.000
365.482;  163.900;  300.000;  240.000
365.614;  -21.300; -402.000; -314.000
365.746; -149.700; -729.000; -752.000
365.877; -179.700; -706.000; -672.000
366.009;  469.500;  -35.000;  -62.000
366.141; -189.700;-1249.000;-1134.000
366.272; -157.300; -803.000; -719.000
366.404; -174.400;-1005.000; -874.000
366.535;   20.000; -139.000;  -12.000
366.667; -148.500; -644.000; -649.000
366.799;  134.700;  353.000;  203.000
366.930; -211.200; -862.000; -996.000
367.062;  235.100; -639.000; -613.000
367.193;  254.400; -872.000; -842.000
367.325;  -73.900; -580.000; -684.000
367.456;  202.300; -246.000;   31.000
367.588;  270.900; -371.000; -318.000
367.719;   99.000;  -44.000;  -45.000
367.851;   17.300; -222.000; -241.000
367.982;  -89.800; -875.000; -732.000
368.113;  253.600; -475.000; -358.000
368.245; -190.500; -960.000; -841.000
368.376;   27.500; -254.000; -302.000
368.508;    2.700; -188.000; -263.000
368.639; -236.700;-1166.000;-1034.000
368.770;   28.000; -670.000; -589.000
368.902;  -83.900; -836.000; -926.000
369.033; -171.000; -906.000; -855.000
369.164;  -60.300; -720.000; -653.000
369.296; -166.900; -452.000; -601.000
369.427;   33.400; -209.000; -144.000
369.558;  -56.000; -593.000; -377.000
369.689; -113.600; -721.000; -569.000
369.821; -222.800; -951.000; -845.000
369.952;   -7.700;   42.000; -108.000
370.083;  -46.700; -229.000; -108.000
370.214; -114.400; -735.000; -650.000
370.345;   22.400;   65.000;   81.000
370.477; -140.200; -810.000; -790.000
370.608;  512.100; -328.000; -264.000
370.739;  -30.900;-1233.000;-1292.000
370.870;  -49.700;-1102.000; -923.000
371.001;  240.100; -378.000; -467.000
371.132;  -87.400; -754.000; -735.000
371.263;    8.600;  -42.000; -148.000
371.394; -249.500; -841.000; -748.000
371.525;  127.700;  345.000;  225.000
371.657; -134.500; -808.000; -670.000
371.788;  208.900;  103.000;  199.000
371.919;  401.100; -384.000; -304.000
372.050; 7258.400;  -91.000; -156.000
372.181; 2093.000; -188.000; -294.000
372.311;  805.900;   42.000; -127.000
372.442;  158.500; -457.000; -451.000
372.573;   47.200; -444.000; -340.000
372.704; -206.600;-1008.000; -980.000
372.835;  225.000; -228.000; -289.000
372.966;  -45.100; -646.000; -554.000
373.097;  -81.500; -575.000; -711.000
373.228;  -31.500; -717.000; -542.000
373.359;  333.200; -824.000; -536.000
373.490; 1997.900; -881.000; -727.000
373.620; 2375.600;-1001.000; -803.000
373.751; 3743.300; -332.000; -396.000
373.882; 1621.500; -663.000; -733.000
374.013;  186.700; -449.000; -262.000
374.143;  -13.200; -581.000; -659.000
374.274; -150.800; -987.000; -908.000
374.405;  433.800; -388.000; -276.000
374.536;  933.500; -526.000; -387.000
374.666; 2340.700; -759.000; -807.000
374.797;  514.200; -817.000; -868.000
374.928; 1879.000; -710.000; -560.000
375.058; 1862.300; -535.000; -500.000
375.189;  226.300;  -59.000;  -93.000
375.320; -213.700; -928.000;-1034.000
375.450;  -25.300; -625.000; -616.000
375.581;  -28.900; -526.000; -436.000
375.712;    4.400; -574.000; -250.000
375.842;  722.500; -438.000; -415.000
375.973;  503.000; -554.000; -513.000
376.103;   -8.500; -665.000; -648.000
376.234;  -96.600; -531.000; -552.000
376.364;  -22.600; -944.000; -867.000
376.495;  749.200;  925.000;  529.000
376.625;   71.500; -472.000; -485.000
376.756;  211.700; -709.000; -678.000
376.886;  -91.700;-1178.000;-1026.000
377.017;   87.200;-1048.000;-1061.000
377.147;  520.100; -786.000; -782.000
377.278;  188.200;  174.000;  228.000
377.408; -194.100; -801.000; -815.000
377.538; -171.800; -707.000; -693.000
377.669; -112.200; -537.000; -613.000
377.799; -103.800; -645.000; -635.000
377.929;  -27.600; -610.000; -428.000
378.060; -222.000; -781.000; -847.000
378.190;  -62.900; -726.000; -531.000
378.320;  -35.500; -401.000; -406.000
378.451;   18.600; -131.000;  -22.000
378.581;   53.000;  -67.000; -110.000
378.711;  407.400; 1035.000;  866.000
378.841;   39.800; -533.000; -675.000
378.972;  -96.100; -871.000; -751.000
379.102;   61.400; -652.000; -579.000
379.232;    7.000; -126.000;  -73.000
379.362; -163.400;-1001.000; -885.000
379.492;   75.300; -373.000; -424.000
379.623;  314.800;    0.000;  111.000
379.753; -160.900;-1107.000; -974.000
379.883;  431.000;   59.000;  156.000
380.013;   59.800;-1081.000;-1017.000
380.143; -122.200;-1097.000;-1056.000
380.273; -152.100; -985.000; -861.000
380.403;   68.400; -344.000; -257.000
380.533;  -16.400; -651.000; -664.000
380.663;  207.000;  173.000;  128.000
380.793; -128.800;-1027.000;-1074.000
380.923;   36.100; -103.000;  -34.000
381.053; -100.700; -613.000; -623.000
381.183;   18.600; -106.000; -248.000
381.313;  133.600; -656.000; -470.000
381.443;  169.600; -692.000; -473.000
381.573;  514.300; -402.000; -409.000
381.703;  716.500;-1249.000;-1095.000
381.833; -165.100;-1454.000;-1336.000
381.963;  269.900; -134.000;  -87.000
382.093; 2768.400; -925.000; -909.000
382.223;  836.800; -713.000; -602.000
382.353;   62.700; -801.000; -608.000
382.482;  877.500;-1091.000; -964.000
382.612; 1557.500; -872.000; -644.000
382.742;  896.000; -695.000; -622.000
382.872;  632.200; -565.000; -551.000
383.002;  244.400;  347.000; -132.000
383.131;   35.900; -226.000; -160.000
383.261;   -6.500; -706.000; -768.000
383.391;  549.400; -552.000; -377.000
383.521; 5174.600;  451.000;  263.000
383.650; 1064.200; -947.000; -904.000
383.780;   -9.800; -783.000; -656.000
383.910;  308.700;  880.000;  802.000
384.039;  112.300; -794.000; -656.000
384.169;  498.700;-1205.000;-1017.000
384.299;   44.800; -650.000; -662.000
384.428;  -83.100; -764.000; -680.000
384.558;    4.400; -308.000; -275.000
384.687;  -13.300; -414.000; -334.000
384.817;  134.500;   75.000;   -2.000
384.947;  139.100; -234.000; -141.000
385.076;  721.000;  982.000;  912.000
385.206;  297.800;  369.000;  480.000
385.335;   43.400; -549.000; -417.000
385.465;  -82.900; -655.000; -663.000
385.594;  381.000;  -53.000;  -44.000
385.724;  965.900; -868.000; -838.000
385.853;  336.400; -296.000; -270.000
385.982; 2937.700; -743.000; -787.000
386.112; 4318.400;-1052.000; -871.000
386.241;  389.000; -307.000; -312.000
386.371;  124.400; -174.000;  -87.000
386.500;   79.500; -825.000; -789.000
386.629;  120.300; -874.000; -817.000
386.759;  194.100;  -43.000;   68.000
386.888;  131.600; -170.000; -250.000
387.017;  -33.300; -648.000; -620.000
387.147;  -35.600; -771.000; -798.000
387.276;   84.800; -410.000; -397.000
387.405;  120.600; -398.000; -342.000
387.535;    0.100; -452.000; -361.000
387.664;  -62.300; -692.000; -620.000
387.793;  226.500; -198.000; -113.000
387.922; 1196.000;  255.000;  200.000
388.052;  182.300; -576.000; -423.000
388.181;  130.400; -342.000; -472.000
388.310;  223.100; -889.000; -710.000
388.439;   60.100; -749.000; -742.000
388.568;  479.100;  365.000;  244.000
388.697; 2238.600; -756.000; -653.000
388.826;  457.500; -768.000; -666.000
388.956;  182.600; -285.000; -307.000
389.085;   32.400; -347.000; -287.000
389.214; -157.200; -842.000; -872.000
389.343;  -83.900; -645.000; -413.000
389.472;  771.800;  126.000;  149.000
389.601;  957.300;   91.000;    0.000
389.730;   61.600; -568.000; -687.000
389.859;  221.800;  226.000;   46.000
389.988;  527.200; -423.000; -408.000
390.117;  338.000; -168.000; -146.000
390.246;   85.000; -331.000; -320.000
390.375;  288.500; -673.000; -626.000
390.504;  -44.400; -703.000; -621.000
390.633; -119.700; -672.000; -726.000
390.761;  -55.200; -732.000; -645.000
390.890;  108.800;   -4.000; -130.000
391.019;   15.200; -421.000; -441.000
391.148; -165.300; -826.000; -855.000
391.277;  -35.500; -576.000; -493.000
391.406;  -48.100; -821.000; -805.000
391.534;  134.600;  574.000; -301.000
391.663;  -68.400; -583.000; -645.000
391.792; -100.000; -673.000; -701.000
391.921;  321.400;   -3.000;   15.000
392.050;  527.400; -287.000; -228.000
392.178;  -23.300;-1206.000;-1061.000
392.307;  350.300; -758.000; -712.000
392.436;  194.500; -427.000; -641.000
392.564;  111.600;  166.000;   -6.000
392.693; -114.200; -860.000; -682.000
392.822;  547.200; -529.000; -534.000
392.950;  260.200; -880.000; -714.000
393.079;  733.700; -188.000; -328.000
393.208;   97.300; -488.000; -511.000
393.336;   20.700; -170.000; -145.000
393.465;  -14.500; -317.000; -199.000
393.593;   98.800;   62.000;   79.000
393.722; -258.800;-1121.000; -916.000
393.850;   21.400; -188.000;  -61.000
393.979; -245.700; -926.000; -805.000
394.107;  -62.800; -517.000; -537.000
394.236;    2.300; -570.000; -507.000
394.364;  607.400;  383.000;  206.000
394.493;  959.500; -911.000; -767.000
394.621;   59.400; -955.000; -916.000
394.750; 1238.800; -873.000; -923.000
394.878; 5228.500; -247.000; -149.000
395.007; 6548.900; -721.000; -807.000
395.135;  487.000; -790.000; -721.000
395.263; -161.500;-1038.000;-1040.000
395.392;   94.000;  -25.000; -107.000
395.520; -238.100; -818.000; -679.000
395.648; -107.200; -865.000; -915.000
395.777;   40.200; -366.000; -405.000
395.905;  -23.800; -449.000; -564.000
396.033;  119.500;  217.000;  172.000
396.162; 1595.800; -399.000; -453.000
396.290; 1287.400;  -17.000;   -2.000
396.418;  282.000; -555.000; -514.000
396.546; -127.500; -571.000; -466.000
396.674; -142.800; -850.000; -878.000
396.803;   69.500;  -72.000;  -23.000
396.931;  325.100; -179.000; -199.000
397.059;  176.300;-1026.000; -989.000
397.187; -201.600;-1026.000; -975.000
397.315; -222.100; -884.000; -649.000
397.443; -152.200; -592.000; -443.000
397.572; -159.400; -578.000; -424.000
397.700;   38.700; -607.000; -614.000
397.828;   88.100;  120.000;  -90.000
397.956;  -53.300; -508.000; -478.000
398.084; -103.800; -767.000; -626.000
398.212;  129.600;  137.000;  124.000
398.340;  117.300;  -56.000;  159.000
398.468;  165.200; -390.000; -169.000
398.596; -206.200; -993.000; -953.000
398.724; -191.600; -762.000; -767.000
398.852; -256.100;-1024.000; -976.000
398.980;  -68.100; -560.000; -560.000
399.108;  -30.600; -982.000; -735.000
399.236;  175.000;   13.000;    8.000
399.363;   81.100;  222.000;  196.000
399.491;  -76.500; -404.000; -398.000
399.619; -190.700; -829.000; -800.000
399.747; -143.500; -859.000; -771.000
399.875;  218.300;  220.000;  234.000
400.003;  -22.000; -359.000; -284.000
400.130; -132.000; -421.000; -341.000
400.258;   -9.400;  -83.000;   38.000
400.386;  -83.800; -352.000; -168.000
400.514;  -20.700; -526.000; -587.000
400.641; -119.100; -928.000; -802.000
400.769; -243.600; -979.000; -888.000
400.897; -123.100; -838.000; -793.000
401.025;   70.200; -166.000; -152.000
401.152;   46.800;  220.000;   38.000
401.280;  -80.700; -430.000; -429.000
401.408; -176.800; -712.000; -576.000
401.535; -133.000; -735.000; -758.000
401.663; -351.300;-1134.000;-1054.000
401.790;  -96.400; -514.000; -525.000
401.918;  171.800;  436.000;  405.000
402.046;    6.000;  134.000;  122.000
402.173;  -29.800;  -18.000;    7.000
402.301;  -77.000; -519.000; -397.000
402.428;  124.900;  528.000;  383.000
402.556; -223.500;-1188.000; -913.000
402.683;   19.800;  -20.000;   -1.000
402.811;   15.200;  -37.000; -206.000
402.938;   70.900;   20.000;   27.000
403.066;  463.200; -574.000; -558.000
403.193;  661.400;  299.000;  239.000
403.321;  564.400; -396.000; -574.000
403.448;  650.900;   83.000;   27.000
403.575;  293.900;  -90.000;  -46.000
403.703; -145.000; -732.000; -557.000
403.830;  -45.400; -531.000; -496.000
403.957; -234.000;-1117.000;-1023.000
404.085;  115.300;  -61.000; -172.000
404.212;  228.800;  -50.000;   63.000
404.339;  508.700; -566.000; -306.000
404.467;10014.400; -612.000; -524.000
404.594; 6621.900; -287.000; -227.000
404.721; 1592.400; -869.000; -764.000
404.848;  259.400; -113.000; -202.000
404.976; -159.200; -856.000; -783.000
405.103;   46.500;  -14.000;  -82.000
405.230;   77.900;  190.000;  226.000
405.357;  141.200;  117.000;   44.000
405.484;  550.000;  -49.000;    5.000
405.612;   98.400; -548.000; -563.000
405.739;  -60.800; -488.000; -243.000
405.866;  247.300;  669.000;  385.000
405.993;  -32.400; -398.000; -102.000
406.120; -225.800; -801.000; -887.000
406.247;  -72.100; -323.000; -342.000
406.374; 1104.800;  540.000;  629.000
406.501;  255.000; -632.000; -702.000
406.628;  -89.400; -621.000; -589.000
406.755; -131.500; -803.000; -620.000
406.882;  -11.800; -228.000; -277.000
407.009; -134.800; -719.000; -628.000
407.136;  191.800; -480.000; -401.000
407.263;  381.300; -939.000; -829.000
407.390;  -82.200; -692.000; -614.000
407.517; -239.700;-1139.000;-1187.000
407.644;  -14.100; -332.000; -256.000
407.771; -224.900; -249.000; -287.000
407.898;   74.800;  168.000;  328.000
408.025;  -84.300; -421.000; -313.000
408.151;   40.700;   82.000;  153.000
408.278; -102.100; -267.000; -216.000
408.405; -168.200; -931.000; -899.000
408.532;  -91.000; -549.000; -542.000
408.659; -167.200; -677.000; -648.000
408.785; -369.800;-1298.000;-1170.000
408.912;  -63.500; -412.000; -296.000
409.039; -148.200; -610.000; -686.000
409.166; -113.500; -591.000; -555.000
409.292; -144.600; -571.000; -534.000
409.419; -194.400; -665.000; -649.000
409.546; -109.700; -431.000; -192.000
409.672; -155.500; -713.000; -545.000
409.799;   26.000;  -36.000;   34.000
409.926;   17.800; -180.000; -179.000
410.052; -315.900;-1127.000;-1091.000
410.179;  -11.100; -368.000; -392.000
410.305;  -77.700; -375.000; -493.000
410.432;    6.900; -220.000; -333.000
410.558; -130.900; -305.000; -380.000
410.685; -139.800; -688.000; -431.000
410.812; -130.200; -409.000; -588.000
410.938; -228.500; -964.000; -808.000
411.065; -127.700; -671.000; -645.000
411.191;   13.200; -189.000; -174.000
411.317; -190.300; -823.000; -742.000
411.444;  -49.000; -317.000; -246.000
411.570;  -79.400; -339.000; -294.000
411.697; -210.000; -758.000; -752.000
411.823; -263.200; -989.000; -999.000
411.949;   49.400;  -56.000;   17.000
412.076; -143.300; -539.000; -519.000
412.202; -168.700; -758.000; -757.000
412.329; -204.000; -798.000; -752.000
412.455; -150.000; -821.000; -657.000
412.581;   27.000;  -15.000;  172.000
412.707;  -58.000; -540.000; -457.000
412.834;   80.800;  156.000;  219.000
412.960; -120.400; -785.000; -784.000
413.086; -142.100; -743.000; -701.000
413.212;  421.500;  604.000;  578.000
413.339;  -47.200; -685.000; -701.000
413.465;   74.400; -364.000; -310.000
413.591; -145.300; -757.000; -474.000
413.717;  -35.300; -358.000; -366.000
413.843; -220.500; -839.000; -861.000
413.969;  -42.500;  -47.000; -292.000
414.096; -170.800; -679.000; -679.000
414.222;   51.400;  -33.000;   85.000
414.348;   15.200; -652.000; -385.000
414.474;  277.000;   38.000;  -52.000
414.600;   76.600; -126.000; -144.000
414.726;   57.700;  -96.000;  -55.000
414.852;  -72.700; -365.000; -342.000
414.978;  151.000;  104.000;  -18.000
415.104;  133.000;   38.000;   80.000
415.230;  114.800; -329.000; -330.000
415.356;  140.700; -409.000; -514.000
415.482;  447.900;   13.000;  -35.000
415.608;  548.800; -247.000; -323.000
415.734; 1893.900;   67.000;   38.000
415.860;37483.300; -875.000; -767.000
415.986;24299.800; -685.000; -607.000
416.111; 2049.600; -798.000; -652.000
416.237;  468.600; -424.000; -571.000
416.363; 2104.000; -765.000; -733.000
416.489; 6916.000; -324.000; -251.000
416.615;  687.700; -707.000; -742.000
416.741;   -3.300; -677.000; -784.000
416.866; -153.500; -673.000; -736.000
416.992; -161.000; -801.000; -818.000
417.118;  -11.300;  -41.000;  -80.000
417.244;  -97.100; -798.000; -531.000
417.369; -108.400; -801.000; -612.000
417.495;   31.000; -325.000; -254.000
417.621;  -86.500;-1015.000; -803.000
417.746;   58.900; -579.000; -572.000
417.872;  122.500; -254.000; -144.000
417.998;  164.000; -515.000; -530.000
418.123; 2045.300;-1073.000; -845.000
418.249; 9281.000; -512.000; -601.000
418.374; 1118.800; -916.000; -824.000
418.500;  248.500; -383.000; -482.000
418.626;  256.200;   70.000;  -59.000
418.751;  281.300; -549.000; -448.000
418.877;  401.300; -637.000; -643.000
419.002; 3415.000; -688.000; -560.000
419.128;21528.600; -930.000; -721.000
419.253; 4771.700; -967.000; -837.000
419.379;  698.100; -391.000; -338.000
419.504;  745.800;  325.000;  415.000
419.629;  907.900; -393.000; -212.000
419.755; 6441.800; -317.000; -254.000
419.880;34491.000;  -98.000;   67.000
420.006;20063.900; -280.000; -221.000
420.131;49848.200; -662.000; -775.000
420.256; 6591.600; -315.000; -316.000
420.382;  911.800; -665.000; -687.000
420.507;  122.600; -649.000; -778.000
420.632;  357.100; -337.000; -339.000
420.758;  632.200; -251.000; -425.000
420.883; -132.200; -876.000; -672.000
421.008; -113.400; -775.000; -619.000
421.133;  -98.400; -509.000; -467.000
421.259;   -2.300; -325.000; -259.000
421.384; -169.600; -834.000; -693.000
421.509;  -20.000;-1052.000; -862.000
421.634; 2688.600; -936.000; -820.000
421.759; 1057.300; -359.000; -327.000
421.885;  -44.100; -717.000; -656.000
422.010;  -77.500; -673.000; -542.000
422.135; -266.900; -695.000; -727.000
422.260;  150.100;  340.000;  280.000
422.385;  -12.200;   12.000;  -98.000
422.510;  136.400;  151.000;  -26.000
422.635;   96.400;  -87.000;  -43.000
422.760;  238.700; -766.000; -791.000
422.885;  165.000;  -57.000;  -80.000
423.010;   32.700; -112.000; -169.000
423.135; -103.700; -481.000; -561.000
423.260;   68.300; -150.000; -245.000
423.385;  218.500;  476.000;  222.000
423.510;  118.300;   71.000;  -22.000
423.635;  257.000;  133.000;   45.000
423.760;  225.600;  383.000;  328.000
423.885;  158.200;  336.000;  391.000
424.010;   99.400;  -68.000;  -13.000
424.135;   25.400;    5.000;  -33.000
424.259; -111.900; -654.000; -457.000
424.384;  -43.900; -279.000; -272.000
424.509;   43.800; -260.000; -186.000
424.634; -139.300; -761.000; -623.000
424.759;   -2.600; -688.000; -544.000
424.883;   -5.200; -506.000; -527.000
425.008;  384.300; -502.000; -410.000
425.133; 3625.100; -679.000; -653.000
425.258; 1502.200; -517.000; -381.000
425.382; 2184.900; -867.000; -774.000
425.507; 4883.000; -487.000; -543.000
425.632;  754.800; -802.000; -663.000
425.756;  845.600; -256.000; -146.000
425.881;11325.200; -831.000; -857.000
426.006;26882.400; -604.000; -355.000
426.130; 3956.600; -696.000; -508.000
426.255;  529.700; -611.000; -491.000
426.379;  328.500; -189.000; -577.000
426.504;  778.000;  660.000;  544.000
426.629; 7643.500; -519.000; -466.000
426.753; 4751.300;   64.000;  -46.000
426.878;  565.400; -252.000; -288.000
427.002;  412.800; -651.000; -668.000
427.127; 3067.300;  -35.000; -158.000
427.251;19912.300;  372.000;  401.000
427.375; 5023.600; -191.000; -173.000
427.500; 4504.600; -616.000; -610.000
427.624; 1322.800; -234.000; -400.000
427.749;  244.700; -216.000; -225.000
427.873;   31.100; -499.000; -412.000
427.997;    7.500; -222.000; -230.000
428.122;  244.400;  795.000;  703.000
428.246;  258.600;  433.000;  434.000
428.371; -197.400; -869.000; -773.000
428.495; -161.800; -624.000; -646.000
428.619;   47.200; -186.000; -117.000
428.743;  133.700;   65.000;  132.000
428.868;  119.200; -732.000; -643.000
428.992; 2876.800; -219.000; -326.000
429.116; 1175.100; -329.000; -357.000
429.240;  659.500;  419.000;  426.000
429.365;   34.400; -454.000; -574.000
429.489;   27.300; -638.000; -647.000
429.613;  141.400; -236.000; -177.000
429.737;  134.600; -563.000; -432.000
429.861;  614.600; -247.000; -133.000
429.985;10406.200; -425.000; -305.000
430.109;10069.400; -770.000; -908.000
430.234; 1164.600;   76.000;  -50.000
430.358;  154.900; -250.000; -160.000
430.482;  -63.200; -672.000; -564.000
430.606;  -29.900; -655.000; -375.000
430.730;  160.600; -437.000; -388.000
430.854;  364.300; -909.000; -835.000
430.978;  -65.400; -795.000; -764.000
431.102;  -50.500; -499.000; -422.000
431.226; -106.900; -874.000; -815.000
431.350;  193.200;  345.000;  422.000
431.474;  -37.400; -661.000; -373.000
431.597; -234.600;-1060.000; -848.000
431.721;  -90.900; -276.000; -267.000
431.845; -214.400; -704.000; -472.000
431.969;  -65.200; -304.000; -349.000
432.093; -133.400; -395.000; -317.000
432.217;   34.500;   32.000;   82.000
432.341; -107.500; -523.000; -518.000
432.464;   69.500;   96.000;   40.000
432.588;  562.500; -401.000; -329.000
432.712;  263.700;  -52.000;  -52.000
432.836;  136.800;  213.000;  263.000
432.959;    0.900; -372.000; -311.000
433.083;  213.100;   11.000;    2.000
433.207;  767.500;  285.000;  930.000
433.330; 9172.300; -391.000; -200.000
433.454;10149.400; -654.000; -638.000
433.578; 6101.500;  583.000;  278.000
433.701; 1077.800; -623.000; -675.000
433.825;  349.700; -292.000; -299.000
433.949;  515.300;   28.000;  -72.000
434.072;  196.400; -410.000; -323.000
434.196;   26.400; -309.000; -117.000
434.319; 7973.300;25482.000;25124.000
434.443; 1552.200; -656.000; -603.000
434.566; 4569.600;  281.000;   62.000
434.690;  686.500; -637.000; -383.000
434.813;  172.300; -251.000; -173.000
434.937; -103.200; -569.000; -696.000
435.060;   22.700; -423.000; -332.000
435.184;  862.400; -492.000; -217.000
435.307;  438.600;  159.000;  102.000
435.431;   62.500;  -40.000;   24.000
435.554; -102.900; -399.000; -240.000
435.677;  -79.900; -350.000; -258.000
435.801;   -7.600;  -25.000;   49.000
435.924;  107.400;    1.000;  -67.000
436.048; -136.400;-1019.000; -732.000
436.171;  -77.000; -240.000;  -66.000
436.294;    7.600; -248.000; -229.000
436.417;  167.400; -963.000; -849.000
436.541; -151.900; -814.000; -840.000
436.664;  -64.900; -242.000; -316.000
436.787;   30.800;   13.000;  113.000
436.910; -156.600; -792.000; -422.000
437.034;  123.400;  142.000;  143.000
437.157;  254.700;  -11.000;    0.000
437.280;  -16.200; -392.000; -292.000
437.403;  -88.100; -982.000; -869.000
437.526; 1638.900; -903.000; -865.000
437.649; 5157.100; -505.000; -332.000
437.772;  706.800; -692.000; -540.000
437.896;  319.800;  700.000;  544.000
438.019; -117.400; -758.000; -503.000
438.142;  -74.100; -596.000; -506.000
438.265;  107.100; -639.000; -670.000
438.388; 1385.600; -520.000; -410.000
438.511;  271.100; -597.000; -394.000
438.634;  -20.400; -247.000; -125.000
438.757; -215.900; -693.000; -619.000
438.880;   26.100;  -34.000;  -57.000
439.003; -123.000; -417.000; -437.000
439.126;  -49.700; -287.000; -167.000
439.248;  -51.500;  -98.000; -139.000
439.371;  -29.600;    9.000;  -53.000
439.494;  123.000;  510.000;  439.000
439.617;  -20.400;   65.000;  -88.000
439.740; -308.300; -968.000; -816.000
439.863; -220.600; -755.000; -595.000
439.986; -181.000; -476.000; -431.000
440.108;  -25.000; -161.000; -112.000
440.231; -261.400; -950.000; -836.000
440.354;   -8.200;  -64.000; -150.000
440.477;  171.100; -566.000; -542.000
440.599;  108.400; -200.000; -225.000
440.722; -190.500; -709.000; -586.000
440.845;  227.000;  751.000;  928.000
440.968; -155.300; -415.000; -311.000
441.090;  -60.100; -199.000;  -33.000
441.213; -279.200;-1021.000; -825.000
441.336;  -20.800; -159.000;   -5.000
441.458;  -55.700; -549.000; -396.000
441.581; -101.300; -628.000; -629.000
441.703;  -74.400; -152.000;   13.000
441.826; -167.500; -557.000; -400.000
441.948;  -38.200;   56.000;   51.000
442.071;  139.700;  555.000;  424.000
442.193; -160.700; -531.000; -485.000
442.316;   92.000;  152.000;   97.000
442.438;   99.500; -233.000;  -10.000
442.561;  220.100;  272.000;  262.000
442.683; 1386.800; -809.000; -522.000
442.806; 2582.600;   -8.000;   74.000
442.928;   84.600; -859.000; -604.000
443.051;  -66.500; -577.000; -373.000
443.173;  -92.100; -341.000; -339.000
443.295;  -92.500; -263.000; -371.000
443.418;  -73.100; -321.000;  -29.000
443.540;   96.600; -106.000;   -4.000
443.662; -195.500; -563.000; -465.000
443.785;   46.100;  335.000;  199.000
443.907; -154.200; -362.000; -208.000
444.029; -186.000; -767.000; -494.000
444.152; -226.800; -644.000; -554.000
444.274;   23.600;  -18.000;  -24.000
444.396; -171.000; -461.000; -221.000
444.518; -216.300; -691.000; -454.000
444.640; -142.700; -268.000; -111.000
444.763;   57.800;  388.000;  249.000
444.885; -186.400; -432.000; -392.000
445.007;   33.100;   35.000;   86.000
445.129; -189.400; -610.000; -515.000
445.251; -149.500; -372.000; -439.000
445.373; -207.400; -537.000; -386.000
445.495;   77.800;  242.000;  350.000
445.617;  211.900;  853.000;  753.000
445.739;  -58.600; -215.000;  -97.000
445.861;  -30.900; -245.000; -112.000
445.984;    6.000; -267.000; -101.000
446.105;  558.400; -418.000; -251.000
446.227; 1278.200; -176.000;  -19.000
446.349;   51.400; -358.000; -249.000
446.471; -141.500; -615.000; -448.000
446.593;  -77.800; -316.000;   19.000
446.715;   96.000;  -67.000;   41.000
446.837;  186.300;  697.000;  832.000
446.959; -164.700; -457.000; -478.000
447.081; -211.200; -628.000; -518.000
447.203;  198.000;  862.000;  834.000
447.325;  -78.100; -270.000;   42.000
447.446;   74.700;  286.000;  530.000
447.568; -261.700; -921.000; -803.000
447.690; -103.700; -236.000; -245.000
447.812; -231.600; -798.000; -519.000
447.933;   21.000;  155.000;  127.000
448.055;  -55.300; -306.000; -261.000
448.177;  411.500;   31.000;   79.000
448.299;  238.200; -935.000; -727.000
448.420;  110.100;  -25.000;  159.000
448.542;  -30.500;   -3.000;   33.000
448.664;   40.200;  109.000;  322.000
448.785;   -7.000;  265.000;   83.000
448.907;  -67.400; -614.000; -353.000
449.028;  -22.000; -771.000; -471.000
449.150;  190.400;  492.000;  589.000
449.272; -307.800;-1044.000; -913.000
449.393;  160.100;  612.000;  694.000
449.515; -226.000; -634.000; -581.000
449.636;  -30.600; -264.000; -155.000
449.758;  230.200;  763.000;  622.000
449.879; -116.600; -498.000; -396.000
450.001; -108.000; -149.000;  -49.000
450.122;   21.600;  -95.000;  162.000
450.244;   38.700;   37.000;  364.000
450.365; -128.300; -495.000; -301.000
450.486;   -2.100;   80.000;  268.000
450.608;  113.400;  393.000;  326.000
450.729;  220.800;  578.000;  645.000
450.850;   23.200; -574.000; -466.000
450.972; 1369.400; -552.000; -389.000
451.093; 8379.700;  190.000;  588.000
451.214; 3109.200; -516.000; -337.000
451.336;  605.300;  773.000;  579.000
451.457;  171.300;  264.000;  393.000
451.578;   -9.000; -118.000;  -74.000
451.699; -189.800; -546.000; -540.000
451.821;  -46.100; -284.000;  -50.000
451.942;   34.400;  278.000;  285.000
452.063;  139.800;  228.000;  419.000
452.184; 1051.800;  -54.000;  -49.000
452.305; 1925.900;  103.000;  170.000
452.427;  192.900; -549.000; -301.000
452.548;   10.300;   23.000;   79.000
452.669;  -11.400; -257.000;  -89.000
452.790;   -5.300;    3.000;  -18.000
452.911;   54.700;  195.000;  259.000
453.032;  -59.600; -289.000;  -60.000
453.153;   -3.500;  -29.000;   81.000
453.274;  215.200;  737.000;  868.000
453.395;  -73.700;  -51.000;  175.000
453.516;  372.600; 1317.000; 1388.000
453.637;  -48.800; -205.000; -150.000
453.758;  -59.400;   15.000;   69.000
453.879; -188.200; -462.000; -250.000
454.000;  251.600; 1086.000;  948.000
454.121; -146.800; -554.000; -326.000
454.242; -169.700; -599.000; -383.000
454.362;  -16.700;  -99.000;  114.000
454.483;   -8.700; -309.000; -229.000
454.604;  215.000;  512.000;  580.000
454.725; -195.700; -627.000; -555.000
454.846; -185.100; -474.000; -406.000
454.967;    4.800;  230.000;  539.000
455.087;    7.500;  179.000;  153.000
455.208;   90.400;  554.000;  856.000
455.329;  -45.100;  -22.000;   82.000
455.450;  180.700;  473.000;  633.000
455.570; -116.200; -234.000; -211.000
455.691;   -3.900;  201.000;  407.000
455.812; -154.800; -270.000;  -92.000
455.932;  -41.200;  107.000;  -97.000
456.053; -121.300;   36.000;   24.000
456.173; -140.600; -433.000; -355.000
456.294; -197.800; -476.000; -303.000
456.415;  -26.200;  -73.000;   70.000
456.535;   23.800;  297.000;  273.000
456.656;  -35.500;  132.000;  240.000
456.776;  -69.200;    3.000;  298.000
456.897;   33.800;  308.000;  513.000
457.017;  -62.900; -153.000;   -3.000
457.138; -133.600; -402.000; -249.000
457.258;    2.300;  263.000;  224.000
457.379;   44.300;  509.000;  521.000
457.499;   23.200;  443.000;  432.000
457.620; -166.700; -407.000; -231.000
457.740;  -97.400; -132.000;  -11.000
457.860;  -34.600;   87.000;   44.000
457.981;  -19.700;  132.000;  124.000
458.101;  -80.900;  -89.000;   40.000
458.221;   -2.200;  336.000;  402.000
458.342;  -23.900;   -4.000;  -37.000
458.462;  120.700;  617.000;  352.000
458.582;  -40.700; -302.000; -294.000
458.703;   71.800;  303.000;  154.000
458.823;    9.700;   22.000;  163.000
458.943;  136.000;  341.000;  467.000
459.063;   66.600; 1124.000;  192.000
459.183;   -7.000;  328.000;  313.000
459.304;   91.400;  315.000;  517.000
459.424;  -59.600; -246.000;  -89.000
459.544;  668.300;  388.000;  764.000
459.664; 1495.000;  499.000;  506.000
459.784;  595.500; 1004.000; 1175.000
459.904;  205.700;  867.000;  744.000
460.024;  245.900;  867.000;  684.000
460.144;  113.800;  449.000;  554.000
460.264;   70.300;  515.000;  327.000
460.385; -118.300; -145.000; -119.000
460.505;  125.700;  905.000;  858.000
460.625; -134.600;  -17.000;  -68.000
460.745;   39.800;  396.000;  541.000
460.864;  -24.400;  153.000;  469.000
460.984;  110.300;  499.000;  573.000
461.104;  410.400; 1656.000; 1775.000
461.224;  121.000;  657.000;  650.000
461.344;   23.700;  431.000;  360.000
461.464;   20.900;  258.000;  513.000
461.584;   34.100;  283.000;  466.000
461.704;  -36.900;   58.000;  108.000
461.824;  -33.500;  238.000;  259.000
461.943;  -38.900;  191.000;  130.000
462.063;  -80.200;    2.000;  324.000
462.183;  177.800;  639.000;  717.000
462.303;  323.400; 1678.000; 1230.000
462.422;  118.600;  781.000;  840.000
462.542;  -22.800;  271.000;  391.000
462.662;  161.600;  353.000;  380.000
462.782;  536.500;  833.000;  572.000
462.901;  897.700;  545.000;  717.000
463.021;  583.200; 1702.000; 1638.000
463.141;   52.800;  337.000;  770.000
463.260;   14.100;  614.000;  474.000
463.380;  123.400;  902.000;  884.000
463.499;  -18.300;  342.000;  332.000
463.619;   20.800;  581.000;  559.000
463.738;  311.200; 1644.000;  903.000
463.858;  100.500;  657.000;  811.000
463.978;  -25.000;  542.000;  396.000
464.097;  201.800;  921.000; 1114.000
464.217;  284.300; 1196.000; 1143.000
464.336;  317.500; 1068.000; 1130.000
464.455;  -20.400;  328.000;  659.000
464.575;  162.700;  597.000;  602.000
464.694;  384.700; 1204.000; 1179.000
464.814;  300.800; 1190.000; 1138.000
464.933;  205.700; 1095.000; 1027.000
465.052;  297.100; 1412.000; 1054.000
465.172;  246.800;  922.000;  799.000
465.291;  377.700; 1376.000; 1320.000
465.410;  119.500;  462.000;  735.000
465.530;  264.000; 1355.000; 1310.000
465.649;  233.000; 1209.000; 1273.000
465.768;  392.000; 1673.000; 1508.000
465.888;  215.000;  941.000; 1174.000
466.007;  250.900; 1335.000; 1440.000
466.126;  102.700;  721.000;  641.000
466.245;  163.000; 1176.000; 1187.000
466.364;   94.200;  950.000; 1060.000
466.484;  221.500; 1024.000; 1213.000
466.603;  123.800; 1101.000; 1222.000
466.722;  340.500; 1490.000; 1769.000
466.841;  264.800; 1151.000; 1401.000
466.960;  175.600; 1069.000;  972.000
467.079;  355.400; 1971.000; 1786.000
467.198;  181.900; 1238.000; 1181.000
467.317;  245.400; 1768.000; 1162.000
467.436;  219.100; 1709.000; 1261.000
467.555;  344.400; 1796.000; 1746.000
467.674;  216.700; 1227.000; 1329.000
467.793;  179.200; 1376.000; 1374.000
467.912;  250.100; 1658.000; 1539.000
468.031;  327.200; 2038.000; 1930.000
468.150;  371.500; 1842.000; 1837.000
468.269;  489.100; 2313.000; 2090.000
468.388;  467.400; 2168.000; 2339.000
468.507;  636.200; 2884.000; 2903.000
468.626;  656.000; 2555.000; 2541.000
468.744;  357.700; 2018.000; 2174.000
468.863;  502.700; 2312.000; 2523.000
468.982;  258.700; 1503.000; 1555.000
469.101;  528.500; 2788.000; 2692.000
469.220;  368.200; 2333.000; 2176.000
469.338;  537.600; 2935.000; 3051.000
469.457;  461.500; 2719.000; 2545.000
469.576;  803.500; 3953.000; 3784.000
469.695;  590.300; 2877.000; 3066.000
469.813;  944.400; 4148.000; 4192.000
469.932;  905.600; 4255.000; 4485.000
470.051;  900.200; 4075.000; 4161.000
470.169; 1713.300; 4470.000; 4338.000
470.288; 2747.400; 4700.000; 4809.000
470.406; 1616.900; 5059.000; 5194.000
470.525; 1358.400; 6101.000; 5787.000
470.644; 1389.100; 6847.000; 6794.000
470.762; 1720.400; 8397.000; 7873.000
470.881; 1890.400; 8651.000; 8464.000
470.999; 2122.500; 9685.000; 9151.000
471.118; 2307.300;11174.000;10711.000

