
Integration time [ms]: 100.000
Averaging Nr. [scans]: 40
Smoothing Nr. [pixels]: 0
Data measured with spectrometer [name]: 2101012U2
Wave   ;Sample   ;Dark     ;Reference
[nm]   ;[counts] ;[counts] ;[counts] 

197.733;   57.325;  516.000;  404.000
197.879;  -96.800; -610.000; -634.000
198.025;  -60.550; -475.000; -420.000
198.171;  -95.300; -602.000; -612.000
198.317;  -26.850; -401.000; -316.000
198.463;  -69.925; -655.000; -404.000
198.609;   19.900;  181.000; -137.000
198.755;  -86.600; -644.000; -410.000
198.901;  -74.025; -505.000; -424.000
199.047;  -82.150; -615.000; -488.000
199.193;  -46.700; -230.000; -468.000
199.339;  -57.100; -222.000; -369.000
199.485;   37.725;  330.000;  271.000
199.631;    7.750;  227.000;  310.000
199.777;  -60.750; -466.000; -398.000
199.923;  -79.450; -610.000; -424.000
200.069;   -5.450; -141.000;  -58.000
200.215;   45.700;  128.000;  453.000
200.361;   40.025;  243.000;  477.000
200.507;  -73.850; -600.000; -373.000
200.653;  -16.475; -371.000; -194.000
200.798;  -41.650; -215.000; -125.000
200.944;  -16.750; -146.000;  -41.000
201.090;   38.425;   61.000;  222.000
201.236;  -16.125; -116.000; -158.000
201.382;  134.900;  874.000;  903.000
201.528;   -9.875;  -58.000;  -48.000
201.674;  -53.700; -386.000; -293.000
201.819;  -72.725; -540.000; -439.000
201.965;  -82.375; -699.000; -447.000
202.111;  -23.625; -273.000; -226.000
202.257;  -48.225; -250.000; -238.000
202.402;   -2.925;   13.000;  -36.000
202.548;  -41.750; -169.000; -116.000
202.694;   75.100;  410.000; -183.000
202.840;  -71.875; -603.000; -531.000
202.985;  -82.825; -681.000; -639.000
203.131; -113.450; -832.000; -666.000
203.277;  -36.425; -199.000; -262.000
203.423;  -60.575; -434.000; -520.000
203.568;  -45.050; -462.000; -237.000
203.714;  -61.425; -535.000; -542.000
203.860;  -81.800; -682.000; -641.000
204.005;    6.100;  112.000;  167.000
204.151;   69.375;  561.000;  556.000
204.296;  -41.625; -354.000; -221.000
204.442;  -71.550; -600.000; -547.000
204.588;  -84.375; -592.000; -579.000
204.733;    7.425;  178.000;  168.000
204.879; -142.450;-1018.000; -822.000
205.025;    8.500;  -99.000;  126.000
205.170;   -8.225;  -17.000;   94.000
205.316;   76.900;  438.000;  661.000
205.461;  -91.925; -698.000; -554.000
205.607;   90.275;  609.000;  665.000
205.752;  -75.750; -626.000; -551.000
205.898;  -56.800; -501.000; -391.000
206.043;  -66.375; -578.000; -506.000
206.189;  -46.900; -243.000; -285.000
206.334;   77.275;  554.000;  606.000
206.480;   77.425;  409.000;  239.000
206.625;  -99.675; -529.000; -552.000
206.771;  -72.125; -451.000; -373.000
206.916;  -38.475; -210.000; -537.000
207.062;  -89.750; -545.000; -591.000
207.207;  -74.525; -546.000; -443.000
207.353;   48.725;  185.000;  460.000
207.498;    3.050;  196.000;   85.000
207.643;  -69.325; -501.000; -370.000
207.789; -147.875;-1069.000; -910.000
207.934;  -99.625; -665.000; -713.000
208.080;  -21.975; -154.000;   66.000
208.225;  -20.350;  -22.000;  -57.000
208.370;  -99.225; -727.000; -619.000
208.516;  -74.875; -741.000; -487.000
208.661;  -32.750; -127.000;  -69.000
208.806;  -25.725; -165.000; -171.000
208.952; -133.825;-1044.000; -731.000
209.097;   90.300;  378.000;  349.000
209.242;  -58.475; -307.000; -382.000
209.387;   63.975;  392.000;  350.000
209.533;  -59.100; -321.000; -350.000
209.678;   76.425;  472.000;  543.000
209.823;  -69.200; -408.000; -310.000
209.969; -109.825; -860.000; -757.000
210.114; -108.125; -907.000; -719.000
210.259; -124.050; -939.000; -889.000
210.404;  -12.975; -171.000;  103.000
210.549;   -3.625;  108.000;    3.000
210.695;  -33.325;   -3.000;  -95.000
210.840;    9.075;   94.000;   67.000
210.985;  -65.275; -484.000; -303.000
211.130;   51.750;  268.000;  406.000
211.275;   13.775;  207.000;  199.000
211.420;  -66.200; -300.000; -289.000
211.566;  -82.825; -536.000; -489.000
211.711;   12.625;  218.000;  157.000
211.856;  -64.575; -545.000; -519.000
212.001;   -5.675;  151.000;   44.000
212.146;   21.225;  153.000;   49.000
212.291;  -30.125; -210.000; -186.000
212.436;  -39.675; -280.000;   -6.000
212.581;  -91.325; -685.000; -653.000
212.726;  -86.875; -487.000; -538.000
212.871;  -36.275; -552.000; -217.000
213.016; -167.100;-1172.000;-1029.000
213.161;   54.250;  406.000;  291.000
213.306;  -90.975; -435.000; -577.000
213.451;  -97.125; -778.000; -689.000
213.596;  -57.775; -455.000; -347.000
213.741;  -55.625; -448.000; -538.000
213.886;  -83.150; -498.000; -517.000
214.031;  -35.925; -294.000; -124.000
214.176;  -59.075; -408.000; -341.000
214.321;  -27.050; -296.000; -157.000
214.466;  -26.725; -163.000;  -43.000
214.611;   -3.700;  -61.000;  -10.000
214.756; -125.200; -948.000; -858.000
214.901;  -22.975; -388.000; -226.000
215.046; -128.150; -797.000; -825.000
215.191;    9.525;  128.000;   35.000
215.336;  -26.575; -157.000;  -19.000
215.480;  -83.225; -684.000; -505.000
215.625;  -22.425; -175.000;  -19.000
215.770;  -95.575; -757.000; -662.000
215.915;  -12.925;   -5.000;  -97.000
216.060;   -9.675; -113.000;  -21.000
216.205; -131.200; -731.000; -779.000
216.349;  -71.700; -470.000; -533.000
216.494; -150.725; -939.000; -867.000
216.639; -119.450; -823.000; -888.000
216.784;  -82.150; -577.000; -525.000
216.929;   46.575;  392.000;  281.000
217.073;  -23.550; -244.000;  -31.000
217.218;    7.325;   78.000;  -47.000
217.363;  -98.225; -656.000; -618.000
217.507;  -92.125; -623.000; -588.000
217.652; -132.325; -845.000; -874.000
217.797;  -91.750; -708.000; -659.000
217.942; -121.875; -856.000; -720.000
218.086;   58.725;  608.000;  539.000
218.231;  -24.025; -174.000;  -26.000
218.376;  -33.150; -337.000; -229.000
218.520;   -0.825;  -41.000;   96.000
218.665;  -24.750; -338.000; -204.000
218.810;  -63.675; -275.000; -233.000
218.954;   18.025;  201.000;   35.000
219.099; -114.475; -713.000; -963.000
219.243;  -71.075; -589.000; -554.000
219.388;  -34.350; -264.000; -136.000
219.532;  -28.400; -116.000; -116.000
219.677;  -80.475; -564.000; -521.000
219.822;   -4.725;   33.000;   89.000
219.966;   -4.475;   17.000;  -99.000
220.111;  -35.725; -328.000;  -40.000
220.255;  -98.675; -797.000; -750.000
220.400;  -13.050; -180.000; -146.000
220.544;  -89.625; -516.000; -450.000
220.689;  -58.050; -422.000; -451.000
220.833;  -23.425; -123.000;  -58.000
220.978;  -52.400; -393.000; -563.000
221.122;   24.375;  319.000;  307.000
221.267; -119.475; -906.000; -837.000
221.411;  -66.650; -478.000; -394.000
221.555;  -12.350; -104.000;  -23.000
221.700;  -47.525; -329.000; -222.000
221.844;   13.700;  255.000;  272.000
221.989;  -48.950; -328.000; -311.000
222.133;  -42.725; -289.000; -307.000
222.277;  -15.000;    5.000;   78.000
222.422;   26.575;  227.000;  113.000
222.566;  -47.000; -381.000; -214.000
222.711;  -67.400; -414.000; -479.000
222.855;  -92.525; -643.000; -586.000
222.999;  -91.250; -642.000; -717.000
223.144;  -33.050; -195.000; -194.000
223.288;   32.775;  423.000;  251.000
223.432;   27.975;  184.000;  230.000
223.576;   21.350;  152.000;  -21.000
223.721;   29.425;  364.000;  273.000
223.865;  -58.950; -472.000; -475.000
224.009;  254.650; 1673.000; 1631.000
224.153;  -86.550; -660.000; -671.000
224.298;  -76.600; -531.000; -489.000
224.442;  -14.475;  -74.000;  -33.000
224.586;  -18.175; -169.000; -106.000
224.730;  -92.450; -858.000; -670.000
224.875; -121.375; -739.000; -688.000
225.019;    5.775;  102.000;  188.000
225.163;   64.425;  208.000;  341.000
225.307;    8.425;   97.000;  -91.000
225.451;   47.975;  360.000;  481.000
225.595;   24.350;  264.000;  176.000
225.739;  -30.200; -170.000;  -94.000
225.884;   -4.225;   86.000;    5.000
226.028; -104.925; -760.000; -626.000
226.172;  -42.925; -260.000; -273.000
226.316; -130.125; -941.000; -902.000
226.460;  -77.225; -645.000; -493.000
226.604;  -58.250; -406.000; -400.000
226.748; -108.475; -836.000; -733.000
226.892;  -36.225; -227.000; -181.000
227.036;  -48.100; -537.000; -447.000
227.180;  -68.325; -551.000; -375.000
227.324;  -83.900; -561.000; -580.000
227.468; -126.825; -819.000; -717.000
227.612;    6.600;  242.000;  -28.000
227.756; -104.350; -845.000; -698.000
227.900;   54.525;  342.000;  441.000
228.044;  -72.025; -509.000; -290.000
228.188;   57.725;  448.000;  568.000
228.332;  -92.700; -546.000; -472.000
228.476;  -46.825; -223.000; -149.000
228.620;  -34.975; -210.000; -150.000
228.764;   65.800;  431.000;  349.000
228.908;  -35.900; -155.000;   30.000
229.052;  -80.025; -615.000; -528.000
229.195;  -17.250; -172.000;   13.000
229.339;  -36.700; -235.000; -305.000
229.483;  -40.825;    5.000; -162.000
229.627;    4.275; -156.000;  139.000
229.771;  -50.100; -218.000; -294.000
229.915;    7.925;  230.000;   79.000
230.059;  -98.575; -648.000; -663.000
230.202;  -38.875; -370.000; -317.000
230.346;  -26.575; -107.000;  107.000
230.490;  -79.250; -489.000; -521.000
230.634; -112.500; -736.000; -553.000
230.777;   56.650;  478.000;  509.000
230.921;  -64.275; -450.000; -359.000
231.065;  -54.275; -246.000; -286.000
231.209;   12.600;  261.000;  265.000
231.352;   12.150;   54.000;   40.000
231.496;   18.350;  568.000;  188.000
231.640;  -88.125; -693.000; -621.000
231.783;   52.125;  546.000;  525.000
231.927;  -67.025; -294.000; -365.000
232.071; -130.150; -962.000; -736.000
232.214; -128.975; -980.000; -764.000
232.358; -106.225; -683.000; -599.000
232.502;    1.375;  -19.000;    7.000
232.645; -152.675;-1090.000; -927.000
232.789;  -49.950; -257.000; -218.000
232.933;  -56.875; -407.000; -224.000
233.076; -135.825;-1038.000; -897.000
233.220; -105.925; -752.000; -777.000
233.363;  -83.350; -669.000; -477.000
233.507;   53.675;  371.000;  129.000
233.650; -100.300; -764.000; -834.000
233.794;   39.650;  438.000;  461.000
233.938;  -74.800; -530.000; -362.000
234.081;  -35.300;  -93.000;   31.000
234.225;  -72.350; -631.000; -539.000
234.368; -126.775; -773.000; -723.000
234.512;  -49.850; -385.000; -299.000
234.655;  -97.850; -582.000; -555.000
234.798;  -75.550; -493.000; -466.000
234.942; -141.550; -884.000;-1002.000
235.085;  -71.650; -651.000; -443.000
235.229;  -86.800; -405.000; -410.000
235.372;  -53.625; -247.000; -191.000
235.516;  -76.075; -397.000; -321.000
235.659;   22.700;   92.000;  121.000
235.802;  -23.925;  -38.000;  -22.000
235.946;   22.600;  335.000;  215.000
236.089;   16.375;  126.000;  250.000
236.233;   45.575;  275.000;  298.000
236.376;  -54.500; -235.000; -378.000
236.519;  -61.600; -297.000; -319.000
236.663;  -24.075; -215.000; -117.000
236.806; -134.000;-1029.000; -999.000
236.949;   52.575;  543.000;  431.000
237.092;   66.750;  412.000;  391.000
237.236;  -98.025; -589.000; -502.000
237.379;   65.975;  352.000;  428.000
237.522; -116.350; -879.000; -768.000
237.666;  -27.925; -271.000;   18.000
237.809; -135.525; -851.000; -823.000
237.952;   27.750;  469.000;  271.000
238.095;  -82.125; -447.000; -442.000
238.238;   82.975;  688.000;  700.000
238.382;   -5.925;  166.000;  103.000
238.525;  -59.550; -598.000; -511.000
238.668; -155.000;-1060.000; -985.000
238.811;  -97.925; -638.000; -643.000
238.954;  -60.825; -483.000; -334.000
239.097;   79.450;  617.000;  664.000
239.241;   26.200;  394.000;  326.000
239.384;  -35.275; -254.000; -214.000
239.527;  -59.125; -424.000; -224.000
239.670; -155.200; -994.000;-1091.000
239.813; -116.575; -696.000; -658.000
239.956;   67.975;  579.000;  473.000
240.099; -122.100; -778.000; -725.000
240.242;   60.100;  428.000;  432.000
240.385;   48.150;  466.000;  450.000
240.528;  -80.225; -706.000; -473.000
240.671;    9.575;  189.000;  134.000
240.814;  -57.325; -441.000; -158.000
240.957; -106.575; -767.000; -578.000
241.100; -101.325; -779.000; -755.000
241.243; -155.425;-1234.000; -893.000
241.386;  -80.475; -508.000; -379.000
241.529;  -99.750; -735.000; -547.000
241.672;  -83.750; -566.000; -495.000
241.815; -126.950; -832.000; -808.000
241.958;  -25.875; -125.000; -182.000
242.101;  -98.950; -545.000; -390.000
242.244;  -59.925; -270.000; -325.000
242.387;  -49.150; -304.000; -246.000
242.530;   39.975;  470.000;  134.000
242.673;  -53.400; -381.000; -309.000
242.815; -125.375; -925.000; -899.000
242.958;  -72.325; -482.000; -381.000
243.101;    1.475;  132.000;  187.000
243.244;  -88.925; -564.000; -521.000
243.387;  -55.950; -313.000; -316.000
243.530; -102.100; -657.000; -674.000
243.672;    6.000;   43.000;  -92.000
243.815;  -62.300; -355.000; -283.000
243.958;  -15.600;   98.000;  -26.000
244.101;  -17.175;   59.000;  -16.000
244.243;  -23.625;  -47.000;  101.000
244.386; -117.275; -761.000; -630.000
244.529;  -27.275; -132.000; -139.000
244.672; -166.650;-1154.000; -951.000
244.814; -106.900; -621.000; -794.000
244.957;  -58.150; -380.000; -304.000
245.100;  -86.150; -489.000; -489.000
245.242;  -63.025; -387.000; -374.000
245.385;   -6.650;  -59.000;  -39.000
245.528; -133.900; -871.000; -705.000
245.670;   76.850;  612.000;  634.000
245.813; -105.850; -599.000; -547.000
245.956;  -27.050; -324.000; -275.000
246.098;  -82.275; -508.000; -650.000
246.241;    0.550;  194.000;   48.000
246.383;  -26.125; -119.000;  -73.000
246.526;  -91.000; -454.000; -525.000
246.669; -120.350; -889.000; -780.000
246.811;   11.400;  172.000;   -1.000
246.954;  -72.175; -512.000; -426.000
247.096;  -21.675;  -84.000;   -6.000
247.239;  -76.600; -482.000; -445.000
247.381;  -77.400; -647.000; -488.000
247.524;   80.600;  645.000;  679.000
247.666;  -10.575;   58.000;   11.000
247.809; -119.650; -887.000; -691.000
247.951;   -2.550;  -75.000;  138.000
248.094;   21.300;  432.000;  308.000
248.236; -161.475;-1262.000;-1238.000
248.378;   -4.000; -356.000;  -81.000
248.521;  -23.325; -334.000; -337.000
248.663;  -38.525; -236.000; -267.000
248.806;  -27.500; -300.000; -266.000
248.948;  -96.575; -886.000; -763.000
249.090;  -65.325; -428.000; -398.000
249.233;  -48.450; -344.000; -381.000
249.375;  -61.875; -474.000; -451.000
249.518;  -27.550;  -83.000; -133.000
249.660;  -17.350; -103.000;    3.000
249.802; -187.075;-1303.000;-1189.000
249.945;  -83.600; -612.000; -540.000
250.087; -125.350; -834.000; -768.000
250.229;  -44.000; -362.000; -480.000
250.371;  -75.475; -494.000; -439.000
250.514;  -52.700; -310.000; -244.000
250.656;  -23.000;   69.000;  102.000
250.798; -133.800; -849.000; -800.000
250.940;  -65.175; -322.000; -322.000
251.083;  -31.025; -335.000; -111.000
251.225;   56.750;  338.000;  310.000
251.367;  -38.400; -274.000; -373.000
251.509;  -45.575; -265.000; -210.000
251.651; -113.500; -731.000; -671.000
251.794;   54.925;  538.000;  632.000
251.936; -112.775; -821.000; -747.000
252.078;  -85.525; -540.000; -461.000
252.220;  -78.425; -645.000; -477.000
252.362;   88.475;  344.000;  462.000
252.504;  -69.775; -677.000; -584.000
252.646; -140.100; -875.000; -722.000
252.788;  -14.275;   14.000; -128.000
252.931;  -52.675; -257.000; -253.000
253.073;  -53.875; -376.000; -317.000
253.215;  -18.325;  141.000;  122.000
253.357;  -23.600;   82.000; -153.000
253.499;  -64.300; -374.000; -234.000
253.641; -103.675; -749.000; -594.000
253.783; -103.525; -609.000; -527.000
253.925;  -87.550; -586.000; -591.000
254.067; -124.500; -744.000; -667.000
254.209;  -40.000; -391.000; -259.000
254.351; -149.275; -865.000; -883.000
254.493;  -76.150; -441.000; -417.000
254.635; -140.975; -936.000; -818.000
254.777;  -86.275; -752.000; -687.000
254.918;  -86.250; -512.000; -430.000
255.060;  -72.025; -551.000; -395.000
255.202;  -73.100; -473.000; -261.000
255.344;  -85.025; -658.000; -455.000
255.486;  -83.625; -471.000; -406.000
255.628; -120.225; -780.000; -781.000
255.770;  -93.650; -676.000; -536.000
255.912;  -78.075; -559.000; -468.000
256.053;  -96.725; -730.000; -508.000
256.195;  133.100; 1008.000;  903.000
256.337; -106.225; -861.000; -595.000
256.479;   59.300;  532.000;  416.000
256.621;  -61.450; -394.000; -212.000
256.762; -112.025; -789.000; -742.000
256.904;   42.150;  485.000;  487.000
257.046;  -46.875; -381.000; -271.000
257.188;  -50.200; -351.000; -264.000
257.329;  -75.350; -525.000; -464.000
257.471; -131.300; -939.000; -807.000
257.613;  -75.475; -584.000; -498.000
257.755; -166.050;-1073.000; -982.000
257.896;   40.575;  286.000;  392.000
258.038;  -73.775; -403.000; -352.000
258.180;  -45.725; -354.000; -279.000
258.321;  -89.000; -581.000; -457.000
258.463;  -16.400;  -71.000;  133.000
258.605; -112.025; -562.000; -570.000
258.746; -106.600; -886.000; -772.000
258.888; -151.100;-1026.000;-1020.000
259.029;    3.025;  121.000;   -8.000
259.171; -105.325; -614.000; -550.000
259.313;   -2.225;  -49.000;  -47.000
259.454;  -84.875; -536.000; -414.000
259.596;  -67.100; -483.000; -390.000
259.737;  -85.475; -590.000; -474.000
259.879;   32.375;  217.000;  311.000
260.020;   98.325;  901.000;  636.000
260.162;  -38.750; -146.000; -253.000
260.303; -114.200; -768.000; -687.000
260.445;  -93.725; -609.000; -613.000
260.586;   17.600;  392.000;  157.000
260.728;  -51.800; -360.000; -248.000
260.869; -127.525; -350.000; -343.000
261.011;   65.450;  706.000;  537.000
261.152;  -66.075; -479.000; -319.000
261.293;  -94.350; -576.000; -595.000
261.435;  -40.250; -219.000; -184.000
261.576;  -62.700; -455.000; -325.000
261.718;   54.925;  420.000;  470.000
261.859; -143.825; -940.000; -949.000
262.000; -144.325; -951.000;-1016.000
262.142;  -34.325;  -52.000;  -60.000
262.283; -131.100; -808.000; -691.000
262.424;  -82.400; -666.000; -625.000
262.566; -157.975;-1161.000; -983.000
262.707; -111.400; -840.000; -830.000
262.848; -122.025; -769.000; -726.000
262.990;  -70.225; -362.000; -345.000
263.131;   54.950;  650.000;  681.000
263.272;  -12.100;  -61.000;  -41.000
263.413; -108.950; -589.000; -561.000
263.555;  -66.775; -669.000; -143.000
263.696;  -97.075; -550.000; -641.000
263.837;  -69.175; -449.000; -551.000
263.978;  -12.375;   -5.000;  -77.000
264.119;  -54.475; -283.000; -264.000
264.261; -143.200; -847.000; -630.000
264.402;   -1.750;   33.000;   40.000
264.543;  -75.525; -509.000; -524.000
264.684;   -6.900;   61.000;  -50.000
264.825;  -88.450; -816.000; -538.000
264.966;  -12.050;  -84.000;  -67.000
265.107; -116.150; -646.000; -670.000
265.248; -123.975; -825.000; -812.000
265.390;  -33.850;  152.000;   -9.000
265.531;  -20.800; -238.000; -107.000
265.672;  -91.075; -557.000; -630.000
265.813;   42.675;  563.000;  439.000
265.954; -171.850; -959.000; -940.000
266.095;  -25.475; -372.000; -322.000
266.236;  -99.725; -686.000; -548.000
266.377;  -48.950; -243.000; -297.000
266.518;  -84.400; -619.000; -547.000
266.659;    9.350;  170.000;  268.000
266.800;    7.450;   83.000;   85.000
266.941;  -83.700; -487.000; -478.000
267.082;   14.175;  354.000;   99.000
267.223;  -52.075; -344.000; -273.000
267.364; -132.400; -892.000; -686.000
267.504;  -21.450;    3.000;  135.000
267.645;   -7.875;  160.000;   67.000
267.786;  -38.775; -147.000;  -86.000
267.927;  -81.275; -473.000; -379.000
268.068;  -33.400; -186.000;  -61.000
268.209;  -66.825; -175.000; -413.000
268.350;  -73.400; -388.000; -532.000
268.490;  -97.975; -648.000; -521.000
268.631;   26.375;  127.000;  225.000
268.772; -112.025; -874.000; -647.000
268.913;  -60.500; -328.000; -476.000
269.054;  -23.875; -117.000;   12.000
269.194;  -52.375; -418.000; -402.000
269.335; -163.225;-1137.000;-1074.000
269.476;  -33.875;   33.000;  -35.000
269.617;  -53.050; -347.000; -392.000
269.757;  -95.350; -713.000; -646.000
269.898; -112.825; -856.000; -613.000
270.039;  -77.325; -415.000; -405.000
270.180; -145.500; -952.000; -816.000
270.320;  -17.700; -190.000; -250.000
270.461;  -37.275; -277.000; -249.000
270.602;  -28.500; -186.000; -156.000
270.742; -130.825; -868.000; -943.000
270.883;  -75.900; -442.000; -390.000
271.023;  -78.400; -358.000; -357.000
271.164;  -85.600; -607.000; -528.000
271.305; -109.425; -666.000; -654.000
271.445; -101.950; -722.000; -683.000
271.586;  -77.400; -462.000; -283.000
271.726;  -57.175; -397.000; -322.000
271.867;  -60.250; -594.000; -534.000
272.008;  192.100; -473.000; -285.000
272.148;  129.625;  462.000;  468.000
272.289;    7.975; -113.000; -181.000
272.429;   14.650;   19.000;  185.000
272.570;  -94.775; -633.000; -737.000
272.710; -116.850; -825.000; -775.000
272.851;  -30.550;  113.000; -130.000
272.991; -168.875;-1173.000;-1077.000
273.131;  -73.600; -419.000; -459.000
273.272; -106.625; -683.000; -723.000
273.412;   -5.600; -143.000;  -31.000
273.553;  -60.775; -488.000; -507.000
273.693;  138.925;  913.000;  858.000
273.834;  -86.600; -894.000; -692.000
273.974;  -79.000; -664.000; -615.000
274.114;  -98.625; -772.000; -560.000
274.255;   77.150;  414.000;  373.000
274.395;    6.100; -180.000; -125.000
274.535;   33.725;  199.000;  350.000
274.676;   17.025;  225.000;   94.000
274.816;   -8.775;  110.000;   34.000
274.956; -100.225; -624.000; -690.000
275.097;  -63.575;-1014.000; -922.000
275.237; -135.575; -913.000; -803.000
275.377;  -97.850; -778.000; -689.000
275.517; -154.325; -878.000; -937.000
275.658;  -62.375; -590.000; -555.000
275.798;  -77.350; -606.000; -413.000
275.938;   11.525;  215.000;  323.000
276.078; -116.075; -626.000; -395.000
276.218;    7.675;   99.000;  104.000
276.359; -134.150;-1026.000;-1024.000
276.499;  -69.000; -605.000; -446.000
276.639;  -40.850; -305.000; -151.000
276.779;  -47.925; -475.000; -357.000
276.919; -118.675; -783.000; -624.000
277.059;  -24.100; -261.000; -212.000
277.199;  -53.425; -357.000; -259.000
277.340;   44.275;  287.000;  175.000
277.480; -131.275; -840.000; -693.000
277.620;   17.275;  192.000;   16.000
277.760; -207.700;-1533.000;-1294.000
277.900;   14.600;  113.000;   33.000
278.040;   14.775;  137.000;  159.000
278.180;   24.775;  270.000;  170.000
278.320;  -15.075;   21.000;   56.000
278.460;  -76.900; -443.000; -469.000
278.600;  -96.725; -708.000; -598.000
278.740;   46.925;  448.000;  224.000
278.880;  -45.075; -768.000; -791.000
279.020;   -1.325; -194.000; -144.000
279.160; -107.825; -672.000; -595.000
279.300; -122.550; -926.000; -873.000
279.440; -106.700; -709.000; -622.000
279.579;  -24.500;-1014.000; -929.000
279.719;  -54.300; -410.000; -394.000
279.859;   64.550;   -4.000;   41.000
279.999;   13.350; -208.000;  101.000
280.139;  -26.025; -435.000; -387.000
280.279;  -85.475; -708.000; -745.000
280.419;  -22.425; -229.000; -147.000
280.559;  -38.900; -259.000; -180.000
280.698;  -95.175; -790.000; -639.000
280.838; -111.350; -778.000; -800.000
280.978; -109.750; -846.000; -790.000
281.118; -119.625; -811.000; -704.000
281.257;   -1.350;   24.000;    6.000
281.397; -122.200;-1094.000; -960.000
281.537;  -84.850; -599.000; -712.000
281.677;  -44.125; -150.000; -101.000
281.816;  -97.325; -700.000; -630.000
281.956;  -55.200; -193.000; -257.000
282.096;  -69.675; -539.000; -396.000
282.235; -118.425; -672.000; -638.000
282.375;  -30.400; -243.000;  -98.000
282.515; -118.800; -715.000; -707.000
282.654;   17.000;   29.000;  106.000
282.794;   20.925;  388.000;  244.000
282.934;  -56.725; -530.000; -491.000
283.073; -137.525;-1030.000; -857.000
283.213;  -64.750; -460.000; -467.000
283.353;  -53.800; -408.000; -349.000
283.492;  -49.600; -264.000; -296.000
283.632;  -57.350; -254.000; -168.000
283.771; -101.525; -859.000; -730.000
283.911;  -54.450; -369.000; -260.000
284.050; -102.625; -794.000; -748.000
284.190; -165.725;-1229.000;-1096.000
284.329; -153.575;-1055.000; -964.000
284.469;  -64.775; -516.000; -591.000
284.608;  -73.600; -559.000; -598.000
284.748;  -98.150; -614.000; -570.000
284.887;   -9.450;  -87.000;  -20.000
285.027; -138.225; -844.000; -892.000
285.166;  -34.825; -192.000; -249.000
285.306;    2.675; -116.000;  -33.000
285.445;  -36.375; -229.000; -343.000
285.584; -106.250; -630.000; -494.000
285.724;  -64.250; -282.000; -322.000
285.863; -120.200; -857.000; -507.000
286.002;  -59.600; -366.000; -276.000
286.142; -112.400; -715.000; -622.000
286.281;  -91.900; -525.000; -493.000
286.420;  -90.200; -554.000; -417.000
286.560;   85.200;  653.000;  623.000
286.699; -138.825; -958.000; -912.000
286.838;  -87.900; -590.000; -591.000
286.978;  -99.675; -533.000; -537.000
287.117; -144.850;-1085.000; -950.000
287.256;  -35.525; -228.000; -211.000
287.395;  -49.950; -197.000; -378.000
287.535;  -73.225; -370.000; -298.000
287.674;  -88.200; -509.000; -484.000
287.813;   50.900;  661.000;  533.000
287.952; -132.800;-1010.000; -871.000
288.091; -148.850;-1049.000; -915.000
288.231;   11.800;   13.000;   15.000
288.370; -190.500;-1217.000;-1200.000
288.509;  -94.525; -728.000; -645.000
288.648;  -91.850; -770.000; -548.000
288.787;  -42.050; -243.000;  -87.000
288.926;  -72.100; -454.000; -475.000
289.065;  113.075;  859.000;  672.000
289.204;  -67.725; -377.000; -217.000
289.344; -101.075; -791.000; -690.000
289.483;   21.075;  416.000;  304.000
289.622;  -40.775; -291.000; -149.000
289.761;  -18.200; -309.000; -166.000
289.900; -110.775; -785.000; -626.000
290.039;  -21.150;  -12.000;  -95.000
290.178;  -53.000; -274.000; -180.000
290.317;  -82.650; -618.000; -479.000
290.456;  -67.900; -463.000; -451.000
290.595; -147.300; -961.000; -833.000
290.734; -154.450; -904.000; -891.000
290.873;  -72.425; -456.000; -420.000
291.011; -114.600; -833.000; -843.000
291.150; -108.775; -770.000; -682.000
291.289;  -44.375; -343.000; -110.000
291.428; -111.725; -599.000; -480.000
291.567;  -64.250; -370.000; -442.000
291.706;    2.925;  109.000;  154.000
291.845;  -86.575; -597.000; -505.000
291.984; -184.450;-1234.000;-1061.000
292.122;   67.700;  602.000;  582.000
292.261;   40.600;  620.000;  463.000
292.400;    7.350; -144.000;  211.000
292.539; -136.125; -959.000; -813.000
292.678;  -29.425; -325.000; -300.000
292.816; -162.800;-1136.000; -965.000
292.955;  -87.575; -844.000; -684.000
293.094;  -26.350; -173.000; -337.000
293.233;  -57.325; -556.000; -400.000
293.371;  -40.200; -225.000;  -84.000
293.510; -106.425; -866.000; -780.000
293.649; -136.775; -959.000; -924.000
293.787;  -50.875;-1083.000;-1012.000
293.926;  -17.700; -113.000;  -32.000
294.065;  -46.525; -379.000; -290.000
294.203;   31.100;  298.000;  406.000
294.342;   14.025;   74.000;  156.000
294.481; 6862.150;51180.000; -836.000
294.619;  -28.400; -425.000; -582.000
294.758; -156.525;-1230.000;-1137.000
294.896;   63.925; -125.000;    5.000
295.035; -128.625;-1040.000;-1006.000
295.174; -117.900;-1082.000; -954.000
295.312;  -58.400; -323.000; -203.000
295.451;  -16.375; -307.000; -428.000
295.589;  -68.700; -389.000; -518.000
295.728;   18.500; -292.000; -165.000
295.866;    2.025;  -36.000;  -51.000
296.005;  -75.925; -584.000; -341.000
296.143;  -79.700; -558.000; -596.000
296.282; -115.250; -957.000; -881.000
296.420;  -86.750; -657.000; -557.000
296.559;  -91.300; -892.000; -633.000
296.697;   25.225; -847.000; -665.000
296.835;   66.150;-1141.000;-1002.000
296.974;   44.550;  -23.000;   39.000
297.112;   17.375; -443.000; -504.000
297.251;  -73.350; -815.000; -755.000
297.389;  106.500; -576.000; -438.000
297.527;   50.250; -145.000;  -83.000
297.666;  -54.575; -486.000; -438.000
297.804;  -71.875; -404.000; -264.000
297.942;   -4.600; -136.000; -161.000
298.081;  -13.000; -183.000;   63.000
298.219;   62.750;  -17.000;  -19.000
298.357;   54.350; -144.000;  -71.000
298.495;   49.075; -810.000; -812.000
298.634;   91.275;  245.000;  219.000
298.772;   72.425; -220.000; -338.000
298.910;  -22.675; -309.000; -182.000
299.048;  -18.500; -130.000; -153.000
299.187;  -39.575; -350.000; -250.000
299.325;   14.600;   52.000;  122.000
299.463;   49.450; -389.000; -299.000
299.601;  148.325; -327.000; -271.000
299.739; -110.550; -908.000; -883.000
299.877;  -88.075; -791.000; -703.000
300.016;  -38.875;-1095.000; -935.000
300.154;  183.975;  -19.000; -161.000
300.292;   53.775; -428.000; -348.000
300.430;   40.425; -408.000; -291.000
300.568; -107.500; -940.000; -874.000
300.706;  -43.250; -366.000; -469.000
300.844;  -81.000;-1108.000; -979.000
300.982;  119.075;  246.000;  282.000
301.120; -120.350; -965.000; -866.000
301.258;  -76.000; -812.000; -705.000
301.396;   42.175;  104.000;  -41.000
301.534;   75.500; -218.000; -293.000
301.672;   -3.300; -664.000; -521.000
301.810;   41.650; -613.000; -545.000
301.948;  123.575;   53.000;  149.000
302.086;  652.450; -250.000;  -32.000
302.224; 1060.725; -610.000; -585.000
302.362;   43.950; -558.000; -622.000
302.500;  -19.375; -923.000; -893.000
302.638;  109.725;  128.000;  245.000
302.776;  -17.825; -352.000; -408.000
302.913;   29.500;  447.000;  236.000
303.051;   -7.575;  -86.000;  -23.000
303.189;   49.750;   90.000;  118.000
303.327;  -34.975; -341.000; -256.000
303.465;  -83.075; -832.000; -588.000
303.603;  -99.350; -805.000; -604.000
303.740;   97.700;  417.000;  241.000
303.878;   31.650; -800.000; -759.000
304.016;  -98.850; -915.000; -790.000
304.154; -135.225;-1123.000;-1152.000
304.291;  -28.075; -505.000; -554.000
304.429;   -7.225;  102.000;   74.000
304.567; -139.075; -908.000; -893.000
304.705;  -64.975; -408.000; -515.000
304.842;  111.900; -616.000; -540.000
304.980;   58.950;  215.000;   35.000
305.118;   52.225; -367.000; -365.000
305.255;  -66.050; -945.000; -927.000
305.393;   55.750;  178.000;  239.000
305.531; -112.150;-1173.000; -956.000
305.668;  -69.975; -663.000; -582.000
305.806;  109.000; -358.000; -439.000
305.943;  113.700; -629.000; -637.000
306.081;   68.925; -378.000; -267.000
306.219; -105.900; -863.000; -748.000
306.356;    5.400;  158.000;   27.000
306.494;   97.925;  981.000;  761.000
306.631;   -9.925;  -11.000;  -55.000
306.769;    4.100; -613.000; -485.000
306.906;  -23.000; -284.000; -258.000
307.044;  -74.625; -473.000; -488.000
307.181;  -72.250; -410.000; -332.000
307.319;   -2.150;  112.000;   87.000
307.456; -181.750;-1191.000;-1153.000
307.594; -111.675; -980.000; -727.000
307.731;  -16.675; -371.000; -164.000
307.868;  -11.650;  -15.000;   20.000
308.006; -143.150; -961.000; -847.000
308.143;  -79.375; -618.000; -330.000
308.281;  133.275;  -37.000; -254.000
308.418;  -30.875; -748.000; -640.000
308.555;  -93.850; -400.000; -250.000
308.693;  -75.350; -577.000; -573.000
308.830; -126.225; -712.000; -657.000
308.967;  -23.875; -215.000;  -95.000
309.105;  -50.975; -507.000; -396.000
309.242;    9.675; -468.000; -367.000
309.379;  262.125; -577.000; -655.000
309.517;  -72.775; -936.000; -948.000
309.654; -130.300; -910.000; -734.000
309.791;  -75.625; -662.000; -580.000
309.928; -131.600; -977.000; -914.000
310.065;  199.925;  819.000;  697.000
310.203;   -5.975; -825.000; -850.000
310.340;  -14.325; -465.000; -321.000
310.477;  -84.250; -412.000; -516.000
310.614;  -76.500; -383.000; -473.000
310.751;  -89.300; -427.000; -518.000
310.889;  -30.475;    1.000;   11.000
311.026; -166.950;-1161.000; -939.000
311.163;  -60.125; -386.000; -380.000
311.300;  -82.000; -512.000; -479.000
311.437;  -84.750; -658.000; -619.000
311.574; -169.850;-1226.000; -985.000
311.711;  -62.800; -595.000; -433.000
311.848;  -50.875; -380.000; -388.000
311.985;   17.650;  270.000;   93.000
312.122; -142.850; -932.000; -762.000
312.259; -129.925; -941.000; -994.000
312.396;  -95.925; -508.000; -551.000
312.533; -101.975; -812.000; -790.000
312.670; -147.250;-1070.000; -898.000
312.807;  -50.825; -352.000; -367.000
312.944;  -82.400; -513.000; -611.000
313.081;  -34.750; -150.000; -415.000
313.218; -114.575;-1111.000; -867.000
313.355;   -4.200; -531.000; -449.000
313.492;   -3.250; -455.000; -292.000
313.629;  131.250;  815.000;  735.000
313.766; -169.050;-1176.000;-1008.000
313.902;   -7.850; -186.000;   21.000
314.039;  -63.325; -372.000; -289.000
314.176;    8.200;  286.000;  192.000
314.313;  -87.700; -569.000; -473.000
314.450;  -90.125; -788.000; -684.000
314.587;  -80.550; -468.000; -480.000
314.723;   -1.825;  -78.000;  130.000
314.860;   21.450;  318.000;  332.000
314.997;    4.825;  223.000;  142.000
315.134;  -44.425; -385.000; -368.000
315.270;  -42.625; -480.000; -496.000
315.407; -139.750;-1094.000; -967.000
315.544;  -51.900; -657.000; -538.000
315.681;  -57.550; -681.000; -565.000
315.817;   15.025; -133.000; -176.000
315.954;   18.600; -613.000; -392.000
316.091; -127.075;-1045.000;-1023.000
316.227;  -30.325;  -71.000; -179.000
316.364;    3.525;   23.000;    6.000
316.500;  -64.325; -113.000; -300.000
316.637;  -59.250; -181.000; -302.000
316.774;  -97.475; -625.000; -358.000
316.910;  -98.175; -598.000; -629.000
317.047;  -93.050; -487.000; -351.000
317.183;  -60.975; -435.000; -566.000
317.320;  -25.975; -367.000; -321.000
317.456;  -70.725; -733.000; -805.000
317.593; -109.825; -598.000; -641.000
317.729;    5.300;  168.000;  -67.000
317.866; -212.200;-1434.000;-1285.000
318.002;  -98.350; -708.000; -948.000
318.139; -101.825; -883.000; -867.000
318.275; -106.450;-1003.000; -738.000
318.412;  -71.050; -517.000; -336.000
318.548;  -25.400; -751.000; -720.000
318.685; -109.550; -985.000; -888.000
318.821; -104.350; -762.000; -735.000
318.957;  -24.125;   34.000;  -23.000
319.094;   31.050;  297.000;  154.000
319.230;  -71.025; -756.000; -742.000
319.367;  135.250; -471.000; -520.000
319.503;   65.975; -538.000; -436.000
319.639;  -91.000; -877.000; -793.000
319.775;  -83.875; -750.000; -685.000
319.912;  -75.375; -424.000; -519.000
320.048;  -79.075;-1184.000;-1184.000
320.184;   68.625;   59.000;   70.000
320.321;  -75.875; -497.000; -467.000
320.457;   55.050;  475.000;  662.000
320.593;  -72.525; -375.000; -382.000
320.729; -113.600; -732.000; -734.000
320.866;  -78.450; -577.000; -635.000
321.002;  -82.750; -759.000; -809.000
321.138;   -6.400; -135.000; -211.000
321.274;   69.225; -148.000; -115.000
321.410;  -34.425; -585.000; -353.000
321.546;  -36.500;-1011.000; -911.000
321.683;   59.325;  400.000;  185.000
321.819;    5.325;  -48.000; -117.000
321.955; -119.250; -743.000; -722.000
322.091;  -52.425; -585.000; -540.000
322.227;  -12.500; -382.000; -202.000
322.363;  -19.400; -320.000; -215.000
322.499;  -65.650; -343.000; -331.000
322.635;  169.250;  636.000;  443.000
322.771;   10.550; -139.000;   12.000
322.907;   96.625;  129.000;  327.000
323.043;  -31.000; -115.000; -206.000
323.179;  -47.475; -394.000; -363.000
323.315;    6.925; -401.000; -371.000
323.451;  103.500; -328.000; -236.000
323.587;   67.975;  -60.000;  -77.000
323.723;    9.150; -682.000; -601.000
323.859;  -17.025; -258.000;  -76.000
323.995;  -28.750; -467.000; -409.000
324.131; -138.225; -967.000; -892.000
324.267;  -57.250; -254.000; -276.000
324.402; -142.000; -960.000; -983.000
324.538;  -24.775; -279.000; -104.000
324.674;   33.025;  164.000;   77.000
324.810;  120.675;  226.000;  308.000
324.946;    2.625; -810.000; -658.000
325.082;  -73.775; -568.000; -475.000
325.217;  -20.850;  -62.000;   16.000
325.353; -110.775; -764.000; -659.000
325.489;  -97.750; -540.000; -506.000
325.625;  -82.475; -579.000; -525.000
325.760;   61.275;  517.000;  376.000
325.896;  -46.750; -515.000; -702.000
326.032;  -54.125; -403.000; -352.000
326.168;  -67.300; -462.000; -369.000
326.303;  -80.375; -352.000; -461.000
326.439;  -23.125; -336.000; -276.000
326.575;   11.125; -190.000;  -29.000
326.710;   -2.300; -156.000;  -30.000
326.846;  -30.000;  146.000;  103.000
326.982; -105.000; -530.000; -548.000
327.117;  -86.500; -481.000; -442.000
327.253;  -97.000; -745.000; -742.000
327.388; -177.175;-1137.000;-1153.000
327.524;  -40.575; -811.000; -578.000
327.659;  -38.550;  -58.000;  -22.000
327.795;  -22.050;   69.000;   45.000
327.931; -100.375; -723.000; -499.000
328.066;  -21.975; -417.000; -276.000
328.202;  -20.800;   12.000; -129.000
328.337;  106.425;  957.000;  713.000
328.473;   26.150;  -12.000;  -74.000
328.608;  -30.350; -256.000; -267.000
328.743;  -91.375; -799.000; -664.000
328.879;   12.225;  214.000;  114.000
329.014;  -43.575; -102.000; -122.000
329.150;  -92.200; -358.000; -483.000
329.285; -100.100; -465.000; -466.000
329.421;  -66.275; -548.000; -246.000
329.556;  -40.950;  -36.000;   85.000
329.691; -104.100; -633.000; -615.000
329.827; -105.200; -626.000; -480.000
329.962;  -42.650;  131.000; -301.000
330.097; -100.675; -673.000; -585.000
330.233;  -67.225; -410.000; -223.000
330.368; -140.550; -839.000; -628.000
330.503;  -21.050;    3.000;   98.000
330.638;    9.375;  -93.000; -125.000
330.774;  -66.750; -609.000; -530.000
330.909;  -40.175; -434.000; -244.000
331.044; -115.750; -714.000; -708.000
331.179; -174.675;-1217.000;-1109.000
331.315;   -2.425;   77.000;   20.000
331.450;    3.000;  157.000;  285.000
331.585;  -89.775; -805.000; -706.000
331.720;  -85.125; -510.000; -460.000
331.855;  -15.850;  -35.000; -102.000
331.990;  226.300;   62.000;  138.000
332.126;  124.250; -110.000;   71.000
332.261;  -20.500; -379.000; -265.000
332.396;  -13.875; -135.000; -242.000
332.531; -100.075;-1074.000;-1031.000
332.666;   12.525; -519.000; -363.000
332.801; -112.550; -726.000; -807.000
332.936;  -31.375; -192.000; -122.000
333.071; -151.950; -870.000; -817.000
333.206;    9.200;  307.000;  379.000
333.341;   10.925;  344.000;  418.000
333.476;  -96.800; -627.000; -623.000
333.611;  -42.075; -251.000; -173.000
333.746;  -48.975; -381.000; -464.000
333.881; -125.150; -973.000; -935.000
334.016; -134.400; -936.000; -917.000
334.151; -135.700; -746.000; -702.000
334.286;   27.675;  152.000;  186.000
334.421;  -30.075; -125.000; -178.000
334.556;  -87.025; -611.000; -567.000
334.690; -101.075; -631.000; -577.000
334.825;   56.175;  381.000;   83.000
334.960;  -62.150; -285.000; -413.000
335.095;   -6.150;  135.000;  -91.000
335.230; -116.975; -722.000; -738.000
335.365; -140.150;-1084.000; -990.000
335.499; -142.500;-1108.000;-1037.000
335.634;   18.050;    9.000;  534.000
335.769; -114.650; -755.000; -720.000
335.904;  -72.675; -603.000; -561.000
336.038;  -65.900; -735.000; -657.000
336.173; -119.525;-1206.000;-1194.000
336.308;    0.925; -116.000; -189.000
336.443;  -10.475; -544.000; -634.000
336.577;  -78.150; -936.000; -787.000
336.712;   79.075;   -4.000;  -12.000
336.847;  -29.925; -724.000; -607.000
336.981;   62.800; -272.000; -208.000
337.116;  299.400;  615.000;  501.000
337.250;  169.900; -434.000; -421.000
337.385;  232.200; -297.000; -208.000
337.520;   59.100; -632.000; -603.000
337.654;  -49.675; -215.000; -126.000
337.789; -141.575; -989.000; -933.000
337.923;  -52.950; -104.000; -205.000
338.058;  -91.550; -673.000; -738.000
338.192;  -25.875; -611.000; -488.000
338.327;  -31.175;  -18.000; -155.000
338.461;  -82.075; -299.000; -469.000
338.596; -103.850; -780.000; -638.000
338.730; -105.525; -767.000; -803.000
338.865;   78.150;  -46.000; -140.000
338.999;  -64.725; -846.000; -702.000
339.134;  -39.700; -634.000; -536.000
339.268;    1.375; -741.000; -603.000
339.403;  341.350; -740.000; -775.000
339.537;   93.450; -894.000; -820.000
339.671; -124.975; -829.000; -813.000
339.806;  -74.075; -556.000; -512.000
339.940;   -0.975; -261.000; -235.000
340.074;  -95.050; -685.000; -510.000
340.209;  -46.750; -351.000; -230.000
340.343; -111.525; -517.000; -573.000
340.477;  142.425;  998.000; 1036.000
340.612;  -59.050;-1033.000; -900.000
340.746;  121.050; -199.000; -243.000
340.880;  -74.225; -924.000; -785.000
341.014;  -31.500;  -45.000; -154.000
341.149; -126.225; -756.000; -718.000
341.283; -123.650; -839.000; -754.000
341.417; -101.300;-1124.000; -938.000
341.551;  144.950; -768.000; -708.000
341.685;  -37.825; -633.000; -611.000
341.820;  -57.700; -562.000; -493.000
341.954;  -48.150; -218.000; -349.000
342.088; -149.050;-1102.000;-1019.000
342.222;   41.650;  565.000;  618.000
342.356;  -61.200; -395.000; -335.000
342.490; -100.575; -880.000; -841.000
342.624;  -49.275; -339.000; -242.000
342.758;   -4.650; -364.000; -312.000
342.892;  -72.650; -710.000; -585.000
343.026;  -51.200;  -58.000; -116.000
343.160;  -63.150; -426.000; -376.000
343.294;  -85.375; -474.000; -337.000
343.428;  -24.350; -488.000; -448.000
343.562;  -20.775; -172.000;  -23.000
343.696;  -36.200; -385.000; -314.000
343.830;  -23.325; -362.000; -356.000
343.964;    3.475; -231.000; -168.000
344.098; 1015.800;  199.000;   70.000
344.232;  837.850; -266.000; -127.000
344.366;   93.725; -567.000; -453.000
344.500;   65.050; -665.000; -744.000
344.634;   35.050; -324.000; -164.000
344.768;  -18.125; -531.000; -341.000
344.902;   12.225;  278.000;  256.000
345.035;  -70.150; -556.000; -496.000
345.169; -150.375; -933.000; -656.000
345.303;  -30.775; -308.000; -482.000
345.437;  -76.900; -826.000; -717.000
345.571;  -93.800; -675.000; -594.000
345.704;  -67.475; -309.000; -532.000
345.838;  -15.350; -331.000; -284.000
345.972;  -39.600; -543.000; -495.000
346.106;  154.975; -179.000; -190.000
346.239;  423.950; -312.000; -243.000
346.373;   -9.675; -343.000; -302.000
346.507; -139.050; -950.000; -962.000
346.640;  156.550;  -30.000;   13.000
346.774;  -45.700; -650.000; -797.000
346.908;  -21.375; -138.000;  -11.000
347.041; -106.725; -646.000; -593.000
347.175;   -5.500;  259.000;   27.000
347.309;  -74.525; -698.000; -628.000
347.442; -105.775; -883.000; -732.000
347.576;  295.425;  670.000;  668.000
347.709;  214.525; -123.000;  -52.000
347.843;  -92.050; -933.000; -825.000
347.976;   43.875;  235.000;  294.000
348.110; -190.825;-1268.000;-1186.000
348.243; -120.475; -679.000; -772.000
348.377;    0.025;  -26.000;   60.000
348.510;   40.250;  403.000;  540.000
348.644;  -31.375;  -37.000; -159.000
348.777;  -20.575;  180.000;  191.000
348.911;  -46.225; -142.000; -112.000
349.044;  178.625;  471.000;  448.000
349.178;  192.075;-1069.000;-1006.000
349.311;  123.900;  141.000;  255.000
349.444;  -14.900; -927.000; -813.000
349.578;  -19.175; -347.000; -200.000
349.711; -115.550; -959.000; -862.000
349.845;   15.250; -661.000; -591.000
349.978; -153.450;-1224.000;-1137.000
350.111;  -80.325; -546.000; -612.000
350.244;  -73.625; -596.000; -700.000
350.378;   -1.375; -392.000; -393.000
350.511;  -68.650; -393.000; -426.000
350.644; -107.375; -808.000; -806.000
350.778;   -4.400;  168.000;  104.000
350.911;   -7.025;  134.000;  140.000
351.044; -106.125; -685.000; -615.000
351.177;  -45.450; -321.000; -281.000
351.310;  -23.925;    3.000; -131.000
351.444;  -84.650; -888.000; -788.000
351.577;  109.125;  140.000;   90.000
351.710;   98.525;  593.000;  417.000
351.843;  -39.650; -165.000;  -77.000
351.976;   -8.175;  149.000;  -79.000
352.109;  -94.175; -621.000; -612.000
352.242;  -29.850; -464.000; -419.000
352.376;  -68.250; -580.000; -636.000
352.509;  194.775; -437.000; -356.000
352.642;    6.575; -654.000; -604.000
352.775;   58.625; -141.000;  -98.000
352.908; -112.800; -933.000; -904.000
353.041; -107.400; -814.000; -824.000
353.174;  -70.250; -551.000; -424.000
353.307;  -95.000; -753.000; -764.000
353.440;   73.700;  541.000;  453.000
353.573; -136.625; -957.000;-1008.000
353.706;  -66.250; -384.000; -558.000
353.839;  -20.550; -264.000; -220.000
353.971;  -92.125; -657.000; -512.000
354.104;  -85.375; -896.000; -835.000
354.237;  -45.775; -627.000; -662.000
354.370; -102.150; -846.000; -879.000
354.503; -196.200;-1231.000;-1308.000
354.636;  -47.225; -529.000; -348.000
354.769; -144.525; -937.000; -860.000
354.902;  -29.825; -230.000; -139.000
355.034;  -41.975; -164.000; -220.000
355.167;  -34.975; -262.000; -162.000
355.300;  -96.500;-1061.000; -880.000
355.433;  972.275;  -71.000;  -14.000
355.565; 1473.400; -402.000; -384.000
355.698;  360.600; -356.000; -296.000
355.831;   -4.600; -882.000; -801.000
355.964;   94.850; -285.000; -170.000
356.096;  -87.800; -856.000; -843.000
356.229;    5.375; -523.000; -530.000
356.362;  302.525; -373.000; -266.000
356.494;  577.850; -229.000; -162.000
356.627;  514.325;  269.000;  377.000
356.760;  633.725;  120.000;   53.000
356.892;  897.375; -286.000; -601.000
357.025;  708.950;  403.000;  389.000
357.157;  671.050; -167.000; -179.000
357.290;  628.200; -856.000; -713.000
357.423;  185.350; -667.000; -556.000
357.555;  116.975; -217.000; -228.000
357.688;  132.150; -483.000; -364.000
357.820;  510.350; -870.000; -877.000
357.953; 4093.675; -563.000; -589.000
358.085;  881.825; -632.000; -612.000
358.218; 1302.150;-1131.000; -932.000
358.350;  231.475;  -58.000;  312.000
358.483; -117.200;-1300.000;-1187.000
358.615;   -4.625;-1182.000;-1078.000
358.747;  -57.450;-1187.000;-1058.000
358.880;   27.275; -810.000; -744.000
359.012;  -17.575; -376.000; -202.000
359.145;  -43.650; -480.000; -511.000
359.277;   65.750; -962.000; -913.000
359.409; 3412.225;  536.000;  231.000
359.542;  885.125; -738.000; -688.000
359.674;   72.625;   46.000;   13.000
359.806;  -62.450; -565.000; -438.000
359.939;  -60.200; -617.000; -516.000
360.071;  -15.650; -583.000; -579.000
360.203;  -22.900; -411.000; -364.000
360.335;   38.925;  164.000;  -16.000
360.468;  207.050; -249.000; -307.000
360.600; 2683.475; -547.000; -454.000
360.732; 2752.575; -546.000; -423.000
360.864;  370.225;-1216.000;-1044.000
360.996;  325.650; -516.000; -554.000
361.129;   44.775; -389.000; -598.000
361.261;    6.575;  110.000; -113.000
361.393;  -34.850; -252.000; -214.000
361.525;   20.050;   94.000;  244.000
361.657;  -40.600; -821.000; -703.000
361.789;   -0.300; -139.000; -155.000
361.921;  250.475; -642.000; -593.000
362.053;  281.775;  524.000;  541.000
362.185;   45.550;  288.000;   72.000
362.318;  -79.425; -709.000; -705.000
362.450;  122.350;  294.000;  444.000
362.582;  125.750; -913.000; -870.000
362.714;  -33.950; -353.000; -332.000
362.846;  -98.400; -606.000; -490.000
362.978; -152.600; -941.000; -811.000
363.109;   52.175; -161.000; -260.000
363.241;  478.500; -739.000; -749.000
363.373;  422.025; -649.000; -564.000
363.505;  619.200; -186.000;  -91.000
363.637;  141.025; -787.000; -601.000
363.769; -126.450;-1067.000;-1080.000
363.901;  -67.350; -596.000; -654.000
364.033; -120.175;-1103.000;-1062.000
364.165;   10.175; -283.000; -283.000
364.296;   65.225; -316.000; -177.000
364.428;   50.400;-1344.000;-1220.000
364.560;  -78.300; -679.000; -661.000
364.692;  -68.025; -738.000; -835.000
364.824;  299.800; -588.000; -456.000
364.955;  446.900; -402.000; -564.000
365.087;  840.325;-1097.000; -852.000
365.219;    9.175; -686.000; -816.000
365.351;  -67.000; -526.000; -572.000
365.482;   44.225;  300.000;  240.000
365.614;  -59.150; -402.000; -314.000
365.746; -106.175; -729.000; -752.000
365.877;  -94.875; -706.000; -672.000
366.009;  242.450;  -35.000;  -62.000
366.141; -109.775;-1249.000;-1134.000
366.272; -116.600; -803.000; -719.000
366.404; -129.300;-1005.000; -874.000
366.535;  -24.400; -139.000;  -12.000
366.667; -107.500; -644.000; -649.000
366.799;   28.525;  353.000;  203.000
366.930; -132.175; -862.000; -996.000
367.062;  124.750; -639.000; -613.000
367.193;  128.200; -872.000; -842.000
367.325;  -70.550; -580.000; -684.000
367.456;   60.200; -246.000;   31.000
367.588;  148.075; -371.000; -318.000
367.719;   32.225;  -44.000;  -45.000
367.851;  -33.775; -222.000; -241.000
367.982;  -40.125; -875.000; -732.000
368.113;  120.250; -475.000; -358.000
368.245; -129.725; -960.000; -841.000
368.376;  -30.125; -254.000; -302.000
368.508;  -37.300; -188.000; -263.000
368.639; -151.150;-1166.000;-1034.000
368.770;  -14.675; -670.000; -589.000
368.902;  -63.025; -836.000; -926.000
369.033; -119.525; -906.000; -855.000
369.164;  -58.400; -720.000; -653.000
369.296; -119.275; -452.000; -601.000
369.427;  -11.500; -209.000; -144.000
369.558;  -67.925; -593.000; -377.000
369.689;  -94.250; -721.000; -569.000
369.821; -136.750; -951.000; -845.000
369.952;  -31.025;   42.000; -108.000
370.083;  -62.300; -229.000; -108.000
370.214;  -85.050; -735.000; -650.000
370.345;   -8.125;   65.000;   81.000
370.477;  -93.050; -810.000; -790.000
370.608;  250.800; -328.000; -264.000
370.739;  -35.850;-1233.000;-1292.000
370.870;  -26.075;-1102.000; -923.000
371.001;  105.750; -378.000; -467.000
371.132;  -87.125; -754.000; -735.000
371.263;   -9.225;  -42.000; -148.000
371.394; -153.875; -841.000; -748.000
371.525;   27.650;  345.000;  225.000
371.657;  -97.325; -808.000; -670.000
371.788;   67.700;  103.000;  199.000
371.919;  180.850; -384.000; -304.000
372.050; 4046.600;  -91.000; -156.000
372.181; 1162.225; -188.000; -294.000
372.311;  412.400;   42.000; -127.000
372.442;   43.800; -457.000; -451.000
372.573;  -25.800; -444.000; -340.000
372.704; -127.325;-1008.000; -980.000
372.835;   77.325; -228.000; -289.000
372.966;  -74.325; -646.000; -554.000
373.097;  -82.975; -575.000; -711.000
373.228;  -36.025; -717.000; -542.000
373.359;  153.075; -824.000; -536.000
373.490; 1055.625; -881.000; -727.000
373.620; 1298.600;-1001.000; -803.000
373.751; 1993.800; -332.000; -396.000
373.882;  882.975; -663.000; -733.000
374.013;   81.600; -449.000; -262.000
374.143;  -42.875; -581.000; -659.000
374.274;  -99.250; -987.000; -908.000
374.405;  175.900; -388.000; -276.000
374.536;  500.325; -526.000; -387.000
374.666; 1257.750; -759.000; -807.000
374.797;  255.475; -817.000; -868.000
374.928;  988.750; -710.000; -560.000
375.058; 1006.450; -535.000; -500.000
375.189;   85.975;  -59.000;  -93.000
375.320; -117.275; -928.000;-1034.000
375.450;  -53.500; -625.000; -616.000
375.581;  -55.000; -526.000; -436.000
375.712;  -32.300; -574.000; -250.000
375.842;  341.200; -438.000; -415.000
375.973;  246.775; -554.000; -513.000
376.103;  -35.825; -665.000; -648.000
376.234;  -92.575; -531.000; -552.000
376.364;  -10.825; -944.000; -867.000
376.495;  336.500;  925.000;  529.000
376.625;    4.950; -472.000; -485.000
376.756;   73.275; -709.000; -678.000
376.886;  -61.575;-1178.000;-1026.000
377.017;   36.800;-1048.000;-1061.000
377.147;  318.950; -786.000; -782.000
377.278;   48.225;  174.000;  228.000
377.408; -144.175; -801.000; -815.000
377.538; -109.825; -707.000; -693.000
377.669; -103.050; -537.000; -613.000
377.799;  -99.700; -645.000; -635.000
377.929;  -69.375; -610.000; -428.000
378.060; -135.875; -781.000; -847.000
378.190;  -59.300; -726.000; -531.000
378.320;  -51.975; -401.000; -406.000
378.451;  -25.150; -131.000;  -22.000
378.581;  -19.650;  -67.000; -110.000
378.711;  151.225; 1035.000;  866.000
378.841;  -19.850; -533.000; -675.000
378.972;  -59.500; -871.000; -751.000
379.102;    9.500; -652.000; -579.000
379.232;  -17.775; -126.000;  -73.000
379.362; -113.500;-1001.000; -885.000
379.492;   15.200; -373.000; -424.000
379.623;   95.275;    0.000;  111.000
379.753; -104.950;-1107.000; -974.000
379.883;  212.875;   59.000;  156.000
380.013;   12.950;-1081.000;-1017.000
380.143;  -89.525;-1097.000;-1056.000
380.273; -105.750; -985.000; -861.000
380.403;    2.750; -344.000; -257.000
380.533;  -51.050; -651.000; -664.000
380.663;   64.900;  173.000;  128.000
380.793; -103.925;-1027.000;-1074.000
380.923;  -37.000; -103.000;  -34.000
381.053; -112.925; -613.000; -623.000
381.183;  -37.175; -106.000; -248.000
381.313;   47.800; -656.000; -470.000
381.443;   49.775; -692.000; -473.000
381.573;  226.325; -402.000; -409.000
381.703;  331.875;-1249.000;-1095.000
381.833; -134.425;-1454.000;-1336.000
381.963;  116.000; -134.000;  -87.000
382.093; 1545.650; -925.000; -909.000
382.223;  459.225; -713.000; -602.000
382.353;  -23.425; -801.000; -608.000
382.482;  421.775;-1091.000; -964.000
382.612;  857.775; -872.000; -644.000
382.742;  479.200; -695.000; -622.000
382.872;  293.650; -565.000; -551.000
383.002;   57.150;  347.000; -132.000
383.131;  -17.350; -226.000; -160.000
383.261;  -56.525; -706.000; -768.000
383.391;  297.100; -552.000; -377.000
383.521; 3085.175;  451.000;  263.000
383.650;  689.150; -947.000; -904.000
383.780;  -28.725; -783.000; -656.000
383.910;   76.800;  880.000;  802.000
384.039;   31.175; -794.000; -656.000
384.169;  230.425;-1205.000;-1017.000
384.299;  -20.275; -650.000; -662.000
384.428;  -95.925; -764.000; -680.000
384.558;  -55.050; -308.000; -275.000
384.687;  -50.275; -414.000; -334.000
384.817;   -1.650;   75.000;   -2.000
384.947;   26.250; -234.000; -141.000
385.076;  298.425;  982.000;  912.000
385.206;   87.750;  369.000;  480.000
385.335;  -29.250; -549.000; -417.000
385.465;  -88.275; -655.000; -663.000
385.594;  148.050;  -53.000;  -44.000
385.724;  477.800; -868.000; -838.000
385.853;  128.300; -296.000; -270.000
385.982; 1562.075; -743.000; -787.000
386.112; 2390.150;-1052.000; -871.000
386.241;  146.625; -307.000; -312.000
386.371;   27.050; -174.000;  -87.000
386.500;   13.450; -825.000; -789.000
386.629;   11.850; -874.000; -817.000
386.759;   58.900;  -43.000;   68.000
386.888;  -13.800; -170.000; -250.000
387.017;  -89.975; -648.000; -620.000
387.147;  -82.850; -771.000; -798.000
387.276;   -8.825; -410.000; -397.000
387.405;    6.550; -398.000; -342.000
387.535;  -55.325; -452.000; -361.000
387.664;  -68.800; -692.000; -620.000
387.793;   65.325; -198.000; -113.000
387.922;  586.525;  255.000;  200.000
388.052;   29.625; -576.000; -423.000
388.181;   18.525; -342.000; -472.000
388.310;  -12.625; -889.000; -710.000
388.439;  -47.075; -749.000; -742.000
388.568;  201.875;  365.000;  244.000
388.697; 1195.150; -756.000; -653.000
388.826;  239.100; -768.000; -666.000
388.956;   58.025; -285.000; -307.000
389.085;  -37.750; -347.000; -287.000
389.214; -113.800; -842.000; -872.000
389.343;  -75.375; -645.000; -413.000
389.472;  383.100;  126.000;  149.000
389.601;  512.025;   91.000;    0.000
389.730;   29.525; -568.000; -687.000
389.859;   54.150;  226.000;   46.000
389.988;  205.175; -423.000; -408.000
390.117;  141.900; -168.000; -146.000
390.246;  -17.600; -331.000; -320.000
390.375;  114.550; -673.000; -626.000
390.504;  -59.000; -703.000; -621.000
390.633; -106.100; -672.000; -726.000
390.761;  -58.775; -732.000; -645.000
390.890;   10.400;   -4.000; -130.000
391.019;  -19.675; -421.000; -441.000
391.148; -133.625; -826.000; -855.000
391.277;  -73.825; -576.000; -493.000
391.406;  -86.775; -821.000; -805.000
391.534;   19.700;  574.000; -301.000
391.663;  -64.450; -583.000; -645.000
391.792; -108.875; -673.000; -701.000
391.921;  101.375;   -3.000;   15.000
392.050;  212.175; -287.000; -228.000
392.178;  -42.975;-1206.000;-1061.000
392.307;  160.225; -758.000; -712.000
392.436;   79.700; -427.000; -641.000
392.564;    2.325;  166.000;   -6.000
392.693; -100.225; -860.000; -682.000
392.822;  238.925; -529.000; -534.000
392.950;  102.300; -880.000; -714.000
393.079;  372.975; -188.000; -328.000
393.208;   30.150; -488.000; -511.000
393.336;  -12.025; -170.000; -145.000
393.465;  -65.325; -317.000; -199.000
393.593;  -12.600;   62.000;   79.000
393.722; -160.375;-1121.000; -916.000
393.850;  -55.200; -188.000;  -61.000
393.979; -173.075; -926.000; -805.000
394.107;  -86.100; -517.000; -537.000
394.236;  -35.325; -570.000; -507.000
394.364;  195.950;  383.000;  206.000
394.493;  285.200; -911.000; -767.000
394.621;  -27.375; -955.000; -916.000
394.750;  690.950; -873.000; -923.000
394.878; 2899.700; -247.000; -149.000
395.007; 3844.725; -721.000; -807.000
395.135;  274.275; -790.000; -721.000
395.263;  -97.600;-1038.000;-1040.000
395.392;    2.125;  -25.000; -107.000
395.520; -135.625; -818.000; -679.000
395.648;  -87.650; -865.000; -915.000
395.777;  -20.400; -366.000; -405.000
395.905;  -57.425; -449.000; -564.000
396.033;    0.650;  217.000;  172.000
396.162;  487.050; -399.000; -453.000
396.290;  440.125;  -17.000;   -2.000
396.418;  104.125; -555.000; -514.000
396.546;  -89.475; -571.000; -466.000
396.674;  -95.550; -850.000; -878.000
396.803;    3.700;  -72.000;  -23.000
396.931;  107.200; -179.000; -199.000
397.059;   71.450;-1026.000; -989.000
397.187; -119.250;-1026.000; -975.000
397.315; -145.425; -884.000; -649.000
397.443; -114.725; -592.000; -443.000
397.572;  -91.925; -578.000; -424.000
397.700;   -8.875; -607.000; -614.000
397.828;    3.225;  120.000;  -90.000
397.956;  -57.350; -508.000; -478.000
398.084;  -87.325; -767.000; -626.000
398.212;   42.475;  137.000;  124.000
398.340;    4.575;  -56.000;  159.000
398.468;   38.175; -390.000; -169.000
398.596; -153.500; -993.000; -953.000
398.724; -125.625; -762.000; -767.000
398.852; -173.875;-1024.000; -976.000
398.980;  -66.875; -560.000; -560.000
399.108;  -55.175; -982.000; -735.000
399.236;   22.950;   13.000;    8.000
399.363;  -14.050;  222.000;  196.000
399.491;  -67.200; -404.000; -398.000
399.619; -147.400; -829.000; -800.000
399.747; -101.050; -859.000; -771.000
399.875;   75.075;  220.000;  234.000
400.003;  -46.575; -359.000; -284.000
400.130;  -89.600; -421.000; -341.000
400.258;  -47.050;  -83.000;   38.000
400.386;  -85.150; -352.000; -168.000
400.514;  -45.125; -526.000; -587.000
400.641;  -96.275; -928.000; -802.000
400.769; -156.650; -979.000; -888.000
400.897; -123.625; -838.000; -793.000
401.025;  -32.275; -166.000; -152.000
401.152;  -11.900;  220.000;   38.000
401.280;  -78.475; -430.000; -429.000
401.408; -121.400; -712.000; -576.000
401.535; -126.075; -735.000; -758.000
401.663; -207.875;-1134.000;-1054.000
401.790;  -97.650; -514.000; -525.000
401.918;   25.775;  436.000;  405.000
402.046;  -27.150;  134.000;  122.000
402.173;  -33.200;  -18.000;    7.000
402.301;  -86.750; -519.000; -397.000
402.428;   26.125;  528.000;  383.000
402.556; -161.625;-1188.000; -913.000
402.683;  -35.800;  -20.000;   -1.000
402.811;  -17.250;  -37.000; -206.000
402.938;  -20.275;   20.000;   27.000
403.066;  217.350; -574.000; -558.000
403.193;  348.050;  299.000;  239.000
403.321;  284.550; -396.000; -574.000
403.448;  337.900;   83.000;   27.000
403.575;  147.925;  -90.000;  -46.000
403.703; -105.875; -732.000; -557.000
403.830;  -77.375; -531.000; -496.000
403.957; -151.475;-1117.000;-1023.000
404.085;   -5.125;  -61.000; -172.000
404.212;  100.250;  -50.000;   63.000
404.339;  269.100; -566.000; -306.000
404.467; 5690.975; -612.000; -524.000
404.594; 3768.325; -287.000; -227.000
404.721;  926.725; -869.000; -764.000
404.848;   62.200; -113.000; -202.000
404.976;  -99.425; -856.000; -783.000
405.103;  -24.300;  -14.000;  -82.000
405.230;  -18.300;  190.000;  226.000
405.357;   11.100;  117.000;   44.000
405.484;  226.075;  -49.000;    5.000
405.612;   33.350; -548.000; -563.000
405.739;  -75.025; -488.000; -243.000
405.866;   72.525;  669.000;  385.000
405.993;  -54.875; -398.000; -102.000
406.120; -155.500; -801.000; -887.000
406.247;  -66.325; -323.000; -342.000
406.374;  480.900;  540.000;  629.000
406.501;  119.750; -632.000; -702.000
406.628;  -77.250; -621.000; -589.000
406.755; -119.325; -803.000; -620.000
406.882;  -35.275; -228.000; -277.000
407.009; -124.250; -719.000; -628.000
407.136;   54.500; -480.000; -401.000
407.263;  148.775; -939.000; -829.000
407.390;  -88.650; -692.000; -614.000
407.517; -177.250;-1139.000;-1187.000
407.644;  -78.300; -332.000; -256.000
407.771;  -67.375; -249.000; -287.000
407.898;   -3.900;  168.000;  328.000
408.025;  -81.375; -421.000; -313.000
408.151;   -3.050;   82.000;  153.000
408.278;  -76.050; -267.000; -216.000
408.405; -117.675; -931.000; -899.000
408.532;  -84.700; -549.000; -542.000
408.659; -133.225; -677.000; -648.000
408.785; -213.800;-1298.000;-1170.000
408.912;  -72.050; -412.000; -296.000
409.039; -122.025; -610.000; -686.000
409.166; -116.100; -591.000; -555.000
409.292; -122.925; -571.000; -534.000
409.419; -133.450; -665.000; -649.000
409.546; -105.550; -431.000; -192.000
409.672; -116.700; -713.000; -545.000
409.799;  -31.925;  -36.000;   34.000
409.926;  -52.000; -180.000; -179.000
410.052; -198.175;-1127.000;-1091.000
410.179;  -59.225; -368.000; -392.000
410.305;  -95.825; -375.000; -493.000
410.432;  -57.550; -220.000; -333.000
410.558;  -99.500; -305.000; -380.000
410.685; -104.275; -688.000; -431.000
410.812; -111.900; -409.000; -588.000
410.938; -153.150; -964.000; -808.000
411.065; -111.325; -671.000; -645.000
411.191;  -26.275; -189.000; -174.000
411.317; -126.275; -823.000; -742.000
411.444;  -71.250; -317.000; -246.000
411.570;  -85.250; -339.000; -294.000
411.697; -140.675; -758.000; -752.000
411.823; -185.925; -989.000; -999.000
411.949;  -56.025;  -56.000;   17.000
412.076; -129.450; -539.000; -519.000
412.202; -136.450; -758.000; -757.000
412.329; -141.775; -798.000; -752.000
412.455; -129.800; -821.000; -657.000
412.581;  -29.300;  -15.000;  172.000
412.707;  -73.025; -540.000; -457.000
412.834;    2.950;  156.000;  219.000
412.960;  -86.475; -785.000; -784.000
413.086; -121.550; -743.000; -701.000
413.212;  139.250;  604.000;  578.000
413.339;  -71.250; -685.000; -701.000
413.465;    7.875; -364.000; -310.000
413.591; -101.925; -757.000; -474.000
413.717;  -63.175; -358.000; -366.000
413.843; -151.325; -839.000; -861.000
413.969;  -66.600;  -47.000; -292.000
414.096; -118.800; -679.000; -679.000
414.222;  -21.300;  -33.000;   85.000
414.348;  -33.600; -652.000; -385.000
414.474;  107.275;   38.000;  -52.000
414.600;  -23.050; -126.000; -144.000
414.726;  -33.150;  -96.000;  -55.000
414.852;  -65.100; -365.000; -342.000
414.978;   36.550;  104.000;  -18.000
415.104;   16.725;   38.000;   80.000
415.230;   16.825; -329.000; -330.000
415.356;   39.525; -409.000; -514.000
415.482;  207.225;   13.000;  -35.000
415.608;  249.675; -247.000; -323.000
415.734;  963.750;   67.000;   38.000
415.860;19999.550; -875.000; -767.000
415.986;14088.225; -685.000; -607.000
416.111; 1190.500; -798.000; -652.000
416.237;  238.400; -424.000; -571.000
416.363; 1104.250; -765.000; -733.000
416.489; 4034.100; -324.000; -251.000
416.615;  412.175; -707.000; -742.000
416.741;  -43.950; -677.000; -784.000
416.866; -100.800; -673.000; -736.000
416.992; -128.700; -801.000; -818.000
417.118;  -44.425;  -41.000;  -80.000
417.244;  -76.750; -798.000; -531.000
417.369;  -94.875; -801.000; -612.000
417.495;   -7.225; -325.000; -254.000
417.621;  -95.800;-1015.000; -803.000
417.746;   -2.475; -579.000; -572.000
417.872;   32.450; -254.000; -144.000
417.998;   40.950; -515.000; -530.000
418.123; 1049.600;-1073.000; -845.000
418.249; 5283.075; -512.000; -601.000
418.374;  688.725; -916.000; -824.000
418.500;  102.450; -383.000; -482.000
418.626;  102.500;   70.000;  -59.000
418.751;  107.825; -549.000; -448.000
418.877;  178.325; -637.000; -643.000
419.002; 1822.425; -688.000; -560.000
419.128;12342.650; -930.000; -721.000
419.253; 2905.325; -967.000; -837.000
419.379;  381.100; -391.000; -338.000
419.504;  382.175;  325.000;  415.000
419.629;  507.825; -393.000; -212.000
419.755; 3530.150; -317.000; -254.000
419.880;20544.950;  -98.000;   67.000
420.006;11274.375; -280.000; -221.000
420.131;28807.950; -662.000; -775.000
420.256; 4050.425; -315.000; -316.000
420.382;  516.825; -665.000; -687.000
420.507;   60.375; -649.000; -778.000
420.632;  146.100; -337.000; -339.000
420.758;  273.425; -251.000; -425.000
420.883;  -85.850; -876.000; -672.000
421.008; -113.350; -775.000; -619.000
421.133;  -99.650; -509.000; -467.000
421.259;  -63.225; -325.000; -259.000
421.384; -129.500; -834.000; -693.000
421.509;  -41.425;-1052.000; -862.000
421.634; 1370.850; -936.000; -820.000
421.759;  556.150; -359.000; -327.000
421.885;  -72.550; -717.000; -656.000
422.010;  -96.325; -673.000; -542.000
422.135; -149.350; -695.000; -727.000
422.260;   31.950;  340.000;  280.000
422.385;  -72.025;   12.000;  -98.000
422.510;    4.075;  151.000;  -26.000
422.635;    0.550;  -87.000;  -43.000
422.760;  109.225; -766.000; -791.000
422.885;   44.225;  -57.000;  -80.000
423.010;  -45.100; -112.000; -169.000
423.135;  -98.175; -481.000; -561.000
423.260;  -29.650; -150.000; -245.000
423.385;   55.350;  476.000;  222.000
423.510;   16.275;   71.000;  -22.000
423.635;   73.950;  133.000;   45.000
423.760;   57.775;  383.000;  328.000
423.885;   42.450;  336.000;  391.000
424.010;    2.050;  -68.000;  -13.000
424.135;  -38.125;    5.000;  -33.000
424.259; -101.950; -654.000; -457.000
424.384;  -69.300; -279.000; -272.000
424.509;  -25.275; -260.000; -186.000
424.634; -101.850; -761.000; -623.000
424.759;  -26.950; -688.000; -544.000
424.883;  -25.225; -506.000; -527.000
425.008;  154.275; -502.000; -410.000
425.133; 1946.475; -679.000; -653.000
425.258;  896.250; -517.000; -381.000
425.382; 1154.475; -867.000; -774.000
425.507; 2901.375; -487.000; -543.000
425.632;  446.175; -802.000; -663.000
425.756;  439.725; -256.000; -146.000
425.881; 6470.725; -831.000; -857.000
426.006;16951.800; -604.000; -355.000
426.130; 2633.875; -696.000; -508.000
426.255;  315.525; -611.000; -491.000
426.379;  134.125; -189.000; -577.000
426.504;  367.850;  660.000;  544.000
426.629; 4063.750; -519.000; -466.000
426.753; 2683.125;   64.000;  -46.000
426.878;  308.125; -252.000; -288.000
427.002;  166.575; -651.000; -668.000
427.127; 1628.125;  -35.000; -158.000
427.251;11219.075;  372.000;  401.000
427.375; 3092.725; -191.000; -173.000
427.500; 2506.475; -616.000; -610.000
427.624;  835.625; -234.000; -400.000
427.749;  106.850; -216.000; -225.000
427.873;  -49.850; -499.000; -412.000
427.997;  -38.800; -222.000; -230.000
428.122;   81.275;  795.000;  703.000
428.246;   72.925;  433.000;  434.000
428.371; -142.400; -869.000; -773.000
428.495; -122.425; -624.000; -646.000
428.619;  -51.675; -186.000; -117.000
428.743;   16.700;   65.000;  132.000
428.868;   12.375; -732.000; -643.000
428.992; 1570.775; -219.000; -326.000
429.116;  625.650; -329.000; -357.000
429.240;  295.350;  419.000;  426.000
429.365;  -16.900; -454.000; -574.000
429.489;  -43.025; -638.000; -647.000
429.613;    8.400; -236.000; -177.000
429.737;   20.200; -563.000; -432.000
429.861;  255.625; -247.000; -133.000
429.985; 5555.475; -425.000; -305.000
430.109; 5949.225; -770.000; -908.000
430.234;  658.975;   76.000;  -50.000
430.358;   48.875; -250.000; -160.000
430.482;  -71.050; -672.000; -564.000
430.606;  -63.500; -655.000; -375.000
430.730;   22.350; -437.000; -388.000
430.854;  144.900; -909.000; -835.000
430.978;  -66.550; -795.000; -764.000
431.102;  -94.975; -499.000; -422.000
431.226; -142.275; -874.000; -815.000
431.350;   12.575;  345.000;  422.000
431.474;  -88.025; -661.000; -373.000
431.597; -169.625;-1060.000; -848.000
431.721;  -77.975; -276.000; -267.000
431.845; -143.525; -704.000; -472.000
431.969;  -89.300; -304.000; -349.000
432.093; -103.450; -395.000; -317.000
432.217;  -27.500;   32.000;   82.000
432.341; -112.275; -523.000; -518.000
432.464;  -19.775;   96.000;   40.000
432.588;  240.725; -401.000; -329.000
432.712;  103.400;  -52.000;  -52.000
432.836;   36.300;  213.000;  263.000
432.959;  -15.425; -372.000; -311.000
433.083;   62.075;   11.000;    2.000
433.207;  377.600;  285.000;  930.000
433.330; 5038.150; -391.000; -200.000
433.454; 6055.950; -654.000; -638.000
433.578; 3511.675;  583.000;  278.000
433.701;  618.225; -623.000; -675.000
433.825;  139.350; -292.000; -299.000
433.949;  199.800;   28.000;  -72.000
434.072;   56.600; -410.000; -323.000
434.196;  -36.925; -309.000; -117.000
434.319; 3744.475;25482.000;25124.000
434.443;  745.675; -656.000; -603.000
434.566; 2600.075;  281.000;   62.000
434.690;  412.650; -637.000; -383.000
434.813;   31.300; -251.000; -173.000
434.937;  -93.250; -569.000; -696.000
435.060;  -58.150; -423.000; -332.000
435.184;  343.650; -492.000; -217.000
435.307;  186.100;  159.000;  102.000
435.431;  -20.100;  -40.000;   24.000
435.554;  -92.250; -399.000; -240.000
435.677; -102.275; -350.000; -258.000
435.801;  -46.200;  -25.000;   49.000
435.924;  -13.375;    1.000;  -67.000
436.048; -118.850;-1019.000; -732.000
436.171;  -83.650; -240.000;  -66.000
436.294;  -41.200; -248.000; -229.000
436.417;   64.750; -963.000; -849.000
436.541; -105.525; -814.000; -840.000
436.664;  -55.250; -242.000; -316.000
436.787;  -49.250;   13.000;  113.000
436.910; -114.600; -792.000; -422.000
437.034;  -10.900;  142.000;  143.000
437.157;   51.450;  -11.000;    0.000
437.280;  -58.375; -392.000; -292.000
437.403;  -88.800; -982.000; -869.000
437.526;  761.650; -903.000; -865.000
437.649; 2609.850; -505.000; -332.000
437.772;  381.125; -692.000; -540.000
437.896;  117.125;  700.000;  544.000
438.019; -111.375; -758.000; -503.000
438.142; -107.875; -596.000; -506.000
438.265;   -8.125; -639.000; -670.000
438.388;  658.250; -520.000; -410.000
438.511;   94.625; -597.000; -394.000
438.634;  -55.600; -247.000; -125.000
438.757; -150.700; -693.000; -619.000
438.880;  -31.775;  -34.000;  -57.000
439.003;  -92.750; -417.000; -437.000
439.126;  -76.725; -287.000; -167.000
439.248;  -72.350;  -98.000; -139.000
439.371;  -50.225;    9.000;  -53.000
439.494;   12.575;  510.000;  439.000
439.617;  -64.850;   65.000;  -88.000
439.740; -187.775; -968.000; -816.000
439.863; -154.475; -755.000; -595.000
439.986; -127.200; -476.000; -431.000
440.108;  -51.825; -161.000; -112.000
440.231; -171.575; -950.000; -836.000
440.354;  -61.750;  -64.000; -150.000
440.477;   38.650; -566.000; -542.000
440.599;   -4.750; -200.000; -225.000
440.722; -124.700; -709.000; -586.000
440.845;   62.275;  751.000;  928.000
440.968; -133.925; -415.000; -311.000
441.090;  -90.050; -199.000;  -33.000
441.213; -179.775;-1021.000; -825.000
441.336;  -71.200; -159.000;   -5.000
441.458;  -96.075; -549.000; -396.000
441.581;  -92.825; -628.000; -629.000
441.703;  -86.775; -152.000;   13.000
441.826; -122.250; -557.000; -400.000
441.948;  -69.100;   56.000;   51.000
442.071;   14.050;  555.000;  424.000
442.193; -124.575; -531.000; -485.000
442.316;    8.975;  152.000;   97.000
442.438;   29.775; -233.000;  -10.000
442.561;   61.575;  272.000;  262.000
442.683;  639.925; -809.000; -522.000
442.806; 1310.575;   -8.000;   74.000
442.928;   24.975; -859.000; -604.000
443.051;  -76.275; -577.000; -373.000
443.173; -110.350; -341.000; -339.000
443.295; -105.150; -263.000; -371.000
443.418;  -92.525; -321.000;  -29.000
443.540;  -11.800; -106.000;   -4.000
443.662; -135.000; -563.000; -465.000
443.785;  -24.775;  335.000;  199.000
443.907; -114.575; -362.000; -208.000
444.029; -132.950; -767.000; -494.000
444.152; -151.350; -644.000; -554.000
444.274;  -33.575;  -18.000;  -24.000
444.396; -130.100; -461.000; -221.000
444.518; -137.900; -691.000; -454.000
444.640; -116.550; -268.000; -111.000
444.763;  -31.850;  388.000;  249.000
444.885; -134.900; -432.000; -392.000
445.007;  -38.850;   35.000;   86.000
445.129; -129.000; -610.000; -515.000
445.251; -109.725; -372.000; -439.000
445.373; -156.775; -537.000; -386.000
445.495;   -8.775;  242.000;  350.000
445.617;   49.025;  853.000;  753.000
445.739;  -72.225; -215.000;  -97.000
445.861;  -38.900; -245.000; -112.000
445.984;  -29.300; -267.000; -101.000
446.105;  238.225; -418.000; -251.000
446.227;  684.425; -176.000;  -19.000
446.349;    3.025; -358.000; -249.000
446.471; -110.675; -615.000; -448.000
446.593;  -77.450; -316.000;   19.000
446.715;  -20.625;  -67.000;   41.000
446.837;   48.150;  697.000;  832.000
446.959; -108.225; -457.000; -478.000
447.081; -133.725; -628.000; -518.000
447.203;   37.525;  862.000;  834.000
447.325;  -99.700; -270.000;   42.000
447.446;  -12.025;  286.000;  530.000
447.568; -161.875; -921.000; -803.000
447.690;  -81.925; -236.000; -245.000
447.812; -158.625; -798.000; -519.000
447.933;  -32.350;  155.000;  127.000
448.055;  -87.350; -306.000; -261.000
448.177;  154.700;   31.000;   79.000
448.299;  101.025; -935.000; -727.000
448.420;   25.125;  -25.000;  159.000
448.542;  -53.350;   -3.000;   33.000
448.664;  -23.000;  109.000;  322.000
448.785;  -66.525;  265.000;   83.000
448.907;  -79.750; -614.000; -353.000
449.028;  -38.750; -771.000; -471.000
449.150;   40.025;  492.000;  589.000
449.272; -204.450;-1044.000; -913.000
449.393;   24.675;  612.000;  694.000
449.515; -167.850; -634.000; -581.000
449.636;  -70.550; -264.000; -155.000
449.758;   62.475;  763.000;  622.000
449.879;  -93.700; -498.000; -396.000
450.001; -100.100; -149.000;  -49.000
450.122;  -52.775;  -95.000;  162.000
450.244;  -34.625;   37.000;  364.000
450.365; -106.400; -495.000; -301.000
450.486;  -45.375;   80.000;  268.000
450.608;   20.150;  393.000;  326.000
450.729;   52.400;  578.000;  645.000
450.850;  -32.950; -574.000; -466.000
450.972;  731.600; -552.000; -389.000
451.093; 4816.850;  190.000;  588.000
451.214; 1994.625; -516.000; -337.000
451.336;  319.700;  773.000;  579.000
451.457;   48.475;  264.000;  393.000
451.578;  -53.475; -118.000;  -74.000
451.699; -143.625; -546.000; -540.000
451.821;  -73.875; -284.000;  -50.000
451.942;   -9.625;  278.000;  285.000
452.063;   13.100;  228.000;  419.000
452.184;  539.700;  -54.000;  -49.000
452.305; 1052.625;  103.000;  170.000
452.427;  108.475; -549.000; -301.000
452.548;  -26.275;   23.000;   79.000
452.669;  -58.575; -257.000;  -89.000
452.790;  -61.175;    3.000;  -18.000
452.911;  -23.550;  195.000;  259.000
453.032;  -84.675; -289.000;  -60.000
453.153;  -57.125;  -29.000;   81.000
453.274;   43.000;  737.000;  868.000
453.395;  -61.275;  -51.000;  175.000
453.516;  125.900; 1317.000; 1388.000
453.637;  -73.625; -205.000; -150.000
453.758;  -60.975;   15.000;   69.000
453.879; -134.600; -462.000; -250.000
454.000;   64.075; 1086.000;  948.000
454.121; -130.850; -554.000; -326.000
454.242; -143.925; -599.000; -383.000
454.362;  -62.700;  -99.000;  114.000
454.483;  -51.075; -309.000; -229.000
454.604;   36.075;  512.000;  580.000
454.725; -148.100; -627.000; -555.000
454.846; -132.750; -474.000; -406.000
454.967;  -39.575;  230.000;  539.000
455.087;  -57.500;  179.000;  153.000
455.208;    9.000;  554.000;  856.000
455.329;  -75.625;  -22.000;   82.000
455.450;   17.575;  473.000;  633.000
455.570; -107.400; -234.000; -211.000
455.691;  -58.775;  201.000;  407.000
455.812; -114.325; -270.000;  -92.000
455.932;  -70.225;  107.000;  -97.000
456.053;  -97.175;   36.000;   24.000
456.173; -130.250; -433.000; -355.000
456.294; -148.500; -476.000; -303.000
456.415;  -68.075;  -73.000;   70.000
456.535;  -41.425;  297.000;  273.000
456.656;  -70.325;  132.000;  240.000
456.776;  -78.900;    3.000;  298.000
456.897;  -17.550;  308.000;  513.000
457.017;  -91.050; -153.000;   -3.000
457.138; -116.500; -402.000; -249.000
457.258;  -39.925;  263.000;  224.000
457.379;  -22.675;  509.000;  521.000
457.499;  -40.850;  443.000;  432.000
457.620; -138.275; -407.000; -231.000
457.740; -115.125; -132.000;  -11.000
457.860;  -69.975;   87.000;   44.000
457.981;  -70.475;  132.000;  124.000
458.101;  -86.350;  -89.000;   40.000
458.221;  -29.575;  336.000;  402.000
458.342;  -74.975;   -4.000;  -37.000
458.462;    9.975;  617.000;  352.000
458.582;  -55.500; -302.000; -294.000
458.703;   -1.675;  303.000;  154.000
458.823;  -43.050;   22.000;  163.000
458.943;    3.100;  341.000;  467.000
459.063;  -35.525; 1124.000;  192.000
459.183;  -29.400;  328.000;  313.000
459.304;  -10.250;  315.000;  517.000
459.424;  -84.300; -246.000;  -89.000
459.544;  330.900;  388.000;  764.000
459.664;  813.600;  499.000;  506.000
459.784;  280.775; 1004.000; 1175.000
459.904;   43.100;  867.000;  744.000
460.024;   61.950;  867.000;  684.000
460.144;    3.975;  449.000;  554.000
460.264;  -15.575;  515.000;  327.000
460.385; -111.375; -145.000; -119.000
460.505;   15.850;  905.000;  858.000
460.625; -114.525;  -17.000;  -68.000
460.745;  -28.550;  396.000;  541.000
460.864;  -71.475;  153.000;  469.000
460.984;   -1.575;  499.000;  573.000
461.104;  129.350; 1656.000; 1775.000
461.224;   -6.100;  657.000;  650.000
461.344;  -45.825;  431.000;  360.000
461.464;  -41.800;  258.000;  513.000
461.584;  -36.475;  283.000;  466.000
461.704;  -62.775;   58.000;  108.000
461.824;  -75.325;  238.000;  259.000
461.943;  -58.525;  191.000;  130.000
462.063;  -94.500;    2.000;  324.000
462.183;   14.825;  639.000;  717.000
462.303;   85.325; 1678.000; 1230.000
462.422;   12.850;  781.000;  840.000
462.542;  -51.025;  271.000;  391.000
462.662;   20.875;  353.000;  380.000
462.782;  222.125;  833.000;  572.000
462.901;  465.350;  545.000;  717.000
463.021;  257.750; 1702.000; 1638.000
463.141;  -14.900;  337.000;  770.000
463.260;  -45.025;  614.000;  474.000
463.380;    0.900;  902.000;  884.000
463.499;  -54.200;  342.000;  332.000
463.619;  -46.725;  581.000;  559.000
463.738;  112.025; 1644.000;  903.000
463.858;   11.250;  657.000;  811.000
463.978;  -49.975;  542.000;  396.000
464.097;   47.375;  921.000; 1114.000
464.217;   99.750; 1196.000; 1143.000
464.336;   98.125; 1068.000; 1130.000
464.455;  -43.350;  328.000;  659.000
464.575;   34.675;  597.000;  602.000
464.694;  174.000; 1204.000; 1179.000
464.814;  120.975; 1190.000; 1138.000
464.933;   64.075; 1095.000; 1027.000
465.052;   90.675; 1412.000; 1054.000
465.172;   59.825;  922.000;  799.000
465.291;  130.225; 1376.000; 1320.000
465.410;    8.600;  462.000;  735.000
465.530;   77.350; 1355.000; 1310.000
465.649;   48.100; 1209.000; 1273.000
465.768;  129.000; 1673.000; 1508.000
465.888;   38.450;  941.000; 1174.000
466.007;   77.975; 1335.000; 1440.000
466.126;  -12.675;  721.000;  641.000
466.245;   36.775; 1176.000; 1187.000
466.364;    1.050;  950.000; 1060.000
466.484;   49.775; 1024.000; 1213.000
466.603;   42.625; 1101.000; 1222.000
466.722;  110.725; 1490.000; 1769.000
466.841;   62.925; 1151.000; 1401.000
466.960;   24.375; 1069.000;  972.000
467.079;  116.000; 1971.000; 1786.000
467.198;   41.400; 1238.000; 1181.000
467.317;   64.800; 1768.000; 1162.000
467.436;   55.250; 1709.000; 1261.000
467.555;  108.125; 1796.000; 1746.000
467.674;   53.350; 1227.000; 1329.000
467.793;   35.075; 1376.000; 1374.000
467.912;   79.425; 1658.000; 1539.000
468.031;  131.550; 2038.000; 1930.000
468.150;  125.000; 1842.000; 1837.000
468.269;  182.750; 2313.000; 2090.000
468.388;  178.825; 2168.000; 2339.000
468.507;  247.725; 2884.000; 2903.000
468.626;  204.850; 2555.000; 2541.000
468.744;  132.400; 2018.000; 2174.000
468.863;  184.850; 2312.000; 2523.000
468.982;   84.300; 1503.000; 1555.000
469.101;  220.125; 2788.000; 2692.000
469.220;  135.725; 2333.000; 2176.000
469.338;  232.650; 2935.000; 3051.000
469.457;  192.975; 2719.000; 2545.000
469.576;  344.425; 3953.000; 3784.000
469.695;  231.800; 2877.000; 3066.000
469.813;  409.650; 4148.000; 4192.000
469.932;  405.050; 4255.000; 4485.000
470.051;  413.825; 4075.000; 4161.000
470.169;  840.450; 4470.000; 4338.000
470.288; 1440.925; 4700.000; 4809.000
470.406;  841.350; 5059.000; 5194.000
470.525;  619.975; 6101.000; 5787.000
470.644;  625.325; 6847.000; 6794.000
470.762;  813.000; 8397.000; 7873.000
470.881;  901.600; 8651.000; 8464.000
470.999; 1050.500; 9685.000; 9151.000
471.118; 1085.800;11174.000;10711.000

