
Integration time [ms]: 100.000
Averaging Nr. [scans]: 40
Smoothing Nr. [pixels]: 0
Data measured with spectrometer [name]: 2101012U2
Wave   ;Sample   ;Dark     ;Reference
[nm]   ;[counts] ;[counts] ;[counts] 

197.733;   53.225;  516.000;  404.000
197.879;  -89.950; -610.000; -634.000
198.025;  -54.600; -475.000; -420.000
198.171;  -66.075; -602.000; -612.000
198.317;  -38.125; -401.000; -316.000
198.463;  -62.325; -655.000; -404.000
198.609;   18.050;  181.000; -137.000
198.755;  -94.550; -644.000; -410.000
198.901;  -69.525; -505.000; -424.000
199.047;  -57.650; -615.000; -488.000
199.193;  -50.550; -230.000; -468.000
199.339;  -43.625; -222.000; -369.000
199.485;   30.175;  330.000;  271.000
199.631;   23.000;  227.000;  310.000
199.777;  -56.800; -466.000; -398.000
199.923;  -66.850; -610.000; -424.000
200.069;    2.175; -141.000;  -58.000
200.215;   56.225;  128.000;  453.000
200.361;   30.075;  243.000;  477.000
200.507;  -59.900; -600.000; -373.000
200.653;  -46.350; -371.000; -194.000
200.798;  -37.275; -215.000; -125.000
200.944;   -6.150; -146.000;  -41.000
201.090;   27.175;   61.000;  222.000
201.236;   -3.150; -116.000; -158.000
201.382;  127.525;  874.000;  903.000
201.528;   -2.700;  -58.000;  -48.000
201.674;  -41.900; -386.000; -293.000
201.819;  -66.350; -540.000; -439.000
201.965;  -79.900; -699.000; -447.000
202.111;  -33.475; -273.000; -226.000
202.257;  -56.675; -250.000; -238.000
202.402;   -0.625;   13.000;  -36.000
202.548;  -19.825; -169.000; -116.000
202.694;   78.350;  410.000; -183.000
202.840;  -73.225; -603.000; -531.000
202.985;  -93.850; -681.000; -639.000
203.131; -103.750; -832.000; -666.000
203.277;  -21.750; -199.000; -262.000
203.423;  -53.000; -434.000; -520.000
203.568;  -49.150; -462.000; -237.000
203.714;  -67.350; -535.000; -542.000
203.860;  -90.150; -682.000; -641.000
204.005;   16.275;  112.000;  167.000
204.151;   67.525;  561.000;  556.000
204.296;  -51.650; -354.000; -221.000
204.442;  -78.550; -600.000; -547.000
204.588;  -81.000; -592.000; -579.000
204.733;   23.800;  178.000;  168.000
204.879; -132.625;-1018.000; -822.000
205.025;    8.100;  -99.000;  126.000
205.170;    6.375;  -17.000;   94.000
205.316;   79.850;  438.000;  661.000
205.461;  -88.150; -698.000; -554.000
205.607;   74.100;  609.000;  665.000
205.752;  -90.475; -626.000; -551.000
205.898;  -60.900; -501.000; -391.000
206.043;  -74.775; -578.000; -506.000
206.189;  -50.550; -243.000; -285.000
206.334;   78.575;  554.000;  606.000
206.480;   76.900;  409.000;  239.000
206.625;  -78.625; -529.000; -552.000
206.771;  -52.075; -451.000; -373.000
206.916;  -40.075; -210.000; -537.000
207.062;  -77.325; -545.000; -591.000
207.207;  -76.750; -546.000; -443.000
207.353;   52.650;  185.000;  460.000
207.498;   31.675;  196.000;   85.000
207.643;  -57.700; -501.000; -370.000
207.789; -124.350;-1069.000; -910.000
207.934; -113.075; -665.000; -713.000
208.080;  -26.800; -154.000;   66.000
208.225;  -18.575;  -22.000;  -57.000
208.370;  -83.550; -727.000; -619.000
208.516;  -82.650; -741.000; -487.000
208.661;  -33.525; -127.000;  -69.000
208.806;  -20.750; -165.000; -171.000
208.952; -122.900;-1044.000; -731.000
209.097;   75.275;  378.000;  349.000
209.242;  -52.750; -307.000; -382.000
209.387;   58.700;  392.000;  350.000
209.533;  -55.150; -321.000; -350.000
209.678;   67.750;  472.000;  543.000
209.823;  -45.450; -408.000; -310.000
209.969; -103.625; -860.000; -757.000
210.114; -114.050; -907.000; -719.000
210.259; -131.325; -939.000; -889.000
210.404;  -12.900; -171.000;  103.000
210.549;    1.700;  108.000;    3.000
210.695;   -5.275;   -3.000;  -95.000
210.840;   26.025;   94.000;   67.000
210.985;  -52.925; -484.000; -303.000
211.130;   62.825;  268.000;  406.000
211.275;   15.475;  207.000;  199.000
211.420;  -57.800; -300.000; -289.000
211.566;  -63.300; -536.000; -489.000
211.711;    7.325;  218.000;  157.000
211.856;  -64.875; -545.000; -519.000
212.001;   -4.075;  151.000;   44.000
212.146;   28.175;  153.000;   49.000
212.291;  -20.425; -210.000; -186.000
212.436;  -38.175; -280.000;   -6.000
212.581;  -90.975; -685.000; -653.000
212.726;  -70.300; -487.000; -538.000
212.871;  -58.675; -552.000; -217.000
213.016; -158.175;-1172.000;-1029.000
213.161;   56.450;  406.000;  291.000
213.306;  -75.175; -435.000; -577.000
213.451; -112.300; -778.000; -689.000
213.596;  -52.350; -455.000; -347.000
213.741;  -62.325; -448.000; -538.000
213.886;  -91.525; -498.000; -517.000
214.031;  -43.500; -294.000; -124.000
214.176;  -50.050; -408.000; -341.000
214.321;  -19.925; -296.000; -157.000
214.466;  -27.375; -163.000;  -43.000
214.611;   -9.550;  -61.000;  -10.000
214.756; -126.850; -948.000; -858.000
214.901;  -27.525; -388.000; -226.000
215.046; -113.600; -797.000; -825.000
215.191;   18.900;  128.000;   35.000
215.336;  -17.025; -157.000;  -19.000
215.480;  -71.325; -684.000; -505.000
215.625;   -7.175; -175.000;  -19.000
215.770;  -87.475; -757.000; -662.000
215.915;   -3.000;   -5.000;  -97.000
216.060;   -0.725; -113.000;  -21.000
216.205; -125.675; -731.000; -779.000
216.349;  -87.475; -470.000; -533.000
216.494; -132.075; -939.000; -867.000
216.639; -123.250; -823.000; -888.000
216.784;  -85.475; -577.000; -525.000
216.929;   35.975;  392.000;  281.000
217.073;  -15.050; -244.000;  -31.000
217.218;   -7.925;   78.000;  -47.000
217.363;  -82.850; -656.000; -618.000
217.507;  -91.875; -623.000; -588.000
217.652; -124.050; -845.000; -874.000
217.797; -101.225; -708.000; -659.000
217.942; -125.400; -856.000; -720.000
218.086;   65.225;  608.000;  539.000
218.231;  -37.825; -174.000;  -26.000
218.376;  -33.475; -337.000; -229.000
218.520;   -0.975;  -41.000;   96.000
218.665;  -46.050; -338.000; -204.000
218.810;  -52.650; -275.000; -233.000
218.954;   18.375;  201.000;   35.000
219.099; -113.850; -713.000; -963.000
219.243;  -77.375; -589.000; -554.000
219.388;  -29.475; -264.000; -136.000
219.532;  -31.800; -116.000; -116.000
219.677;  -71.225; -564.000; -521.000
219.822;  -14.700;   33.000;   89.000
219.966;   17.225;   17.000;  -99.000
220.111;  -39.425; -328.000;  -40.000
220.255; -106.325; -797.000; -750.000
220.400;  -18.025; -180.000; -146.000
220.544;  -82.750; -516.000; -450.000
220.689;  -62.000; -422.000; -451.000
220.833;  -33.250; -123.000;  -58.000
220.978;  -63.500; -393.000; -563.000
221.122;   23.800;  319.000;  307.000
221.267; -133.150; -906.000; -837.000
221.411;  -70.225; -478.000; -394.000
221.555;  -30.850; -104.000;  -23.000
221.700;  -43.725; -329.000; -222.000
221.844;   16.400;  255.000;  272.000
221.989;  -58.800; -328.000; -311.000
222.133;  -54.025; -289.000; -307.000
222.277;  -14.075;    5.000;   78.000
222.422;    8.800;  227.000;  113.000
222.566;  -53.075; -381.000; -214.000
222.711;  -74.525; -414.000; -479.000
222.855;  -81.075; -643.000; -586.000
222.999;  -96.050; -642.000; -717.000
223.144;  -32.850; -195.000; -194.000
223.288;   50.725;  423.000;  251.000
223.432;   24.950;  184.000;  230.000
223.576;   22.275;  152.000;  -21.000
223.721;   45.250;  364.000;  273.000
223.865;  -68.100; -472.000; -475.000
224.009;  284.950; 1673.000; 1631.000
224.153;  -85.325; -660.000; -671.000
224.298;  -65.675; -531.000; -489.000
224.442;  -22.375;  -74.000;  -33.000
224.586;  -11.100; -169.000; -106.000
224.730; -108.675; -858.000; -670.000
224.875; -119.850; -739.000; -688.000
225.019;   19.000;  102.000;  188.000
225.163;   52.475;  208.000;  341.000
225.307;   13.725;   97.000;  -91.000
225.451;   49.550;  360.000;  481.000
225.595;   30.275;  264.000;  176.000
225.739;   -1.425; -170.000;  -94.000
225.884;   -3.225;   86.000;    5.000
226.028; -103.350; -760.000; -626.000
226.172;  -48.850; -260.000; -273.000
226.316; -115.750; -941.000; -902.000
226.460;  -79.725; -645.000; -493.000
226.604;  -54.625; -406.000; -400.000
226.748; -106.950; -836.000; -733.000
226.892;  -17.850; -227.000; -181.000
227.036;  -53.575; -537.000; -447.000
227.180;  -61.650; -551.000; -375.000
227.324;  -65.550; -561.000; -580.000
227.468; -115.650; -819.000; -717.000
227.612;    2.000;  242.000;  -28.000
227.756; -113.550; -845.000; -698.000
227.900;   51.225;  342.000;  441.000
228.044;  -63.000; -509.000; -290.000
228.188;   51.675;  448.000;  568.000
228.332;  -77.725; -546.000; -472.000
228.476;  -34.450; -223.000; -149.000
228.620;  -35.775; -210.000; -150.000
228.764;   54.125;  431.000;  349.000
228.908;  -12.375; -155.000;   30.000
229.052;  -75.450; -615.000; -528.000
229.195;  -24.600; -172.000;   13.000
229.339;  -26.200; -235.000; -305.000
229.483;  -41.900;    5.000; -162.000
229.627;   -4.750; -156.000;  139.000
229.771;  -47.300; -218.000; -294.000
229.915;   -2.125;  230.000;   79.000
230.059;  -92.550; -648.000; -663.000
230.202;  -47.275; -370.000; -317.000
230.346;   -9.475; -107.000;  107.000
230.490;  -77.275; -489.000; -521.000
230.634; -109.300; -736.000; -553.000
230.777;   66.075;  478.000;  509.000
230.921;  -53.125; -450.000; -359.000
231.065;  -56.300; -246.000; -286.000
231.209;   24.325;  261.000;  265.000
231.352;   15.950;   54.000;   40.000
231.496;   15.925;  568.000;  188.000
231.640;  -85.025; -693.000; -621.000
231.783;   63.575;  546.000;  525.000
231.927;  -50.075; -294.000; -365.000
232.071; -115.900; -962.000; -736.000
232.214; -119.700; -980.000; -764.000
232.358; -117.450; -683.000; -599.000
232.502;    4.300;  -19.000;    7.000
232.645; -145.275;-1090.000; -927.000
232.789;  -29.025; -257.000; -218.000
232.933;  -54.525; -407.000; -224.000
233.076; -127.050;-1038.000; -897.000
233.220; -112.125; -752.000; -777.000
233.363;  -91.600; -669.000; -477.000
233.507;   36.675;  371.000;  129.000
233.650; -121.200; -764.000; -834.000
233.794;   54.100;  438.000;  461.000
233.938;  -65.975; -530.000; -362.000
234.081;  -28.775;  -93.000;   31.000
234.225;  -66.075; -631.000; -539.000
234.368; -113.725; -773.000; -723.000
234.512;  -60.050; -385.000; -299.000
234.655;  -89.600; -582.000; -555.000
234.798;  -84.225; -493.000; -466.000
234.942; -129.300; -884.000;-1002.000
235.085;  -94.175; -651.000; -443.000
235.229;  -74.600; -405.000; -410.000
235.372;  -54.350; -247.000; -191.000
235.516;  -65.050; -397.000; -321.000
235.659;    3.375;   92.000;  121.000
235.802;  -15.300;  -38.000;  -22.000
235.946;   31.500;  335.000;  215.000
236.089;   26.050;  126.000;  250.000
236.233;   43.150;  275.000;  298.000
236.376;  -56.425; -235.000; -378.000
236.519;  -55.500; -297.000; -319.000
236.663;  -13.450; -215.000; -117.000
236.806; -149.650;-1029.000; -999.000
236.949;   57.525;  543.000;  431.000
237.092;   66.975;  412.000;  391.000
237.236;  -91.500; -589.000; -502.000
237.379;   58.850;  352.000;  428.000
237.522; -127.275; -879.000; -768.000
237.666;  -16.800; -271.000;   18.000
237.809; -125.650; -851.000; -823.000
237.952;   33.825;  469.000;  271.000
238.095;  -80.575; -447.000; -442.000
238.238;   78.150;  688.000;  700.000
238.382;   -2.850;  166.000;  103.000
238.525;  -77.275; -598.000; -511.000
238.668; -147.000;-1060.000; -985.000
238.811;  -86.900; -638.000; -643.000
238.954;  -59.525; -483.000; -334.000
239.097;   92.275;  617.000;  664.000
239.241;   25.350;  394.000;  326.000
239.384;  -36.625; -254.000; -214.000
239.527;  -68.400; -424.000; -224.000
239.670; -154.225; -994.000;-1091.000
239.813; -112.175; -696.000; -658.000
239.956;   78.400;  579.000;  473.000
240.099; -111.250; -778.000; -725.000
240.242;   48.050;  428.000;  432.000
240.385;   49.675;  466.000;  450.000
240.528;  -71.500; -706.000; -473.000
240.671;   22.425;  189.000;  134.000
240.814;  -52.425; -441.000; -158.000
240.957; -102.675; -767.000; -578.000
241.100; -114.425; -779.000; -755.000
241.243; -153.200;-1234.000; -893.000
241.386;  -79.775; -508.000; -379.000
241.529; -101.750; -735.000; -547.000
241.672;  -88.725; -566.000; -495.000
241.815; -123.875; -832.000; -808.000
241.958;  -38.775; -125.000; -182.000
242.101;  -87.375; -545.000; -390.000
242.244;  -41.300; -270.000; -325.000
242.387;  -39.975; -304.000; -246.000
242.530;   52.675;  470.000;  134.000
242.673;  -48.800; -381.000; -309.000
242.815; -124.650; -925.000; -899.000
242.958;  -79.475; -482.000; -381.000
243.101;   -2.825;  132.000;  187.000
243.244;  -87.300; -564.000; -521.000
243.387;  -51.900; -313.000; -316.000
243.530;  -96.900; -657.000; -674.000
243.672;   -5.675;   43.000;  -92.000
243.815;  -47.800; -355.000; -283.000
243.958;   -9.775;   98.000;  -26.000
244.101;    2.700;   59.000;  -16.000
244.243;  -10.575;  -47.000;  101.000
244.386; -112.600; -761.000; -630.000
244.529;  -42.225; -132.000; -139.000
244.672; -163.900;-1154.000; -951.000
244.814; -113.550; -621.000; -794.000
244.957;  -40.125; -380.000; -304.000
245.100;  -95.900; -489.000; -489.000
245.242;  -69.675; -387.000; -374.000
245.385;  -21.450;  -59.000;  -39.000
245.528; -121.225; -871.000; -705.000
245.670;   78.275;  612.000;  634.000
245.813;  -84.625; -599.000; -547.000
245.956;  -58.450; -324.000; -275.000
246.098;  -80.275; -508.000; -650.000
246.241;    1.700;  194.000;   48.000
246.383;  -15.875; -119.000;  -73.000
246.526;  -78.800; -454.000; -525.000
246.669; -128.250; -889.000; -780.000
246.811;   10.250;  172.000;   -1.000
246.954;  -67.125; -512.000; -426.000
247.096;  -32.700;  -84.000;   -6.000
247.239;  -76.450; -482.000; -445.000
247.381;  -81.000; -647.000; -488.000
247.524;   72.250;  645.000;  679.000
247.666;  -11.400;   58.000;   11.000
247.809; -117.500; -887.000; -691.000
247.951;   -1.875;  -75.000;  138.000
248.094;   23.475;  432.000;  308.000
248.236; -165.525;-1262.000;-1238.000
248.378;    1.400; -356.000;  -81.000
248.521;  -36.850; -334.000; -337.000
248.663;  -38.950; -236.000; -267.000
248.806;  -32.225; -300.000; -266.000
248.948; -104.650; -886.000; -763.000
249.090;  -52.500; -428.000; -398.000
249.233;  -47.175; -344.000; -381.000
249.375;  -75.100; -474.000; -451.000
249.518;  -20.700;  -83.000; -133.000
249.660;  -27.000; -103.000;    3.000
249.802; -173.825;-1303.000;-1189.000
249.945;  -82.350; -612.000; -540.000
250.087; -121.650; -834.000; -768.000
250.229;  -51.325; -362.000; -480.000
250.371;  -68.575; -494.000; -439.000
250.514;  -53.950; -310.000; -244.000
250.656;  -64.825;   69.000;  102.000
250.798; -122.675; -849.000; -800.000
250.940;  -75.875; -322.000; -322.000
251.083;  -48.250; -335.000; -111.000
251.225;   59.500;  338.000;  310.000
251.367;  -45.350; -274.000; -373.000
251.509;  -42.800; -265.000; -210.000
251.651;  -88.000; -731.000; -671.000
251.794;   87.100;  538.000;  632.000
251.936; -130.600; -821.000; -747.000
252.078;  -88.175; -540.000; -461.000
252.220;  -79.325; -645.000; -477.000
252.362;   78.425;  344.000;  462.000
252.504;  -72.175; -677.000; -584.000
252.646; -114.575; -875.000; -722.000
252.788;  -17.050;   14.000; -128.000
252.931;  -19.850; -257.000; -253.000
253.073;  -51.525; -376.000; -317.000
253.215;  -24.725;  141.000;  122.000
253.357;   -8.125;   82.000; -153.000
253.499;  -66.450; -374.000; -234.000
253.641;  -89.825; -749.000; -594.000
253.783; -100.025; -609.000; -527.000
253.925;  -96.775; -586.000; -591.000
254.067; -109.650; -744.000; -667.000
254.209;  -33.800; -391.000; -259.000
254.351; -140.050; -865.000; -883.000
254.493;  -76.500; -441.000; -417.000
254.635; -138.275; -936.000; -818.000
254.777; -100.075; -752.000; -687.000
254.918;  -69.925; -512.000; -430.000
255.060;  -69.675; -551.000; -395.000
255.202;  -68.800; -473.000; -261.000
255.344;  -77.200; -658.000; -455.000
255.486;  -77.650; -471.000; -406.000
255.628; -130.375; -780.000; -781.000
255.770;  -99.275; -676.000; -536.000
255.912;  -66.650; -559.000; -468.000
256.053;  -90.150; -730.000; -508.000
256.195;  137.375; 1008.000;  903.000
256.337; -110.000; -861.000; -595.000
256.479;   44.900;  532.000;  416.000
256.621;  -48.700; -394.000; -212.000
256.762; -106.075; -789.000; -742.000
256.904;   47.625;  485.000;  487.000
257.046;  -66.400; -381.000; -271.000
257.188;  -42.150; -351.000; -264.000
257.329;  -71.300; -525.000; -464.000
257.471; -125.950; -939.000; -807.000
257.613;  -68.325; -584.000; -498.000
257.755; -156.000;-1073.000; -982.000
257.896;   30.150;  286.000;  392.000
258.038;  -78.400; -403.000; -352.000
258.180;  -54.775; -354.000; -279.000
258.321;  -88.450; -581.000; -457.000
258.463;   -9.850;  -71.000;  133.000
258.605;  -90.550; -562.000; -570.000
258.746; -118.600; -886.000; -772.000
258.888; -151.250;-1026.000;-1020.000
259.029;   12.625;  121.000;   -8.000
259.171;  -95.750; -614.000; -550.000
259.313;  -16.575;  -49.000;  -47.000
259.454;  -87.025; -536.000; -414.000
259.596;  -60.975; -483.000; -390.000
259.737;  -77.650; -590.000; -474.000
259.879;   40.150;  217.000;  311.000
260.020;   83.800;  901.000;  636.000
260.162;  -38.775; -146.000; -253.000
260.303; -117.400; -768.000; -687.000
260.445;  -99.400; -609.000; -613.000
260.586;   20.825;  392.000;  157.000
260.728;  -48.100; -360.000; -248.000
260.869;  -69.925; -350.000; -343.000
261.011;   59.275;  706.000;  537.000
261.152;  -74.800; -479.000; -319.000
261.293;  -90.100; -576.000; -595.000
261.435;  -31.475; -219.000; -184.000
261.576;  -61.225; -455.000; -325.000
261.718;   57.400;  420.000;  470.000
261.859; -132.875; -940.000; -949.000
262.000; -142.675; -951.000;-1016.000
262.142;  -26.750;  -52.000;  -60.000
262.283; -123.825; -808.000; -691.000
262.424; -100.450; -666.000; -625.000
262.566; -163.625;-1161.000; -983.000
262.707; -130.950; -840.000; -830.000
262.848; -120.550; -769.000; -726.000
262.990;  -53.450; -362.000; -345.000
263.131;   89.550;  650.000;  681.000
263.272;  -13.000;  -61.000;  -41.000
263.413;  -96.875; -589.000; -561.000
263.555;  -83.825; -669.000; -143.000
263.696;  -89.875; -550.000; -641.000
263.837;  -67.425; -449.000; -551.000
263.978;  -11.500;   -5.000;  -77.000
264.119;  -52.225; -283.000; -264.000
264.261; -124.275; -847.000; -630.000
264.402;  -16.900;   33.000;   40.000
264.543;  -88.575; -509.000; -524.000
264.684;  -24.050;   61.000;  -50.000
264.825;  -80.225; -816.000; -538.000
264.966;   -0.575;  -84.000;  -67.000
265.107; -114.375; -646.000; -670.000
265.248; -129.925; -825.000; -812.000
265.390;   -3.775;  152.000;   -9.000
265.531;  -29.900; -238.000; -107.000
265.672;  -91.650; -557.000; -630.000
265.813;   43.650;  563.000;  439.000
265.954; -153.425; -959.000; -940.000
266.095;  -21.450; -372.000; -322.000
266.236;  -97.375; -686.000; -548.000
266.377;  -54.925; -243.000; -297.000
266.518;  -79.950; -619.000; -547.000
266.659;   30.300;  170.000;  268.000
266.800;    5.700;   83.000;   85.000
266.941;  -71.525; -487.000; -478.000
267.082;   25.900;  354.000;   99.000
267.223;  -59.825; -344.000; -273.000
267.364; -124.725; -892.000; -686.000
267.504;  -17.175;    3.000;  135.000
267.645;   -1.225;  160.000;   67.000
267.786;  -43.100; -147.000;  -86.000
267.927;  -70.150; -473.000; -379.000
268.068;  -26.825; -186.000;  -61.000
268.209;  -44.950; -175.000; -413.000
268.350;  -59.025; -388.000; -532.000
268.490;  -86.225; -648.000; -521.000
268.631;    8.350;  127.000;  225.000
268.772; -116.400; -874.000; -647.000
268.913;  -59.950; -328.000; -476.000
269.054;  -11.200; -117.000;   12.000
269.194;  -61.925; -418.000; -402.000
269.335; -163.650;-1137.000;-1074.000
269.476;  -24.425;   33.000;  -35.000
269.617;  -54.825; -347.000; -392.000
269.757;  -93.850; -713.000; -646.000
269.898; -115.450; -856.000; -613.000
270.039;  -78.650; -415.000; -405.000
270.180; -144.275; -952.000; -816.000
270.320;  -36.850; -190.000; -250.000
270.461;  -45.625; -277.000; -249.000
270.602;  -30.300; -186.000; -156.000
270.742; -117.975; -868.000; -943.000
270.883;  -70.050; -442.000; -390.000
271.023;  -67.150; -358.000; -357.000
271.164;  -81.425; -607.000; -528.000
271.305; -105.425; -666.000; -654.000
271.445;  -91.800; -722.000; -683.000
271.586;  -82.075; -462.000; -283.000
271.726;  -45.075; -397.000; -322.000
271.867;  -78.500; -594.000; -534.000
272.008;  140.250; -473.000; -285.000
272.148;  125.425;  462.000;  468.000
272.289;    5.800; -113.000; -181.000
272.429;   10.275;   19.000;  185.000
272.570; -117.900; -633.000; -737.000
272.710; -109.275; -825.000; -775.000
272.851;  -48.675;  113.000; -130.000
272.991; -174.350;-1173.000;-1077.000
273.131;  -68.650; -419.000; -459.000
273.272; -110.500; -683.000; -723.000
273.412;    1.075; -143.000;  -31.000
273.553;  -73.000; -488.000; -507.000
273.693;  130.800;  913.000;  858.000
273.834; -113.450; -894.000; -692.000
273.974;  -89.050; -664.000; -615.000
274.114; -101.325; -772.000; -560.000
274.255;   69.575;  414.000;  373.000
274.395;    5.950; -180.000; -125.000
274.535;   13.425;  199.000;  350.000
274.676;   29.025;  225.000;   94.000
274.816;    0.525;  110.000;   34.000
274.956;  -81.075; -624.000; -690.000
275.097;  -78.500;-1014.000; -922.000
275.237; -121.175; -913.000; -803.000
275.377; -107.925; -778.000; -689.000
275.517; -153.850; -878.000; -937.000
275.658;  -68.450; -590.000; -555.000
275.798;  -67.000; -606.000; -413.000
275.938;    6.475;  215.000;  323.000
276.078; -105.925; -626.000; -395.000
276.218;  -15.300;   99.000;  104.000
276.359; -126.500;-1026.000;-1024.000
276.499;  -75.300; -605.000; -446.000
276.639;  -46.625; -305.000; -151.000
276.779;  -55.275; -475.000; -357.000
276.919; -107.550; -783.000; -624.000
277.059;  -23.975; -261.000; -212.000
277.199;  -49.100; -357.000; -259.000
277.340;   37.000;  287.000;  175.000
277.480; -104.775; -840.000; -693.000
277.620;   21.475;  192.000;   16.000
277.760; -205.625;-1533.000;-1294.000
277.900;   15.150;  113.000;   33.000
278.040;   18.325;  137.000;  159.000
278.180;   26.250;  270.000;  170.000
278.320;   -0.675;   21.000;   56.000
278.460;  -83.825; -443.000; -469.000
278.600;  -94.475; -708.000; -598.000
278.740;   37.750;  448.000;  224.000
278.880;  -72.450; -768.000; -791.000
279.020;  -25.850; -194.000; -144.000
279.160;  -90.350; -672.000; -595.000
279.300; -132.175; -926.000; -873.000
279.440;  -82.600; -709.000; -622.000
279.579;  -42.450;-1014.000; -929.000
279.719;  -52.650; -410.000; -394.000
279.859;   66.200;   -4.000;   41.000
279.999;   17.025; -208.000;  101.000
280.139;  -27.225; -435.000; -387.000
280.279;  -79.500; -708.000; -745.000
280.419;  -24.475; -229.000; -147.000
280.559;  -30.575; -259.000; -180.000
280.698;  -79.050; -790.000; -639.000
280.838; -107.650; -778.000; -800.000
280.978; -100.200; -846.000; -790.000
281.118; -113.225; -811.000; -704.000
281.257;   -7.000;   24.000;    6.000
281.397; -116.550;-1094.000; -960.000
281.537;  -97.125; -599.000; -712.000
281.677;  -15.850; -150.000; -101.000
281.816;  -99.200; -700.000; -630.000
281.956;  -35.000; -193.000; -257.000
282.096;  -83.300; -539.000; -396.000
282.235; -121.075; -672.000; -638.000
282.375;  -30.800; -243.000;  -98.000
282.515; -103.625; -715.000; -707.000
282.654;    7.625;   29.000;  106.000
282.794;   11.900;  388.000;  244.000
282.934;  -69.725; -530.000; -491.000
283.073; -135.400;-1030.000; -857.000
283.213;  -66.700; -460.000; -467.000
283.353;  -44.175; -408.000; -349.000
283.492;  -34.025; -264.000; -296.000
283.632;  -53.575; -254.000; -168.000
283.771; -110.275; -859.000; -730.000
283.911;  -55.050; -369.000; -260.000
284.050; -111.000; -794.000; -748.000
284.190; -159.650;-1229.000;-1096.000
284.329; -149.125;-1055.000; -964.000
284.469;  -66.875; -516.000; -591.000
284.608;  -67.675; -559.000; -598.000
284.748;  -79.675; -614.000; -570.000
284.887;   -4.075;  -87.000;  -20.000
285.027; -126.050; -844.000; -892.000
285.166;  -45.025; -192.000; -249.000
285.306;    6.250; -116.000;  -33.000
285.445;  -55.725; -229.000; -343.000
285.584;  -97.600; -630.000; -494.000
285.724;  -58.375; -282.000; -322.000
285.863; -104.925; -857.000; -507.000
286.002;  -65.575; -366.000; -276.000
286.142; -104.350; -715.000; -622.000
286.281;  -86.825; -525.000; -493.000
286.420;  -75.675; -554.000; -417.000
286.560;   83.150;  653.000;  623.000
286.699; -137.000; -958.000; -912.000
286.838;  -90.175; -590.000; -591.000
286.978;  -98.950; -533.000; -537.000
287.117; -148.250;-1085.000; -950.000
287.256;  -42.850; -228.000; -211.000
287.395;  -68.150; -197.000; -378.000
287.535;  -60.250; -370.000; -298.000
287.674;  -85.500; -509.000; -484.000
287.813;   50.975;  661.000;  533.000
287.952; -133.975;-1010.000; -871.000
288.091; -158.900;-1049.000; -915.000
288.231;   -3.675;   13.000;   15.000
288.370; -169.050;-1217.000;-1200.000
288.509; -104.800; -728.000; -645.000
288.648; -106.150; -770.000; -548.000
288.787;  -50.850; -243.000;  -87.000
288.926;  -72.425; -454.000; -475.000
289.065;  109.450;  859.000;  672.000
289.204;  -54.350; -377.000; -217.000
289.344;  -99.325; -791.000; -690.000
289.483;   14.325;  416.000;  304.000
289.622;  -43.225; -291.000; -149.000
289.761;  -20.550; -309.000; -166.000
289.900; -122.775; -785.000; -626.000
290.039;  -11.275;  -12.000;  -95.000
290.178;  -51.075; -274.000; -180.000
290.317;  -85.450; -618.000; -479.000
290.456;  -76.825; -463.000; -451.000
290.595; -139.275; -961.000; -833.000
290.734; -145.525; -904.000; -891.000
290.873;  -78.900; -456.000; -420.000
291.011; -114.600; -833.000; -843.000
291.150;  -99.575; -770.000; -682.000
291.289;  -33.725; -343.000; -110.000
291.428; -105.950; -599.000; -480.000
291.567;  -57.325; -370.000; -442.000
291.706;  -13.600;  109.000;  154.000
291.845; -106.925; -597.000; -505.000
291.984; -173.000;-1234.000;-1061.000
292.122;   74.675;  602.000;  582.000
292.261;   29.275;  620.000;  463.000
292.400;    4.075; -144.000;  211.000
292.539; -140.250; -959.000; -813.000
292.678;  -39.800; -325.000; -300.000
292.816; -154.800;-1136.000; -965.000
292.955;  -99.375; -844.000; -684.000
293.094;  -31.225; -173.000; -337.000
293.233;  -63.900; -556.000; -400.000
293.371;  -34.500; -225.000;  -84.000
293.510; -121.475; -866.000; -780.000
293.649; -127.875; -959.000; -924.000
293.787;  -84.850;-1083.000;-1012.000
293.926;  -13.500; -113.000;  -32.000
294.065;  -57.950; -379.000; -290.000
294.203;   38.475;  298.000;  406.000
294.342;   14.200;   74.000;  156.000
294.481; 6906.725;51180.000; -836.000
294.619;  -43.425; -425.000; -582.000
294.758; -143.000;-1230.000;-1137.000
294.896;   55.800; -125.000;    5.000
295.035; -135.250;-1040.000;-1006.000
295.174; -139.200;-1082.000; -954.000
295.312;  -48.375; -323.000; -203.000
295.451;  -24.050; -307.000; -428.000
295.589;  -69.100; -389.000; -518.000
295.728;   10.450; -292.000; -165.000
295.866;    0.950;  -36.000;  -51.000
296.005;  -66.300; -584.000; -341.000
296.143;  -81.300; -558.000; -596.000
296.282; -106.275; -957.000; -881.000
296.420;  -92.500; -657.000; -557.000
296.559;  -89.375; -892.000; -633.000
296.697;    9.200; -847.000; -665.000
296.835;   44.625;-1141.000;-1002.000
296.974;   35.650;  -23.000;   39.000
297.112;   -9.950; -443.000; -504.000
297.251;  -75.500; -815.000; -755.000
297.389;   69.375; -576.000; -438.000
297.527;   32.750; -145.000;  -83.000
297.666;  -55.425; -486.000; -438.000
297.804;  -60.425; -404.000; -264.000
297.942;  -23.300; -136.000; -161.000
298.081;   -5.050; -183.000;   63.000
298.219;   42.075;  -17.000;  -19.000
298.357;   41.050; -144.000;  -71.000
298.495;   20.375; -810.000; -812.000
298.634;   76.325;  245.000;  219.000
298.772;   42.500; -220.000; -338.000
298.910;  -41.625; -309.000; -182.000
299.048;  -22.575; -130.000; -153.000
299.187;  -33.925; -350.000; -250.000
299.325;    4.600;   52.000;  122.000
299.463;   36.175; -389.000; -299.000
299.601;   96.750; -327.000; -271.000
299.739; -114.650; -908.000; -883.000
299.877; -105.900; -791.000; -703.000
300.016;  -55.100;-1095.000; -935.000
300.154;  162.425;  -19.000; -161.000
300.292;   35.050; -428.000; -348.000
300.430;   23.450; -408.000; -291.000
300.568; -113.475; -940.000; -874.000
300.706;  -60.000; -366.000; -469.000
300.844;  -87.875;-1108.000; -979.000
300.982;  124.075;  246.000;  282.000
301.120; -107.000; -965.000; -866.000
301.258;  -77.075; -812.000; -705.000
301.396;   35.175;  104.000;  -41.000
301.534;   57.400; -218.000; -293.000
301.672;  -18.275; -664.000; -521.000
301.810;    1.975; -613.000; -545.000
301.948;  100.575;   53.000;  149.000
302.086;  567.225; -250.000;  -32.000
302.224;  852.500; -610.000; -585.000
302.362;   21.400; -558.000; -622.000
302.500;  -39.275; -923.000; -893.000
302.638;   91.950;  128.000;  245.000
302.776;  -18.325; -352.000; -408.000
302.913;   33.000;  447.000;  236.000
303.051;  -11.125;  -86.000;  -23.000
303.189;   27.150;   90.000;  118.000
303.327;  -51.325; -341.000; -256.000
303.465;  -89.925; -832.000; -588.000
303.603; -100.725; -805.000; -604.000
303.740;   97.375;  417.000;  241.000
303.878;    5.600; -800.000; -759.000
304.016; -107.175; -915.000; -790.000
304.154; -137.425;-1123.000;-1152.000
304.291;  -40.575; -505.000; -554.000
304.429;    6.375;  102.000;   74.000
304.567; -138.375; -908.000; -893.000
304.705;  -55.175; -408.000; -515.000
304.842;   64.475; -616.000; -540.000
304.980;   37.750;  215.000;   35.000
305.118;   21.125; -367.000; -365.000
305.255;  -88.500; -945.000; -927.000
305.393;   36.900;  178.000;  239.000
305.531; -107.325;-1173.000; -956.000
305.668;  -64.375; -663.000; -582.000
305.806;   84.650; -358.000; -439.000
305.943;   84.250; -629.000; -637.000
306.081;   45.500; -378.000; -267.000
306.219; -113.150; -863.000; -748.000
306.356;   -1.950;  158.000;   27.000
306.494;   98.075;  981.000;  761.000
306.631;  -24.200;  -11.000;  -55.000
306.769;  -15.075; -613.000; -485.000
306.906;  -10.950; -284.000; -258.000
307.044;  -70.425; -473.000; -488.000
307.181;  -71.875; -410.000; -332.000
307.319;    3.500;  112.000;   87.000
307.456; -177.175;-1191.000;-1153.000
307.594; -111.525; -980.000; -727.000
307.731;  -16.425; -371.000; -164.000
307.868;  -15.525;  -15.000;   20.000
308.006; -143.600; -961.000; -847.000
308.143;  -84.025; -618.000; -330.000
308.281;  105.200;  -37.000; -254.000
308.418;  -36.925; -748.000; -640.000
308.555;  -74.375; -400.000; -250.000
308.693;  -81.950; -577.000; -573.000
308.830; -112.725; -712.000; -657.000
308.967;  -26.750; -215.000;  -95.000
309.105;  -51.450; -507.000; -396.000
309.242;    1.925; -468.000; -367.000
309.379;  224.275; -577.000; -655.000
309.517;  -92.750; -936.000; -948.000
309.654; -121.375; -910.000; -734.000
309.791;  -93.450; -662.000; -580.000
309.928; -116.900; -977.000; -914.000
310.065;  174.550;  819.000;  697.000
310.203;  -15.525; -825.000; -850.000
310.340;  -30.075; -465.000; -321.000
310.477;  -79.425; -412.000; -516.000
310.614;  -83.175; -383.000; -473.000
310.751;  -81.100; -427.000; -518.000
310.889;  -34.225;    1.000;   11.000
311.026; -156.150;-1161.000; -939.000
311.163;  -61.825; -386.000; -380.000
311.300;  -86.800; -512.000; -479.000
311.437;  -77.800; -658.000; -619.000
311.574; -168.025;-1226.000; -985.000
311.711;  -62.125; -595.000; -433.000
311.848;  -56.225; -380.000; -388.000
311.985;   14.200;  270.000;   93.000
312.122; -121.925; -932.000; -762.000
312.259; -139.025; -941.000; -994.000
312.396;  -82.050; -508.000; -551.000
312.533; -102.025; -812.000; -790.000
312.670; -142.525;-1070.000; -898.000
312.807;  -49.150; -352.000; -367.000
312.944;  -80.825; -513.000; -611.000
313.081;  -44.500; -150.000; -415.000
313.218; -106.600;-1111.000; -867.000
313.355;  -17.650; -531.000; -449.000
313.492;   -4.650; -455.000; -292.000
313.629;  127.525;  815.000;  735.000
313.766; -154.100;-1176.000;-1008.000
313.902;  -27.775; -186.000;   21.000
314.039;  -54.900; -372.000; -289.000
314.176;   14.750;  286.000;  192.000
314.313;  -85.950; -569.000; -473.000
314.450;  -87.725; -788.000; -684.000
314.587;  -76.575; -468.000; -480.000
314.723;  -10.450;  -78.000;  130.000
314.860;   25.850;  318.000;  332.000
314.997;   16.300;  223.000;  142.000
315.134;  -31.875; -385.000; -368.000
315.270;  -53.675; -480.000; -496.000
315.407; -124.375;-1094.000; -967.000
315.544;  -66.325; -657.000; -538.000
315.681;  -66.775; -681.000; -565.000
315.817;   10.275; -133.000; -176.000
315.954;   -1.275; -613.000; -392.000
316.091; -142.400;-1045.000;-1023.000
316.227;  -15.875;  -71.000; -179.000
316.364;  -18.350;   23.000;    6.000
316.500;  -52.325; -113.000; -300.000
316.637;  -50.950; -181.000; -302.000
316.774;  -92.475; -625.000; -358.000
316.910; -102.300; -598.000; -629.000
317.047;  -80.000; -487.000; -351.000
317.183;  -61.175; -435.000; -566.000
317.320;  -21.850; -367.000; -321.000
317.456;  -84.200; -733.000; -805.000
317.593;  -98.500; -598.000; -641.000
317.729;  -16.625;  168.000;  -67.000
317.866; -205.900;-1434.000;-1285.000
318.002; -110.450; -708.000; -948.000
318.139;  -98.600; -883.000; -867.000
318.275; -112.950;-1003.000; -738.000
318.412;  -55.050; -517.000; -336.000
318.548;  -48.125; -751.000; -720.000
318.685; -102.625; -985.000; -888.000
318.821; -110.425; -762.000; -735.000
318.957;   -9.325;   34.000;  -23.000
319.094;   31.300;  297.000;  154.000
319.230;  -74.725; -756.000; -742.000
319.367;  108.900; -471.000; -520.000
319.503;   49.500; -538.000; -436.000
319.639; -116.350; -877.000; -793.000
319.775;  -69.000; -750.000; -685.000
319.912;  -66.850; -424.000; -519.000
320.048; -102.525;-1184.000;-1184.000
320.184;   70.225;   59.000;   70.000
320.321;  -70.575; -497.000; -467.000
320.457;   42.075;  475.000;  662.000
320.593;  -57.400; -375.000; -382.000
320.729; -105.400; -732.000; -734.000
320.866;  -86.475; -577.000; -635.000
321.002;  -84.675; -759.000; -809.000
321.138;  -24.750; -135.000; -211.000
321.274;   56.725; -148.000; -115.000
321.410;  -38.525; -585.000; -353.000
321.546;  -55.250;-1011.000; -911.000
321.683;   49.000;  400.000;  185.000
321.819;  -13.050;  -48.000; -117.000
321.955; -109.325; -743.000; -722.000
322.091;  -63.200; -585.000; -540.000
322.227;   -9.425; -382.000; -202.000
322.363;  -25.650; -320.000; -215.000
322.499;  -48.475; -343.000; -331.000
322.635;  128.500;  636.000;  443.000
322.771;   12.025; -139.000;   12.000
322.907;   81.525;  129.000;  327.000
323.043;  -31.150; -115.000; -206.000
323.179;  -45.000; -394.000; -363.000
323.315;    9.350; -401.000; -371.000
323.451;   74.475; -328.000; -236.000
323.587;   54.600;  -60.000;  -77.000
323.723;   -3.650; -682.000; -601.000
323.859;  -11.975; -258.000;  -76.000
323.995;  -55.700; -467.000; -409.000
324.131; -131.875; -967.000; -892.000
324.267;  -57.575; -254.000; -276.000
324.402; -133.875; -960.000; -983.000
324.538;  -34.475; -279.000; -104.000
324.674;   22.500;  164.000;   77.000
324.810;  122.700;  226.000;  308.000
324.946;   -5.300; -810.000; -658.000
325.082;  -83.775; -568.000; -475.000
325.217;  -29.050;  -62.000;   16.000
325.353; -114.600; -764.000; -659.000
325.489;  -92.600; -540.000; -506.000
325.625;  -92.350; -579.000; -525.000
325.760;   72.500;  517.000;  376.000
325.896;  -32.525; -515.000; -702.000
326.032;  -66.025; -403.000; -352.000
326.168;  -71.100; -462.000; -369.000
326.303;  -63.000; -352.000; -461.000
326.439;  -32.700; -336.000; -276.000
326.575;    1.275; -190.000;  -29.000
326.710;  -10.475; -156.000;  -30.000
326.846;  -24.125;  146.000;  103.000
326.982; -107.175; -530.000; -548.000
327.117;  -73.700; -481.000; -442.000
327.253;  -98.175; -745.000; -742.000
327.388; -156.650;-1137.000;-1153.000
327.524;  -68.725; -811.000; -578.000
327.659;  -29.900;  -58.000;  -22.000
327.795;  -17.050;   69.000;   45.000
327.931;  -93.150; -723.000; -499.000
328.066;  -40.150; -417.000; -276.000
328.202;  -20.975;   12.000; -129.000
328.337;  106.225;  957.000;  713.000
328.473;   40.950;  -12.000;  -74.000
328.608;  -24.675; -256.000; -267.000
328.743;  -77.775; -799.000; -664.000
328.879;    6.300;  214.000;  114.000
329.014;  -42.500; -102.000; -122.000
329.150; -100.425; -358.000; -483.000
329.285;  -79.800; -465.000; -466.000
329.421;  -66.550; -548.000; -246.000
329.556;  -22.950;  -36.000;   85.000
329.691; -112.400; -633.000; -615.000
329.827;  -92.550; -626.000; -480.000
329.962;  -47.275;  131.000; -301.000
330.097; -103.000; -673.000; -585.000
330.233;  -53.325; -410.000; -223.000
330.368; -126.500; -839.000; -628.000
330.503;  -23.650;    3.000;   98.000
330.638;   -8.150;  -93.000; -125.000
330.774;  -71.175; -609.000; -530.000
330.909;  -61.300; -434.000; -244.000
331.044; -103.375; -714.000; -708.000
331.179; -183.850;-1217.000;-1109.000
331.315;  -12.200;   77.000;   20.000
331.450;    2.475;  157.000;  285.000
331.585;  -89.025; -805.000; -706.000
331.720;  -92.175; -510.000; -460.000
331.855;  -16.975;  -35.000; -102.000
331.990;  233.500;   62.000;  138.000
332.126;  135.125; -110.000;   71.000
332.261;  -22.575; -379.000; -265.000
332.396;   -7.825; -135.000; -242.000
332.531; -106.900;-1074.000;-1031.000
332.666;   17.525; -519.000; -363.000
332.801;  -92.625; -726.000; -807.000
332.936;  -35.100; -192.000; -122.000
333.071; -138.125; -870.000; -817.000
333.206;    8.400;  307.000;  379.000
333.341;   36.650;  344.000;  418.000
333.476;  -81.975; -627.000; -623.000
333.611;  -40.450; -251.000; -173.000
333.746;  -56.600; -381.000; -464.000
333.881; -117.925; -973.000; -935.000
334.016; -135.300; -936.000; -917.000
334.151; -127.800; -746.000; -702.000
334.286;   27.575;  152.000;  186.000
334.421;  -35.475; -125.000; -178.000
334.556; -104.400; -611.000; -567.000
334.690;  -91.850; -631.000; -577.000
334.825;   44.825;  381.000;   83.000
334.960;  -61.400; -285.000; -413.000
335.095;   -1.575;  135.000;  -91.000
335.230; -101.675; -722.000; -738.000
335.365; -143.550;-1084.000; -990.000
335.499; -142.250;-1108.000;-1037.000
335.634;   11.675;    9.000;  534.000
335.769; -105.675; -755.000; -720.000
335.904;  -59.475; -603.000; -561.000
336.038;  -63.075; -735.000; -657.000
336.173; -131.350;-1206.000;-1194.000
336.308;    0.625; -116.000; -189.000
336.443;    1.925; -544.000; -634.000
336.577;  -81.825; -936.000; -787.000
336.712;   51.825;   -4.000;  -12.000
336.847;  -44.425; -724.000; -607.000
336.981;   61.175; -272.000; -208.000
337.116;  273.275;  615.000;  501.000
337.250;  133.075; -434.000; -421.000
337.385;  238.250; -297.000; -208.000
337.520;   70.675; -632.000; -603.000
337.654;  -43.500; -215.000; -126.000
337.789; -144.425; -989.000; -933.000
337.923;  -34.075; -104.000; -205.000
338.058;  -97.950; -673.000; -738.000
338.192;  -49.525; -611.000; -488.000
338.327;  -18.425;  -18.000; -155.000
338.461;  -79.200; -299.000; -469.000
338.596; -100.175; -780.000; -638.000
338.730;  -99.400; -767.000; -803.000
338.865;   82.100;  -46.000; -140.000
338.999;  -45.825; -846.000; -702.000
339.134;  -49.900; -634.000; -536.000
339.268;   13.175; -741.000; -603.000
339.403;  345.525; -740.000; -775.000
339.537;  126.050; -894.000; -820.000
339.671; -144.325; -829.000; -813.000
339.806;  -68.825; -556.000; -512.000
339.940;    2.425; -261.000; -235.000
340.074;  -92.025; -685.000; -510.000
340.209;  -55.075; -351.000; -230.000
340.343;  -95.250; -517.000; -573.000
340.477;  137.725;  998.000; 1036.000
340.612;  -59.300;-1033.000; -900.000
340.746;  102.200; -199.000; -243.000
340.880;  -84.975; -924.000; -785.000
341.014;  -31.075;  -45.000; -154.000
341.149; -125.375; -756.000; -718.000
341.283; -119.875; -839.000; -754.000
341.417; -101.275;-1124.000; -938.000
341.551;  110.425; -768.000; -708.000
341.685;  -51.200; -633.000; -611.000
341.820;  -61.125; -562.000; -493.000
341.954;  -58.025; -218.000; -349.000
342.088; -161.325;-1102.000;-1019.000
342.222;   65.500;  565.000;  618.000
342.356;  -71.275; -395.000; -335.000
342.490; -108.175; -880.000; -841.000
342.624;  -59.525; -339.000; -242.000
342.758;  -13.125; -364.000; -312.000
342.892;  -72.050; -710.000; -585.000
343.026;  -30.925;  -58.000; -116.000
343.160;  -71.275; -426.000; -376.000
343.294;  -82.100; -474.000; -337.000
343.428;  -31.525; -488.000; -448.000
343.562;  -27.650; -172.000;  -23.000
343.696;  -25.325; -385.000; -314.000
343.830;  -30.275; -362.000; -356.000
343.964;   -2.900; -231.000; -168.000
344.098;  820.950;  199.000;   70.000
344.232;  687.025; -266.000; -127.000
344.366;   66.875; -567.000; -453.000
344.500;   38.975; -665.000; -744.000
344.634;   21.150; -324.000; -164.000
344.768;  -37.825; -531.000; -341.000
344.902;   18.325;  278.000;  256.000
345.035;  -89.800; -556.000; -496.000
345.169; -132.300; -933.000; -656.000
345.303;  -72.225; -308.000; -482.000
345.437;  -78.475; -826.000; -717.000
345.571;  -96.000; -675.000; -594.000
345.704;  -72.325; -309.000; -532.000
345.838;  -17.950; -331.000; -284.000
345.972;  -43.425; -543.000; -495.000
346.106;  143.975; -179.000; -190.000
346.239;  398.725; -312.000; -243.000
346.373;  -17.275; -343.000; -302.000
346.507; -136.300; -950.000; -962.000
346.640;  129.200;  -30.000;   13.000
346.774;  -58.475; -650.000; -797.000
346.908;  -18.825; -138.000;  -11.000
347.041;  -93.700; -646.000; -593.000
347.175;    0.975;  259.000;   27.000
347.309;  -60.650; -698.000; -628.000
347.442; -119.500; -883.000; -732.000
347.576;  274.000;  670.000;  668.000
347.709;  166.125; -123.000;  -52.000
347.843;  -95.825; -933.000; -825.000
347.976;   12.075;  235.000;  294.000
348.110; -200.950;-1268.000;-1186.000
348.243; -121.125; -679.000; -772.000
348.377;    1.650;  -26.000;   60.000
348.510;   41.825;  403.000;  540.000
348.644;  -43.625;  -37.000; -159.000
348.777;   -6.750;  180.000;  191.000
348.911;  -53.050; -142.000; -112.000
349.044;  151.375;  471.000;  448.000
349.178;  138.600;-1069.000;-1006.000
349.311;  101.575;  141.000;  255.000
349.444;  -12.500; -927.000; -813.000
349.578;  -36.800; -347.000; -200.000
349.711; -106.425; -959.000; -862.000
349.845;  -11.000; -661.000; -591.000
349.978; -155.925;-1224.000;-1137.000
350.111;  -97.275; -546.000; -612.000
350.244;  -86.200; -596.000; -700.000
350.378;   -9.975; -392.000; -393.000
350.511;  -73.250; -393.000; -426.000
350.644; -123.950; -808.000; -806.000
350.778;    3.150;  168.000;  104.000
350.911;   -6.600;  134.000;  140.000
351.044;  -88.100; -685.000; -615.000
351.177;  -43.175; -321.000; -281.000
351.310;  -16.400;    3.000; -131.000
351.444;  -95.850; -888.000; -788.000
351.577;   91.625;  140.000;   90.000
351.710;  103.375;  593.000;  417.000
351.843;  -40.000; -165.000;  -77.000
351.976;  -14.075;  149.000;  -79.000
352.109;  -79.025; -621.000; -612.000
352.242;  -42.100; -464.000; -419.000
352.376;  -61.900; -580.000; -636.000
352.509;  154.925; -437.000; -356.000
352.642;  -18.575; -654.000; -604.000
352.775;   41.075; -141.000;  -98.000
352.908; -117.400; -933.000; -904.000
353.041; -119.425; -814.000; -824.000
353.174;  -64.025; -551.000; -424.000
353.307;  -98.575; -753.000; -764.000
353.440;   66.250;  541.000;  453.000
353.573; -107.475; -957.000;-1008.000
353.706;  -57.950; -384.000; -558.000
353.839;  -29.675; -264.000; -220.000
353.971; -110.625; -657.000; -512.000
354.104;  -92.650; -896.000; -835.000
354.237;  -38.775; -627.000; -662.000
354.370;  -95.825; -846.000; -879.000
354.503; -200.325;-1231.000;-1308.000
354.636;  -56.800; -529.000; -348.000
354.769; -135.075; -937.000; -860.000
354.902;  -19.725; -230.000; -139.000
355.034;  -28.225; -164.000; -220.000
355.167;  -22.525; -262.000; -162.000
355.300; -109.000;-1061.000; -880.000
355.433;  944.875;  -71.000;  -14.000
355.565; 1468.750; -402.000; -384.000
355.698;  358.150; -356.000; -296.000
355.831;  -12.200; -882.000; -801.000
355.964;   69.625; -285.000; -170.000
356.096;  -79.475; -856.000; -843.000
356.229;  -16.300; -523.000; -530.000
356.362;  316.250; -373.000; -266.000
356.494;  579.625; -229.000; -162.000
356.627;  454.250;  269.000;  377.000
356.760;  638.800;  120.000;   53.000
356.892;  922.925; -286.000; -601.000
357.025;  599.525;  403.000;  389.000
357.157;  557.775; -167.000; -179.000
357.290;  672.925; -856.000; -713.000
357.423;  180.300; -667.000; -556.000
357.555;  102.100; -217.000; -228.000
357.688;  127.575; -483.000; -364.000
357.820;  414.775; -870.000; -877.000
357.953; 3410.250; -563.000; -589.000
358.085;  707.625; -632.000; -612.000
358.218;  995.500;-1131.000; -932.000
358.350;  169.975;  -58.000;  312.000
358.483; -128.550;-1300.000;-1187.000
358.615;  -50.175;-1182.000;-1078.000
358.747;  -74.550;-1187.000;-1058.000
358.880;    4.100; -810.000; -744.000
359.012;  -21.150; -376.000; -202.000
359.145;  -44.925; -480.000; -511.000
359.277;   35.750; -962.000; -913.000
359.409; 2818.475;  536.000;  231.000
359.542;  724.875; -738.000; -688.000
359.674;   43.925;   46.000;   13.000
359.806;  -63.975; -565.000; -438.000
359.939;  -52.650; -617.000; -516.000
360.071;   -0.500; -583.000; -579.000
360.203;  -35.625; -411.000; -364.000
360.335;   33.000;  164.000;  -16.000
360.468;  161.950; -249.000; -307.000
360.600; 2291.625; -547.000; -454.000
360.732; 2765.700; -546.000; -423.000
360.864;  362.125;-1216.000;-1044.000
360.996;  239.475; -516.000; -554.000
361.129;   18.800; -389.000; -598.000
361.261;    5.850;  110.000; -113.000
361.393;  -37.350; -252.000; -214.000
361.525;   10.650;   94.000;  244.000
361.657;  -56.100; -821.000; -703.000
361.789;   -5.725; -139.000; -155.000
361.921;  195.400; -642.000; -593.000
362.053;  218.050;  524.000;  541.000
362.185;   27.125;  288.000;   72.000
362.318; -101.800; -709.000; -705.000
362.450;   97.525;  294.000;  444.000
362.582;   79.350; -913.000; -870.000
362.714;  -49.175; -353.000; -332.000
362.846; -100.750; -606.000; -490.000
362.978; -134.050; -941.000; -811.000
363.109;   18.175; -161.000; -260.000
363.241;  376.975; -739.000; -749.000
363.373;  406.275; -649.000; -564.000
363.505;  672.675; -186.000;  -91.000
363.637;  140.425; -787.000; -601.000
363.769; -132.000;-1067.000;-1080.000
363.901;  -91.225; -596.000; -654.000
364.033; -140.825;-1103.000;-1062.000
364.165;  -19.950; -283.000; -283.000
364.296;   64.700; -316.000; -177.000
364.428;   62.375;-1344.000;-1220.000
364.560;  -72.875; -679.000; -661.000
364.692;  -80.350; -738.000; -835.000
364.824;  230.525; -588.000; -456.000
364.955;  418.125; -402.000; -564.000
365.087;  925.675;-1097.000; -852.000
365.219;   16.025; -686.000; -816.000
365.351;  -68.150; -526.000; -572.000
365.482;   40.950;  300.000;  240.000
365.614;  -54.700; -402.000; -314.000
365.746; -120.950; -729.000; -752.000
365.877; -100.675; -706.000; -672.000
366.009;  258.025;  -35.000;  -62.000
366.141; -102.750;-1249.000;-1134.000
366.272; -108.200; -803.000; -719.000
366.404; -124.425;-1005.000; -874.000
366.535;  -11.575; -139.000;  -12.000
366.667; -110.500; -644.000; -649.000
366.799;   43.125;  353.000;  203.000
366.930; -132.125; -862.000; -996.000
367.062;  117.075; -639.000; -613.000
367.193;  151.850; -872.000; -842.000
367.325;  -68.575; -580.000; -684.000
367.456;   49.900; -246.000;   31.000
367.588;  144.425; -371.000; -318.000
367.719;    3.575;  -44.000;  -45.000
367.851;  -34.325; -222.000; -241.000
367.982;  -59.000; -875.000; -732.000
368.113;   84.275; -475.000; -358.000
368.245; -126.900; -960.000; -841.000
368.376;  -37.450; -254.000; -302.000
368.508;  -47.700; -188.000; -263.000
368.639; -159.925;-1166.000;-1034.000
368.770;  -35.700; -670.000; -589.000
368.902;  -82.150; -836.000; -926.000
369.033; -114.325; -906.000; -855.000
369.164;  -55.850; -720.000; -653.000
369.296; -102.475; -452.000; -601.000
369.427;  -19.000; -209.000; -144.000
369.558;  -54.025; -593.000; -377.000
369.689; -100.575; -721.000; -569.000
369.821; -134.675; -951.000; -845.000
369.952;  -26.300;   42.000; -108.000
370.083;  -58.400; -229.000; -108.000
370.214;  -85.875; -735.000; -650.000
370.345;  -10.300;   65.000;   81.000
370.477;  -84.700; -810.000; -790.000
370.608;  187.025; -328.000; -264.000
370.739;  -64.150;-1233.000;-1292.000
370.870;  -58.400;-1102.000; -923.000
371.001;   71.425; -378.000; -467.000
371.132;  -84.700; -754.000; -735.000
371.263;  -31.775;  -42.000; -148.000
371.394; -139.150; -841.000; -748.000
371.525;   17.400;  345.000;  225.000
371.657;  -94.625; -808.000; -670.000
371.788;   55.175;  103.000;  199.000
371.919;  123.475; -384.000; -304.000
372.050; 3320.125;  -91.000; -156.000
372.181;  987.500; -188.000; -294.000
372.311;  323.000;   42.000; -127.000
372.442;    8.650; -457.000; -451.000
372.573;  -44.525; -444.000; -340.000
372.704; -124.800;-1008.000; -980.000
372.835;   58.550; -228.000; -289.000
372.966;  -64.700; -646.000; -554.000
373.097;  -80.325; -575.000; -711.000
373.228;  -49.575; -717.000; -542.000
373.359;   98.375; -824.000; -536.000
373.490;  830.775; -881.000; -727.000
373.620; 1024.525;-1001.000; -803.000
373.751; 1632.075; -332.000; -396.000
373.882;  699.325; -663.000; -733.000
374.013;   39.325; -449.000; -262.000
374.143;  -61.050; -581.000; -659.000
374.274; -105.100; -987.000; -908.000
374.405;  146.375; -388.000; -276.000
374.536;  392.975; -526.000; -387.000
374.666; 1017.650; -759.000; -807.000
374.797;  185.450; -817.000; -868.000
374.928;  760.775; -710.000; -560.000
375.058;  794.600; -535.000; -500.000
375.189;   54.450;  -59.000;  -93.000
375.320; -102.450; -928.000;-1034.000
375.450;  -56.650; -625.000; -616.000
375.581;  -61.125; -526.000; -436.000
375.712;  -40.575; -574.000; -250.000
375.842;  272.550; -438.000; -415.000
375.973;  185.750; -554.000; -513.000
376.103;  -63.200; -665.000; -648.000
376.234;  -82.750; -531.000; -552.000
376.364;  -56.225; -944.000; -867.000
376.495;  287.175;  925.000;  529.000
376.625;  -31.375; -472.000; -485.000
376.756;   27.225; -709.000; -678.000
376.886;  -88.675;-1178.000;-1026.000
377.017;   37.350;-1048.000;-1061.000
377.147;  353.950; -786.000; -782.000
377.278;   53.725;  174.000;  228.000
377.408; -121.200; -801.000; -815.000
377.538; -113.075; -707.000; -693.000
377.669;  -86.550; -537.000; -613.000
377.799; -109.125; -645.000; -635.000
377.929;  -58.175; -610.000; -428.000
378.060; -128.875; -781.000; -847.000
378.190;  -62.700; -726.000; -531.000
378.320;  -59.075; -401.000; -406.000
378.451;  -15.700; -131.000;  -22.000
378.581;  -21.900;  -67.000; -110.000
378.711;  151.675; 1035.000;  866.000
378.841;  -38.950; -533.000; -675.000
378.972;  -80.350; -871.000; -751.000
379.102;   -9.125; -652.000; -579.000
379.232;  -21.400; -126.000;  -73.000
379.362; -112.500;-1001.000; -885.000
379.492;    6.450; -373.000; -424.000
379.623;   80.825;    0.000;  111.000
379.753; -108.675;-1107.000; -974.000
379.883;  156.550;   59.000;  156.000
380.013;    1.500;-1081.000;-1017.000
380.143; -129.075;-1097.000;-1056.000
380.273; -104.625; -985.000; -861.000
380.403;  -23.250; -344.000; -257.000
380.533;  -28.000; -651.000; -664.000
380.663;   57.150;  173.000;  128.000
380.793; -116.225;-1027.000;-1074.000
380.923;  -34.550; -103.000;  -34.000
381.053;  -97.450; -613.000; -623.000
381.183;  -40.825; -106.000; -248.000
381.313;   11.950; -656.000; -470.000
381.443;   23.575; -692.000; -473.000
381.573;  163.275; -402.000; -409.000
381.703;  213.725;-1249.000;-1095.000
381.833; -133.875;-1454.000;-1336.000
381.963;   82.025; -134.000;  -87.000
382.093; 1287.675; -925.000; -909.000
382.223;  387.925; -713.000; -602.000
382.353;  -21.950; -801.000; -608.000
382.482;  297.750;-1091.000; -964.000
382.612;  687.750; -872.000; -644.000
382.742;  387.775; -695.000; -622.000
382.872;  229.000; -565.000; -551.000
383.002;   35.525;  347.000; -132.000
383.131;  -19.750; -226.000; -160.000
383.261;  -54.425; -706.000; -768.000
383.391;  280.050; -552.000; -377.000
383.521; 3183.100;  451.000;  263.000
383.650;  754.450; -947.000; -904.000
383.780;  -27.975; -783.000; -656.000
383.910;  100.875;  880.000;  802.000
384.039;  -11.625; -794.000; -656.000
384.169;  166.825;-1205.000;-1017.000
384.299;  -43.300; -650.000; -662.000
384.428; -101.925; -764.000; -680.000
384.558;  -46.800; -308.000; -275.000
384.687;  -45.425; -414.000; -334.000
384.817;    7.475;   75.000;   -2.000
384.947;   20.775; -234.000; -141.000
385.076;  262.775;  982.000;  912.000
385.206;   92.200;  369.000;  480.000
385.335;  -58.950; -549.000; -417.000
385.465;  -88.850; -655.000; -663.000
385.594;  124.950;  -53.000;  -44.000
385.724;  365.675; -868.000; -838.000
385.853;   89.600; -296.000; -270.000
385.982; 1238.000; -743.000; -787.000
386.112; 1946.700;-1052.000; -871.000
386.241;  113.550; -307.000; -312.000
386.371;    7.575; -174.000;  -87.000
386.500;  -17.550; -825.000; -789.000
386.629;    6.750; -874.000; -817.000
386.759;   69.200;  -43.000;   68.000
386.888;  -16.400; -170.000; -250.000
387.017;  -81.975; -648.000; -620.000
387.147;  -99.300; -771.000; -798.000
387.276;   -5.475; -410.000; -397.000
387.405;   -8.600; -398.000; -342.000
387.535;  -58.600; -452.000; -361.000
387.664;  -77.825; -692.000; -620.000
387.793;   52.450; -198.000; -113.000
387.922;  482.975;  255.000;  200.000
388.052;   -1.300; -576.000; -423.000
388.181;    3.050; -342.000; -472.000
388.310;  -11.750; -889.000; -710.000
388.439;  -55.925; -749.000; -742.000
388.568;  157.800;  365.000;  244.000
388.697;  956.375; -756.000; -653.000
388.826;  167.375; -768.000; -666.000
388.956;   44.150; -285.000; -307.000
389.085;  -40.225; -347.000; -287.000
389.214; -107.600; -842.000; -872.000
389.343;  -67.825; -645.000; -413.000
389.472;  382.425;  126.000;  149.000
389.601;  495.550;   91.000;    0.000
389.730;   -9.975; -568.000; -687.000
389.859;   51.150;  226.000;   46.000
389.988;  147.775; -423.000; -408.000
390.117;  123.000; -168.000; -146.000
390.246;  -23.550; -331.000; -320.000
390.375;   73.975; -673.000; -626.000
390.504;  -73.775; -703.000; -621.000
390.633; -104.325; -672.000; -726.000
390.761;  -87.150; -732.000; -645.000
390.890;   -1.600;   -4.000; -130.000
391.019;  -53.325; -421.000; -441.000
391.148; -133.150; -826.000; -855.000
391.277;  -87.950; -576.000; -493.000
391.406;  -92.675; -821.000; -805.000
391.534;   15.100;  574.000; -301.000
391.663;  -81.425; -583.000; -645.000
391.792;  -86.875; -673.000; -701.000
391.921;   79.775;   -3.000;   15.000
392.050;  155.300; -287.000; -228.000
392.178;  -68.200;-1206.000;-1061.000
392.307;   89.375; -758.000; -712.000
392.436;   47.325; -427.000; -641.000
392.564;    7.625;  166.000;   -6.000
392.693; -110.000; -860.000; -682.000
392.822;  168.400; -529.000; -534.000
392.950;   54.850; -880.000; -714.000
393.079;  282.375; -188.000; -328.000
393.208;    6.125; -488.000; -511.000
393.336;  -20.000; -170.000; -145.000
393.465;  -51.000; -317.000; -199.000
393.593;   -9.750;   62.000;   79.000
393.722; -158.600;-1121.000; -916.000
393.850;  -41.925; -188.000;  -61.000
393.979; -158.875; -926.000; -805.000
394.107;  -74.825; -517.000; -537.000
394.236;  -33.125; -570.000; -507.000
394.364;  164.025;  383.000;  206.000
394.493;  238.050; -911.000; -767.000
394.621;  -51.925; -955.000; -916.000
394.750;  694.700; -873.000; -923.000
394.878; 2917.700; -247.000; -149.000
395.007; 3978.800; -721.000; -807.000
395.135;  293.875; -790.000; -721.000
395.263;  -84.750;-1038.000;-1040.000
395.392;   -3.850;  -25.000; -107.000
395.520; -141.850; -818.000; -679.000
395.648; -107.800; -865.000; -915.000
395.777;  -37.150; -366.000; -405.000
395.905;  -71.350; -449.000; -564.000
396.033;   -2.250;  217.000;  172.000
396.162;  397.175; -399.000; -453.000
396.290;  361.650;  -17.000;   -2.000
396.418;   75.150; -555.000; -514.000
396.546;  -95.075; -571.000; -466.000
396.674; -115.100; -850.000; -878.000
396.803;    7.950;  -72.000;  -23.000
396.931;   64.950; -179.000; -199.000
397.059;    2.575;-1026.000; -989.000
397.187; -134.275;-1026.000; -975.000
397.315; -138.050; -884.000; -649.000
397.443; -111.475; -592.000; -443.000
397.572; -104.750; -578.000; -424.000
397.700;  -38.425; -607.000; -614.000
397.828;   -3.400;  120.000;  -90.000
397.956;  -49.800; -508.000; -478.000
398.084;  -58.775; -767.000; -626.000
398.212;   18.025;  137.000;  124.000
398.340;    1.000;  -56.000;  159.000
398.468;    8.275; -390.000; -169.000
398.596; -159.675; -993.000; -953.000
398.724; -130.525; -762.000; -767.000
398.852; -164.775;-1024.000; -976.000
398.980;  -74.550; -560.000; -560.000
399.108;  -59.925; -982.000; -735.000
399.236;   22.875;   13.000;    8.000
399.363;   -3.775;  222.000;  196.000
399.491;  -86.675; -404.000; -398.000
399.619; -128.975; -829.000; -800.000
399.747; -120.100; -859.000; -771.000
399.875;   65.450;  220.000;  234.000
400.003;  -63.000; -359.000; -284.000
400.130;  -96.125; -421.000; -341.000
400.258;  -51.825;  -83.000;   38.000
400.386;  -64.450; -352.000; -168.000
400.514;  -59.200; -526.000; -587.000
400.641; -108.350; -928.000; -802.000
400.769; -147.225; -979.000; -888.000
400.897; -124.675; -838.000; -793.000
401.025;  -33.800; -166.000; -152.000
401.152;  -15.925;  220.000;   38.000
401.280;  -96.975; -430.000; -429.000
401.408; -120.225; -712.000; -576.000
401.535; -120.300; -735.000; -758.000
401.663; -200.575;-1134.000;-1054.000
401.790;  -92.750; -514.000; -525.000
401.918;   31.775;  436.000;  405.000
402.046;  -29.975;  134.000;  122.000
402.173;  -48.250;  -18.000;    7.000
402.301;  -79.825; -519.000; -397.000
402.428;   29.925;  528.000;  383.000
402.556; -162.450;-1188.000; -913.000
402.683;  -47.200;  -20.000;   -1.000
402.811;  -31.650;  -37.000; -206.000
402.938;  -26.750;   20.000;   27.000
403.066;  171.300; -574.000; -558.000
403.193;  295.775;  299.000;  239.000
403.321;  226.750; -396.000; -574.000
403.448;  304.400;   83.000;   27.000
403.575;  126.400;  -90.000;  -46.000
403.703;  -98.900; -732.000; -557.000
403.830;  -78.775; -531.000; -496.000
403.957; -154.475;-1117.000;-1023.000
404.085;   -5.425;  -61.000; -172.000
404.212;   91.650;  -50.000;   63.000
404.339;  266.300; -566.000; -306.000
404.467; 5840.875; -612.000; -524.000
404.594; 3755.350; -287.000; -227.000
404.721;  836.400; -869.000; -764.000
404.848;   63.075; -113.000; -202.000
404.976; -114.875; -856.000; -783.000
405.103;  -18.425;  -14.000;  -82.000
405.230;    0.575;  190.000;  226.000
405.357;    9.475;  117.000;   44.000
405.484;  267.350;  -49.000;    5.000
405.612;   31.600; -548.000; -563.000
405.739;  -68.075; -488.000; -243.000
405.866;   69.925;  669.000;  385.000
405.993;  -58.850; -398.000; -102.000
406.120; -156.925; -801.000; -887.000
406.247;  -66.025; -323.000; -342.000
406.374;  402.450;  540.000;  629.000
406.501;   72.525; -632.000; -702.000
406.628; -105.300; -621.000; -589.000
406.755; -109.200; -803.000; -620.000
406.882;  -63.050; -228.000; -277.000
407.009; -117.350; -719.000; -628.000
407.136;   31.400; -480.000; -401.000
407.263;   89.925; -939.000; -829.000
407.390;  -94.075; -692.000; -614.000
407.517; -179.075;-1139.000;-1187.000
407.644;  -70.475; -332.000; -256.000
407.771;  -76.350; -249.000; -287.000
407.898;  -20.300;  168.000;  328.000
408.025;  -87.175; -421.000; -313.000
408.151;  -21.075;   82.000;  153.000
408.278;  -80.700; -267.000; -216.000
408.405; -127.750; -931.000; -899.000
408.532;  -71.375; -549.000; -542.000
408.659; -128.200; -677.000; -648.000
408.785; -207.525;-1298.000;-1170.000
408.912;  -71.125; -412.000; -296.000
409.039; -122.475; -610.000; -686.000
409.166; -112.925; -591.000; -555.000
409.292; -120.775; -571.000; -534.000
409.419; -136.450; -665.000; -649.000
409.546;  -93.475; -431.000; -192.000
409.672; -119.800; -713.000; -545.000
409.799;  -31.275;  -36.000;   34.000
409.926;  -56.075; -180.000; -179.000
410.052; -182.050;-1127.000;-1091.000
410.179;  -78.400; -368.000; -392.000
410.305;  -96.200; -375.000; -493.000
410.432;  -57.525; -220.000; -333.000
410.558; -102.850; -305.000; -380.000
410.685; -115.100; -688.000; -431.000
410.812; -108.625; -409.000; -588.000
410.938; -147.800; -964.000; -808.000
411.065; -105.225; -671.000; -645.000
411.191;  -29.900; -189.000; -174.000
411.317; -110.025; -823.000; -742.000
411.444;  -81.675; -317.000; -246.000
411.570;  -71.100; -339.000; -294.000
411.697; -130.875; -758.000; -752.000
411.823; -169.200; -989.000; -999.000
411.949;  -50.375;  -56.000;   17.000
412.076; -120.775; -539.000; -519.000
412.202; -130.700; -758.000; -757.000
412.329; -133.825; -798.000; -752.000
412.455; -124.200; -821.000; -657.000
412.581;  -29.200;  -15.000;  172.000
412.707;  -80.525; -540.000; -457.000
412.834;   10.325;  156.000;  219.000
412.960; -104.250; -785.000; -784.000
413.086; -113.450; -743.000; -701.000
413.212;  124.500;  604.000;  578.000
413.339;  -80.675; -685.000; -701.000
413.465;  -22.075; -364.000; -310.000
413.591;  -99.725; -757.000; -474.000
413.717;  -60.075; -358.000; -366.000
413.843; -151.300; -839.000; -861.000
413.969;  -75.800;  -47.000; -292.000
414.096; -108.300; -679.000; -679.000
414.222;  -26.675;  -33.000;   85.000
414.348;  -40.475; -652.000; -385.000
414.474;   89.575;   38.000;  -52.000
414.600;  -10.200; -126.000; -144.000
414.726;  -32.550;  -96.000;  -55.000
414.852;  -61.775; -365.000; -342.000
414.978;   10.475;  104.000;  -18.000
415.104;   49.775;   38.000;   80.000
415.230;   25.300; -329.000; -330.000
415.356;   35.775; -409.000; -514.000
415.482;  183.125;   13.000;  -35.000
415.608;  252.850; -247.000; -323.000
415.734;  943.225;   67.000;   38.000
415.860;20077.550; -875.000; -767.000
415.986;14390.750; -685.000; -607.000
416.111; 1223.850; -798.000; -652.000
416.237;  245.200; -424.000; -571.000
416.363; 1159.250; -765.000; -733.000
416.489; 4160.375; -324.000; -251.000
416.615;  451.200; -707.000; -742.000
416.741;  -41.500; -677.000; -784.000
416.866;  -92.950; -673.000; -736.000
416.992; -139.200; -801.000; -818.000
417.118;  -33.400;  -41.000;  -80.000
417.244;  -80.650; -798.000; -531.000
417.369;  -98.850; -801.000; -612.000
417.495;  -26.400; -325.000; -254.000
417.621; -104.525;-1015.000; -803.000
417.746;  -14.950; -579.000; -572.000
417.872;   57.200; -254.000; -144.000
417.998;   35.650; -515.000; -530.000
418.123; 1051.275;-1073.000; -845.000
418.249; 5426.225; -512.000; -601.000
418.374;  736.675; -916.000; -824.000
418.500;  105.925; -383.000; -482.000
418.626;   92.950;   70.000;  -59.000
418.751;   94.475; -549.000; -448.000
418.877;  184.200; -637.000; -643.000
419.002; 1813.825; -688.000; -560.000
419.128;12710.075; -930.000; -721.000
419.253; 3018.300; -967.000; -837.000
419.379;  410.075; -391.000; -338.000
419.504;  409.175;  325.000;  415.000
419.629;  492.350; -393.000; -212.000
419.755; 3625.725; -317.000; -254.000
419.880;21354.675;  -98.000;   67.000
420.006;11520.875; -280.000; -221.000
420.131;29409.075; -662.000; -775.000
420.256; 4155.525; -315.000; -316.000
420.382;  547.800; -665.000; -687.000
420.507;   50.225; -649.000; -778.000
420.632;  106.525; -337.000; -339.000
420.758;  230.700; -251.000; -425.000
420.883;  -93.950; -876.000; -672.000
421.008; -108.300; -775.000; -619.000
421.133;  -80.650; -509.000; -467.000
421.259;  -52.525; -325.000; -259.000
421.384; -126.700; -834.000; -693.000
421.509;  -69.625;-1052.000; -862.000
421.634; 1062.550; -936.000; -820.000
421.759;  423.500; -359.000; -327.000
421.885;  -60.625; -717.000; -656.000
422.010;  -84.825; -673.000; -542.000
422.135; -146.975; -695.000; -727.000
422.260;   26.975;  340.000;  280.000
422.385;  -28.125;   12.000;  -98.000
422.510;    0.175;  151.000;  -26.000
422.635;    6.675;  -87.000;  -43.000
422.760;   72.700; -766.000; -791.000
422.885;   42.975;  -57.000;  -80.000
423.010;  -43.375; -112.000; -169.000
423.135;  -91.900; -481.000; -561.000
423.260;  -27.825; -150.000; -245.000
423.385;   55.125;  476.000;  222.000
423.510;   16.425;   71.000;  -22.000
423.635;   68.950;  133.000;   45.000
423.760;   41.750;  383.000;  328.000
423.885;   46.375;  336.000;  391.000
424.010;   -3.750;  -68.000;  -13.000
424.135;  -20.825;    5.000;  -33.000
424.259; -101.950; -654.000; -457.000
424.384;  -68.200; -279.000; -272.000
424.509;  -42.475; -260.000; -186.000
424.634;  -99.825; -761.000; -623.000
424.759;  -45.950; -688.000; -544.000
424.883;  -29.350; -506.000; -527.000
425.008;  147.475; -502.000; -410.000
425.133; 2023.775; -679.000; -653.000
425.258;  908.575; -517.000; -381.000
425.382;  950.025; -867.000; -774.000
425.507; 2386.350; -487.000; -543.000
425.632;  390.175; -802.000; -663.000
425.756;  448.875; -256.000; -146.000
425.881; 6666.825; -831.000; -857.000
426.006;17809.075; -604.000; -355.000
426.130; 2723.575; -696.000; -508.000
426.255;  338.150; -611.000; -491.000
426.379;  159.400; -189.000; -577.000
426.504;  368.500;  660.000;  544.000
426.629; 4071.425; -519.000; -466.000
426.753; 2768.675;   64.000;  -46.000
426.878;  297.300; -252.000; -288.000
427.002;  122.950; -651.000; -668.000
427.127; 1609.775;  -35.000; -158.000
427.251;11457.525;  372.000;  401.000
427.375; 3215.400; -191.000; -173.000
427.500; 2148.175; -616.000; -610.000
427.624;  704.850; -234.000; -400.000
427.749;   63.975; -216.000; -225.000
427.873;  -41.350; -499.000; -412.000
427.997;  -45.850; -222.000; -230.000
428.122;   66.275;  795.000;  703.000
428.246;   67.200;  433.000;  434.000
428.371; -141.175; -869.000; -773.000
428.495; -126.975; -624.000; -646.000
428.619;  -40.600; -186.000; -117.000
428.743;   17.925;   65.000;  132.000
428.868;    1.375; -732.000; -643.000
428.992; 1279.150; -219.000; -326.000
429.116;  500.550; -329.000; -357.000
429.240;  229.200;  419.000;  426.000
429.365;  -33.750; -454.000; -574.000
429.489;  -63.600; -638.000; -647.000
429.613;   12.075; -236.000; -177.000
429.737;    6.200; -563.000; -432.000
429.861;  275.075; -247.000; -133.000
429.985; 5592.750; -425.000; -305.000
430.109; 6102.125; -770.000; -908.000
430.234;  694.475;   76.000;  -50.000
430.358;   67.000; -250.000; -160.000
430.482;  -86.850; -672.000; -564.000
430.606;  -74.800; -655.000; -375.000
430.730;    2.775; -437.000; -388.000
430.854;   89.875; -909.000; -835.000
430.978;  -98.075; -795.000; -764.000
431.102;  -81.400; -499.000; -422.000
431.226; -129.675; -874.000; -815.000
431.350;   21.225;  345.000;  422.000
431.474;  -83.425; -661.000; -373.000
431.597; -156.275;-1060.000; -848.000
431.721;  -87.675; -276.000; -267.000
431.845; -136.800; -704.000; -472.000
431.969;  -95.500; -304.000; -349.000
432.093;  -95.725; -395.000; -317.000
432.217;  -29.125;   32.000;   82.000
432.341; -104.850; -523.000; -518.000
432.464;  -13.075;   96.000;   40.000
432.588;  167.600; -401.000; -329.000
432.712;   83.000;  -52.000;  -52.000
432.836;   24.450;  213.000;  263.000
432.959;  -33.775; -372.000; -311.000
433.083;   91.325;   11.000;    2.000
433.207;  380.050;  285.000;  930.000
433.330; 5112.150; -391.000; -200.000
433.454; 6247.900; -654.000; -638.000
433.578; 3592.550;  583.000;  278.000
433.701;  636.100; -623.000; -675.000
433.825;  124.800; -292.000; -299.000
433.949;  136.875;   28.000;  -72.000
434.072;   35.375; -410.000; -323.000
434.196;  -29.900; -309.000; -117.000
434.319; 3749.825;25482.000;25124.000
434.443;  725.075; -656.000; -603.000
434.566; 2646.900;  281.000;   62.000
434.690;  412.150; -637.000; -383.000
434.813;   31.625; -251.000; -173.000
434.937;  -95.050; -569.000; -696.000
435.060;  -59.275; -423.000; -332.000
435.184;  247.525; -492.000; -217.000
435.307;  126.800;  159.000;  102.000
435.431;  -27.825;  -40.000;   24.000
435.554;  -94.750; -399.000; -240.000
435.677; -101.350; -350.000; -258.000
435.801;  -50.050;  -25.000;   49.000
435.924;  -30.025;    1.000;  -67.000
436.048; -131.200;-1019.000; -732.000
436.171;  -89.000; -240.000;  -66.000
436.294;  -35.825; -248.000; -229.000
436.417;   80.125; -963.000; -849.000
436.541;  -92.525; -814.000; -840.000
436.664;  -59.000; -242.000; -316.000
436.787;  -46.100;   13.000;  113.000
436.910; -135.975; -792.000; -422.000
437.034;   -7.075;  142.000;  143.000
437.157;   15.675;  -11.000;    0.000
437.280;  -54.275; -392.000; -292.000
437.403; -108.350; -982.000; -869.000
437.526;  546.525; -903.000; -865.000
437.649; 2008.025; -505.000; -332.000
437.772;  260.000; -692.000; -540.000
437.896;   93.625;  700.000;  544.000
438.019; -113.675; -758.000; -503.000
438.142; -101.675; -596.000; -506.000
438.265;  -39.500; -639.000; -670.000
438.388;  465.825; -520.000; -410.000
438.511;   60.950; -597.000; -394.000
438.634;  -67.400; -247.000; -125.000
438.757; -143.625; -693.000; -619.000
438.880;  -37.375;  -34.000;  -57.000
439.003;  -96.175; -417.000; -437.000
439.126;  -81.650; -287.000; -167.000
439.248;  -62.850;  -98.000; -139.000
439.371;  -57.150;    9.000;  -53.000
439.494;   10.350;  510.000;  439.000
439.617;  -58.925;   65.000;  -88.000
439.740; -191.950; -968.000; -816.000
439.863; -160.600; -755.000; -595.000
439.986; -136.125; -476.000; -431.000
440.108;  -58.550; -161.000; -112.000
440.231; -169.175; -950.000; -836.000
440.354;  -48.475;  -64.000; -150.000
440.477;   -1.075; -566.000; -542.000
440.599;  -22.775; -200.000; -225.000
440.722; -134.225; -709.000; -586.000
440.845;   65.650;  751.000;  928.000
440.968; -121.850; -415.000; -311.000
441.090;  -87.825; -199.000;  -33.000
441.213; -181.250;-1021.000; -825.000
441.336;  -58.525; -159.000;   -5.000
441.458;  -86.925; -549.000; -396.000
441.581; -100.350; -628.000; -629.000
441.703;  -79.150; -152.000;   13.000
441.826; -125.550; -557.000; -400.000
441.948;  -50.500;   56.000;   51.000
442.071;    6.850;  555.000;  424.000
442.193; -127.075; -531.000; -485.000
442.316;   -9.300;  152.000;   97.000
442.438;   30.125; -233.000;  -10.000
442.561;   50.175;  272.000;  262.000
442.683;  468.525; -809.000; -522.000
442.806; 1046.275;   -8.000;   74.000
442.928;    3.350; -859.000; -604.000
443.051;  -75.675; -577.000; -373.000
443.173;  -87.150; -341.000; -339.000
443.295; -109.725; -263.000; -371.000
443.418;  -88.075; -321.000;  -29.000
443.540;  -26.000; -106.000;   -4.000
443.662; -132.300; -563.000; -465.000
443.785;  -15.525;  335.000;  199.000
443.907; -104.425; -362.000; -208.000
444.029; -141.250; -767.000; -494.000
444.152; -144.875; -644.000; -554.000
444.274;  -47.425;  -18.000;  -24.000
444.396; -118.500; -461.000; -221.000
444.518; -143.050; -691.000; -454.000
444.640; -120.925; -268.000; -111.000
444.763;  -27.675;  388.000;  249.000
444.885; -120.400; -432.000; -392.000
445.007;  -41.375;   35.000;   86.000
445.129; -117.000; -610.000; -515.000
445.251; -124.975; -372.000; -439.000
445.373; -146.150; -537.000; -386.000
445.495;   -6.825;  242.000;  350.000
445.617;   47.750;  853.000;  753.000
445.739;  -73.825; -215.000;  -97.000
445.861;  -51.900; -245.000; -112.000
445.984;  -63.450; -267.000; -101.000
446.105;  168.875; -418.000; -251.000
446.227;  535.175; -176.000;  -19.000
446.349;   -2.500; -358.000; -249.000
446.471; -116.375; -615.000; -448.000
446.593;  -62.650; -316.000;   19.000
446.715;  -11.475;  -67.000;   41.000
446.837;   41.625;  697.000;  832.000
446.959; -106.425; -457.000; -478.000
447.081; -141.475; -628.000; -518.000
447.203;   43.200;  862.000;  834.000
447.325; -102.125; -270.000;   42.000
447.446;  -14.000;  286.000;  530.000
447.568; -152.725; -921.000; -803.000
447.690;  -90.175; -236.000; -245.000
447.812; -161.300; -798.000; -519.000
447.933;  -33.200;  155.000;  127.000
448.055;  -62.450; -306.000; -261.000
448.177;  105.900;   31.000;   79.000
448.299;   61.900; -935.000; -727.000
448.420;   15.350;  -25.000;  159.000
448.542;  -68.400;   -3.000;   33.000
448.664;  -41.125;  109.000;  322.000
448.785;  -38.875;  265.000;   83.000
448.907;  -91.500; -614.000; -353.000
449.028;  -35.675; -771.000; -471.000
449.150;   36.725;  492.000;  589.000
449.272; -201.150;-1044.000; -913.000
449.393;   15.000;  612.000;  694.000
449.515; -151.475; -634.000; -581.000
449.636;  -81.050; -264.000; -155.000
449.758;   58.425;  763.000;  622.000
449.879; -100.500; -498.000; -396.000
450.001;  -95.425; -149.000;  -49.000
450.122;  -48.550;  -95.000;  162.000
450.244;  -31.000;   37.000;  364.000
450.365;  -99.625; -495.000; -301.000
450.486;  -48.825;   80.000;  268.000
450.608;    5.850;  393.000;  326.000
450.729;   70.000;  578.000;  645.000
450.850;   -7.575; -574.000; -466.000
450.972;  760.075; -552.000; -389.000
451.093; 5005.175;  190.000;  588.000
451.214; 2130.775; -516.000; -337.000
451.336;  343.750;  773.000;  579.000
451.457;   53.150;  264.000;  393.000
451.578;  -42.275; -118.000;  -74.000
451.699; -137.075; -546.000; -540.000
451.821;  -82.925; -284.000;  -50.000
451.942;    3.575;  278.000;  285.000
452.063;   18.900;  228.000;  419.000
452.184;  550.475;  -54.000;  -49.000
452.305; 1098.075;  103.000;  170.000
452.427;  127.950; -549.000; -301.000
452.548;  -43.500;   23.000;   79.000
452.669;  -61.000; -257.000;  -89.000
452.790;  -49.950;    3.000;  -18.000
452.911;  -17.125;  195.000;  259.000
453.032;  -80.925; -289.000;  -60.000
453.153;  -50.550;  -29.000;   81.000
453.274;   55.575;  737.000;  868.000
453.395;  -62.950;  -51.000;  175.000
453.516;  111.275; 1317.000; 1388.000
453.637;  -88.850; -205.000; -150.000
453.758;  -71.050;   15.000;   69.000
453.879; -126.125; -462.000; -250.000
454.000;   59.300; 1086.000;  948.000
454.121; -123.500; -554.000; -326.000
454.242; -127.525; -599.000; -383.000
454.362;  -60.400;  -99.000;  114.000
454.483;  -62.850; -309.000; -229.000
454.604;   48.275;  512.000;  580.000
454.725; -138.750; -627.000; -555.000
454.846; -143.525; -474.000; -406.000
454.967;  -24.325;  230.000;  539.000
455.087;  -42.925;  179.000;  153.000
455.208;    5.100;  554.000;  856.000
455.329;  -53.150;  -22.000;   82.000
455.450;   20.825;  473.000;  633.000
455.570;  -74.050; -234.000; -211.000
455.691;  -57.850;  201.000;  407.000
455.812; -111.475; -270.000;  -92.000
455.932;  -77.275;  107.000;  -97.000
456.053; -100.450;   36.000;   24.000
456.173; -129.850; -433.000; -355.000
456.294; -136.900; -476.000; -303.000
456.415;  -82.825;  -73.000;   70.000
456.535;  -41.775;  297.000;  273.000
456.656;  -53.075;  132.000;  240.000
456.776;  -76.225;    3.000;  298.000
456.897;  -23.925;  308.000;  513.000
457.017;  -75.225; -153.000;   -3.000
457.138; -112.775; -402.000; -249.000
457.258;  -46.825;  263.000;  224.000
457.379;  -31.375;  509.000;  521.000
457.499;  -16.800;  443.000;  432.000
457.620; -125.225; -407.000; -231.000
457.740; -109.750; -132.000;  -11.000
457.860;  -69.000;   87.000;   44.000
457.981;  -49.050;  132.000;  124.000
458.101;  -89.275;  -89.000;   40.000
458.221;   -7.025;  336.000;  402.000
458.342;  -84.825;   -4.000;  -37.000
458.462;   16.375;  617.000;  352.000
458.582;  -43.350; -302.000; -294.000
458.703;    5.875;  303.000;  154.000
458.823;  -29.500;   22.000;  163.000
458.943;   27.350;  341.000;  467.000
459.063;  -42.300; 1124.000;  192.000
459.183;  -28.650;  328.000;  313.000
459.304;   -4.950;  315.000;  517.000
459.424;  -60.875; -246.000;  -89.000
459.544;  314.425;  388.000;  764.000
459.664;  821.875;  499.000;  506.000
459.784;  299.475; 1004.000; 1175.000
459.904;   48.775;  867.000;  744.000
460.024;   55.225;  867.000;  684.000
460.144;   -2.850;  449.000;  554.000
460.264;  -18.575;  515.000;  327.000
460.385; -105.100; -145.000; -119.000
460.505;   14.925;  905.000;  858.000
460.625;  -93.050;  -17.000;  -68.000
460.745;  -48.400;  396.000;  541.000
460.864;  -64.450;  153.000;  469.000
460.984;   -4.850;  499.000;  573.000
461.104;  139.425; 1656.000; 1775.000
461.224;    1.500;  657.000;  650.000
461.344;  -47.575;  431.000;  360.000
461.464;  -43.950;  258.000;  513.000
461.584;  -21.225;  283.000;  466.000
461.704;  -58.250;   58.000;  108.000
461.824;  -76.025;  238.000;  259.000
461.943;  -63.375;  191.000;  130.000
462.063;  -75.350;    2.000;  324.000
462.183;   24.450;  639.000;  717.000
462.303;   94.750; 1678.000; 1230.000
462.422;   22.575;  781.000;  840.000
462.542;  -45.975;  271.000;  391.000
462.662;   23.225;  353.000;  380.000
462.782;  244.300;  833.000;  572.000
462.901;  476.025;  545.000;  717.000
463.021;  280.250; 1702.000; 1638.000
463.141;  -21.250;  337.000;  770.000
463.260;  -19.700;  614.000;  474.000
463.380;   -7.975;  902.000;  884.000
463.499;  -54.000;  342.000;  332.000
463.619;  -45.525;  581.000;  559.000
463.738;  102.150; 1644.000;  903.000
463.858;    8.975;  657.000;  811.000
463.978;  -35.400;  542.000;  396.000
464.097;   40.800;  921.000; 1114.000
464.217;  112.100; 1196.000; 1143.000
464.336;  108.250; 1068.000; 1130.000
464.455;  -28.900;  328.000;  659.000
464.575;   25.925;  597.000;  602.000
464.694;  166.925; 1204.000; 1179.000
464.814;   94.600; 1190.000; 1138.000
464.933;   62.100; 1095.000; 1027.000
465.052;   68.250; 1412.000; 1054.000
465.172;   51.050;  922.000;  799.000
465.291;  119.050; 1376.000; 1320.000
465.410;   23.650;  462.000;  735.000
465.530;   67.325; 1355.000; 1310.000
465.649;   59.750; 1209.000; 1273.000
465.768;  134.575; 1673.000; 1508.000
465.888;   50.550;  941.000; 1174.000
466.007;   74.350; 1335.000; 1440.000
466.126;   -9.625;  721.000;  641.000
466.245;   36.650; 1176.000; 1187.000
466.364;   14.300;  950.000; 1060.000
466.484;   35.100; 1024.000; 1213.000
466.603;   29.000; 1101.000; 1222.000
466.722;  108.825; 1490.000; 1769.000
466.841;   58.200; 1151.000; 1401.000
466.960;   32.325; 1069.000;  972.000
467.079;  113.125; 1971.000; 1786.000
467.198;   45.650; 1238.000; 1181.000
467.317;   95.800; 1768.000; 1162.000
467.436;   62.925; 1709.000; 1261.000
467.555;  109.600; 1796.000; 1746.000
467.674;   47.650; 1227.000; 1329.000
467.793;   55.525; 1376.000; 1374.000
467.912;   71.475; 1658.000; 1539.000
468.031;  125.625; 2038.000; 1930.000
468.150;  133.750; 1842.000; 1837.000
468.269;  189.425; 2313.000; 2090.000
468.388;  181.650; 2168.000; 2339.000
468.507;  251.400; 2884.000; 2903.000
468.626;  219.325; 2555.000; 2541.000
468.744;  127.825; 2018.000; 2174.000
468.863;  184.775; 2312.000; 2523.000
468.982;   99.325; 1503.000; 1555.000
469.101;  202.250; 2788.000; 2692.000
469.220;  148.525; 2333.000; 2176.000
469.338;  225.050; 2935.000; 3051.000
469.457;  203.875; 2719.000; 2545.000
469.576;  320.050; 3953.000; 3784.000
469.695;  237.925; 2877.000; 3066.000
469.813;  410.725; 4148.000; 4192.000
469.932;  395.750; 4255.000; 4485.000
470.051;  410.125; 4075.000; 4161.000
470.169;  862.775; 4470.000; 4338.000
470.288; 1461.375; 4700.000; 4809.000
470.406;  888.125; 5059.000; 5194.000
470.525;  616.250; 6101.000; 5787.000
470.644;  655.200; 6847.000; 6794.000
470.762;  803.000; 8397.000; 7873.000
470.881;  897.925; 8651.000; 8464.000
470.999; 1021.750; 9685.000; 9151.000
471.118; 1127.575;11174.000;10711.000

