
Integration time [ms]: 100.000
Averaging Nr. [scans]: 40
Smoothing Nr. [pixels]: 0
Data measured with spectrometer [name]: 2101012U2
Wave   ;Sample   ;Dark     ;Reference
[nm]   ;[counts] ;[counts] ;[counts] 

197.733;   53.150;  516.000;  404.000
197.879;  -71.375; -610.000; -634.000
198.025;  -33.625; -475.000; -420.000
198.171;  -67.675; -602.000; -612.000
198.317;  -28.850; -401.000; -316.000
198.463;  -50.525; -655.000; -404.000
198.609;   27.075;  181.000; -137.000
198.755;  -70.725; -644.000; -410.000
198.901;  -67.600; -505.000; -424.000
199.047;  -66.800; -615.000; -488.000
199.193;  -24.475; -230.000; -468.000
199.339;  -31.075; -222.000; -369.000
199.485;   43.475;  330.000;  271.000
199.631;   13.850;  227.000;  310.000
199.777;  -57.250; -466.000; -398.000
199.923;  -58.525; -610.000; -424.000
200.069;    5.550; -141.000;  -58.000
200.215;   48.550;  128.000;  453.000
200.361;   40.700;  243.000;  477.000
200.507;  -66.725; -600.000; -373.000
200.653;  -19.700; -371.000; -194.000
200.798;  -38.000; -215.000; -125.000
200.944;   -8.800; -146.000;  -41.000
201.090;   38.975;   61.000;  222.000
201.236;    1.450; -116.000; -158.000
201.382;  117.225;  874.000;  903.000
201.528;    1.975;  -58.000;  -48.000
201.674;  -36.050; -386.000; -293.000
201.819;  -59.300; -540.000; -439.000
201.965;  -74.675; -699.000; -447.000
202.111;  -17.725; -273.000; -226.000
202.257;  -21.475; -250.000; -238.000
202.402;   16.300;   13.000;  -36.000
202.548;  -18.025; -169.000; -116.000
202.694;   82.725;  410.000; -183.000
202.840;  -59.575; -603.000; -531.000
202.985;  -71.925; -681.000; -639.000
203.131;  -94.900; -832.000; -666.000
203.277;  -23.350; -199.000; -262.000
203.423;  -36.950; -434.000; -520.000
203.568;  -40.975; -462.000; -237.000
203.714;  -54.825; -535.000; -542.000
203.860;  -65.450; -682.000; -641.000
204.005;   24.300;  112.000;  167.000
204.151;   68.125;  561.000;  556.000
204.296;  -31.425; -354.000; -221.000
204.442;  -55.350; -600.000; -547.000
204.588;  -79.475; -592.000; -579.000
204.733;   22.050;  178.000;  168.000
204.879; -129.900;-1018.000; -822.000
205.025;    5.125;  -99.000;  126.000
205.170;    3.850;  -17.000;   94.000
205.316;   81.675;  438.000;  661.000
205.461;  -78.575; -698.000; -554.000
205.607;   95.025;  609.000;  665.000
205.752;  -76.100; -626.000; -551.000
205.898;  -39.650; -501.000; -391.000
206.043;  -58.675; -578.000; -506.000
206.189;  -29.250; -243.000; -285.000
206.334;   76.425;  554.000;  606.000
206.480;   85.275;  409.000;  239.000
206.625;  -76.525; -529.000; -552.000
206.771;  -48.325; -451.000; -373.000
206.916;  -34.675; -210.000; -537.000
207.062;  -64.400; -545.000; -591.000
207.207;  -52.675; -546.000; -443.000
207.353;   41.800;  185.000;  460.000
207.498;    6.175;  196.000;   85.000
207.643;  -59.250; -501.000; -370.000
207.789; -117.700;-1069.000; -910.000
207.934;  -84.525; -665.000; -713.000
208.080;  -18.550; -154.000;   66.000
208.225;   -0.850;  -22.000;  -57.000
208.370;  -79.250; -727.000; -619.000
208.516;  -65.275; -741.000; -487.000
208.661;  -37.050; -127.000;  -69.000
208.806;  -17.225; -165.000; -171.000
208.952; -122.175;-1044.000; -731.000
209.097;   73.325;  378.000;  349.000
209.242;  -45.550; -307.000; -382.000
209.387;   66.750;  392.000;  350.000
209.533;  -56.875; -321.000; -350.000
209.678;   72.100;  472.000;  543.000
209.823;  -49.375; -408.000; -310.000
209.969;  -99.000; -860.000; -757.000
210.114;  -88.700; -907.000; -719.000
210.259; -114.175; -939.000; -889.000
210.404;    0.500; -171.000;  103.000
210.549;    3.775;  108.000;    3.000
210.695;   -9.425;   -3.000;  -95.000
210.840;   38.275;   94.000;   67.000
210.985;  -66.200; -484.000; -303.000
211.130;   76.100;  268.000;  406.000
211.275;    2.900;  207.000;  199.000
211.420;  -49.250; -300.000; -289.000
211.566;  -67.125; -536.000; -489.000
211.711;   35.525;  218.000;  157.000
211.856;  -50.700; -545.000; -519.000
212.001;   16.825;  151.000;   44.000
212.146;   27.750;  153.000;   49.000
212.291;  -20.125; -210.000; -186.000
212.436;  -32.925; -280.000;   -6.000
212.581;  -83.125; -685.000; -653.000
212.726;  -63.550; -487.000; -538.000
212.871;  -50.850; -552.000; -217.000
213.016; -140.275;-1172.000;-1029.000
213.161;   70.325;  406.000;  291.000
213.306;  -66.000; -435.000; -577.000
213.451;  -89.800; -778.000; -689.000
213.596;  -47.600; -455.000; -347.000
213.741;  -42.425; -448.000; -538.000
213.886;  -85.200; -498.000; -517.000
214.031;   -5.225; -294.000; -124.000
214.176;  -43.725; -408.000; -341.000
214.321;  -31.775; -296.000; -157.000
214.466;  -19.275; -163.000;  -43.000
214.611;    4.950;  -61.000;  -10.000
214.756; -109.525; -948.000; -858.000
214.901;  -13.725; -388.000; -226.000
215.046;  -97.750; -797.000; -825.000
215.191;   22.450;  128.000;   35.000
215.336;  -18.425; -157.000;  -19.000
215.480;  -51.125; -684.000; -505.000
215.625;  -19.950; -175.000;  -19.000
215.770;  -81.225; -757.000; -662.000
215.915;    1.175;   -5.000;  -97.000
216.060;  -20.775; -113.000;  -21.000
216.205; -102.000; -731.000; -779.000
216.349;  -70.775; -470.000; -533.000
216.494; -135.850; -939.000; -867.000
216.639; -124.575; -823.000; -888.000
216.784;  -74.525; -577.000; -525.000
216.929;   46.475;  392.000;  281.000
217.073;   -9.900; -244.000;  -31.000
217.218;   13.325;   78.000;  -47.000
217.363;  -86.800; -656.000; -618.000
217.507;  -78.575; -623.000; -588.000
217.652; -133.850; -845.000; -874.000
217.797;  -88.675; -708.000; -659.000
217.942; -108.850; -856.000; -720.000
218.086;   68.950;  608.000;  539.000
218.231;  -19.750; -174.000;  -26.000
218.376;  -36.625; -337.000; -229.000
218.520;   12.000;  -41.000;   96.000
218.665;  -36.325; -338.000; -204.000
218.810;  -42.300; -275.000; -233.000
218.954;   17.400;  201.000;   35.000
219.099; -108.050; -713.000; -963.000
219.243;  -57.525; -589.000; -554.000
219.388;  -34.025; -264.000; -136.000
219.532;  -11.050; -116.000; -116.000
219.677;  -73.175; -564.000; -521.000
219.822;   16.175;   33.000;   89.000
219.966;  -11.900;   17.000;  -99.000
220.111;  -28.725; -328.000;  -40.000
220.255;  -89.125; -797.000; -750.000
220.400;  -12.800; -180.000; -146.000
220.544;  -61.425; -516.000; -450.000
220.689;  -44.925; -422.000; -451.000
220.833;  -10.125; -123.000;  -58.000
220.978;  -45.575; -393.000; -563.000
221.122;   21.225;  319.000;  307.000
221.267; -119.400; -906.000; -837.000
221.411;  -51.525; -478.000; -394.000
221.555;   -6.675; -104.000;  -23.000
221.700;  -41.750; -329.000; -222.000
221.844;   29.425;  255.000;  272.000
221.989;  -43.925; -328.000; -311.000
222.133;  -36.700; -289.000; -307.000
222.277;   -6.125;    5.000;   78.000
222.422;   20.175;  227.000;  113.000
222.566;  -38.775; -381.000; -214.000
222.711;  -52.850; -414.000; -479.000
222.855;  -81.150; -643.000; -586.000
222.999;  -65.250; -642.000; -717.000
223.144;  -18.950; -195.000; -194.000
223.288;   51.350;  423.000;  251.000
223.432;   36.950;  184.000;  230.000
223.576;   10.200;  152.000;  -21.000
223.721;   45.800;  364.000;  273.000
223.865;  -55.550; -472.000; -475.000
224.009;  245.375; 1673.000; 1631.000
224.153;  -78.000; -660.000; -671.000
224.298;  -69.200; -531.000; -489.000
224.442;   -7.575;  -74.000;  -33.000
224.586;   -6.700; -169.000; -106.000
224.730;  -93.300; -858.000; -670.000
224.875;  -91.900; -739.000; -688.000
225.019;    8.950;  102.000;  188.000
225.163;   41.300;  208.000;  341.000
225.307;   21.200;   97.000;  -91.000
225.451;   56.550;  360.000;  481.000
225.595;   35.350;  264.000;  176.000
225.739;  -12.725; -170.000;  -94.000
225.884;   18.875;   86.000;    5.000
226.028;  -95.275; -760.000; -626.000
226.172;  -39.875; -260.000; -273.000
226.316; -114.500; -941.000; -902.000
226.460;  -67.250; -645.000; -493.000
226.604;  -37.000; -406.000; -400.000
226.748;  -98.750; -836.000; -733.000
226.892;  -35.550; -227.000; -181.000
227.036;  -39.550; -537.000; -447.000
227.180;  -49.975; -551.000; -375.000
227.324;  -69.850; -561.000; -580.000
227.468; -118.250; -819.000; -717.000
227.612;    3.500;  242.000;  -28.000
227.756;  -91.100; -845.000; -698.000
227.900;   59.150;  342.000;  441.000
228.044;  -46.975; -509.000; -290.000
228.188;   45.750;  448.000;  568.000
228.332;  -68.850; -546.000; -472.000
228.476;  -30.050; -223.000; -149.000
228.620;  -33.100; -210.000; -150.000
228.764;   66.550;  431.000;  349.000
228.908;  -20.575; -155.000;   30.000
229.052;  -53.025; -615.000; -528.000
229.195;  -15.675; -172.000;   13.000
229.339;  -13.850; -235.000; -305.000
229.483;  -27.775;    5.000; -162.000
229.627;  -12.725; -156.000;  139.000
229.771;  -37.725; -218.000; -294.000
229.915;   10.650;  230.000;   79.000
230.059;  -76.350; -648.000; -663.000
230.202;  -34.400; -370.000; -317.000
230.346;  -20.175; -107.000;  107.000
230.490;  -69.050; -489.000; -521.000
230.634;  -99.500; -736.000; -553.000
230.777;   64.475;  478.000;  509.000
230.921;  -65.750; -450.000; -359.000
231.065;  -39.950; -246.000; -286.000
231.209;   27.525;  261.000;  265.000
231.352;   25.750;   54.000;   40.000
231.496;   14.800;  568.000;  188.000
231.640;  -76.425; -693.000; -621.000
231.783;   72.850;  546.000;  525.000
231.927;  -39.750; -294.000; -365.000
232.071; -125.275; -962.000; -736.000
232.214; -106.825; -980.000; -764.000
232.358;  -99.375; -683.000; -599.000
232.502;    8.775;  -19.000;    7.000
232.645; -136.250;-1090.000; -927.000
232.789;  -18.900; -257.000; -218.000
232.933;  -33.825; -407.000; -224.000
233.076; -112.225;-1038.000; -897.000
233.220; -114.075; -752.000; -777.000
233.363;  -62.675; -669.000; -477.000
233.507;   70.525;  371.000;  129.000
233.650;  -89.550; -764.000; -834.000
233.794;   56.350;  438.000;  461.000
233.938;  -50.250; -530.000; -362.000
234.081;   -7.550;  -93.000;   31.000
234.225;  -63.300; -631.000; -539.000
234.368; -116.850; -773.000; -723.000
234.512;  -39.900; -385.000; -299.000
234.655;  -85.300; -582.000; -555.000
234.798;  -62.700; -493.000; -466.000
234.942; -121.300; -884.000;-1002.000
235.085;  -70.350; -651.000; -443.000
235.229;  -69.150; -405.000; -410.000
235.372;  -51.975; -247.000; -191.000
235.516;  -57.275; -397.000; -321.000
235.659;   26.000;   92.000;  121.000
235.802;  -14.775;  -38.000;  -22.000
235.946;   24.025;  335.000;  215.000
236.089;   23.450;  126.000;  250.000
236.233;   43.525;  275.000;  298.000
236.376;  -41.225; -235.000; -378.000
236.519;  -30.450; -297.000; -319.000
236.663;   -9.400; -215.000; -117.000
236.806; -127.875;-1029.000; -999.000
236.949;   34.175;  543.000;  431.000
237.092;   51.575;  412.000;  391.000
237.236;  -78.800; -589.000; -502.000
237.379;   54.200;  352.000;  428.000
237.522; -115.650; -879.000; -768.000
237.666;  -16.950; -271.000;   18.000
237.809; -113.100; -851.000; -823.000
237.952;   37.200;  469.000;  271.000
238.095;  -60.900; -447.000; -442.000
238.238;   79.300;  688.000;  700.000
238.382;   -1.650;  166.000;  103.000
238.525;  -67.375; -598.000; -511.000
238.668; -136.625;-1060.000; -985.000
238.811;  -74.900; -638.000; -643.000
238.954;  -61.900; -483.000; -334.000
239.097;   86.150;  617.000;  664.000
239.241;   25.600;  394.000;  326.000
239.384;  -40.800; -254.000; -214.000
239.527;  -65.600; -424.000; -224.000
239.670; -132.950; -994.000;-1091.000
239.813; -114.425; -696.000; -658.000
239.956;   72.500;  579.000;  473.000
240.099; -110.175; -778.000; -725.000
240.242;   63.475;  428.000;  432.000
240.385;   36.125;  466.000;  450.000
240.528;  -67.125; -706.000; -473.000
240.671;   23.975;  189.000;  134.000
240.814;  -38.850; -441.000; -158.000
240.957;  -98.500; -767.000; -578.000
241.100;  -95.300; -779.000; -755.000
241.243; -131.350;-1234.000; -893.000
241.386;  -73.300; -508.000; -379.000
241.529;  -84.600; -735.000; -547.000
241.672;  -69.025; -566.000; -495.000
241.815; -124.175; -832.000; -808.000
241.958;  -46.900; -125.000; -182.000
242.101;  -75.075; -545.000; -390.000
242.244;  -28.875; -270.000; -325.000
242.387;  -36.550; -304.000; -246.000
242.530;   63.500;  470.000;  134.000
242.673;  -37.900; -381.000; -309.000
242.815; -108.800; -925.000; -899.000
242.958;  -64.825; -482.000; -381.000
243.101;   -0.300;  132.000;  187.000
243.244;  -72.375; -564.000; -521.000
243.387;  -41.750; -313.000; -316.000
243.530;  -83.425; -657.000; -674.000
243.672;   -3.350;   43.000;  -92.000
243.815;  -44.250; -355.000; -283.000
243.958;   -1.975;   98.000;  -26.000
244.101;   -3.075;   59.000;  -16.000
244.243;   -9.075;  -47.000;  101.000
244.386; -110.350; -761.000; -630.000
244.529;  -17.200; -132.000; -139.000
244.672; -142.000;-1154.000; -951.000
244.814;  -96.725; -621.000; -794.000
244.957;  -58.575; -380.000; -304.000
245.100;  -79.300; -489.000; -489.000
245.242;  -65.750; -387.000; -374.000
245.385;    3.450;  -59.000;  -39.000
245.528; -111.600; -871.000; -705.000
245.670;   81.975;  612.000;  634.000
245.813;  -85.275; -599.000; -547.000
245.956;  -17.450; -324.000; -275.000
246.098;  -57.825; -508.000; -650.000
246.241;    1.600;  194.000;   48.000
246.383;  -20.075; -119.000;  -73.000
246.526;  -62.425; -454.000; -525.000
246.669; -114.925; -889.000; -780.000
246.811;   21.575;  172.000;   -1.000
246.954;  -62.400; -512.000; -426.000
247.096;  -22.250;  -84.000;   -6.000
247.239;  -75.725; -482.000; -445.000
247.381;  -59.325; -647.000; -488.000
247.524;   79.825;  645.000;  679.000
247.666;  -15.225;   58.000;   11.000
247.809; -106.325; -887.000; -691.000
247.951;   -2.325;  -75.000;  138.000
248.094;   27.275;  432.000;  308.000
248.236; -150.200;-1262.000;-1238.000
248.378;   12.175; -356.000;  -81.000
248.521;  -17.975; -334.000; -337.000
248.663;  -32.650; -236.000; -267.000
248.806;  -19.925; -300.000; -266.000
248.948;  -89.325; -886.000; -763.000
249.090;  -33.350; -428.000; -398.000
249.233;  -38.300; -344.000; -381.000
249.375;  -59.875; -474.000; -451.000
249.518;  -14.325;  -83.000; -133.000
249.660;   -6.550; -103.000;    3.000
249.802; -163.775;-1303.000;-1189.000
249.945;  -66.000; -612.000; -540.000
250.087; -110.425; -834.000; -768.000
250.229;  -33.425; -362.000; -480.000
250.371;  -70.550; -494.000; -439.000
250.514;  -53.675; -310.000; -244.000
250.656;   -2.575;   69.000;  102.000
250.798; -112.400; -849.000; -800.000
250.940;  -58.800; -322.000; -322.000
251.083;  -35.000; -335.000; -111.000
251.225;   53.050;  338.000;  310.000
251.367;  -30.075; -274.000; -373.000
251.509;  -33.300; -265.000; -210.000
251.651;  -95.400; -731.000; -671.000
251.794;   54.000;  538.000;  632.000
251.936;  -97.600; -821.000; -747.000
252.078;  -77.250; -540.000; -461.000
252.220;  -57.050; -645.000; -477.000
252.362;   86.825;  344.000;  462.000
252.504;  -64.400; -677.000; -584.000
252.646; -100.425; -875.000; -722.000
252.788;    5.950;   14.000; -128.000
252.931;  -16.500; -257.000; -253.000
253.073;  -29.575; -376.000; -317.000
253.215;  -12.175;  141.000;  122.000
253.357;  -16.900;   82.000; -153.000
253.499;  -48.350; -374.000; -234.000
253.641;  -70.750; -749.000; -594.000
253.783;  -84.750; -609.000; -527.000
253.925;  -84.450; -586.000; -591.000
254.067; -101.375; -744.000; -667.000
254.209;  -21.025; -391.000; -259.000
254.351; -131.650; -865.000; -883.000
254.493;  -57.875; -441.000; -417.000
254.635; -117.600; -936.000; -818.000
254.777;  -75.700; -752.000; -687.000
254.918;  -50.725; -512.000; -430.000
255.060;  -48.800; -551.000; -395.000
255.202;  -44.450; -473.000; -261.000
255.344;  -77.700; -658.000; -455.000
255.486;  -71.075; -471.000; -406.000
255.628;  -99.600; -780.000; -781.000
255.770;  -80.525; -676.000; -536.000
255.912;  -52.975; -559.000; -468.000
256.053;  -92.000; -730.000; -508.000
256.195;  147.950; 1008.000;  903.000
256.337;  -90.425; -861.000; -595.000
256.479;   63.650;  532.000;  416.000
256.621;  -37.625; -394.000; -212.000
256.762;  -95.625; -789.000; -742.000
256.904;   43.150;  485.000;  487.000
257.046;  -47.250; -381.000; -271.000
257.188;  -37.475; -351.000; -264.000
257.329;  -61.575; -525.000; -464.000
257.471; -102.250; -939.000; -807.000
257.613;  -60.200; -584.000; -498.000
257.755; -141.075;-1073.000; -982.000
257.896;   23.650;  286.000;  392.000
258.038;  -67.800; -403.000; -352.000
258.180;  -41.150; -354.000; -279.000
258.321;  -81.500; -581.000; -457.000
258.463;    3.475;  -71.000;  133.000
258.605;  -83.575; -562.000; -570.000
258.746; -103.000; -886.000; -772.000
258.888; -150.875;-1026.000;-1020.000
259.029;   17.150;  121.000;   -8.000
259.171;  -89.650; -614.000; -550.000
259.313;    4.075;  -49.000;  -47.000
259.454;  -67.650; -536.000; -414.000
259.596;  -60.150; -483.000; -390.000
259.737;  -73.275; -590.000; -474.000
259.879;   45.400;  217.000;  311.000
260.020;   82.550;  901.000;  636.000
260.162;  -33.325; -146.000; -253.000
260.303; -111.850; -768.000; -687.000
260.445;  -73.175; -609.000; -613.000
260.586;   34.900;  392.000;  157.000
260.728;  -37.575; -360.000; -248.000
260.869; -109.800; -350.000; -343.000
261.011;   65.150;  706.000;  537.000
261.152;  -44.800; -479.000; -319.000
261.293;  -76.925; -576.000; -595.000
261.435;  -22.750; -219.000; -184.000
261.576;  -49.475; -455.000; -325.000
261.718;   56.625;  420.000;  470.000
261.859; -114.350; -940.000; -949.000
262.000; -139.250; -951.000;-1016.000
262.142;  -23.025;  -52.000;  -60.000
262.283; -116.000; -808.000; -691.000
262.424;  -71.800; -666.000; -625.000
262.566; -140.650;-1161.000; -983.000
262.707; -112.650; -840.000; -830.000
262.848; -112.450; -769.000; -726.000
262.990;  -39.300; -362.000; -345.000
263.131;   67.900;  650.000;  681.000
263.272;  -11.650;  -61.000;  -41.000
263.413;  -88.350; -589.000; -561.000
263.555;  -66.325; -669.000; -143.000
263.696;  -80.025; -550.000; -641.000
263.837;  -64.275; -449.000; -551.000
263.978;   -0.575;   -5.000;  -77.000
264.119;  -64.350; -283.000; -264.000
264.261;  -99.725; -847.000; -630.000
264.402;   -1.575;   33.000;   40.000
264.543;  -73.150; -509.000; -524.000
264.684;  -22.725;   61.000;  -50.000
264.825;  -67.900; -816.000; -538.000
264.966;   -4.700;  -84.000;  -67.000
265.107; -111.075; -646.000; -670.000
265.248; -120.550; -825.000; -812.000
265.390;  -15.450;  152.000;   -9.000
265.531;  -18.950; -238.000; -107.000
265.672;  -83.125; -557.000; -630.000
265.813;   59.100;  563.000;  439.000
265.954; -138.650; -959.000; -940.000
266.095;   -7.200; -372.000; -322.000
266.236; -103.050; -686.000; -548.000
266.377;  -48.100; -243.000; -297.000
266.518;  -80.000; -619.000; -547.000
266.659;   29.775;  170.000;  268.000
266.800;    0.325;   83.000;   85.000
266.941;  -72.125; -487.000; -478.000
267.082;    7.350;  354.000;   99.000
267.223;  -56.725; -344.000; -273.000
267.364; -109.000; -892.000; -686.000
267.504;  -12.450;    3.000;  135.000
267.645;   13.600;  160.000;   67.000
267.786;  -27.100; -147.000;  -86.000
267.927;  -63.175; -473.000; -379.000
268.068;  -15.700; -186.000;  -61.000
268.209;  -30.600; -175.000; -413.000
268.350;  -55.850; -388.000; -532.000
268.490;  -88.150; -648.000; -521.000
268.631;   34.075;  127.000;  225.000
268.772; -111.375; -874.000; -647.000
268.913;  -38.600; -328.000; -476.000
269.054;   -2.450; -117.000;   12.000
269.194;  -49.125; -418.000; -402.000
269.335; -152.500;-1137.000;-1074.000
269.476;  -17.500;   33.000;  -35.000
269.617;  -46.150; -347.000; -392.000
269.757;  -82.625; -713.000; -646.000
269.898;  -89.425; -856.000; -613.000
270.039;  -67.525; -415.000; -405.000
270.180; -142.475; -952.000; -816.000
270.320;  -26.450; -190.000; -250.000
270.461;  -37.275; -277.000; -249.000
270.602;   -2.400; -186.000; -156.000
270.742; -103.875; -868.000; -943.000
270.883;  -64.000; -442.000; -390.000
271.023;  -47.525; -358.000; -357.000
271.164;  -68.600; -607.000; -528.000
271.305;  -87.250; -666.000; -654.000
271.445;  -94.475; -722.000; -683.000
271.586;  -56.750; -462.000; -283.000
271.726;  -49.575; -397.000; -322.000
271.867;  -39.075; -594.000; -534.000
272.008;  227.400; -473.000; -285.000
272.148;  132.575;  462.000;  468.000
272.289;    5.500; -113.000; -181.000
272.429;   28.050;   19.000;  185.000
272.570;  -92.500; -633.000; -737.000
272.710;  -82.175; -825.000; -775.000
272.851;  -10.525;  113.000; -130.000
272.991; -160.575;-1173.000;-1077.000
273.131;  -61.525; -419.000; -459.000
273.272;  -95.450; -683.000; -723.000
273.412;   15.025; -143.000;  -31.000
273.553;  -27.550; -488.000; -507.000
273.693;  142.425;  913.000;  858.000
273.834;  -82.425; -894.000; -692.000
273.974;  -54.925; -664.000; -615.000
274.114;  -79.875; -772.000; -560.000
274.255;   90.175;  414.000;  373.000
274.395;   29.350; -180.000; -125.000
274.535;   43.500;  199.000;  350.000
274.676;   22.150;  225.000;   94.000
274.816;   10.025;  110.000;   34.000
274.956;  -59.750; -624.000; -690.000
275.097;  -54.950;-1014.000; -922.000
275.237;  -93.100; -913.000; -803.000
275.377;  -84.975; -778.000; -689.000
275.517; -139.450; -878.000; -937.000
275.658;  -38.875; -590.000; -555.000
275.798;  -56.325; -606.000; -413.000
275.938;   23.675;  215.000;  323.000
276.078;  -80.325; -626.000; -395.000
276.218;    9.900;   99.000;  104.000
276.359; -116.875;-1026.000;-1024.000
276.499;  -57.800; -605.000; -446.000
276.639;  -24.625; -305.000; -151.000
276.779;  -33.825; -475.000; -357.000
276.919;  -93.200; -783.000; -624.000
277.059;  -16.575; -261.000; -212.000
277.199;  -43.050; -357.000; -259.000
277.340;   54.650;  287.000;  175.000
277.480;  -92.175; -840.000; -693.000
277.620;   26.125;  192.000;   16.000
277.760; -192.525;-1533.000;-1294.000
277.900;   25.425;  113.000;   33.000
278.040;   21.500;  137.000;  159.000
278.180;   41.050;  270.000;  170.000
278.320;    5.525;   21.000;   56.000
278.460;  -59.375; -443.000; -469.000
278.600;  -83.200; -708.000; -598.000
278.740;   56.825;  448.000;  224.000
278.880;  -32.950; -768.000; -791.000
279.020;    7.325; -194.000; -144.000
279.160;  -77.200; -672.000; -595.000
279.300; -107.775; -926.000; -873.000
279.440;  -80.900; -709.000; -622.000
279.579;    8.125;-1014.000; -929.000
279.719;  -37.925; -410.000; -394.000
279.859;   83.300;   -4.000;   41.000
279.999;   47.050; -208.000;  101.000
280.139;   -5.150; -435.000; -387.000
280.279;  -57.875; -708.000; -745.000
280.419;  -12.250; -229.000; -147.000
280.559;  -21.850; -259.000; -180.000
280.698;  -68.225; -790.000; -639.000
280.838;  -83.625; -778.000; -800.000
280.978;  -81.150; -846.000; -790.000
281.118; -108.325; -811.000; -704.000
281.257;   -1.125;   24.000;    6.000
281.397;  -86.700;-1094.000; -960.000
281.537;  -67.875; -599.000; -712.000
281.677;  -25.900; -150.000; -101.000
281.816;  -81.100; -700.000; -630.000
281.956;  -31.925; -193.000; -257.000
282.096;  -62.025; -539.000; -396.000
282.235; -101.025; -672.000; -638.000
282.375;  -18.825; -243.000;  -98.000
282.515;  -91.275; -715.000; -707.000
282.654;   44.225;   29.000;  106.000
282.794;   32.450;  388.000;  244.000
282.934;  -43.750; -530.000; -491.000
283.073; -123.225;-1030.000; -857.000
283.213;  -44.675; -460.000; -467.000
283.353;  -17.525; -408.000; -349.000
283.492;  -22.950; -264.000; -296.000
283.632;  -35.700; -254.000; -168.000
283.771;  -92.600; -859.000; -730.000
283.911;  -47.075; -369.000; -260.000
284.050; -100.050; -794.000; -748.000
284.190; -144.550;-1229.000;-1096.000
284.329; -136.300;-1055.000; -964.000
284.469;  -53.400; -516.000; -591.000
284.608;  -51.800; -559.000; -598.000
284.748;  -72.325; -614.000; -570.000
284.887;   -3.500;  -87.000;  -20.000
285.027; -116.600; -844.000; -892.000
285.166;  -22.275; -192.000; -249.000
285.306;   14.975; -116.000;  -33.000
285.445;  -38.500; -229.000; -343.000
285.584;  -68.900; -630.000; -494.000
285.724;  -39.950; -282.000; -322.000
285.863; -104.175; -857.000; -507.000
286.002;  -57.475; -366.000; -276.000
286.142;  -99.450; -715.000; -622.000
286.281;  -57.925; -525.000; -493.000
286.420;  -70.825; -554.000; -417.000
286.560;   87.175;  653.000;  623.000
286.699; -118.375; -958.000; -912.000
286.838;  -74.625; -590.000; -591.000
286.978;  -74.975; -533.000; -537.000
287.117; -120.700;-1085.000; -950.000
287.256;  -27.150; -228.000; -211.000
287.395;  -44.575; -197.000; -378.000
287.535;  -39.000; -370.000; -298.000
287.674;  -71.450; -509.000; -484.000
287.813;   63.825;  661.000;  533.000
287.952; -114.050;-1010.000; -871.000
288.091; -145.850;-1049.000; -915.000
288.231;   28.500;   13.000;   15.000
288.370; -156.875;-1217.000;-1200.000
288.509;  -96.550; -728.000; -645.000
288.648;  -87.525; -770.000; -548.000
288.787;  -27.775; -243.000;  -87.000
288.926;  -63.275; -454.000; -475.000
289.065;  124.475;  859.000;  672.000
289.204;  -47.550; -377.000; -217.000
289.344;  -82.500; -791.000; -690.000
289.483;   46.200;  416.000;  304.000
289.622;   -6.575; -291.000; -149.000
289.761;  -13.550; -309.000; -166.000
289.900; -100.400; -785.000; -626.000
290.039;  -10.850;  -12.000;  -95.000
290.178;  -32.925; -274.000; -180.000
290.317;  -69.175; -618.000; -479.000
290.456;  -57.200; -463.000; -451.000
290.595; -116.550; -961.000; -833.000
290.734; -130.300; -904.000; -891.000
290.873;  -75.500; -456.000; -420.000
291.011; -106.200; -833.000; -843.000
291.150;  -81.000; -770.000; -682.000
291.289;   -1.925; -343.000; -110.000
291.428;  -86.425; -599.000; -480.000
291.567;  -40.600; -370.000; -442.000
291.706;  -10.925;  109.000;  154.000
291.845;  -99.500; -597.000; -505.000
291.984; -149.625;-1234.000;-1061.000
292.122;   71.900;  602.000;  582.000
292.261;   50.625;  620.000;  463.000
292.400;   24.775; -144.000;  211.000
292.539; -118.175; -959.000; -813.000
292.678;  -33.575; -325.000; -300.000
292.816; -140.150;-1136.000; -965.000
292.955;  -66.000; -844.000; -684.000
293.094;  -12.125; -173.000; -337.000
293.233;  -54.225; -556.000; -400.000
293.371;  -29.525; -225.000;  -84.000
293.510; -101.600; -866.000; -780.000
293.649; -116.675; -959.000; -924.000
293.787;  -27.325;-1083.000;-1012.000
293.926;    4.650; -113.000;  -32.000
294.065;  -33.300; -379.000; -290.000
294.203;   47.450;  298.000;  406.000
294.342;   20.375;   74.000;  156.000
294.481; 5561.275;51180.000; -836.000
294.619;  -19.400; -425.000; -582.000
294.758; -125.300;-1230.000;-1137.000
294.896;  104.475; -125.000;    5.000
295.035; -109.725;-1040.000;-1006.000
295.174; -116.675;-1082.000; -954.000
295.312;  -26.375; -323.000; -203.000
295.451;   20.100; -307.000; -428.000
295.589;  -41.675; -389.000; -518.000
295.728;   26.500; -292.000; -165.000
295.866;    9.525;  -36.000;  -51.000
296.005;  -42.825; -584.000; -341.000
296.143;  -61.450; -558.000; -596.000
296.282;  -93.475; -957.000; -881.000
296.420;  -88.675; -657.000; -557.000
296.559;  -58.725; -892.000; -633.000
296.697;   61.050; -847.000; -665.000
296.835;  133.750;-1141.000;-1002.000
296.974;   57.500;  -23.000;   39.000
297.112;   45.575; -443.000; -504.000
297.251;  -55.575; -815.000; -755.000
297.389;  133.225; -576.000; -438.000
297.527;   49.125; -145.000;  -83.000
297.666;  -40.200; -486.000; -438.000
297.804;  -46.975; -404.000; -264.000
297.942;    2.300; -136.000; -161.000
298.081;   -2.375; -183.000;   63.000
298.219;  100.275;  -17.000;  -19.000
298.357;   80.700; -144.000;  -71.000
298.495;   66.225; -810.000; -812.000
298.634;  109.850;  245.000;  219.000
298.772;  105.725; -220.000; -338.000
298.910;  -36.425; -309.000; -182.000
299.048;   -4.000; -130.000; -153.000
299.187;  -19.750; -350.000; -250.000
299.325;   38.350;   52.000;  122.000
299.463;   95.400; -389.000; -299.000
299.601;  155.325; -327.000; -271.000
299.739;  -91.525; -908.000; -883.000
299.877;  -56.975; -791.000; -703.000
300.016;  -15.125;-1095.000; -935.000
300.154;  220.075;  -19.000; -161.000
300.292;   97.875; -428.000; -348.000
300.430;   62.875; -408.000; -291.000
300.568;  -89.400; -940.000; -874.000
300.706;  -45.375; -366.000; -469.000
300.844;  -39.000;-1108.000; -979.000
300.982;  132.975;  246.000;  282.000
301.120;  -92.725; -965.000; -866.000
301.258;  -57.400; -812.000; -705.000
301.396;   52.150;  104.000;  -41.000
301.534;  124.100; -218.000; -293.000
301.672;   35.875; -664.000; -521.000
301.810;   84.675; -613.000; -545.000
301.948;  152.850;   53.000;  149.000
302.086;  811.300; -250.000;  -32.000
302.224; 1201.075; -610.000; -585.000
302.362;   78.825; -558.000; -622.000
302.500;   22.050; -923.000; -893.000
302.638;  150.825;  128.000;  245.000
302.776;    4.625; -352.000; -408.000
302.913;   48.725;  447.000;  236.000
303.051;   17.800;  -86.000;  -23.000
303.189;   56.700;   90.000;  118.000
303.327;  -29.850; -341.000; -256.000
303.465;  -73.550; -832.000; -588.000
303.603;  -85.775; -805.000; -604.000
303.740;  107.200;  417.000;  241.000
303.878;   67.375; -800.000; -759.000
304.016;  -83.525; -915.000; -790.000
304.154; -101.150;-1123.000;-1152.000
304.291;  -16.400; -505.000; -554.000
304.429;    1.775;  102.000;   74.000
304.567; -107.625; -908.000; -893.000
304.705;  -42.125; -408.000; -515.000
304.842;  150.125; -616.000; -540.000
304.980;   70.150;  215.000;   35.000
305.118;   88.075; -367.000; -365.000
305.255;  -38.250; -945.000; -927.000
305.393;   66.725;  178.000;  239.000
305.531;  -84.500;-1173.000; -956.000
305.668;  -66.600; -663.000; -582.000
305.806;  150.500; -358.000; -439.000
305.943;  141.175; -629.000; -637.000
306.081;   86.925; -378.000; -267.000
306.219;  -99.175; -863.000; -748.000
306.356;    3.475;  158.000;   27.000
306.494;  105.700;  981.000;  761.000
306.631;   -0.475;  -11.000;  -55.000
306.769;   36.100; -613.000; -485.000
306.906;    4.425; -284.000; -258.000
307.044;  -52.150; -473.000; -488.000
307.181;  -48.350; -410.000; -332.000
307.319;   11.025;  112.000;   87.000
307.456; -165.750;-1191.000;-1153.000
307.594;  -78.475; -980.000; -727.000
307.731;    9.825; -371.000; -164.000
307.868;    4.500;  -15.000;   20.000
308.006; -118.125; -961.000; -847.000
308.143;  -53.450; -618.000; -330.000
308.281;  226.725;  -37.000; -254.000
308.418;   20.825; -748.000; -640.000
308.555;  -60.525; -400.000; -250.000
308.693;  -59.500; -577.000; -573.000
308.830;  -97.625; -712.000; -657.000
308.967;  -14.525; -215.000;  -95.000
309.105;  -42.825; -507.000; -396.000
309.242;   87.825; -468.000; -367.000
309.379;  469.100; -577.000; -655.000
309.517;  -23.125; -936.000; -948.000
309.654;  -92.200; -910.000; -734.000
309.791;  -67.175; -662.000; -580.000
309.928; -102.975; -977.000; -914.000
310.065;  202.975;  819.000;  697.000
310.203;   29.000; -825.000; -850.000
310.340;   20.350; -465.000; -321.000
310.477;  -58.300; -412.000; -516.000
310.614;  -61.725; -383.000; -473.000
310.751;  -74.700; -427.000; -518.000
310.889;  -16.550;    1.000;   11.000
311.026; -147.400;-1161.000; -939.000
311.163;  -32.725; -386.000; -380.000
311.300;  -60.825; -512.000; -479.000
311.437;  -72.600; -658.000; -619.000
311.574; -140.775;-1226.000; -985.000
311.711;  -36.825; -595.000; -433.000
311.848;  -32.550; -380.000; -388.000
311.985;   24.600;  270.000;   93.000
312.122; -121.325; -932.000; -762.000
312.259; -113.450; -941.000; -994.000
312.396;  -75.825; -508.000; -551.000
312.533;  -74.250; -812.000; -790.000
312.670; -118.925;-1070.000; -898.000
312.807;  -37.325; -352.000; -367.000
312.944;  -63.400; -513.000; -611.000
313.081;  -10.275; -150.000; -415.000
313.218;  -99.625;-1111.000; -867.000
313.355;   34.075; -531.000; -449.000
313.492;   14.125; -455.000; -292.000
313.629;  145.375;  815.000;  735.000
313.766; -146.350;-1176.000;-1008.000
313.902;    0.550; -186.000;   21.000
314.039;  -30.525; -372.000; -289.000
314.176;   35.775;  286.000;  192.000
314.313;  -65.225; -569.000; -473.000
314.450;  -58.050; -788.000; -684.000
314.587;  -47.800; -468.000; -480.000
314.723;   12.650;  -78.000;  130.000
314.860;   45.850;  318.000;  332.000
314.997;   38.725;  223.000;  142.000
315.134;  -26.500; -385.000; -368.000
315.270;  -15.400; -480.000; -496.000
315.407; -110.475;-1094.000; -967.000
315.544;  -35.025; -657.000; -538.000
315.681;  -47.375; -681.000; -565.000
315.817;   47.300; -133.000; -176.000
315.954;   34.750; -613.000; -392.000
316.091; -106.550;-1045.000;-1023.000
316.227;  -29.750;  -71.000; -179.000
316.364;    3.725;   23.000;    6.000
316.500;  -36.200; -113.000; -300.000
316.637;  -43.350; -181.000; -302.000
316.774;  -81.875; -625.000; -358.000
316.910;  -81.425; -598.000; -629.000
317.047;  -60.400; -487.000; -351.000
317.183;  -34.575; -435.000; -566.000
317.320;  -12.125; -367.000; -321.000
317.456;  -72.925; -733.000; -805.000
317.593;  -78.875; -598.000; -641.000
317.729;   18.525;  168.000;  -67.000
317.866; -193.050;-1434.000;-1285.000
318.002;  -73.075; -708.000; -948.000
318.139;  -67.300; -883.000; -867.000
318.275;  -84.400;-1003.000; -738.000
318.412;  -48.350; -517.000; -336.000
318.548;   -1.725; -751.000; -720.000
318.685;  -92.625; -985.000; -888.000
318.821;  -83.875; -762.000; -735.000
318.957;  -15.325;   34.000;  -23.000
319.094;   44.375;  297.000;  154.000
319.230;  -41.250; -756.000; -742.000
319.367;  193.575; -471.000; -520.000
319.503;   99.050; -538.000; -436.000
319.639;  -84.450; -877.000; -793.000
319.775;  -38.200; -750.000; -685.000
319.912;  -41.875; -424.000; -519.000
320.048;  -75.850;-1184.000;-1184.000
320.184;   86.150;   59.000;   70.000
320.321;  -53.650; -497.000; -467.000
320.457;   64.375;  475.000;  662.000
320.593;  -61.250; -375.000; -382.000
320.729;  -95.300; -732.000; -734.000
320.866;  -62.425; -577.000; -635.000
321.002;  -66.450; -759.000; -809.000
321.138;   -4.475; -135.000; -211.000
321.274;   85.850; -148.000; -115.000
321.410;    6.325; -585.000; -353.000
321.546;    0.125;-1011.000; -911.000
321.683;   53.375;  400.000;  185.000
321.819;   12.725;  -48.000; -117.000
321.955;  -99.400; -743.000; -722.000
322.091;  -34.300; -585.000; -540.000
322.227;    0.625; -382.000; -202.000
322.363;    1.700; -320.000; -215.000
322.499;  -20.125; -343.000; -331.000
322.635;  201.000;  636.000;  443.000
322.771;   52.175; -139.000;   12.000
322.907;  101.225;  129.000;  327.000
323.043;  -12.300; -115.000; -206.000
323.179;  -22.400; -394.000; -363.000
323.315;   73.575; -401.000; -371.000
323.451;  151.575; -328.000; -236.000
323.587;   91.700;  -60.000;  -77.000
323.723;   62.350; -682.000; -601.000
323.859;    4.650; -258.000;  -76.000
323.995;  -20.200; -467.000; -409.000
324.131; -113.025; -967.000; -892.000
324.267;  -26.025; -254.000; -276.000
324.402; -112.025; -960.000; -983.000
324.538;    8.050; -279.000; -104.000
324.674;   27.425;  164.000;   77.000
324.810;  185.250;  226.000;  308.000
324.946;   52.425; -810.000; -658.000
325.082;  -60.875; -568.000; -475.000
325.217;    0.600;  -62.000;   16.000
325.353;  -83.650; -764.000; -659.000
325.489;  -83.825; -540.000; -506.000
325.625;  -70.075; -579.000; -525.000
325.760;   51.775;  517.000;  376.000
325.896;  -29.350; -515.000; -702.000
326.032;  -48.650; -403.000; -352.000
326.168;  -63.475; -462.000; -369.000
326.303;  -64.800; -352.000; -461.000
326.439;   -3.775; -336.000; -276.000
326.575;   16.350; -190.000;  -29.000
326.710;    3.125; -156.000;  -30.000
326.846;  -14.975;  146.000;  103.000
326.982;  -83.300; -530.000; -548.000
327.117;  -70.825; -481.000; -442.000
327.253;  -88.875; -745.000; -742.000
327.388; -105.325;-1137.000;-1153.000
327.524;  -25.875; -811.000; -578.000
327.659;  -27.600;  -58.000;  -22.000
327.795;  -11.375;   69.000;   45.000
327.931;  -75.125; -723.000; -499.000
328.066;  -17.400; -417.000; -276.000
328.202;    0.800;   12.000; -129.000
328.337;  102.725;  957.000;  713.000
328.473;   41.150;  -12.000;  -74.000
328.608;  -12.625; -256.000; -267.000
328.743;  -68.075; -799.000; -664.000
328.879;   29.175;  214.000;  114.000
329.014;  -19.675; -102.000; -122.000
329.150;  -82.150; -358.000; -483.000
329.285;  -63.700; -465.000; -466.000
329.421;  -42.525; -548.000; -246.000
329.556;  -13.975;  -36.000;   85.000
329.691;  -96.625; -633.000; -615.000
329.827;  -80.800; -626.000; -480.000
329.962;  -25.650;  131.000; -301.000
330.097;  -91.050; -673.000; -585.000
330.233;  -45.050; -410.000; -223.000
330.368; -114.875; -839.000; -628.000
330.503;   -9.400;    3.000;   98.000
330.638;   24.225;  -93.000; -125.000
330.774;  -43.500; -609.000; -530.000
330.909;  -31.000; -434.000; -244.000
331.044;  -84.650; -714.000; -708.000
331.179; -167.125;-1217.000;-1109.000
331.315;    9.700;   77.000;   20.000
331.450;   15.400;  157.000;  285.000
331.585;  -73.225; -805.000; -706.000
331.720;  -74.700; -510.000; -460.000
331.855;    0.925;  -35.000; -102.000
331.990;  220.000;   62.000;  138.000
332.126;  120.225; -110.000;   71.000
332.261;  -12.125; -379.000; -265.000
332.396;   -0.950; -135.000; -242.000
332.531;  -85.075;-1074.000;-1031.000
332.666;   40.425; -519.000; -363.000
332.801;  -94.525; -726.000; -807.000
332.936;   -8.775; -192.000; -122.000
333.071; -145.525; -870.000; -817.000
333.206;   36.500;  307.000;  379.000
333.341;   42.675;  344.000;  418.000
333.476;  -83.050; -627.000; -623.000
333.611;  -34.625; -251.000; -173.000
333.746;  -31.075; -381.000; -464.000
333.881; -103.650; -973.000; -935.000
334.016; -111.675; -936.000; -917.000
334.151; -111.075; -746.000; -702.000
334.286;   32.000;  152.000;  186.000
334.421;  -26.200; -125.000; -178.000
334.556;  -66.350; -611.000; -567.000
334.690;  -58.600; -631.000; -577.000
334.825;   73.075;  381.000;   83.000
334.960;  -41.875; -285.000; -413.000
335.095;   19.725;  135.000;  -91.000
335.230;  -84.800; -722.000; -738.000
335.365; -117.700;-1084.000; -990.000
335.499; -101.050;-1108.000;-1037.000
335.634;   35.150;    9.000;  534.000
335.769;  -81.625; -755.000; -720.000
335.904;  -39.650; -603.000; -561.000
336.038;  -39.200; -735.000; -657.000
336.173;  -96.575;-1206.000;-1194.000
336.308;   13.100; -116.000; -189.000
336.443;   36.075; -544.000; -634.000
336.577;  -48.175; -936.000; -787.000
336.712;   87.050;   -4.000;  -12.000
336.847;  -22.250; -724.000; -607.000
336.981;  107.500; -272.000; -208.000
337.116;  345.450;  615.000;  501.000
337.250;  210.800; -434.000; -421.000
337.385;  227.475; -297.000; -208.000
337.520;   72.975; -632.000; -603.000
337.654;  -29.950; -215.000; -126.000
337.789; -110.325; -989.000; -933.000
337.923;  -21.425; -104.000; -205.000
338.058;  -76.625; -673.000; -738.000
338.192;    4.125; -611.000; -488.000
338.327;   -8.125;  -18.000; -155.000
338.461;  -40.525; -299.000; -469.000
338.596;  -76.600; -780.000; -638.000
338.730;  -93.975; -767.000; -803.000
338.865;   77.850;  -46.000; -140.000
338.999;  -51.050; -846.000; -702.000
339.134;  -24.150; -634.000; -536.000
339.268;   37.600; -741.000; -603.000
339.403;  368.125; -740.000; -775.000
339.537;   91.350; -894.000; -820.000
339.671; -108.650; -829.000; -813.000
339.806;  -67.875; -556.000; -512.000
339.940;   17.525; -261.000; -235.000
340.074;  -84.550; -685.000; -510.000
340.209;  -37.100; -351.000; -230.000
340.343;  -87.625; -517.000; -573.000
340.477;  165.925;  998.000; 1036.000
340.612;  -59.650;-1033.000; -900.000
340.746;  136.200; -199.000; -243.000
340.880;  -42.500; -924.000; -785.000
341.014;  -11.025;  -45.000; -154.000
341.149;  -90.250; -756.000; -718.000
341.283;  -80.650; -839.000; -754.000
341.417;  -68.500;-1124.000; -938.000
341.551;  209.075; -768.000; -708.000
341.685;  -18.700; -633.000; -611.000
341.820;  -50.525; -562.000; -493.000
341.954;  -46.200; -218.000; -349.000
342.088; -141.725;-1102.000;-1019.000
342.222;   48.500;  565.000;  618.000
342.356;  -57.525; -395.000; -335.000
342.490;  -75.850; -880.000; -841.000
342.624;  -30.050; -339.000; -242.000
342.758;   26.000; -364.000; -312.000
342.892;  -54.775; -710.000; -585.000
343.026;  -29.650;  -58.000; -116.000
343.160;  -54.675; -426.000; -376.000
343.294;  -68.550; -474.000; -337.000
343.428;    2.925; -488.000; -448.000
343.562;    8.300; -172.000;  -23.000
343.696;  -14.575; -385.000; -314.000
343.830;    3.725; -362.000; -356.000
343.964;   43.925; -231.000; -168.000
344.098; 1178.200;  199.000;   70.000
344.232;  991.050; -266.000; -127.000
344.366;  121.925; -567.000; -453.000
344.500;  111.375; -665.000; -744.000
344.634;   59.200; -324.000; -164.000
344.768;    9.725; -531.000; -341.000
344.902;   32.075;  278.000;  256.000
345.035;  -68.525; -556.000; -496.000
345.169; -122.575; -933.000; -656.000
345.303;   -0.725; -308.000; -482.000
345.437;  -37.725; -826.000; -717.000
345.571;  -71.450; -675.000; -594.000
345.704;  -68.025; -309.000; -532.000
345.838;   -5.975; -331.000; -284.000
345.972;  -16.550; -543.000; -495.000
346.106;  155.125; -179.000; -190.000
346.239;  448.175; -312.000; -243.000
346.373;   24.775; -343.000; -302.000
346.507; -132.275; -950.000; -962.000
346.640;  190.125;  -30.000;   13.000
346.774;  -16.100; -650.000; -797.000
346.908;  -14.775; -138.000;  -11.000
347.041;  -79.725; -646.000; -593.000
347.175;   11.175;  259.000;   27.000
347.309;  -50.750; -698.000; -628.000
347.442;  -81.925; -883.000; -732.000
347.576;  341.650;  670.000;  668.000
347.709;  269.450; -123.000;  -52.000
347.843;  -65.050; -933.000; -825.000
347.976;   32.425;  235.000;  294.000
348.110; -156.350;-1268.000;-1186.000
348.243; -105.550; -679.000; -772.000
348.377;    8.900;  -26.000;   60.000
348.510;   50.275;  403.000;  540.000
348.644;  -26.400;  -37.000; -159.000
348.777;   -2.300;  180.000;  191.000
348.911;  -57.650; -142.000; -112.000
349.044;  208.750;  471.000;  448.000
349.178;  247.900;-1069.000;-1006.000
349.311;  122.175;  141.000;  255.000
349.444;    1.150; -927.000; -813.000
349.578;    1.300; -347.000; -200.000
349.711;  -70.475; -959.000; -862.000
349.845;   40.300; -661.000; -591.000
349.978; -105.900;-1224.000;-1137.000
350.111;  -72.225; -546.000; -612.000
350.244;  -60.775; -596.000; -700.000
350.378;   46.300; -392.000; -393.000
350.511;  -54.075; -393.000; -426.000
350.644;  -90.450; -808.000; -806.000
350.778;   13.775;  168.000;  104.000
350.911;    8.625;  134.000;  140.000
351.044;  -85.200; -685.000; -615.000
351.177;   -9.150; -321.000; -281.000
351.310;   -0.375;    3.000; -131.000
351.444;  -55.975; -888.000; -788.000
351.577;  154.750;  140.000;   90.000
351.710;  101.700;  593.000;  417.000
351.843;  -30.275; -165.000;  -77.000
351.976;   12.750;  149.000;  -79.000
352.109;  -70.750; -621.000; -612.000
352.242;   -4.075; -464.000; -419.000
352.376;  -31.550; -580.000; -636.000
352.509;  260.650; -437.000; -356.000
352.642;   82.700; -654.000; -604.000
352.775;   96.150; -141.000;  -98.000
352.908;  -99.900; -933.000; -904.000
353.041;  -89.600; -814.000; -824.000
353.174;  -52.425; -551.000; -424.000
353.307;  -69.050; -753.000; -764.000
353.440;   88.850;  541.000;  453.000
353.573; -108.175; -957.000;-1008.000
353.706;    0.025; -384.000; -558.000
353.839;    0.700; -264.000; -220.000
353.971;  -75.800; -657.000; -512.000
354.104;  -63.225; -896.000; -835.000
354.237;    0.200; -627.000; -662.000
354.370;  -62.975; -846.000; -879.000
354.503; -158.250;-1231.000;-1308.000
354.636;  -20.675; -529.000; -348.000
354.769; -107.950; -937.000; -860.000
354.902;    9.900; -230.000; -139.000
355.034;    9.700; -164.000; -220.000
355.167;   -2.050; -262.000; -162.000
355.300;  -81.000;-1061.000; -880.000
355.433;  908.750;  -71.000;  -14.000
355.565; 1415.925; -402.000; -384.000
355.698;  354.250; -356.000; -296.000
355.831;   30.950; -882.000; -801.000
355.964;  125.350; -285.000; -170.000
356.096;  -64.325; -856.000; -843.000
356.229;   29.900; -523.000; -530.000
356.362;  298.700; -373.000; -266.000
356.494;  558.900; -229.000; -162.000
356.627;  591.275;  269.000;  377.000
356.760;  648.300;  120.000;   53.000
356.892;  871.925; -286.000; -601.000
357.025;  828.550;  403.000;  389.000
357.157;  774.150; -167.000; -179.000
357.290;  591.975; -856.000; -713.000
357.423;  200.625; -667.000; -556.000
357.555;  147.575; -217.000; -228.000
357.688;  161.275; -483.000; -364.000
357.820;  567.550; -870.000; -877.000
357.953; 4384.875; -563.000; -589.000
358.085; 1045.100; -632.000; -612.000
358.218; 1649.350;-1131.000; -932.000
358.350;  289.850;  -58.000;  312.000
358.483; -101.725;-1300.000;-1187.000
358.615;   40.050;-1182.000;-1078.000
358.747;   -5.250;-1187.000;-1058.000
358.880;   93.725; -810.000; -744.000
359.012;   17.775; -376.000; -202.000
359.145;  -37.350; -480.000; -511.000
359.277;  133.700; -962.000; -913.000
359.409; 3612.125;  536.000;  231.000
359.542;  994.225; -738.000; -688.000
359.674;   88.450;   46.000;   13.000
359.806;  -52.875; -565.000; -438.000
359.939;  -45.875; -617.000; -516.000
360.071;  -14.550; -583.000; -579.000
360.203;  -22.600; -411.000; -364.000
360.335;   71.925;  164.000;  -16.000
360.468;  242.875; -249.000; -307.000
360.600; 2831.800; -547.000; -454.000
360.732; 2615.775; -546.000; -423.000
360.864;  389.250;-1216.000;-1044.000
360.996;  407.375; -516.000; -554.000
361.129;   81.350; -389.000; -598.000
361.261;   29.975;  110.000; -113.000
361.393;   -6.425; -252.000; -214.000
361.525;   55.050;   94.000;  244.000
361.657;  -23.000; -821.000; -703.000
361.789;    9.600; -139.000; -155.000
361.921;  350.975; -642.000; -593.000
362.053;  324.950;  524.000;  541.000
362.185;   86.025;  288.000;   72.000
362.318;  -51.450; -709.000; -705.000
362.450;  172.825;  294.000;  444.000
362.582;  222.500; -913.000; -870.000
362.714;  -14.800; -353.000; -332.000
362.846;  -77.000; -606.000; -490.000
362.978; -124.400; -941.000; -811.000
363.109;   78.525; -161.000; -260.000
363.241;  602.250; -739.000; -749.000
363.373;  432.675; -649.000; -564.000
363.505;  611.500; -186.000;  -91.000
363.637;  166.750; -787.000; -601.000
363.769;  -94.125;-1067.000;-1080.000
363.901;  -49.625; -596.000; -654.000
364.033;  -91.925;-1103.000;-1062.000
364.165;   30.425; -283.000; -283.000
364.296;   69.000; -316.000; -177.000
364.428;   71.350;-1344.000;-1220.000
364.560;  -62.425; -679.000; -661.000
364.692;  -42.425; -738.000; -835.000
364.824;  386.425; -588.000; -456.000
364.955;  466.350; -402.000; -564.000
365.087;  780.975;-1097.000; -852.000
365.219;   32.525; -686.000; -816.000
365.351;  -44.775; -526.000; -572.000
365.482;   58.725;  300.000;  240.000
365.614;  -45.800; -402.000; -314.000
365.746;  -87.225; -729.000; -752.000
365.877;  -97.600; -706.000; -672.000
366.009;  233.475;  -35.000;  -62.000
366.141;  -79.500;-1249.000;-1134.000
366.272;  -89.975; -803.000; -719.000
366.404; -107.075;-1005.000; -874.000
366.535;  -11.100; -139.000;  -12.000
366.667;  -74.300; -644.000; -649.000
366.799;   38.675;  353.000;  203.000
366.930;  -94.925; -862.000; -996.000
367.062;  140.850; -639.000; -613.000
367.193;  118.125; -872.000; -842.000
367.325;  -57.375; -580.000; -684.000
367.456;  126.350; -246.000;   31.000
367.588;  157.375; -371.000; -318.000
367.719;   23.875;  -44.000;  -45.000
367.851;   -8.375; -222.000; -241.000
367.982;    9.100; -875.000; -732.000
368.113;  165.050; -475.000; -358.000
368.245;  -98.125; -960.000; -841.000
368.376;   -0.950; -254.000; -302.000
368.508;  -27.225; -188.000; -263.000
368.639; -125.300;-1166.000;-1034.000
368.770;    8.625; -670.000; -589.000
368.902;  -28.525; -836.000; -926.000
369.033;  -81.725; -906.000; -855.000
369.164;  -54.025; -720.000; -653.000
369.296; -111.850; -452.000; -601.000
369.427;   17.850; -209.000; -144.000
369.558;  -25.175; -593.000; -377.000
369.689;  -80.600; -721.000; -569.000
369.821; -129.625; -951.000; -845.000
369.952;   -9.350;   42.000; -108.000
370.083;  -39.750; -229.000; -108.000
370.214;  -71.900; -735.000; -650.000
370.345;   -6.400;   65.000;   81.000
370.477;  -65.800; -810.000; -790.000
370.608;  314.950; -328.000; -264.000
370.739;   10.275;-1233.000;-1292.000
370.870;  -13.275;-1102.000; -923.000
371.001;  151.725; -378.000; -467.000
371.132;  -38.250; -754.000; -735.000
371.263;   -4.500;  -42.000; -148.000
371.394; -124.925; -841.000; -748.000
371.525;   49.075;  345.000;  225.000
371.657;  -72.075; -808.000; -670.000
371.788;   91.600;  103.000;  199.000
371.919;  254.675; -384.000; -304.000
372.050; 4491.750;  -91.000; -156.000
372.181; 1409.225; -188.000; -294.000
372.311;  512.025;   42.000; -127.000
372.442;   98.500; -457.000; -451.000
372.573;    7.100; -444.000; -340.000
372.704; -118.475;-1008.000; -980.000
372.835;  129.475; -228.000; -289.000
372.966;  -40.400; -646.000; -554.000
373.097;  -38.425; -575.000; -711.000
373.228;   -7.250; -717.000; -542.000
373.359;  215.600; -824.000; -536.000
373.490; 1258.150; -881.000; -727.000
373.620; 1594.925;-1001.000; -803.000
373.751; 2331.975; -332.000; -396.000
373.882; 1081.125; -663.000; -733.000
374.013;  124.875; -449.000; -262.000
374.143;  -17.625; -581.000; -659.000
374.274;  -89.850; -987.000; -908.000
374.405;  242.425; -388.000; -276.000
374.536;  602.425; -526.000; -387.000
374.666; 1492.975; -759.000; -807.000
374.797;  355.900; -817.000; -868.000
374.928; 1165.125; -710.000; -560.000
375.058; 1208.775; -535.000; -500.000
375.189;  137.650;  -59.000;  -93.000
375.320;  -79.100; -928.000;-1034.000
375.450;  -24.925; -625.000; -616.000
375.581;  -30.400; -526.000; -436.000
375.712;  -10.575; -574.000; -250.000
375.842;  432.650; -438.000; -415.000
375.973;  332.500; -554.000; -513.000
376.103;   14.525; -665.000; -648.000
376.234;  -58.000; -531.000; -552.000
376.364;   -1.875; -944.000; -867.000
376.495;  405.375;  925.000;  529.000
376.625;   44.225; -472.000; -485.000
376.756;  115.075; -709.000; -678.000
376.886;  -31.350;-1178.000;-1026.000
377.017;   44.700;-1048.000;-1061.000
377.147;  312.675; -786.000; -782.000
377.278;   59.550;  174.000;  228.000
377.408; -122.550; -801.000; -815.000
377.538; -102.675; -707.000; -693.000
377.669;  -69.175; -537.000; -613.000
377.799;  -62.750; -645.000; -635.000
377.929;  -28.700; -610.000; -428.000
378.060; -124.600; -781.000; -847.000
378.190;  -47.775; -726.000; -531.000
378.320;  -35.500; -401.000; -406.000
378.451;    4.150; -131.000;  -22.000
378.581;   25.325;  -67.000; -110.000
378.711;  178.625; 1035.000;  866.000
378.841;   14.200; -533.000; -675.000
378.972;  -45.250; -871.000; -751.000
379.102;   26.550; -652.000; -579.000
379.232;   -6.125; -126.000;  -73.000
379.362;  -81.950;-1001.000; -885.000
379.492;   49.525; -373.000; -424.000
379.623;  157.150;    0.000;  111.000
379.753;  -56.825;-1107.000; -974.000
379.883;  256.275;   59.000;  156.000
380.013;   62.150;-1081.000;-1017.000
380.143;  -69.000;-1097.000;-1056.000
380.273;  -62.750; -985.000; -861.000
380.403;   15.950; -344.000; -257.000
380.533;    8.225; -651.000; -664.000
380.663;  104.900;  173.000;  128.000
380.793;  -53.925;-1027.000;-1074.000
380.923;  -18.525; -103.000;  -34.000
381.053;  -89.325; -613.000; -623.000
381.183;  -19.500; -106.000; -248.000
381.313;   94.300; -656.000; -470.000
381.443;   94.300; -692.000; -473.000
381.573;  304.525; -402.000; -409.000
381.703;  475.200;-1249.000;-1095.000
381.833;  -72.175;-1454.000;-1336.000
381.963;  141.075; -134.000;  -87.000
382.093; 1751.325; -925.000; -909.000
382.223;  601.000; -713.000; -602.000
382.353;   24.075; -801.000; -608.000
382.482;  536.275;-1091.000; -964.000
382.612; 1016.175; -872.000; -644.000
382.742;  612.050; -695.000; -622.000
382.872;  413.850; -565.000; -551.000
383.002;   89.275;  347.000; -132.000
383.131;   -6.275; -226.000; -160.000
383.261;  -23.900; -706.000; -768.000
383.391;  301.475; -552.000; -377.000
383.521; 2844.850;  451.000;  263.000
383.650;  692.875; -947.000; -904.000
383.780;   -0.600; -783.000; -656.000
383.910;  124.425;  880.000;  802.000
384.039;   77.875; -794.000; -656.000
384.169;  338.575;-1205.000;-1017.000
384.299;   20.975; -650.000; -662.000
384.428;  -65.225; -764.000; -680.000
384.558;  -30.350; -308.000; -275.000
384.687;  -21.175; -414.000; -334.000
384.817;   44.850;   75.000;   -2.000
384.947;   43.375; -234.000; -141.000
385.076;  354.525;  982.000;  912.000
385.206;  155.650;  369.000;  480.000
385.335;  -10.900; -549.000; -417.000
385.465;  -46.825; -655.000; -663.000
385.594;  190.825;  -53.000;  -44.000
385.724;  625.375; -868.000; -838.000
385.853;  183.900; -296.000; -270.000
385.982; 1741.425; -743.000; -787.000
386.112; 2872.000;-1052.000; -871.000
386.241;  241.400; -307.000; -312.000
386.371;   23.125; -174.000;  -87.000
386.500;   42.275; -825.000; -789.000
386.629;   43.675; -874.000; -817.000
386.759;   70.875;  -43.000;   68.000
386.888;   21.150; -170.000; -250.000
387.017;  -39.875; -648.000; -620.000
387.147;  -51.950; -771.000; -798.000
387.276;   33.750; -410.000; -397.000
387.405;   55.375; -398.000; -342.000
387.535;  -16.600; -452.000; -361.000
387.664;  -44.525; -692.000; -620.000
387.793;   96.775; -198.000; -113.000
387.922;  689.300;  255.000;  200.000
388.052;   68.600; -576.000; -423.000
388.181;   63.025; -342.000; -472.000
388.310;   79.900; -889.000; -710.000
388.439;   12.425; -749.000; -742.000
388.568;  242.675;  365.000;  244.000
388.697; 1418.375; -756.000; -653.000
388.826;  346.300; -768.000; -666.000
388.956;  108.775; -285.000; -307.000
389.085;  -14.200; -347.000; -287.000
389.214; -100.350; -842.000; -872.000
389.343;  -51.825; -645.000; -413.000
389.472;  383.875;  126.000;  149.000
389.601;  539.500;   91.000;    0.000
389.730;   62.225; -568.000; -687.000
389.859;   97.850;  226.000;   46.000
389.988;  260.475; -423.000; -408.000
390.117;  207.650; -168.000; -146.000
390.246;   18.700; -331.000; -320.000
390.375;  172.400; -673.000; -626.000
390.504;  -54.475; -703.000; -621.000
390.633;  -78.250; -672.000; -726.000
390.761;  -32.050; -732.000; -645.000
390.890;   51.625;   -4.000; -130.000
391.019;   -5.450; -421.000; -441.000
391.148; -117.150; -826.000; -855.000
391.277;  -37.725; -576.000; -493.000
391.406;  -46.400; -821.000; -805.000
391.534;   38.175;  574.000; -301.000
391.663;  -44.725; -583.000; -645.000
391.792;  -67.300; -673.000; -701.000
391.921;  160.975;   -3.000;   15.000
392.050;  290.350; -287.000; -228.000
392.178;   28.700;-1206.000;-1061.000
392.307;  215.525; -758.000; -712.000
392.436;  137.000; -427.000; -641.000
392.564;   25.750;  166.000;   -6.000
392.693;  -73.575; -860.000; -682.000
392.822;  286.425; -529.000; -534.000
392.950;  191.575; -880.000; -714.000
393.079;  459.550; -188.000; -328.000
393.208;   66.475; -488.000; -511.000
393.336;  -10.875; -170.000; -145.000
393.465;  -39.800; -317.000; -199.000
393.593;   -4.150;   62.000;   79.000
393.722; -138.450;-1121.000; -916.000
393.850;  -15.600; -188.000;  -61.000
393.979; -143.300; -926.000; -805.000
394.107;  -58.250; -517.000; -537.000
394.236;   -3.900; -570.000; -507.000
394.364;  266.675;  383.000;  206.000
394.493;  516.100; -911.000; -767.000
394.621;   25.000; -955.000; -916.000
394.750;  628.900; -873.000; -923.000
394.878; 2668.625; -247.000; -149.000
395.007; 3837.800; -721.000; -807.000
395.135;  321.000; -790.000; -721.000
395.263;  -72.850;-1038.000;-1040.000
395.392;   11.000;  -25.000; -107.000
395.520; -112.300; -818.000; -679.000
395.648;  -70.225; -865.000; -915.000
395.777;   14.525; -366.000; -405.000
395.905;  -29.625; -449.000; -564.000
396.033;   32.450;  217.000;  172.000
396.162;  778.350; -399.000; -453.000
396.290;  713.000;  -17.000;   -2.000
396.418;  181.575; -555.000; -514.000
396.546;  -50.325; -571.000; -466.000
396.674;  -73.050; -850.000; -878.000
396.803;   22.950;  -72.000;  -23.000
396.931;  145.800; -179.000; -199.000
397.059;  134.400;-1026.000; -989.000
397.187;  -83.925;-1026.000; -975.000
397.315; -125.350; -884.000; -649.000
397.443;  -86.700; -592.000; -443.000
397.572;  -68.375; -578.000; -424.000
397.700;   26.925; -607.000; -614.000
397.828;   33.500;  120.000;  -90.000
397.956;  -49.100; -508.000; -478.000
398.084;  -68.575; -767.000; -626.000
398.212;   49.250;  137.000;  124.000
398.340;   37.550;  -56.000;  159.000
398.468;   60.225; -390.000; -169.000
398.596; -121.775; -993.000; -953.000
398.724; -115.175; -762.000; -767.000
398.852; -153.125;-1024.000; -976.000
398.980;  -40.475; -560.000; -560.000
399.108;  -23.925; -982.000; -735.000
399.236;   58.025;   13.000;    8.000
399.363;   27.875;  222.000;  196.000
399.491;  -59.700; -404.000; -398.000
399.619; -120.025; -829.000; -800.000
399.747;  -72.125; -859.000; -771.000
399.875;   95.250;  220.000;  234.000
400.003;  -31.375; -359.000; -284.000
400.130;  -84.000; -421.000; -341.000
400.258;  -33.100;  -83.000;   38.000
400.386;  -61.750; -352.000; -168.000
400.514;  -15.675; -526.000; -587.000
400.641;  -55.300; -928.000; -802.000
400.769; -122.325; -979.000; -888.000
400.897;  -97.200; -838.000; -793.000
401.025;    2.250; -166.000; -152.000
401.152;   -1.850;  220.000;   38.000
401.280;  -72.200; -430.000; -429.000
401.408; -116.825; -712.000; -576.000
401.535;  -73.875; -735.000; -758.000
401.663; -173.100;-1134.000;-1054.000
401.790;  -77.300; -514.000; -525.000
401.918;   57.950;  436.000;  405.000
402.046;  -21.350;  134.000;  122.000
402.173;  -31.050;  -18.000;    7.000
402.301;  -53.975; -519.000; -397.000
402.428;   42.150;  528.000;  383.000
402.556; -131.900;-1188.000; -913.000
402.683;  -19.750;  -20.000;   -1.000
402.811;   -8.700;  -37.000; -206.000
402.938;   -6.425;   20.000;   27.000
403.066;  265.100; -574.000; -558.000
403.193;  445.875;  299.000;  239.000
403.321;  343.775; -396.000; -574.000
403.448;  434.000;   83.000;   27.000
403.575;  205.075;  -90.000;  -46.000
403.703;  -65.975; -732.000; -557.000
403.830;  -70.400; -531.000; -496.000
403.957; -128.925;-1117.000;-1023.000
404.085;   24.400;  -61.000; -172.000
404.212;  103.825;  -50.000;   63.000
404.339;  272.325; -566.000; -306.000
404.467; 5202.200; -612.000; -524.000
404.594; 4017.375; -287.000; -227.000
404.721; 1108.575; -869.000; -764.000
404.848;   93.100; -113.000; -202.000
404.976;  -82.600; -856.000; -783.000
405.103;   -3.125;  -14.000;  -82.000
405.230;   -8.800;  190.000;  226.000
405.357;   30.450;  117.000;   44.000
405.484;  240.275;  -49.000;    5.000
405.612;   56.200; -548.000; -563.000
405.739;  -42.275; -488.000; -243.000
405.866;   90.600;  669.000;  385.000
405.993;  -29.325; -398.000; -102.000
406.120; -120.750; -801.000; -887.000
406.247;  -39.600; -323.000; -342.000
406.374;  584.450;  540.000;  629.000
406.501;  222.550; -632.000; -702.000
406.628;  -62.800; -621.000; -589.000
406.755;  -91.100; -803.000; -620.000
406.882;  -26.275; -228.000; -277.000
407.009;  -93.525; -719.000; -628.000
407.136;  103.200; -480.000; -401.000
407.263;  262.500; -939.000; -829.000
407.390;  -41.550; -692.000; -614.000
407.517; -136.700;-1139.000;-1187.000
407.644;  -48.900; -332.000; -256.000
407.771;  -40.325; -249.000; -287.000
407.898;   30.950;  168.000;  328.000
408.025;  -49.900; -421.000; -313.000
408.151;   -5.900;   82.000;  153.000
408.278;  -63.700; -267.000; -216.000
408.405; -105.300; -931.000; -899.000
408.532;  -36.275; -549.000; -542.000
408.659; -104.425; -677.000; -648.000
408.785; -195.575;-1298.000;-1170.000
408.912;  -47.025; -412.000; -296.000
409.039; -100.000; -610.000; -686.000
409.166; -102.525; -591.000; -555.000
409.292; -114.700; -571.000; -534.000
409.419; -108.400; -665.000; -649.000
409.546;  -81.400; -431.000; -192.000
409.672;  -91.475; -713.000; -545.000
409.799;  -26.125;  -36.000;   34.000
409.926;  -44.650; -180.000; -179.000
410.052; -171.475;-1127.000;-1091.000
410.179;  -51.425; -368.000; -392.000
410.305;  -68.450; -375.000; -493.000
410.432;  -42.350; -220.000; -333.000
410.558;  -80.325; -305.000; -380.000
410.685; -103.850; -688.000; -431.000
410.812;  -96.750; -409.000; -588.000
410.938; -125.825; -964.000; -808.000
411.065;  -84.750; -671.000; -645.000
411.191;    0.800; -189.000; -174.000
411.317; -104.675; -823.000; -742.000
411.444;  -57.475; -317.000; -246.000
411.570;  -78.025; -339.000; -294.000
411.697; -115.300; -758.000; -752.000
411.823; -152.375; -989.000; -999.000
411.949;  -10.350;  -56.000;   17.000
412.076; -103.725; -539.000; -519.000
412.202;  -98.550; -758.000; -757.000
412.329; -121.025; -798.000; -752.000
412.455; -108.825; -821.000; -657.000
412.581;  -15.075;  -15.000;  172.000
412.707;  -51.100; -540.000; -457.000
412.834;   28.250;  156.000;  219.000
412.960;  -66.750; -785.000; -784.000
413.086;  -86.750; -743.000; -701.000
413.212;  182.275;  604.000;  578.000
413.339;  -26.350; -685.000; -701.000
413.465;   44.550; -364.000; -310.000
413.591;  -75.950; -757.000; -474.000
413.717;  -41.500; -358.000; -366.000
413.843; -128.400; -839.000; -861.000
413.969;  -58.450;  -47.000; -292.000
414.096;  -87.750; -679.000; -679.000
414.222;  -11.425;  -33.000;   85.000
414.348;   -7.125; -652.000; -385.000
414.474;  153.325;   38.000;  -52.000
414.600;   -4.050; -126.000; -144.000
414.726;   -3.075;  -96.000;  -55.000
414.852;  -60.975; -365.000; -342.000
414.978;   46.675;  104.000;  -18.000
415.104;   45.975;   38.000;   80.000
415.230;   29.650; -329.000; -330.000
415.356;   59.575; -409.000; -514.000
415.482;  210.775;   13.000;  -35.000
415.608;  269.725; -247.000; -323.000
415.734;  904.425;   67.000;   38.000
415.860;18751.450; -875.000; -767.000
415.986;14783.875; -685.000; -607.000
416.111; 1301.700; -798.000; -652.000
416.237;  266.600; -424.000; -571.000
416.363;  995.675; -765.000; -733.000
416.489; 3937.150; -324.000; -251.000
416.615;  480.500; -707.000; -742.000
416.741;  -32.250; -677.000; -784.000
416.866;  -76.000; -673.000; -736.000
416.992; -107.925; -801.000; -818.000
417.118;  -22.475;  -41.000;  -80.000
417.244;  -42.425; -798.000; -531.000
417.369;  -64.875; -801.000; -612.000
417.495;   15.150; -325.000; -254.000
417.621;  -60.300;-1015.000; -803.000
417.746;   15.975; -579.000; -572.000
417.872;   54.000; -254.000; -144.000
417.998;   61.375; -515.000; -530.000
418.123;  900.350;-1073.000; -845.000
418.249; 5145.550; -512.000; -601.000
418.374;  792.625; -916.000; -824.000
418.500;  131.800; -383.000; -482.000
418.626;  110.625;   70.000;  -59.000
418.751;  132.800; -549.000; -448.000
418.877;  200.875; -637.000; -643.000
419.002; 1573.850; -688.000; -560.000
419.128;11674.500; -930.000; -721.000
419.253; 3098.000; -967.000; -837.000
419.379;  392.350; -391.000; -338.000
419.504;  373.825;  325.000;  415.000
419.629;  479.650; -393.000; -212.000
419.755; 3034.675; -317.000; -254.000
419.880;18976.825;  -98.000;   67.000
420.006;10575.625; -280.000; -221.000
420.131;28318.950; -662.000; -775.000
420.256; 4475.925; -315.000; -316.000
420.382;  593.575; -665.000; -687.000
420.507;   80.800; -649.000; -778.000
420.632;  188.450; -337.000; -339.000
420.758;  376.325; -251.000; -425.000
420.883;  -51.975; -876.000; -672.000
421.008;  -87.100; -775.000; -619.000
421.133;  -49.350; -509.000; -467.000
421.259;  -38.200; -325.000; -259.000
421.384;  -86.625; -834.000; -693.000
421.509;  -12.825;-1052.000; -862.000
421.634; 1595.275; -936.000; -820.000
421.759;  765.775; -359.000; -327.000
421.885;  -25.000; -717.000; -656.000
422.010;  -68.825; -673.000; -542.000
422.135; -126.700; -695.000; -727.000
422.260;   40.775;  340.000;  280.000
422.385;  -20.750;   12.000;  -98.000
422.510;   17.075;  151.000;  -26.000
422.635;   41.900;  -87.000;  -43.000
422.760;  149.575; -766.000; -791.000
422.885;   76.975;  -57.000;  -80.000
423.010;  -38.200; -112.000; -169.000
423.135;  -94.650; -481.000; -561.000
423.260;   -2.950; -150.000; -245.000
423.385;   94.275;  476.000;  222.000
423.510;   44.850;   71.000;  -22.000
423.635;  120.625;  133.000;   45.000
423.760;   66.400;  383.000;  328.000
423.885;   54.525;  336.000;  391.000
424.010;   28.575;  -68.000;  -13.000
424.135;   -6.725;    5.000;  -33.000
424.259;  -63.975; -654.000; -457.000
424.384;  -42.075; -279.000; -272.000
424.509;   -8.750; -260.000; -186.000
424.634;  -95.825; -761.000; -623.000
424.759;  -21.250; -688.000; -544.000
424.883;    2.325; -506.000; -527.000
425.008;  173.125; -502.000; -410.000
425.133; 1872.875; -679.000; -653.000
425.258;  949.475; -517.000; -381.000
425.382; 1213.125; -867.000; -774.000
425.507; 3263.625; -487.000; -543.000
425.632;  550.650; -802.000; -663.000
425.756;  431.700; -256.000; -146.000
425.881; 5436.125; -831.000; -857.000
426.006;15796.025; -604.000; -355.000
426.130; 2795.325; -696.000; -508.000
426.255;  369.200; -611.000; -491.000
426.379;  156.375; -189.000; -577.000
426.504;  368.875;  660.000;  544.000
426.629; 3815.675; -519.000; -466.000
426.753; 2873.900;   64.000;  -46.000
426.878;  349.825; -252.000; -288.000
427.002;  174.100; -651.000; -668.000
427.127; 1442.650;  -35.000; -158.000
427.251;10611.875;  372.000;  401.000
427.375; 3341.250; -191.000; -173.000
427.500; 2742.475; -616.000; -610.000
427.624; 1081.825; -234.000; -400.000
427.749;  148.800; -216.000; -225.000
427.873;  -10.325; -499.000; -412.000
427.997;  -25.800; -222.000; -230.000
428.122;   72.700;  795.000;  703.000
428.246;   87.850;  433.000;  434.000
428.371; -107.525; -869.000; -773.000
428.495;  -97.075; -624.000; -646.000
428.619;   -4.150; -186.000; -117.000
428.743;   36.475;   65.000;  132.000
428.868;   52.625; -732.000; -643.000
428.992; 1737.525; -219.000; -326.000
429.116;  800.450; -329.000; -357.000
429.240;  380.550;  419.000;  426.000
429.365;   11.025; -454.000; -574.000
429.489;  -22.675; -638.000; -647.000
429.613;   36.950; -236.000; -177.000
429.737;   66.275; -563.000; -432.000
429.861;  263.600; -247.000; -133.000
429.985; 5068.000; -425.000; -305.000
430.109; 6050.100; -770.000; -908.000
430.234;  742.175;   76.000;  -50.000
430.358;   89.000; -250.000; -160.000
430.482;  -49.900; -672.000; -564.000
430.606;  -45.500; -655.000; -375.000
430.730;   42.175; -437.000; -388.000
430.854;  235.550; -909.000; -835.000
430.978;  -38.975; -795.000; -764.000
431.102;  -58.875; -499.000; -422.000
431.226;  -98.575; -874.000; -815.000
431.350;   41.600;  345.000;  422.000
431.474;  -70.750; -661.000; -373.000
431.597; -129.500;-1060.000; -848.000
431.721;  -74.975; -276.000; -267.000
431.845; -115.125; -704.000; -472.000
431.969;  -77.675; -304.000; -349.000
432.093;  -73.050; -395.000; -317.000
432.217;  -11.575;   32.000;   82.000
432.341;  -80.150; -523.000; -518.000
432.464;   14.350;   96.000;   40.000
432.588;  299.425; -401.000; -329.000
432.712;  171.950;  -52.000;  -52.000
432.836;   52.375;  213.000;  263.000
432.959;  -16.625; -372.000; -311.000
433.083;   85.500;   11.000;    2.000
433.207;  349.000;  285.000;  930.000
433.330; 4503.375; -391.000; -200.000
433.454; 5978.125; -654.000; -638.000
433.578; 3425.600;  583.000;  278.000
433.701;  712.875; -623.000; -675.000
433.825;  199.050; -292.000; -299.000
433.949;  267.975;   28.000;  -72.000
434.072;  130.125; -410.000; -323.000
434.196;    8.425; -309.000; -117.000
434.319; 3583.725;25482.000;25124.000
434.443;  739.925; -656.000; -603.000
434.566; 2578.125;  281.000;   62.000
434.690;  468.425; -637.000; -383.000
434.813;   63.075; -251.000; -173.000
434.937;  -63.150; -569.000; -696.000
435.060;  -21.225; -423.000; -332.000
435.184;  485.950; -492.000; -217.000
435.307;  291.950;  159.000;  102.000
435.431;   13.100;  -40.000;   24.000
435.554;  -60.375; -399.000; -240.000
435.677;  -81.700; -350.000; -258.000
435.801;  -25.500;  -25.000;   49.000
435.924;  -10.425;    1.000;  -67.000
436.048;  -93.250;-1019.000; -732.000
436.171;  -57.525; -240.000;  -66.000
436.294;  -24.150; -248.000; -229.000
436.417;   74.600; -963.000; -849.000
436.541;  -68.825; -814.000; -840.000
436.664;  -51.625; -242.000; -316.000
436.787;  -15.150;   13.000;  113.000
436.910; -102.625; -792.000; -422.000
437.034;   19.750;  142.000;  143.000
437.157;   95.550;  -11.000;    0.000
437.280;  -26.150; -392.000; -292.000
437.403;  -64.600; -982.000; -869.000
437.526;  890.400; -903.000; -865.000
437.649; 3246.875; -505.000; -332.000
437.772;  591.200; -692.000; -540.000
437.896;  156.775;  700.000;  544.000
438.019;  -81.050; -758.000; -503.000
438.142;  -75.825; -596.000; -506.000
438.265;   30.875; -639.000; -670.000
438.388;  803.750; -520.000; -410.000
438.511;  209.400; -597.000; -394.000
438.634;  -19.900; -247.000; -125.000
438.757; -118.350; -693.000; -619.000
438.880;  -17.075;  -34.000;  -57.000
439.003;  -70.475; -417.000; -437.000
439.126;  -72.850; -287.000; -167.000
439.248;  -46.650;  -98.000; -139.000
439.371;  -41.775;    9.000;  -53.000
439.494;   26.400;  510.000;  439.000
439.617;  -40.850;   65.000;  -88.000
439.740; -170.675; -968.000; -816.000
439.863; -137.950; -755.000; -595.000
439.986; -123.025; -476.000; -431.000
440.108;  -34.550; -161.000; -112.000
440.231; -153.200; -950.000; -836.000
440.354;  -35.525;  -64.000; -150.000
440.477;   90.550; -566.000; -542.000
440.599;   52.725; -200.000; -225.000
440.722; -104.175; -709.000; -586.000
440.845;   68.275;  751.000;  928.000
440.968; -101.950; -415.000; -311.000
441.090;  -62.550; -199.000;  -33.000
441.213; -156.025;-1021.000; -825.000
441.336;  -48.325; -159.000;   -5.000
441.458;  -63.050; -549.000; -396.000
441.581;  -73.925; -628.000; -629.000
441.703;  -60.375; -152.000;   13.000
441.826; -111.800; -557.000; -400.000
441.948;  -47.275;   56.000;   51.000
442.071;   28.300;  555.000;  424.000
442.193;  -96.550; -531.000; -485.000
442.316;   26.300;  152.000;   97.000
442.438;   56.550; -233.000;  -10.000
442.561;   83.750;  272.000;  262.000
442.683;  730.325; -809.000; -522.000
442.806; 1662.325;   -8.000;   74.000
442.928;  129.150; -859.000; -604.000
443.051;  -35.650; -577.000; -373.000
443.173;  -75.050; -341.000; -339.000
443.295;  -84.825; -263.000; -371.000
443.418;  -68.350; -321.000;  -29.000
443.540;   -6.075; -106.000;   -4.000
443.662; -110.175; -563.000; -465.000
443.785;   -5.175;  335.000;  199.000
443.907; -104.500; -362.000; -208.000
444.029; -126.525; -767.000; -494.000
444.152; -119.050; -644.000; -554.000
444.274;  -40.950;  -18.000;  -24.000
444.396; -114.400; -461.000; -221.000
444.518; -127.600; -691.000; -454.000
444.640;  -98.300; -268.000; -111.000
444.763;   -6.175;  388.000;  249.000
444.885; -118.350; -432.000; -392.000
445.007;  -23.175;   35.000;   86.000
445.129;  -99.350; -610.000; -515.000
445.251;  -95.150; -372.000; -439.000
445.373; -129.525; -537.000; -386.000
445.495;   11.475;  242.000;  350.000
445.617;   60.700;  853.000;  753.000
445.739;  -63.075; -215.000;  -97.000
445.861;  -14.975; -245.000; -112.000
445.984;  -13.775; -267.000; -101.000
446.105;  260.100; -418.000; -251.000
446.227;  839.825; -176.000;  -19.000
446.349;   82.700; -358.000; -249.000
446.471;  -74.125; -615.000; -448.000
446.593;  -30.625; -316.000;   19.000
446.715;    4.800;  -67.000;   41.000
446.837;   64.725;  697.000;  832.000
446.959;  -74.150; -457.000; -478.000
447.081; -135.275; -628.000; -518.000
447.203;   60.750;  862.000;  834.000
447.325;  -79.300; -270.000;   42.000
447.446;  -12.875;  286.000;  530.000
447.568; -140.750; -921.000; -803.000
447.690;  -72.025; -236.000; -245.000
447.812; -136.125; -798.000; -519.000
447.933;  -20.100;  155.000;  127.000
448.055;  -67.850; -306.000; -261.000
448.177;  182.675;   31.000;   79.000
448.299;  180.050; -935.000; -727.000
448.420;   63.900;  -25.000;  159.000
448.542;  -39.400;   -3.000;   33.000
448.664;  -18.875;  109.000;  322.000
448.785;  -38.225;  265.000;   83.000
448.907;  -64.450; -614.000; -353.000
449.028;    8.125; -771.000; -471.000
449.150;   64.225;  492.000;  589.000
449.272; -162.550;-1044.000; -913.000
449.393;   50.850;  612.000;  694.000
449.515; -129.750; -634.000; -581.000
449.636;  -43.975; -264.000; -155.000
449.758;   88.275;  763.000;  622.000
449.879;  -75.825; -498.000; -396.000
450.001;  -70.550; -149.000;  -49.000
450.122;  -29.350;  -95.000;  162.000
450.244;   -9.000;   37.000;  364.000
450.365;  -93.025; -495.000; -301.000
450.486;  -38.000;   80.000;  268.000
450.608;   28.600;  393.000;  326.000
450.729;   57.975;  578.000;  645.000
450.850;   -2.650; -574.000; -466.000
450.972;  636.200; -552.000; -389.000
451.093; 4347.650;  190.000;  588.000
451.214; 2078.325; -516.000; -337.000
451.336;  392.775;  773.000;  579.000
451.457;   65.425;  264.000;  393.000
451.578;  -36.350; -118.000;  -74.000
451.699; -113.100; -546.000; -540.000
451.821;  -62.700; -284.000;  -50.000
451.942;  -15.600;  278.000;  285.000
452.063;   30.925;  228.000;  419.000
452.184;  495.325;  -54.000;  -49.000
452.305; 1067.125;  103.000;  170.000
452.427;  150.175; -549.000; -301.000
452.548;  -10.625;   23.000;   79.000
452.669;  -32.925; -257.000;  -89.000
452.790;  -31.775;    3.000;  -18.000
452.911;   -1.125;  195.000;  259.000
453.032;  -58.425; -289.000;  -60.000
453.153;  -35.900;  -29.000;   81.000
453.274;   55.750;  737.000;  868.000
453.395;  -43.450;  -51.000;  175.000
453.516;  125.500; 1317.000; 1388.000
453.637;  -43.150; -205.000; -150.000
453.758;  -43.275;   15.000;   69.000
453.879; -102.725; -462.000; -250.000
454.000;   84.125; 1086.000;  948.000
454.121; -106.925; -554.000; -326.000
454.242; -102.975; -599.000; -383.000
454.362;  -45.525;  -99.000;  114.000
454.483;  -32.325; -309.000; -229.000
454.604;   61.100;  512.000;  580.000
454.725; -115.025; -627.000; -555.000
454.846; -110.275; -474.000; -406.000
454.967;  -18.375;  230.000;  539.000
455.087;  -39.050;  179.000;  153.000
455.208;   14.550;  554.000;  856.000
455.329;  -50.600;  -22.000;   82.000
455.450;   39.400;  473.000;  633.000
455.570;  -85.900; -234.000; -211.000
455.691;  -33.000;  201.000;  407.000
455.812; -108.475; -270.000;  -92.000
455.932;  -63.425;  107.000;  -97.000
456.053;  -81.475;   36.000;   24.000
456.173; -108.550; -433.000; -355.000
456.294; -130.850; -476.000; -303.000
456.415;  -64.925;  -73.000;   70.000
456.535;  -30.625;  297.000;  273.000
456.656;  -37.225;  132.000;  240.000
456.776;  -64.700;    3.000;  298.000
456.897;   -6.850;  308.000;  513.000
457.017;  -73.400; -153.000;   -3.000
457.138;  -96.100; -402.000; -249.000
457.258;  -17.125;  263.000;  224.000
457.379;  -10.850;  509.000;  521.000
457.499;  -11.050;  443.000;  432.000
457.620; -104.075; -407.000; -231.000
457.740;  -90.725; -132.000;  -11.000
457.860;  -48.925;   87.000;   44.000
457.981;  -37.925;  132.000;  124.000
458.101;  -62.850;  -89.000;   40.000
458.221;  -16.000;  336.000;  402.000
458.342;  -61.350;   -4.000;  -37.000
458.462;   14.675;  617.000;  352.000
458.582;  -48.675; -302.000; -294.000
458.703;   -0.125;  303.000;  154.000
458.823;  -20.475;   22.000;  163.000
458.943;   24.775;  341.000;  467.000
459.063;    6.550; 1124.000;  192.000
459.183;  -24.375;  328.000;  313.000
459.304;   20.775;  315.000;  517.000
459.424;  -57.025; -246.000;  -89.000
459.544;  298.125;  388.000;  764.000
459.664;  772.725;  499.000;  506.000
459.784;  332.200; 1004.000; 1175.000
459.904;   61.575;  867.000;  744.000
460.024;   79.700;  867.000;  684.000
460.144;   28.800;  449.000;  554.000
460.264;    2.000;  515.000;  327.000
460.385;  -93.125; -145.000; -119.000
460.505;   38.775;  905.000;  858.000
460.625;  -98.800;  -17.000;  -68.000
460.745;  -21.825;  396.000;  541.000
460.864;  -34.875;  153.000;  469.000
460.984;   17.525;  499.000;  573.000
461.104;  130.575; 1656.000; 1775.000
461.224;   29.425;  657.000;  650.000
461.344;  -26.625;  431.000;  360.000
461.464;  -30.650;  258.000;  513.000
461.584;   -0.050;  283.000;  466.000
461.704;  -38.825;   58.000;  108.000
461.824;  -39.050;  238.000;  259.000
461.943;  -32.100;  191.000;  130.000
462.063;  -57.075;    2.000;  324.000
462.183;   35.350;  639.000;  717.000
462.303;  102.800; 1678.000; 1230.000
462.422;   40.525;  781.000;  840.000
462.542;  -31.450;  271.000;  391.000
462.662;   56.325;  353.000;  380.000
462.782;  222.600;  833.000;  572.000
462.901;  449.525;  545.000;  717.000
463.021;  282.825; 1702.000; 1638.000
463.141;    8.825;  337.000;  770.000
463.260;  -13.200;  614.000;  474.000
463.380;    9.050;  902.000;  884.000
463.499;  -27.000;  342.000;  332.000
463.619;  -20.725;  581.000;  559.000
463.738;  110.500; 1644.000;  903.000
463.858;   17.550;  657.000;  811.000
463.978;  -28.950;  542.000;  396.000
464.097;   50.925;  921.000; 1114.000
464.217;   96.975; 1196.000; 1143.000
464.336;  118.200; 1068.000; 1130.000
464.455;  -36.150;  328.000;  659.000
464.575;   50.100;  597.000;  602.000
464.694;  201.000; 1204.000; 1179.000
464.814;  129.950; 1190.000; 1138.000
464.933;   67.150; 1095.000; 1027.000
465.052;   99.050; 1412.000; 1054.000
465.172;   95.050;  922.000;  799.000
465.291;  147.225; 1376.000; 1320.000
465.410;   25.425;  462.000;  735.000
465.530;   85.625; 1355.000; 1310.000
465.649;   70.550; 1209.000; 1273.000
465.768;  139.025; 1673.000; 1508.000
465.888;   35.425;  941.000; 1174.000
466.007;   96.725; 1335.000; 1440.000
466.126;    3.275;  721.000;  641.000
466.245;   46.525; 1176.000; 1187.000
466.364;   22.950;  950.000; 1060.000
466.484;   60.600; 1024.000; 1213.000
466.603;   49.025; 1101.000; 1222.000
466.722;  121.525; 1490.000; 1769.000
466.841;   89.875; 1151.000; 1401.000
466.960;   39.100; 1069.000;  972.000
467.079;  143.725; 1971.000; 1786.000
467.198;   67.725; 1238.000; 1181.000
467.317;   74.350; 1768.000; 1162.000
467.436;   83.250; 1709.000; 1261.000
467.555;  127.200; 1796.000; 1746.000
467.674;   69.400; 1227.000; 1329.000
467.793;   55.300; 1376.000; 1374.000
467.912;   85.975; 1658.000; 1539.000
468.031;  143.625; 2038.000; 1930.000
468.150;  139.925; 1842.000; 1837.000
468.269;  215.275; 2313.000; 2090.000
468.388;  196.350; 2168.000; 2339.000
468.507;  238.900; 2884.000; 2903.000
468.626;  270.625; 2555.000; 2541.000
468.744;  140.550; 2018.000; 2174.000
468.863;  193.250; 2312.000; 2523.000
468.982;  103.875; 1503.000; 1555.000
469.101;  220.525; 2788.000; 2692.000
469.220;  167.950; 2333.000; 2176.000
469.338;  256.575; 2935.000; 3051.000
469.457;  210.125; 2719.000; 2545.000
469.576;  362.875; 3953.000; 3784.000
469.695;  234.700; 2877.000; 3066.000
469.813;  431.350; 4148.000; 4192.000
469.932;  407.550; 4255.000; 4485.000
470.051;  432.425; 4075.000; 4161.000
470.169;  807.875; 4470.000; 4338.000
470.288; 1405.850; 4700.000; 4809.000
470.406;  881.000; 5059.000; 5194.000
470.525;  625.375; 6101.000; 5787.000
470.644;  645.325; 6847.000; 6794.000
470.762;  805.075; 8397.000; 7873.000
470.881;  890.550; 8651.000; 8464.000
470.999; 1037.375; 9685.000; 9151.000
471.118; 1091.075;11174.000;10711.000

