
Integration time [ms]: 100.000
Averaging Nr. [scans]: 40
Smoothing Nr. [pixels]: 0
Data measured with spectrometer [name]: 2101012U2
Wave   ;Sample   ;Dark     ;Reference
[nm]   ;[counts] ;[counts] ;[counts] 

197.733;   51.275;  516.000;  404.000
197.879;  -79.575; -610.000; -634.000
198.025;  -38.375; -475.000; -420.000
198.171;  -60.900; -602.000; -612.000
198.317;  -31.050; -401.000; -316.000
198.463;  -58.300; -655.000; -404.000
198.609;   37.400;  181.000; -137.000
198.755;  -72.275; -644.000; -410.000
198.901;  -48.800; -505.000; -424.000
199.047;  -52.100; -615.000; -488.000
199.193;  -16.575; -230.000; -468.000
199.339;  -30.075; -222.000; -369.000
199.485;   43.300;  330.000;  271.000
199.631;   17.250;  227.000;  310.000
199.777;  -29.650; -466.000; -398.000
199.923;  -53.425; -610.000; -424.000
200.069;    2.550; -141.000;  -58.000
200.215;   45.675;  128.000;  453.000
200.361;   32.925;  243.000;  477.000
200.507;  -54.650; -600.000; -373.000
200.653;  -10.100; -371.000; -194.000
200.798;  -37.675; -215.000; -125.000
200.944;    6.000; -146.000;  -41.000
201.090;   27.400;   61.000;  222.000
201.236;    6.275; -116.000; -158.000
201.382;  113.600;  874.000;  903.000
201.528;    8.400;  -58.000;  -48.000
201.674;  -45.750; -386.000; -293.000
201.819;  -49.475; -540.000; -439.000
201.965;  -78.200; -699.000; -447.000
202.111;  -19.675; -273.000; -226.000
202.257;  -40.025; -250.000; -238.000
202.402;    8.525;   13.000;  -36.000
202.548;  -24.800; -169.000; -116.000
202.694;   87.125;  410.000; -183.000
202.840;  -69.500; -603.000; -531.000
202.985;  -56.500; -681.000; -639.000
203.131;  -91.250; -832.000; -666.000
203.277;  -19.275; -199.000; -262.000
203.423;  -52.800; -434.000; -520.000
203.568;  -35.625; -462.000; -237.000
203.714;  -48.675; -535.000; -542.000
203.860;  -63.100; -682.000; -641.000
204.005;   24.025;  112.000;  167.000
204.151;   72.775;  561.000;  556.000
204.296;  -48.075; -354.000; -221.000
204.442;  -60.925; -600.000; -547.000
204.588;  -80.875; -592.000; -579.000
204.733;   11.775;  178.000;  168.000
204.879; -120.750;-1018.000; -822.000
205.025;   13.050;  -99.000;  126.000
205.170;   -5.525;  -17.000;   94.000
205.316;   69.800;  438.000;  661.000
205.461;  -73.575; -698.000; -554.000
205.607;   68.050;  609.000;  665.000
205.752;  -64.450; -626.000; -551.000
205.898;  -17.225; -501.000; -391.000
206.043;  -55.600; -578.000; -506.000
206.189;  -18.425; -243.000; -285.000
206.334;   70.600;  554.000;  606.000
206.480;   76.800;  409.000;  239.000
206.625;  -79.525; -529.000; -552.000
206.771;  -27.000; -451.000; -373.000
206.916;  -32.875; -210.000; -537.000
207.062;  -59.025; -545.000; -591.000
207.207;  -50.525; -546.000; -443.000
207.353;   49.875;  185.000;  460.000
207.498;   18.550;  196.000;   85.000
207.643;  -40.125; -501.000; -370.000
207.789; -114.475;-1069.000; -910.000
207.934;  -92.175; -665.000; -713.000
208.080;  -17.000; -154.000;   66.000
208.225;   -7.200;  -22.000;  -57.000
208.370;  -71.675; -727.000; -619.000
208.516;  -64.825; -741.000; -487.000
208.661;  -27.100; -127.000;  -69.000
208.806;  -13.150; -165.000; -171.000
208.952; -110.525;-1044.000; -731.000
209.097;   66.075;  378.000;  349.000
209.242;  -41.675; -307.000; -382.000
209.387;   69.400;  392.000;  350.000
209.533;  -39.400; -321.000; -350.000
209.678;   75.675;  472.000;  543.000
209.823;  -55.225; -408.000; -310.000
209.969;  -83.175; -860.000; -757.000
210.114; -101.600; -907.000; -719.000
210.259; -104.575; -939.000; -889.000
210.404;   -2.450; -171.000;  103.000
210.549;    6.675;  108.000;    3.000
210.695;   -3.000;   -3.000;  -95.000
210.840;   34.525;   94.000;   67.000
210.985;  -63.075; -484.000; -303.000
211.130;   75.900;  268.000;  406.000
211.275;   12.850;  207.000;  199.000
211.420;  -44.500; -300.000; -289.000
211.566;  -67.375; -536.000; -489.000
211.711;   26.500;  218.000;  157.000
211.856;  -57.375; -545.000; -519.000
212.001;   16.250;  151.000;   44.000
212.146;   19.125;  153.000;   49.000
212.291;  -20.450; -210.000; -186.000
212.436;  -26.100; -280.000;   -6.000
212.581;  -77.750; -685.000; -653.000
212.726;  -65.350; -487.000; -538.000
212.871;  -40.725; -552.000; -217.000
213.016; -136.300;-1172.000;-1029.000
213.161;   51.250;  406.000;  291.000
213.306;  -66.600; -435.000; -577.000
213.451;  -84.425; -778.000; -689.000
213.596;  -42.350; -455.000; -347.000
213.741;  -54.550; -448.000; -538.000
213.886;  -71.550; -498.000; -517.000
214.031;  -18.650; -294.000; -124.000
214.176;  -43.825; -408.000; -341.000
214.321;  -12.175; -296.000; -157.000
214.466;  -16.750; -163.000;  -43.000
214.611;   21.300;  -61.000;  -10.000
214.756; -108.450; -948.000; -858.000
214.901;  -18.525; -388.000; -226.000
215.046; -104.850; -797.000; -825.000
215.191;   31.650;  128.000;   35.000
215.336;  -16.800; -157.000;  -19.000
215.480;  -64.500; -684.000; -505.000
215.625;  -15.925; -175.000;  -19.000
215.770;  -67.400; -757.000; -662.000
215.915;   -6.775;   -5.000;  -97.000
216.060;    3.950; -113.000;  -21.000
216.205; -100.725; -731.000; -779.000
216.349;  -65.675; -470.000; -533.000
216.494; -125.950; -939.000; -867.000
216.639; -101.250; -823.000; -888.000
216.784;  -78.675; -577.000; -525.000
216.929;   49.925;  392.000;  281.000
217.073;  -10.250; -244.000;  -31.000
217.218;    1.775;   78.000;  -47.000
217.363;  -83.550; -656.000; -618.000
217.507;  -66.200; -623.000; -588.000
217.652; -116.675; -845.000; -874.000
217.797;  -83.150; -708.000; -659.000
217.942; -101.400; -856.000; -720.000
218.086;   74.300;  608.000;  539.000
218.231;  -12.875; -174.000;  -26.000
218.376;  -32.625; -337.000; -229.000
218.520;    0.050;  -41.000;   96.000
218.665;  -19.675; -338.000; -204.000
218.810;  -24.500; -275.000; -233.000
218.954;   18.775;  201.000;   35.000
219.099; -103.350; -713.000; -963.000
219.243;  -60.450; -589.000; -554.000
219.388;  -22.150; -264.000; -136.000
219.532;    4.025; -116.000; -116.000
219.677;  -72.025; -564.000; -521.000
219.822;    3.950;   33.000;   89.000
219.966;    1.125;   17.000;  -99.000
220.111;  -29.800; -328.000;  -40.000
220.255;  -85.925; -797.000; -750.000
220.400;   -6.575; -180.000; -146.000
220.544;  -65.500; -516.000; -450.000
220.689;  -49.075; -422.000; -451.000
220.833;  -23.825; -123.000;  -58.000
220.978;  -42.825; -393.000; -563.000
221.122;   23.075;  319.000;  307.000
221.267; -103.600; -906.000; -837.000
221.411;  -58.050; -478.000; -394.000
221.555;   -8.400; -104.000;  -23.000
221.700;  -46.825; -329.000; -222.000
221.844;   29.625;  255.000;  272.000
221.989;  -38.050; -328.000; -311.000
222.133;  -27.850; -289.000; -307.000
222.277;   -7.150;    5.000;   78.000
222.422;   17.575;  227.000;  113.000
222.566;  -22.350; -381.000; -214.000
222.711;  -38.500; -414.000; -479.000
222.855;  -72.800; -643.000; -586.000
222.999;  -66.125; -642.000; -717.000
223.144;  -40.625; -195.000; -194.000
223.288;   41.400;  423.000;  251.000
223.432;   27.000;  184.000;  230.000
223.576;   28.475;  152.000;  -21.000
223.721;   37.975;  364.000;  273.000
223.865;  -46.075; -472.000; -475.000
224.009;  243.625; 1673.000; 1631.000
224.153;  -68.350; -660.000; -671.000
224.298;  -66.675; -531.000; -489.000
224.442;   -6.500;  -74.000;  -33.000
224.586;  -12.250; -169.000; -106.000
224.730;  -85.350; -858.000; -670.000
224.875;  -93.650; -739.000; -688.000
225.019;   10.700;  102.000;  188.000
225.163;   44.025;  208.000;  341.000
225.307;   17.000;   97.000;  -91.000
225.451;   35.300;  360.000;  481.000
225.595;   36.100;  264.000;  176.000
225.739;  -14.875; -170.000;  -94.000
225.884;   16.725;   86.000;    5.000
226.028;  -85.950; -760.000; -626.000
226.172;  -22.750; -260.000; -273.000
226.316; -103.100; -941.000; -902.000
226.460;  -57.375; -645.000; -493.000
226.604;  -51.750; -406.000; -400.000
226.748;  -78.925; -836.000; -733.000
226.892;  -23.850; -227.000; -181.000
227.036;  -45.750; -537.000; -447.000
227.180;  -59.525; -551.000; -375.000
227.324;  -53.300; -561.000; -580.000
227.468;  -98.675; -819.000; -717.000
227.612;   14.150;  242.000;  -28.000
227.756; -100.825; -845.000; -698.000
227.900;   45.550;  342.000;  441.000
228.044;  -65.275; -509.000; -290.000
228.188;   62.525;  448.000;  568.000
228.332;  -89.100; -546.000; -472.000
228.476;  -10.325; -223.000; -149.000
228.620;  -34.475; -210.000; -150.000
228.764;   53.900;  431.000;  349.000
228.908;  -17.900; -155.000;   30.000
229.052;  -47.350; -615.000; -528.000
229.195;  -22.725; -172.000;   13.000
229.339;  -20.850; -235.000; -305.000
229.483;  -28.600;    5.000; -162.000
229.627;   -2.850; -156.000;  139.000
229.771;  -41.575; -218.000; -294.000
229.915;    8.150;  230.000;   79.000
230.059;  -79.650; -648.000; -663.000
230.202;  -21.125; -370.000; -317.000
230.346;  -18.775; -107.000;  107.000
230.490;  -46.525; -489.000; -521.000
230.634; -101.900; -736.000; -553.000
230.777;   78.850;  478.000;  509.000
230.921;  -57.450; -450.000; -359.000
231.065;  -24.150; -246.000; -286.000
231.209;   25.850;  261.000;  265.000
231.352;   34.075;   54.000;   40.000
231.496;   10.175;  568.000;  188.000
231.640;  -75.175; -693.000; -621.000
231.783;   44.075;  546.000;  525.000
231.927;  -39.775; -294.000; -365.000
232.071; -110.350; -962.000; -736.000
232.214; -104.800; -980.000; -764.000
232.358;  -89.550; -683.000; -599.000
232.502;   -1.825;  -19.000;    7.000
232.645; -119.025;-1090.000; -927.000
232.789;  -19.200; -257.000; -218.000
232.933;  -42.950; -407.000; -224.000
233.076; -124.925;-1038.000; -897.000
233.220;  -95.825; -752.000; -777.000
233.363;  -56.375; -669.000; -477.000
233.507;   53.250;  371.000;  129.000
233.650;  -83.200; -764.000; -834.000
233.794;   45.250;  438.000;  461.000
233.938;  -53.750; -530.000; -362.000
234.081;  -20.350;  -93.000;   31.000
234.225;  -58.475; -631.000; -539.000
234.368; -104.875; -773.000; -723.000
234.512;  -36.400; -385.000; -299.000
234.655;  -85.350; -582.000; -555.000
234.798;  -49.950; -493.000; -466.000
234.942; -126.525; -884.000;-1002.000
235.085;  -74.525; -651.000; -443.000
235.229;  -66.800; -405.000; -410.000
235.372;  -39.250; -247.000; -191.000
235.516;  -57.000; -397.000; -321.000
235.659;   11.950;   92.000;  121.000
235.802;  -12.650;  -38.000;  -22.000
235.946;   40.925;  335.000;  215.000
236.089;   32.850;  126.000;  250.000
236.233;   54.125;  275.000;  298.000
236.376;  -52.900; -235.000; -378.000
236.519;  -41.700; -297.000; -319.000
236.663;  -16.750; -215.000; -117.000
236.806; -108.600;-1029.000; -999.000
236.949;   45.250;  543.000;  431.000
237.092;   62.725;  412.000;  391.000
237.236;  -83.425; -589.000; -502.000
237.379;   66.750;  352.000;  428.000
237.522; -104.050; -879.000; -768.000
237.666;  -12.075; -271.000;   18.000
237.809; -113.800; -851.000; -823.000
237.952;   40.500;  469.000;  271.000
238.095;  -61.950; -447.000; -442.000
238.238;   67.800;  688.000;  700.000
238.382;    0.075;  166.000;  103.000
238.525;  -63.150; -598.000; -511.000
238.668; -117.800;-1060.000; -985.000
238.811;  -74.675; -638.000; -643.000
238.954;  -57.275; -483.000; -334.000
239.097;   79.950;  617.000;  664.000
239.241;    8.625;  394.000;  326.000
239.384;  -25.350; -254.000; -214.000
239.527;  -64.100; -424.000; -224.000
239.670; -132.775; -994.000;-1091.000
239.813; -108.200; -696.000; -658.000
239.956;   75.125;  579.000;  473.000
240.099; -100.875; -778.000; -725.000
240.242;   56.150;  428.000;  432.000
240.385;   37.550;  466.000;  450.000
240.528;  -59.975; -706.000; -473.000
240.671;   19.600;  189.000;  134.000
240.814;  -30.525; -441.000; -158.000
240.957;  -98.075; -767.000; -578.000
241.100;  -90.975; -779.000; -755.000
241.243; -144.250;-1234.000; -893.000
241.386;  -49.975; -508.000; -379.000
241.529;  -87.350; -735.000; -547.000
241.672;  -52.275; -566.000; -495.000
241.815; -109.225; -832.000; -808.000
241.958;  -13.075; -125.000; -182.000
242.101;  -73.950; -545.000; -390.000
242.244;  -35.525; -270.000; -325.000
242.387;  -46.425; -304.000; -246.000
242.530;   42.550;  470.000;  134.000
242.673;  -47.025; -381.000; -309.000
242.815;  -89.925; -925.000; -899.000
242.958;  -66.225; -482.000; -381.000
243.101;   21.050;  132.000;  187.000
243.244;  -69.475; -564.000; -521.000
243.387;  -45.975; -313.000; -316.000
243.530;  -88.600; -657.000; -674.000
243.672;    6.925;   43.000;  -92.000
243.815;  -54.525; -355.000; -283.000
243.958;   -9.350;   98.000;  -26.000
244.101;   -6.825;   59.000;  -16.000
244.243;   -7.050;  -47.000;  101.000
244.386; -105.600; -761.000; -630.000
244.529;  -15.275; -132.000; -139.000
244.672; -137.850;-1154.000; -951.000
244.814;  -86.950; -621.000; -794.000
244.957;  -57.875; -380.000; -304.000
245.100;  -74.550; -489.000; -489.000
245.242;  -55.850; -387.000; -374.000
245.385;   14.575;  -59.000;  -39.000
245.528; -113.875; -871.000; -705.000
245.670;   82.825;  612.000;  634.000
245.813;  -88.375; -599.000; -547.000
245.956;  -12.125; -324.000; -275.000
246.098;  -65.900; -508.000; -650.000
246.241;    3.050;  194.000;   48.000
246.383;  -13.725; -119.000;  -73.000
246.526;  -70.825; -454.000; -525.000
246.669;  -95.175; -889.000; -780.000
246.811;   20.075;  172.000;   -1.000
246.954;  -53.025; -512.000; -426.000
247.096;  -19.725;  -84.000;   -6.000
247.239;  -63.725; -482.000; -445.000
247.381;  -72.900; -647.000; -488.000
247.524;   76.825;  645.000;  679.000
247.666;   -6.125;   58.000;   11.000
247.809; -106.325; -887.000; -691.000
247.951;  -14.875;  -75.000;  138.000
248.094;   13.175;  432.000;  308.000
248.236; -138.875;-1262.000;-1238.000
248.378;  -42.775; -356.000;  -81.000
248.521;  -36.675; -334.000; -337.000
248.663;  -57.150; -236.000; -267.000
248.806;  -24.750; -300.000; -266.000
248.948; -111.225; -886.000; -763.000
249.090;  -59.875; -428.000; -398.000
249.233;  -65.300; -344.000; -381.000
249.375;  -45.550; -474.000; -451.000
249.518;  -11.525;  -83.000; -133.000
249.660;  -10.000; -103.000;    3.000
249.802; -169.900;-1303.000;-1189.000
249.945;  -73.225; -612.000; -540.000
250.087; -110.025; -834.000; -768.000
250.229;  -44.225; -362.000; -480.000
250.371;  -77.275; -494.000; -439.000
250.514;  -35.100; -310.000; -244.000
250.656;   -7.425;   69.000;  102.000
250.798; -110.025; -849.000; -800.000
250.940;  -54.700; -322.000; -322.000
251.083;  -33.725; -335.000; -111.000
251.225;   41.175;  338.000;  310.000
251.367;  -31.275; -274.000; -373.000
251.509;  -22.675; -265.000; -210.000
251.651;  -95.725; -731.000; -671.000
251.794;   47.350;  538.000;  632.000
251.936;  -85.750; -821.000; -747.000
252.078;  -83.225; -540.000; -461.000
252.220;  -61.300; -645.000; -477.000
252.362;   16.625;  344.000;  462.000
252.504;  -83.750; -677.000; -584.000
252.646; -108.275; -875.000; -722.000
252.788;  -22.675;   14.000; -128.000
252.931;  -40.625; -257.000; -253.000
253.073;  -43.125; -376.000; -317.000
253.215;  -13.100;  141.000;  122.000
253.357;  -11.800;   82.000; -153.000
253.499;  -61.125; -374.000; -234.000
253.641;  -77.550; -749.000; -594.000
253.783;  -88.075; -609.000; -527.000
253.925;  -80.275; -586.000; -591.000
254.067; -105.425; -744.000; -667.000
254.209;  -48.525; -391.000; -259.000
254.351; -118.375; -865.000; -883.000
254.493;  -61.100; -441.000; -417.000
254.635; -131.275; -936.000; -818.000
254.777;  -95.875; -752.000; -687.000
254.918;  -76.850; -512.000; -430.000
255.060;  -61.300; -551.000; -395.000
255.202;  -66.575; -473.000; -261.000
255.344;  -70.625; -658.000; -455.000
255.486;  -70.700; -471.000; -406.000
255.628;  -96.750; -780.000; -781.000
255.770;  -90.500; -676.000; -536.000
255.912;  -67.025; -559.000; -468.000
256.053;  -90.650; -730.000; -508.000
256.195;  137.125; 1008.000;  903.000
256.337;  -99.650; -861.000; -595.000
256.479;   52.250;  532.000;  416.000
256.621;  -48.075; -394.000; -212.000
256.762;  -89.625; -789.000; -742.000
256.904;   34.150;  485.000;  487.000
257.046;  -31.425; -381.000; -271.000
257.188;  -44.250; -351.000; -264.000
257.329;  -58.525; -525.000; -464.000
257.471; -107.575; -939.000; -807.000
257.613;  -54.900; -584.000; -498.000
257.755; -141.925;-1073.000; -982.000
257.896;   32.675;  286.000;  392.000
258.038;  -71.775; -403.000; -352.000
258.180;  -42.250; -354.000; -279.000
258.321;  -88.075; -581.000; -457.000
258.463;   -0.300;  -71.000;  133.000
258.605; -102.375; -562.000; -570.000
258.746; -103.150; -886.000; -772.000
258.888; -149.800;-1026.000;-1020.000
259.029;   20.600;  121.000;   -8.000
259.171;  -89.875; -614.000; -550.000
259.313;   11.200;  -49.000;  -47.000
259.454;  -69.550; -536.000; -414.000
259.596;  -54.825; -483.000; -390.000
259.737;  -72.725; -590.000; -474.000
259.879;   24.700;  217.000;  311.000
260.020;   60.275;  901.000;  636.000
260.162;  -20.075; -146.000; -253.000
260.303; -111.000; -768.000; -687.000
260.445;  -72.700; -609.000; -613.000
260.586;   26.275;  392.000;  157.000
260.728;  -41.725; -360.000; -248.000
260.869;  -58.925; -350.000; -343.000
261.011;   72.725;  706.000;  537.000
261.152;  -72.650; -479.000; -319.000
261.293;  -77.100; -576.000; -595.000
261.435;  -37.225; -219.000; -184.000
261.576;  -53.700; -455.000; -325.000
261.718;   38.050;  420.000;  470.000
261.859; -122.100; -940.000; -949.000
262.000; -125.125; -951.000;-1016.000
262.142;  -20.800;  -52.000;  -60.000
262.283; -112.000; -808.000; -691.000
262.424;  -92.225; -666.000; -625.000
262.566; -141.325;-1161.000; -983.000
262.707; -113.075; -840.000; -830.000
262.848; -122.100; -769.000; -726.000
262.990;  -55.075; -362.000; -345.000
263.131;   68.725;  650.000;  681.000
263.272;  -21.575;  -61.000;  -41.000
263.413;  -94.425; -589.000; -561.000
263.555;  -63.300; -669.000; -143.000
263.696;  -72.325; -550.000; -641.000
263.837;  -48.150; -449.000; -551.000
263.978;  -13.550;   -5.000;  -77.000
264.119;  -35.825; -283.000; -264.000
264.261; -106.150; -847.000; -630.000
264.402;    5.450;   33.000;   40.000
264.543;  -82.025; -509.000; -524.000
264.684;   -3.425;   61.000;  -50.000
264.825;  -74.125; -816.000; -538.000
264.966;  -10.800;  -84.000;  -67.000
265.107; -105.000; -646.000; -670.000
265.248; -111.175; -825.000; -812.000
265.390;  -17.075;  152.000;   -9.000
265.531;  -23.475; -238.000; -107.000
265.672;  -85.100; -557.000; -630.000
265.813;   59.400;  563.000;  439.000
265.954; -145.350; -959.000; -940.000
266.095;  -27.725; -372.000; -322.000
266.236;  -99.275; -686.000; -548.000
266.377;  -39.500; -243.000; -297.000
266.518;  -88.575; -619.000; -547.000
266.659;   19.850;  170.000;  268.000
266.800;    0.425;   83.000;   85.000
266.941;  -84.000; -487.000; -478.000
267.082;   30.175;  354.000;   99.000
267.223;  -52.175; -344.000; -273.000
267.364; -113.175; -892.000; -686.000
267.504;  -15.075;    3.000;  135.000
267.645;   -5.275;  160.000;   67.000
267.786;  -35.550; -147.000;  -86.000
267.927;  -70.950; -473.000; -379.000
268.068;  -21.900; -186.000;  -61.000
268.209;  -52.150; -175.000; -413.000
268.350;  -51.575; -388.000; -532.000
268.490;  -90.450; -648.000; -521.000
268.631;   15.000;  127.000;  225.000
268.772; -104.500; -874.000; -647.000
268.913;  -46.200; -328.000; -476.000
269.054;  -37.550; -117.000;   12.000
269.194;  -43.400; -418.000; -402.000
269.335; -151.700;-1137.000;-1074.000
269.476;  -13.225;   33.000;  -35.000
269.617;  -49.425; -347.000; -392.000
269.757;  -88.600; -713.000; -646.000
269.898;  -99.450; -856.000; -613.000
270.039;  -56.400; -415.000; -405.000
270.180; -129.900; -952.000; -816.000
270.320;  -17.325; -190.000; -250.000
270.461;  -33.900; -277.000; -249.000
270.602;  -19.025; -186.000; -156.000
270.742; -131.075; -868.000; -943.000
270.883;  -56.600; -442.000; -390.000
271.023;  -58.550; -358.000; -357.000
271.164;  -71.650; -607.000; -528.000
271.305; -106.975; -666.000; -654.000
271.445;  -86.250; -722.000; -683.000
271.586;  -63.375; -462.000; -283.000
271.726;  -55.825; -397.000; -322.000
271.867;  -88.600; -594.000; -534.000
272.008;  -32.575; -473.000; -285.000
272.148;   43.625;  462.000;  468.000
272.289;  -11.775; -113.000; -181.000
272.429;   -8.475;   19.000;  185.000
272.570; -104.950; -633.000; -737.000
272.710; -103.300; -825.000; -775.000
272.851;  -34.825;  113.000; -130.000
272.991; -162.750;-1173.000;-1077.000
273.131;  -59.750; -419.000; -459.000
273.272;  -93.175; -683.000; -723.000
273.412;  -18.850; -143.000;  -31.000
273.553;  -83.675; -488.000; -507.000
273.693;  106.000;  913.000;  858.000
273.834; -124.075; -894.000; -692.000
273.974;  -73.575; -664.000; -615.000
274.114; -106.450; -772.000; -560.000
274.255;   38.050;  414.000;  373.000
274.395;  -44.150; -180.000; -125.000
274.535;   11.475;  199.000;  350.000
274.676;   10.250;  225.000;   94.000
274.816;  -11.825;  110.000;   34.000
274.956;  -87.725; -624.000; -690.000
275.097; -122.625;-1014.000; -922.000
275.237; -117.575; -913.000; -803.000
275.377;  -99.400; -778.000; -689.000
275.517; -147.175; -878.000; -937.000
275.658;  -77.050; -590.000; -555.000
275.798;  -83.050; -606.000; -413.000
275.938;   14.825;  215.000;  323.000
276.078;  -96.425; -626.000; -395.000
276.218;   -1.275;   99.000;  104.000
276.359; -133.925;-1026.000;-1024.000
276.499;  -83.125; -605.000; -446.000
276.639;  -47.950; -305.000; -151.000
276.779;  -62.600; -475.000; -357.000
276.919; -103.250; -783.000; -624.000
277.059;  -26.775; -261.000; -212.000
277.199;  -50.775; -357.000; -259.000
277.340;   24.500;  287.000;  175.000
277.480; -108.550; -840.000; -693.000
277.620;   21.350;  192.000;   16.000
277.760; -183.475;-1533.000;-1294.000
277.900;    5.150;  113.000;   33.000
278.040;   -9.825;  137.000;  159.000
278.180;    5.850;  270.000;  170.000
278.320;   -8.625;   21.000;   56.000
278.460;  -68.200; -443.000; -469.000
278.600; -102.325; -708.000; -598.000
278.740;   34.000;  448.000;  224.000
278.880; -123.625; -768.000; -791.000
279.020;  -30.525; -194.000; -144.000
279.160; -106.950; -672.000; -595.000
279.300; -115.000; -926.000; -873.000
279.440; -106.025; -709.000; -622.000
279.579; -133.325;-1014.000; -929.000
279.719;  -84.950; -410.000; -394.000
279.859;   -1.550;   -4.000;   41.000
279.999;  -30.700; -208.000;  101.000
280.139;  -68.650; -435.000; -387.000
280.279; -113.450; -708.000; -745.000
280.419;  -23.325; -229.000; -147.000
280.559;  -66.000; -259.000; -180.000
280.698;  -91.850; -790.000; -639.000
280.838; -113.800; -778.000; -800.000
280.978;  -98.025; -846.000; -790.000
281.118; -117.700; -811.000; -704.000
281.257;   -5.950;   24.000;    6.000
281.397; -149.850;-1094.000; -960.000
281.537;  -89.800; -599.000; -712.000
281.677;  -38.200; -150.000; -101.000
281.816;  -90.750; -700.000; -630.000
281.956;  -37.050; -193.000; -257.000
282.096;  -61.275; -539.000; -396.000
282.235; -105.875; -672.000; -638.000
282.375;  -20.900; -243.000;  -98.000
282.515; -122.425; -715.000; -707.000
282.654;   -3.600;   29.000;  106.000
282.794;   10.175;  388.000;  244.000
282.934;  -70.900; -530.000; -491.000
283.073; -126.700;-1030.000; -857.000
283.213;  -60.425; -460.000; -467.000
283.353;  -74.675; -408.000; -349.000
283.492;  -37.600; -264.000; -296.000
283.632;  -58.275; -254.000; -168.000
283.771;  -95.925; -859.000; -730.000
283.911;  -62.700; -369.000; -260.000
284.050; -115.700; -794.000; -748.000
284.190; -144.225;-1229.000;-1096.000
284.329; -138.575;-1055.000; -964.000
284.469; -100.800; -516.000; -591.000
284.608;  -65.975; -559.000; -598.000
284.748;  -88.875; -614.000; -570.000
284.887;   -7.925;  -87.000;  -20.000
285.027; -127.525; -844.000; -892.000
285.166;  -41.350; -192.000; -249.000
285.306;  -34.100; -116.000;  -33.000
285.445;  -45.725; -229.000; -343.000
285.584; -103.475; -630.000; -494.000
285.724;  -52.800; -282.000; -322.000
285.863; -113.700; -857.000; -507.000
286.002;  -41.800; -366.000; -276.000
286.142; -111.825; -715.000; -622.000
286.281;  -73.675; -525.000; -493.000
286.420;  -87.100; -554.000; -417.000
286.560;   85.475;  653.000;  623.000
286.699; -144.675; -958.000; -912.000
286.838;  -87.275; -590.000; -591.000
286.978; -104.225; -533.000; -537.000
287.117; -138.600;-1085.000; -950.000
287.256;  -34.125; -228.000; -211.000
287.395;  -45.750; -197.000; -378.000
287.535;  -62.825; -370.000; -298.000
287.674;  -81.425; -509.000; -484.000
287.813;   28.525;  661.000;  533.000
287.952; -118.550;-1010.000; -871.000
288.091; -151.525;-1049.000; -915.000
288.231;    5.450;   13.000;   15.000
288.370; -172.250;-1217.000;-1200.000
288.509;  -85.025; -728.000; -645.000
288.648;  -86.550; -770.000; -548.000
288.787;  -40.825; -243.000;  -87.000
288.926;  -68.700; -454.000; -475.000
289.065;   95.950;  859.000;  672.000
289.204;  -71.000; -377.000; -217.000
289.344;  -97.700; -791.000; -690.000
289.483;    1.975;  416.000;  304.000
289.622;  -30.325; -291.000; -149.000
289.761;  -28.275; -309.000; -166.000
289.900; -105.500; -785.000; -626.000
290.039;  -20.775;  -12.000;  -95.000
290.178;  -38.300; -274.000; -180.000
290.317;  -85.275; -618.000; -479.000
290.456;  -79.300; -463.000; -451.000
290.595; -126.850; -961.000; -833.000
290.734; -120.725; -904.000; -891.000
290.873;  -78.700; -456.000; -420.000
291.011; -123.600; -833.000; -843.000
291.150; -131.575; -770.000; -682.000
291.289;  -32.900; -343.000; -110.000
291.428; -108.075; -599.000; -480.000
291.567;  -61.775; -370.000; -442.000
291.706;  -18.125;  109.000;  154.000
291.845;  -99.700; -597.000; -505.000
291.984; -176.550;-1234.000;-1061.000
292.122;   55.075;  602.000;  582.000
292.261;   30.600;  620.000;  463.000
292.400;  -18.675; -144.000;  211.000
292.539; -130.000; -959.000; -813.000
292.678;  -49.000; -325.000; -300.000
292.816; -168.150;-1136.000; -965.000
292.955; -100.500; -844.000; -684.000
293.094;  -54.425; -173.000; -337.000
293.233;  -53.450; -556.000; -400.000
293.371;  -42.950; -225.000;  -84.000
293.510; -103.900; -866.000; -780.000
293.649; -132.125; -959.000; -924.000
293.787; -142.125;-1083.000;-1012.000
293.926;  -29.375; -113.000;  -32.000
294.065;  -50.875; -379.000; -290.000
294.203;   20.175;  298.000;  406.000
294.342;    1.675;   74.000;  156.000
294.481; 5088.950;51180.000; -836.000
294.619;  -35.725; -425.000; -582.000
294.758; -160.600;-1230.000;-1137.000
294.896;  -18.050; -125.000;    5.000
295.035; -152.400;-1040.000;-1006.000
295.174; -130.375;-1082.000; -954.000
295.312;  -73.675; -323.000; -203.000
295.451;  -60.900; -307.000; -428.000
295.589;  -88.750; -389.000; -518.000
295.728;   -9.925; -292.000; -165.000
295.866;  -25.400;  -36.000;  -51.000
296.005;  -69.825; -584.000; -341.000
296.143;  -92.650; -558.000; -596.000
296.282; -110.825; -957.000; -881.000
296.420;  -98.525; -657.000; -557.000
296.559; -105.700; -892.000; -633.000
296.697; -105.300; -847.000; -665.000
296.835; -154.600;-1141.000;-1002.000
296.974;  -37.400;  -23.000;   39.000
297.112;  -71.825; -443.000; -504.000
297.251; -122.725; -815.000; -755.000
297.389;  -76.975; -576.000; -438.000
297.527;  -41.150; -145.000;  -83.000
297.666;  -71.075; -486.000; -438.000
297.804;  -85.850; -404.000; -264.000
297.942;  -10.525; -136.000; -161.000
298.081;  -23.500; -183.000;   63.000
298.219;   -5.550;  -17.000;  -19.000
298.357;  -51.600; -144.000;  -71.000
298.495; -122.525; -810.000; -812.000
298.634;   -4.800;  245.000;  219.000
298.772;  -49.475; -220.000; -338.000
298.910;  -66.225; -309.000; -182.000
299.048;  -25.700; -130.000; -153.000
299.187;  -51.200; -350.000; -250.000
299.325;   -5.550;   52.000;  122.000
299.463;  -78.325; -389.000; -299.000
299.601;  -51.825; -327.000; -271.000
299.739; -137.400; -908.000; -883.000
299.877; -105.400; -791.000; -703.000
300.016; -155.825;-1095.000; -935.000
300.154;  -25.100;  -19.000; -161.000
300.292;  -83.300; -428.000; -348.000
300.430;  -52.900; -408.000; -291.000
300.568; -133.850; -940.000; -874.000
300.706;  -75.825; -366.000; -469.000
300.844; -161.550;-1108.000; -979.000
300.982;   21.400;  246.000;  282.000
301.120; -148.500; -965.000; -866.000
301.258;  -98.975; -812.000; -705.000
301.396;  -26.100;  104.000;  -41.000
301.534;  -54.550; -218.000; -293.000
301.672; -106.675; -664.000; -521.000
301.810;  -78.650; -613.000; -545.000
301.948;    3.075;   53.000;  149.000
302.086;  -34.575; -250.000;  -32.000
302.224; -105.400; -610.000; -585.000
302.362;  -99.750; -558.000; -622.000
302.500; -121.600; -923.000; -893.000
302.638;   -9.250;  128.000;  245.000
302.776;  -58.925; -352.000; -408.000
302.913;   41.600;  447.000;  236.000
303.051;  -54.775;  -86.000;  -23.000
303.189;    2.575;   90.000;  118.000
303.327;  -58.825; -341.000; -256.000
303.465;  -97.450; -832.000; -588.000
303.603; -101.975; -805.000; -604.000
303.740;   13.850;  417.000;  241.000
303.878; -107.875; -800.000; -759.000
304.016; -120.275; -915.000; -790.000
304.154; -171.850;-1123.000;-1152.000
304.291;  -76.550; -505.000; -554.000
304.429;  -22.175;  102.000;   74.000
304.567; -135.075; -908.000; -893.000
304.705;  -70.825; -408.000; -515.000
304.842;  -98.125; -616.000; -540.000
304.980;  -10.400;  215.000;   35.000
305.118;  -51.725; -367.000; -365.000
305.255; -142.625; -945.000; -927.000
305.393;   30.550;  178.000;  239.000
305.531; -153.600;-1173.000; -956.000
305.668;  -86.175; -663.000; -582.000
305.806;  -78.400; -358.000; -439.000
305.943;  -87.675; -629.000; -637.000
306.081;  -64.850; -378.000; -267.000
306.219; -103.375; -863.000; -748.000
306.356;  -13.200;  158.000;   27.000
306.494;   63.400;  981.000;  761.000
306.631;  -27.525;  -11.000;  -55.000
306.769;  -32.300; -613.000; -485.000
306.906;  -81.200; -284.000; -258.000
307.044;  -74.325; -473.000; -488.000
307.181;  -73.475; -410.000; -332.000
307.319;  -16.650;  112.000;   87.000
307.456; -172.775;-1191.000;-1153.000
307.594; -115.250; -980.000; -727.000
307.731;  -57.750; -371.000; -164.000
307.868;   -7.975;  -15.000;   20.000
308.006; -137.550; -961.000; -847.000
308.143;  -76.475; -618.000; -330.000
308.281;  -40.175;  -37.000; -254.000
308.418;  -91.675; -748.000; -640.000
308.555;  -90.850; -400.000; -250.000
308.693;  -94.375; -577.000; -573.000
308.830; -114.375; -712.000; -657.000
308.967;  -32.000; -215.000;  -95.000
309.105;  -82.050; -507.000; -396.000
309.242;  -57.400; -468.000; -367.000
309.379; -109.600; -577.000; -655.000
309.517; -136.975; -936.000; -948.000
309.654; -128.325; -910.000; -734.000
309.791;  -88.275; -662.000; -580.000
309.928; -138.475; -977.000; -914.000
310.065;   66.175;  819.000;  697.000
310.203; -140.950; -825.000; -850.000
310.340;  -82.075; -465.000; -321.000
310.477;  -97.275; -412.000; -516.000
310.614;  -71.700; -383.000; -473.000
310.751; -105.575; -427.000; -518.000
310.889;  -39.775;    1.000;   11.000
311.026; -153.025;-1161.000; -939.000
311.163;  -67.400; -386.000; -380.000
311.300; -102.625; -512.000; -479.000
311.437;  -82.750; -658.000; -619.000
311.574; -180.350;-1226.000; -985.000
311.711;  -84.975; -595.000; -433.000
311.848;  -67.925; -380.000; -388.000
311.985;    9.675;  270.000;   93.000
312.122; -143.050; -932.000; -762.000
312.259; -127.050; -941.000; -994.000
312.396;  -91.875; -508.000; -551.000
312.533; -105.350; -812.000; -790.000
312.670; -150.700;-1070.000; -898.000
312.807;  -62.950; -352.000; -367.000
312.944; -115.175; -513.000; -611.000
313.081;  -63.525; -150.000; -415.000
313.218; -142.300;-1111.000; -867.000
313.355;  -72.525; -531.000; -449.000
313.492;  -71.225; -455.000; -292.000
313.629;   81.475;  815.000;  735.000
313.766; -172.375;-1176.000;-1008.000
313.902;  -27.775; -186.000;   21.000
314.039;  -70.500; -372.000; -289.000
314.176;    6.650;  286.000;  192.000
314.313; -101.675; -569.000; -473.000
314.450; -119.300; -788.000; -684.000
314.587;  -87.675; -468.000; -480.000
314.723;  -27.475;  -78.000;  130.000
314.860;   -3.350;  318.000;  332.000
314.997;   -3.250;  223.000;  142.000
315.134;  -80.350; -385.000; -368.000
315.270;  -77.400; -480.000; -496.000
315.407; -155.625;-1094.000; -967.000
315.544;  -95.975; -657.000; -538.000
315.681; -109.525; -681.000; -565.000
315.817;  -43.050; -133.000; -176.000
315.954;  -93.600; -613.000; -392.000
316.091; -146.450;-1045.000;-1023.000
316.227;  -55.225;  -71.000; -179.000
316.364;  -25.825;   23.000;    6.000
316.500;  -52.625; -113.000; -300.000
316.637;  -56.100; -181.000; -302.000
316.774;  -92.175; -625.000; -358.000
316.910;  -90.975; -598.000; -629.000
317.047; -102.950; -487.000; -351.000
317.183;  -90.100; -435.000; -566.000
317.320;  -80.675; -367.000; -321.000
317.456; -123.775; -733.000; -805.000
317.593; -111.150; -598.000; -641.000
317.729;   -8.725;  168.000;  -67.000
317.866; -189.525;-1434.000;-1285.000
318.002;  -99.700; -708.000; -948.000
318.139; -131.750; -883.000; -867.000
318.275; -119.625;-1003.000; -738.000
318.412;  -80.800; -517.000; -336.000
318.548;  -90.800; -751.000; -720.000
318.685; -144.050; -985.000; -888.000
318.821; -110.450; -762.000; -735.000
318.957;  -40.200;   34.000;  -23.000
319.094;   15.950;  297.000;  154.000
319.230; -132.950; -756.000; -742.000
319.367;  -81.200; -471.000; -520.000
319.503;  -82.900; -538.000; -436.000
319.639; -119.650; -877.000; -793.000
319.775; -118.675; -750.000; -685.000
319.912;  -72.425; -424.000; -519.000
320.048; -160.675;-1184.000;-1184.000
320.184;    1.250;   59.000;   70.000
320.321;  -66.975; -497.000; -467.000
320.457;   35.500;  475.000;  662.000
320.593;  -81.175; -375.000; -382.000
320.729; -113.225; -732.000; -734.000
320.866; -105.225; -577.000; -635.000
321.002; -112.075; -759.000; -809.000
321.138;  -81.400; -135.000; -211.000
321.274;  -33.325; -148.000; -115.000
321.410; -110.275; -585.000; -353.000
321.546; -138.925;-1011.000; -911.000
321.683;   -9.550;  400.000;  185.000
321.819;  -28.475;  -48.000; -117.000
321.955; -135.425; -743.000; -722.000
322.091;  -83.125; -585.000; -540.000
322.227;  -63.725; -382.000; -202.000
322.363;  -67.625; -320.000; -215.000
322.499;  -71.475; -343.000; -331.000
322.635;   51.875;  636.000;  443.000
322.771;  -38.900; -139.000;   12.000
322.907;   20.050;  129.000;  327.000
323.043;  -64.550; -115.000; -206.000
323.179;  -69.400; -394.000; -363.000
323.315;  -85.625; -401.000; -371.000
323.451;  -57.050; -328.000; -236.000
323.587;  -54.700;  -60.000;  -77.000
323.723; -101.225; -682.000; -601.000
323.859;  -52.100; -258.000;  -76.000
323.995;  -57.925; -467.000; -409.000
324.131; -142.200; -967.000; -892.000
324.267;  -46.075; -254.000; -276.000
324.402; -151.375; -960.000; -983.000
324.538;  -45.200; -279.000; -104.000
324.674;  -10.900;  164.000;   77.000
324.810;   -4.575;  226.000;  308.000
324.946;  -72.025; -810.000; -658.000
325.082;  -93.950; -568.000; -475.000
325.217;  -40.925;  -62.000;   16.000
325.353; -108.825; -764.000; -659.000
325.489;  -99.925; -540.000; -506.000
325.625;  -72.825; -579.000; -525.000
325.760;    2.100;  517.000;  376.000
325.896;  -88.950; -515.000; -702.000
326.032;  -75.550; -403.000; -352.000
326.168;  -68.975; -462.000; -369.000
326.303;  -75.600; -352.000; -461.000
326.439;  -43.025; -336.000; -276.000
326.575;  -46.425; -190.000;  -29.000
326.710;  -30.925; -156.000;  -30.000
326.846;  -31.775;  146.000;  103.000
326.982; -102.450; -530.000; -548.000
327.117;  -85.900; -481.000; -442.000
327.253; -100.950; -745.000; -742.000
327.388; -185.175;-1137.000;-1153.000
327.524; -108.525; -811.000; -578.000
327.659;  -46.600;  -58.000;  -22.000
327.795;  -20.475;   69.000;   45.000
327.931; -111.950; -723.000; -499.000
328.066;  -62.775; -417.000; -276.000
328.202;  -48.025;   12.000; -129.000
328.337;   83.625;  957.000;  713.000
328.473;   15.750;  -12.000;  -74.000
328.608;  -47.075; -256.000; -267.000
328.743; -126.800; -799.000; -664.000
328.879;    7.350;  214.000;  114.000
329.014;  -44.450; -102.000; -122.000
329.150;  -92.750; -358.000; -483.000
329.285; -108.325; -465.000; -466.000
329.421;  -61.600; -548.000; -246.000
329.556;  -52.025;  -36.000;   85.000
329.691;  -95.450; -633.000; -615.000
329.827;  -95.375; -626.000; -480.000
329.962;  -13.550;  131.000; -301.000
330.097; -113.350; -673.000; -585.000
330.233;  -65.350; -410.000; -223.000
330.368; -144.500; -839.000; -628.000
330.503;  -32.450;    3.000;   98.000
330.638;  -41.375;  -93.000; -125.000
330.774;  -88.925; -609.000; -530.000
330.909;  -69.500; -434.000; -244.000
331.044; -103.150; -714.000; -708.000
331.179; -177.775;-1217.000;-1109.000
331.315;   -5.550;   77.000;   20.000
331.450;   -9.000;  157.000;  285.000
331.585; -106.125; -805.000; -706.000
331.720;  -98.650; -510.000; -460.000
331.855;  -30.075;  -35.000; -102.000
331.990;  -40.850;   62.000;  138.000
332.126;  -39.525; -110.000;   71.000
332.261;  -89.750; -379.000; -265.000
332.396;  -53.625; -135.000; -242.000
332.531; -160.750;-1074.000;-1031.000
332.666;  -73.750; -519.000; -363.000
332.801; -134.800; -726.000; -807.000
332.936;  -35.400; -192.000; -122.000
333.071; -141.875; -870.000; -817.000
333.206;   -0.250;  307.000;  379.000
333.341;    1.425;  344.000;  418.000
333.476;  -95.325; -627.000; -623.000
333.611;  -60.150; -251.000; -173.000
333.746;  -59.050; -381.000; -464.000
333.881; -140.475; -973.000; -935.000
334.016; -141.550; -936.000; -917.000
334.151; -128.025; -746.000; -702.000
334.286;  -20.625;  152.000;  186.000
334.421;  -41.775; -125.000; -178.000
334.556; -107.075; -611.000; -567.000
334.690; -110.625; -631.000; -577.000
334.825;   19.400;  381.000;   83.000
334.960;  -85.500; -285.000; -413.000
335.095;  -33.850;  135.000;  -91.000
335.230; -129.950; -722.000; -738.000
335.365; -155.950;-1084.000; -990.000
335.499; -176.550;-1108.000;-1037.000
335.634;  -19.525;    9.000;  534.000
335.769; -129.900; -755.000; -720.000
335.904; -115.475; -603.000; -561.000
336.038; -135.300; -735.000; -657.000
336.173; -159.475;-1206.000;-1194.000
336.308;  -64.250; -116.000; -189.000
336.443; -104.425; -544.000; -634.000
336.577; -134.025; -936.000; -787.000
336.712;  -14.650;   -4.000;  -12.000
336.847; -109.925; -724.000; -607.000
336.981;  -70.675; -272.000; -208.000
337.116;   15.500;  615.000;  501.000
337.250;  -77.975; -434.000; -421.000
337.385;  -71.150; -297.000; -208.000
337.520; -114.025; -632.000; -603.000
337.654;  -72.625; -215.000; -126.000
337.789; -134.250; -989.000; -933.000
337.923;  -59.750; -104.000; -205.000
338.058; -118.350; -673.000; -738.000
338.192;  -99.825; -611.000; -488.000
338.327;  -29.075;  -18.000; -155.000
338.461; -101.175; -299.000; -469.000
338.596; -104.350; -780.000; -638.000
338.730; -133.225; -767.000; -803.000
338.865;  -30.450;  -46.000; -140.000
338.999; -132.850; -846.000; -702.000
339.134; -106.900; -634.000; -536.000
339.268; -105.000; -741.000; -603.000
339.403; -120.800; -740.000; -775.000
339.537; -134.875; -894.000; -820.000
339.671; -129.925; -829.000; -813.000
339.806; -109.275; -556.000; -512.000
339.940;  -56.025; -261.000; -235.000
340.074; -116.925; -685.000; -510.000
340.209;  -56.875; -351.000; -230.000
340.343; -104.900; -517.000; -573.000
340.477;  103.950;  998.000; 1036.000
340.612; -154.825;-1033.000; -900.000
340.746;  -60.925; -199.000; -243.000
340.880; -139.350; -924.000; -785.000
341.014;  -34.150;  -45.000; -154.000
341.149; -124.200; -756.000; -718.000
341.283; -116.700; -839.000; -754.000
341.417; -150.400;-1124.000; -938.000
341.551; -101.700; -768.000; -708.000
341.685; -103.925; -633.000; -611.000
341.820; -103.200; -562.000; -493.000
341.954;  -84.875; -218.000; -349.000
342.088; -155.250;-1102.000;-1019.000
342.222;   33.725;  565.000;  618.000
342.356;  -84.175; -395.000; -335.000
342.490; -131.200; -880.000; -841.000
342.624;  -74.400; -339.000; -242.000
342.758;  -79.800; -364.000; -312.000
342.892; -113.175; -710.000; -585.000
343.026;  -62.775;  -58.000; -116.000
343.160;  -57.475; -426.000; -376.000
343.294; -105.350; -474.000; -337.000
343.428;  -87.200; -488.000; -448.000
343.562;  -45.975; -172.000;  -23.000
343.696;  -64.900; -385.000; -314.000
343.830;  -60.675; -362.000; -356.000
343.964;  -41.950; -231.000; -168.000
344.098;  -31.450;  199.000;   70.000
344.232;  -51.325; -266.000; -127.000
344.366; -118.725; -567.000; -453.000
344.500; -114.125; -665.000; -744.000
344.634;  -74.300; -324.000; -164.000
344.768;  -80.725; -531.000; -341.000
344.902;  -11.450;  278.000;  256.000
345.035;  -87.350; -556.000; -496.000
345.169; -144.850; -933.000; -656.000
345.303;  -72.275; -308.000; -482.000
345.437; -136.325; -826.000; -717.000
345.571;  -97.500; -675.000; -594.000
345.704;  -89.750; -309.000; -532.000
345.838;  -72.100; -331.000; -284.000
345.972; -108.300; -543.000; -495.000
346.106;  -37.150; -179.000; -190.000
346.239;  -67.850; -312.000; -243.000
346.373;  -60.350; -343.000; -302.000
346.507; -170.325; -950.000; -962.000
346.640;  -28.425;  -30.000;   13.000
346.774; -122.900; -650.000; -797.000
346.908;  -33.950; -138.000;  -11.000
347.041; -105.175; -646.000; -593.000
347.175;  -10.325;  259.000;   27.000
347.309; -130.950; -698.000; -628.000
347.442; -135.000; -883.000; -732.000
347.576;   39.600;  670.000;  668.000
347.709;  -26.925; -123.000;  -52.000
347.843; -155.350; -933.000; -825.000
347.976;    1.425;  235.000;  294.000
348.110; -188.200;-1268.000;-1186.000
348.243; -116.650; -679.000; -772.000
348.377;  -26.750;  -26.000;   60.000
348.510;   21.025;  403.000;  540.000
348.644;  -64.050;  -37.000; -159.000
348.777;  -12.550;  180.000;  191.000
348.911;  -73.375; -142.000; -112.000
349.044;   18.575;  471.000;  448.000
349.178; -162.375;-1069.000;-1006.000
349.311;    6.325;  141.000;  255.000
349.444; -133.150; -927.000; -813.000
349.578;  -66.000; -347.000; -200.000
349.711; -136.425; -959.000; -862.000
349.845; -103.650; -661.000; -591.000
349.978; -171.825;-1224.000;-1137.000
350.111;  -97.100; -546.000; -612.000
350.244; -119.425; -596.000; -700.000
350.378;  -80.150; -392.000; -393.000
350.511;  -94.200; -393.000; -426.000
350.644; -123.300; -808.000; -806.000
350.778;  -33.925;  168.000;  104.000
350.911;  -14.400;  134.000;  140.000
351.044; -111.700; -685.000; -615.000
351.177;  -58.475; -321.000; -281.000
351.310;  -43.200;    3.000; -131.000
351.444; -131.350; -888.000; -788.000
351.577;  -23.825;  140.000;   90.000
351.710;   34.825;  593.000;  417.000
351.843;  -59.525; -165.000;  -77.000
351.976;  -35.850;  149.000;  -79.000
352.109; -116.050; -621.000; -612.000
352.242;  -90.825; -464.000; -419.000
352.376; -118.400; -580.000; -636.000
352.509;  -90.750; -437.000; -356.000
352.642; -170.225; -654.000; -604.000
352.775;  -40.675; -141.000;  -98.000
352.908; -150.000; -933.000; -904.000
353.041; -122.850; -814.000; -824.000
353.174;  -96.400; -551.000; -424.000
353.307; -126.750; -753.000; -764.000
353.440;    8.875;  541.000;  453.000
353.573; -148.450; -957.000;-1008.000
353.706; -131.750; -384.000; -558.000
353.839;  -67.475; -264.000; -220.000
353.971; -122.125; -657.000; -512.000
354.104; -126.375; -896.000; -835.000
354.237; -123.225; -627.000; -662.000
354.370; -112.225; -846.000; -879.000
354.503; -189.675;-1231.000;-1308.000
354.636;  -71.100; -529.000; -348.000
354.769; -150.550; -937.000; -860.000
354.902;  -67.050; -230.000; -139.000
355.034;  -61.400; -164.000; -220.000
355.167;  -61.975; -262.000; -162.000
355.300; -156.275;-1061.000; -880.000
355.433;  -21.225;  -71.000;  -14.000
355.565;  -88.825; -402.000; -384.000
355.698;  -70.700; -356.000; -296.000
355.831; -146.725; -882.000; -801.000
355.964;  -54.700; -285.000; -170.000
356.096; -142.600; -856.000; -843.000
356.229; -104.625; -523.000; -530.000
356.362;  -78.200; -373.000; -266.000
356.494;  -52.975; -229.000; -162.000
356.627;   -3.625;  269.000;  377.000
356.760;  -10.225;  120.000;   53.000
356.892;  -78.050; -286.000; -601.000
357.025;   20.200;  403.000;  389.000
357.157;  -50.425; -167.000; -179.000
357.290; -132.125; -856.000; -713.000
357.423; -125.575; -667.000; -556.000
357.555;  -36.450; -217.000; -228.000
357.688;  -93.800; -483.000; -364.000
357.820; -145.050; -870.000; -877.000
357.953; -112.625; -563.000; -589.000
358.085; -117.700; -632.000; -612.000
358.218; -171.550;-1131.000; -932.000
358.350;  -23.350;  -58.000;  312.000
358.483; -191.825;-1300.000;-1187.000
358.615; -157.900;-1182.000;-1078.000
358.747; -191.025;-1187.000;-1058.000
358.880; -132.000; -810.000; -744.000
359.012;  -93.875; -376.000; -202.000
359.145;  -99.925; -480.000; -511.000
359.277; -162.525; -962.000; -913.000
359.409;   15.500;  536.000;  231.000
359.542; -138.425; -738.000; -688.000
359.674;  -37.250;   46.000;   13.000
359.806; -107.550; -565.000; -438.000
359.939;  -86.500; -617.000; -516.000
360.071; -125.975; -583.000; -579.000
360.203;  -72.500; -411.000; -364.000
360.335;  -35.400;  164.000;  -16.000
360.468;  -68.450; -249.000; -307.000
360.600; -118.500; -547.000; -454.000
360.732;  -96.800; -546.000; -423.000
360.864; -182.550;-1216.000;-1044.000
360.996;  -78.775; -516.000; -554.000
361.129; -106.625; -389.000; -598.000
361.261;  -32.000;  110.000; -113.000
361.393;  -64.100; -252.000; -214.000
361.525;  -15.975;   94.000;  244.000
361.657; -130.750; -821.000; -703.000
361.789;  -51.700; -139.000; -155.000
361.921; -111.200; -642.000; -593.000
362.053;   32.975;  524.000;  541.000
362.185;  -30.000;  288.000;   72.000
362.318; -121.300; -709.000; -705.000
362.450;    0.275;  294.000;  444.000
362.582; -155.600; -913.000; -870.000
362.714;  -80.525; -353.000; -332.000
362.846; -100.300; -606.000; -490.000
362.978; -156.800; -941.000; -811.000
363.109;  -65.425; -161.000; -260.000
363.241; -130.025; -739.000; -749.000
363.373;  -96.350; -649.000; -564.000
363.505;  -58.825; -186.000;  -91.000
363.637; -104.775; -787.000; -601.000
363.769; -180.525;-1067.000;-1080.000
363.901; -105.350; -596.000; -654.000
364.033; -172.500;-1103.000;-1062.000
364.165;  -53.825; -283.000; -283.000
364.296;  -86.000; -316.000; -177.000
364.428; -194.275;-1344.000;-1220.000
364.560; -127.625; -679.000; -661.000
364.692; -102.775; -738.000; -835.000
364.824; -114.150; -588.000; -456.000
364.955;  -85.250; -402.000; -564.000
365.087; -173.925;-1097.000; -852.000
365.219; -129.675; -686.000; -816.000
365.351; -127.925; -526.000; -572.000
365.482;  -13.175;  300.000;  240.000
365.614;  -87.350; -402.000; -314.000
365.746; -121.800; -729.000; -752.000
365.877; -134.875; -706.000; -672.000
366.009;  -34.975;  -35.000;  -62.000
366.141; -181.550;-1249.000;-1134.000
366.272; -131.825; -803.000; -719.000
366.404; -160.575;-1005.000; -874.000
366.535;  -35.975; -139.000;  -12.000
366.667; -117.200; -644.000; -649.000
366.799;    4.250;  353.000;  203.000
366.930; -158.400; -862.000; -996.000
367.062;  -97.825; -639.000; -613.000
367.193; -156.125; -872.000; -842.000
367.325; -100.450; -580.000; -684.000
367.456;  -77.825; -246.000;   31.000
367.588;  -79.300; -371.000; -318.000
367.719;  -56.500;  -44.000;  -45.000
367.851;  -59.850; -222.000; -241.000
367.982; -160.425; -875.000; -732.000
368.113;  -76.850; -475.000; -358.000
368.245; -167.900; -960.000; -841.000
368.376;  -62.975; -254.000; -302.000
368.508;  -74.550; -188.000; -263.000
368.639; -162.450;-1166.000;-1034.000
368.770; -132.825; -670.000; -589.000
368.902; -144.550; -836.000; -926.000
369.033; -151.525; -906.000; -855.000
369.164; -109.525; -720.000; -653.000
369.296; -134.325; -452.000; -601.000
369.427;  -43.300; -209.000; -144.000
369.558; -116.450; -593.000; -377.000
369.689; -113.500; -721.000; -569.000
369.821; -172.700; -951.000; -845.000
369.952;  -34.350;   42.000; -108.000
370.083;  -62.600; -229.000; -108.000
370.214; -114.475; -735.000; -650.000
370.345;  -46.925;   65.000;   81.000
370.477; -131.950; -810.000; -790.000
370.608;  -75.325; -328.000; -264.000
370.739; -177.000;-1233.000;-1292.000
370.870; -157.450;-1102.000; -923.000
371.001;  -91.125; -378.000; -467.000
371.132; -121.825; -754.000; -735.000
371.263;  -48.775;  -42.000; -148.000
371.394; -145.925; -841.000; -748.000
371.525;   -6.225;  345.000;  225.000
371.657; -141.825; -808.000; -670.000
371.788;   -5.025;  103.000;  199.000
371.919;  -90.150; -384.000; -304.000
372.050;  -34.125;  -91.000; -156.000
372.181;  -58.150; -188.000; -294.000
372.311;  -34.900;   42.000; -127.000
372.442;  -97.050; -457.000; -451.000
372.573;  -64.500; -444.000; -340.000
372.704; -166.225;-1008.000; -980.000
372.835;  -68.625; -228.000; -289.000
372.966; -116.425; -646.000; -554.000
373.097; -118.100; -575.000; -711.000
373.228; -119.650; -717.000; -542.000
373.359; -121.075; -824.000; -536.000
373.490; -149.025; -881.000; -727.000
373.620; -138.200;-1001.000; -803.000
373.751; -101.675; -332.000; -396.000
373.882; -116.575; -663.000; -733.000
374.013;  -78.900; -449.000; -262.000
374.143;  -95.400; -581.000; -659.000
374.274; -170.025; -987.000; -908.000
374.405;  -72.575; -388.000; -276.000
374.536;  -98.825; -526.000; -387.000
374.666; -131.825; -759.000; -807.000
374.797; -143.000; -817.000; -868.000
374.928; -109.475; -710.000; -560.000
375.058; -118.800; -535.000; -500.000
375.189;  -60.325;  -59.000;  -93.000
375.320; -175.400; -928.000;-1034.000
375.450; -115.975; -625.000; -616.000
375.581; -112.800; -526.000; -436.000
375.712;  -69.550; -574.000; -250.000
375.842; -105.950; -438.000; -415.000
375.973; -102.050; -554.000; -513.000
376.103; -115.300; -665.000; -648.000
376.234; -115.375; -531.000; -552.000
376.364; -149.800; -944.000; -867.000
376.495;   62.075;  925.000;  529.000
376.625; -115.825; -472.000; -485.000
376.756; -130.975; -709.000; -678.000
376.886; -184.475;-1178.000;-1026.000
377.017; -160.300;-1048.000;-1061.000
377.147; -151.625; -786.000; -782.000
377.278;  -17.750;  174.000;  228.000
377.408; -152.900; -801.000; -815.000
377.538; -121.075; -707.000; -693.000
377.669; -118.850; -537.000; -613.000
377.799; -126.875; -645.000; -635.000
377.929; -109.100; -610.000; -428.000
378.060; -148.450; -781.000; -847.000
378.190; -141.250; -726.000; -531.000
378.320;  -84.650; -401.000; -406.000
378.451;  -54.050; -131.000;  -22.000
378.581;  -42.225;  -67.000; -110.000
378.711;   41.500; 1035.000;  866.000
378.841; -116.875; -533.000; -675.000
378.972; -141.475; -871.000; -751.000
379.102; -100.200; -652.000; -579.000
379.232;  -80.325; -126.000;  -73.000
379.362; -149.150;-1001.000; -885.000
379.492; -113.575; -373.000; -424.000
379.623;  -19.700;    0.000;  111.000
379.753; -166.025;-1107.000; -974.000
379.883;  -23.700;   59.000;  156.000
380.013; -175.475;-1081.000;-1017.000
380.143; -172.650;-1097.000;-1056.000
380.273; -169.675; -985.000; -861.000
380.403;  -68.225; -344.000; -257.000
380.533; -153.725; -651.000; -664.000
380.663;  -31.650;  173.000;  128.000
380.793; -183.400;-1027.000;-1074.000
380.923;  -57.625; -103.000;  -34.000
381.053; -130.100; -613.000; -623.000
381.183;  -61.675; -106.000; -248.000
381.313; -110.975; -656.000; -470.000
381.443; -108.900; -692.000; -473.000
381.573;  -93.975; -402.000; -409.000
381.703; -173.650;-1249.000;-1095.000
381.833; -218.475;-1454.000;-1336.000
381.963;  -38.875; -134.000;  -87.000
382.093; -161.725; -925.000; -909.000
382.223; -110.750; -713.000; -602.000
382.353; -142.250; -801.000; -608.000
382.482; -164.200;-1091.000; -964.000
382.612; -128.300; -872.000; -644.000
382.742; -123.150; -695.000; -622.000
382.872; -106.950; -565.000; -551.000
383.002;  -31.050;  347.000; -132.000
383.131;  -81.250; -226.000; -160.000
383.261; -124.475; -706.000; -768.000
383.391; -114.450; -552.000; -377.000
383.521;    9.000;  451.000;  263.000
383.650; -168.400; -947.000; -904.000
383.780; -128.925; -783.000; -656.000
383.910;   30.825;  880.000;  802.000
384.039; -142.350; -794.000; -656.000
384.169; -200.875;-1205.000;-1017.000
384.299; -122.075; -650.000; -662.000
384.428; -139.125; -764.000; -680.000
384.558;  -79.900; -308.000; -275.000
384.687; -100.100; -414.000; -334.000
384.817;  -25.675;   75.000;   -2.000
384.947;  -66.300; -234.000; -141.000
385.076;   80.250;  982.000;  912.000
385.206;    4.000;  369.000;  480.000
385.335;  -98.000; -549.000; -417.000
385.465; -129.325; -655.000; -663.000
385.594;  -45.875;  -53.000;  -44.000
385.724; -154.175; -868.000; -838.000
385.853;  -74.625; -296.000; -270.000
385.982; -148.675; -743.000; -787.000
386.112; -146.200;-1052.000; -871.000
386.241;  -88.275; -307.000; -312.000
386.371;  -60.025; -174.000;  -87.000
386.500; -149.700; -825.000; -789.000
386.629; -136.700; -874.000; -817.000
386.759;  -55.050;  -43.000;   68.000
386.888;  -58.275; -170.000; -250.000
387.017; -126.025; -648.000; -620.000
387.147; -147.775; -771.000; -798.000
387.276; -126.600; -410.000; -397.000
387.405;  -75.700; -398.000; -342.000
387.535; -101.450; -452.000; -361.000
387.664; -118.225; -692.000; -620.000
387.793;  -79.125; -198.000; -113.000
387.922;  -14.875;  255.000;  200.000
388.052; -107.350; -576.000; -423.000
388.181;  -97.525; -342.000; -472.000
388.310; -136.400; -889.000; -710.000
388.439; -137.050; -749.000; -742.000
388.568;  -39.450;  365.000;  244.000
388.697; -127.875; -756.000; -653.000
388.826; -125.425; -768.000; -666.000
388.956;  -90.400; -285.000; -307.000
389.085;  -78.325; -347.000; -287.000
389.214; -136.125; -842.000; -872.000
389.343; -124.925; -645.000; -413.000
389.472;  -17.100;  126.000;  149.000
389.601;  -47.600;   91.000;    0.000
389.730; -113.200; -568.000; -687.000
389.859;  -29.350;  226.000;   46.000
389.988;  -90.950; -423.000; -408.000
390.117;  -78.650; -168.000; -146.000
390.246;  -75.750; -331.000; -320.000
390.375; -127.800; -673.000; -626.000
390.504; -112.450; -703.000; -621.000
390.633; -150.350; -672.000; -726.000
390.761; -130.000; -732.000; -645.000
390.890;  -68.100;   -4.000; -130.000
391.019;  -95.475; -421.000; -441.000
391.148; -146.100; -826.000; -855.000
391.277; -102.175; -576.000; -493.000
391.406; -152.850; -821.000; -805.000
391.534;  -22.500;  574.000; -301.000
391.663; -131.200; -583.000; -645.000
391.792; -127.775; -673.000; -701.000
391.921;  -46.575;   -3.000;   15.000
392.050;  -89.675; -287.000; -228.000
392.178; -200.850;-1206.000;-1061.000
392.307; -136.300; -758.000; -712.000
392.436; -116.000; -427.000; -641.000
392.564;  -46.350;  166.000;   -6.000
392.693; -153.425; -860.000; -682.000
392.822; -102.975; -529.000; -534.000
392.950; -151.725; -880.000; -714.000
393.079;  -83.775; -188.000; -328.000
393.208; -125.025; -488.000; -511.000
393.336;  -64.325; -170.000; -145.000
393.465;  -86.775; -317.000; -199.000
393.593;  -32.925;   62.000;   79.000
393.722; -172.825;-1121.000; -916.000
393.850;  -56.450; -188.000;  -61.000
393.979; -181.775; -926.000; -805.000
394.107; -108.150; -517.000; -537.000
394.236; -121.000; -570.000; -507.000
394.364;   -7.725;  383.000;  206.000
394.493; -155.550; -911.000; -767.000
394.621; -136.950; -955.000; -916.000
394.750; -155.300; -873.000; -923.000
394.878;  -74.900; -247.000; -149.000
395.007; -142.100; -721.000; -807.000
395.135; -123.200; -790.000; -721.000
395.263; -185.400;-1038.000;-1040.000
395.392;  -33.725;  -25.000; -107.000
395.520; -163.700; -818.000; -679.000
395.648; -147.750; -865.000; -915.000
395.777;  -99.850; -366.000; -405.000
395.905; -104.725; -449.000; -564.000
396.033;  -39.075;  217.000;  172.000
396.162;  -86.375; -399.000; -453.000
396.290;  -79.275;  -17.000;   -2.000
396.418; -114.825; -555.000; -514.000
396.546; -118.125; -571.000; -466.000
396.674; -153.950; -850.000; -878.000
396.803;  -51.225;  -72.000;  -23.000
396.931;  -68.100; -179.000; -199.000
397.059; -176.875;-1026.000; -989.000
397.187; -154.875;-1026.000; -975.000
397.315; -152.475; -884.000; -649.000
397.443; -106.625; -592.000; -443.000
397.572; -117.950; -578.000; -424.000
397.700; -105.025; -607.000; -614.000
397.828;  -59.125;  120.000;  -90.000
397.956; -108.875; -508.000; -478.000
398.084; -136.075; -767.000; -626.000
398.212;  -37.100;  137.000;  124.000
398.340;  -53.175;  -56.000;  159.000
398.468;  -76.175; -390.000; -169.000
398.596; -166.300; -993.000; -953.000
398.724; -141.200; -762.000; -767.000
398.852; -175.900;-1024.000; -976.000
398.980;  -97.650; -560.000; -560.000
399.108; -135.675; -982.000; -735.000
399.236;  -40.175;   13.000;    8.000
399.363;  -39.025;  222.000;  196.000
399.491; -107.350; -404.000; -398.000
399.619; -152.475; -829.000; -800.000
399.747; -131.650; -859.000; -771.000
399.875;  -26.100;  220.000;  234.000
400.003;  -82.975; -359.000; -284.000
400.130; -113.200; -421.000; -341.000
400.258;  -40.725;  -83.000;   38.000
400.386;  -88.250; -352.000; -168.000
400.514; -108.425; -526.000; -587.000
400.641; -176.175; -928.000; -802.000
400.769; -158.900; -979.000; -888.000
400.897; -149.875; -838.000; -793.000
401.025;  -57.900; -166.000; -152.000
401.152;  -34.075;  220.000;   38.000
401.280;  -89.225; -430.000; -429.000
401.408; -132.675; -712.000; -576.000
401.535; -115.100; -735.000; -758.000
401.663; -197.100;-1134.000;-1054.000
401.790; -107.425; -514.000; -525.000
401.918;    7.800;  436.000;  405.000
402.046;  -34.650;  134.000;  122.000
402.173;  -66.300;  -18.000;    7.000
402.301;  -88.550; -519.000; -397.000
402.428;   -3.975;  528.000;  383.000
402.556; -183.650;-1188.000; -913.000
402.683;  -61.075;  -20.000;   -1.000
402.811;  -55.125;  -37.000; -206.000
402.938;  -53.575;   20.000;   27.000
403.066; -134.000; -574.000; -558.000
403.193;  -60.300;  299.000;  239.000
403.321;  -93.750; -396.000; -574.000
403.448;  -45.725;   83.000;   27.000
403.575;  -46.725;  -90.000;  -46.000
403.703; -145.775; -732.000; -557.000
403.830; -105.600; -531.000; -496.000
403.957; -184.400;-1117.000;-1023.000
404.085;  -60.575;  -61.000; -172.000
404.212;  -62.000;  -50.000;   63.000
404.339;  -99.250; -566.000; -306.000
404.467; -115.250; -612.000; -524.000
404.594;  -72.225; -287.000; -227.000
404.721; -143.925; -869.000; -764.000
404.848;  -56.775; -113.000; -202.000
404.976; -154.750; -856.000; -783.000
405.103;  -39.425;  -14.000;  -82.000
405.230;  -42.600;  190.000;  226.000
405.357;  -40.175;  117.000;   44.000
405.484;  -67.100;  -49.000;    5.000
405.612; -108.475; -548.000; -563.000
405.739; -111.350; -488.000; -243.000
405.866;   39.150;  669.000;  385.000
405.993;  -64.500; -398.000; -102.000
406.120; -141.450; -801.000; -887.000
406.247; -102.050; -323.000; -342.000
406.374;   13.950;  540.000;  629.000
406.501; -137.600; -632.000; -702.000
406.628; -115.300; -621.000; -589.000
406.755; -147.700; -803.000; -620.000
406.882;  -86.725; -228.000; -277.000
407.009; -126.475; -719.000; -628.000
407.136; -108.225; -480.000; -401.000
407.263; -162.150; -939.000; -829.000
407.390; -138.250; -692.000; -614.000
407.517; -188.700;-1139.000;-1187.000
407.644;  -91.700; -332.000; -256.000
407.771; -161.400; -249.000; -287.000
407.898;  -22.825;  168.000;  328.000
408.025; -110.150; -421.000; -313.000
408.151;  -49.500;   82.000;  153.000
408.278;  -96.450; -267.000; -216.000
408.405; -146.200; -931.000; -899.000
408.532; -126.450; -549.000; -542.000
408.659; -148.125; -677.000; -648.000
408.785; -208.600;-1298.000;-1170.000
408.912;  -81.075; -412.000; -296.000
409.039; -126.075; -610.000; -686.000
409.166; -109.225; -591.000; -555.000
409.292; -125.075; -571.000; -534.000
409.419; -130.475; -665.000; -649.000
409.546;  -91.125; -431.000; -192.000
409.672; -123.300; -713.000; -545.000
409.799;  -61.450;  -36.000;   34.000
409.926;  -72.400; -180.000; -179.000
410.052; -199.100;-1127.000;-1091.000
410.179;  -91.400; -368.000; -392.000
410.305; -118.400; -375.000; -493.000
410.432;  -76.425; -220.000; -333.000
410.558; -101.525; -305.000; -380.000
410.685; -121.500; -688.000; -431.000
410.812; -105.375; -409.000; -588.000
410.938; -162.075; -964.000; -808.000
411.065; -136.700; -671.000; -645.000
411.191;  -72.125; -189.000; -174.000
411.317; -155.225; -823.000; -742.000
411.444;  -74.600; -317.000; -246.000
411.570;  -94.825; -339.000; -294.000
411.697; -136.350; -758.000; -752.000
411.823; -187.475; -989.000; -999.000
411.949;  -69.650;  -56.000;   17.000
412.076; -131.775; -539.000; -519.000
412.202; -121.125; -758.000; -757.000
412.329; -156.325; -798.000; -752.000
412.455; -128.900; -821.000; -657.000
412.581;  -40.500;  -15.000;  172.000
412.707; -116.500; -540.000; -457.000
412.834;  -29.675;  156.000;  219.000
412.960; -136.975; -785.000; -784.000
413.086; -153.275; -743.000; -701.000
413.212;   16.750;  604.000;  578.000
413.339; -161.200; -685.000; -701.000
413.465; -107.875; -364.000; -310.000
413.591; -150.425; -757.000; -474.000
413.717;  -91.325; -358.000; -366.000
413.843; -166.075; -839.000; -861.000
413.969;  -73.175;  -47.000; -292.000
414.096; -137.825; -679.000; -679.000
414.222;  -54.525;  -33.000;   85.000
414.348; -119.225; -652.000; -385.000
414.474;  -47.300;   38.000;  -52.000
414.600;  -63.050; -126.000; -144.000
414.726;  -56.650;  -96.000;  -55.000
414.852; -108.700; -365.000; -342.000
414.978;  -31.225;  104.000;  -18.000
415.104;  -54.100;   38.000;   80.000
415.230;  -95.350; -329.000; -330.000
415.356; -111.950; -409.000; -514.000
415.482;  -59.350;   13.000;  -35.000
415.608;  -85.650; -247.000; -323.000
415.734;  -42.700;   67.000;   38.000
415.860; -157.300; -875.000; -767.000
415.986; -130.650; -685.000; -607.000
416.111; -143.100; -798.000; -652.000
416.237; -101.575; -424.000; -571.000
416.363; -167.750; -765.000; -733.000
416.489;  -88.950; -324.000; -251.000
416.615; -158.475; -707.000; -742.000
416.741; -132.425; -677.000; -784.000
416.866; -143.375; -673.000; -736.000
416.992; -156.475; -801.000; -818.000
417.118;  -75.625;  -41.000;  -80.000
417.244; -129.300; -798.000; -531.000
417.369; -149.200; -801.000; -612.000
417.495;  -96.600; -325.000; -254.000
417.621; -180.125;-1015.000; -803.000
417.746;  -99.850; -579.000; -572.000
417.872;  -69.075; -254.000; -144.000
417.998; -108.475; -515.000; -530.000
418.123; -181.400;-1073.000; -845.000
418.249; -111.925; -512.000; -601.000
418.374; -170.525; -916.000; -824.000
418.500; -106.075; -383.000; -482.000
418.626;  -59.325;   70.000;  -59.000
418.751; -119.875; -549.000; -448.000
418.877; -127.325; -637.000; -643.000
419.002; -127.800; -688.000; -560.000
419.128; -156.425; -930.000; -721.000
419.253; -148.425; -967.000; -837.000
419.379; -127.225; -391.000; -338.000
419.504;    0.950;  325.000;  415.000
419.629;  -96.900; -393.000; -212.000
419.755;  -80.725; -317.000; -254.000
419.880;  -85.975;  -98.000;   67.000
420.006;  -92.100; -280.000; -221.000
420.131; -152.200; -662.000; -775.000
420.256;  -76.600; -315.000; -316.000
420.382; -130.050; -665.000; -687.000
420.507; -132.375; -649.000; -778.000
420.632; -103.300; -337.000; -339.000
420.758;  -68.725; -251.000; -425.000
420.883; -141.425; -876.000; -672.000
421.008; -131.925; -775.000; -619.000
421.133; -113.825; -509.000; -467.000
421.259;  -84.300; -325.000; -259.000
421.384; -159.225; -834.000; -693.000
421.509; -159.225;-1052.000; -862.000
421.634; -179.675; -936.000; -820.000
421.759;  -84.000; -359.000; -327.000
421.885; -135.125; -717.000; -656.000
422.010; -127.975; -673.000; -542.000
422.135; -169.700; -695.000; -727.000
422.260;  -12.950;  340.000;  280.000
422.385;  -75.250;   12.000;  -98.000
422.510;  -40.875;  151.000;  -26.000
422.635;  -72.500;  -87.000;  -43.000
422.760; -143.775; -766.000; -791.000
422.885;  -63.100;  -57.000;  -80.000
423.010;  -69.100; -112.000; -169.000
423.135; -128.925; -481.000; -561.000
423.260;  -67.300; -150.000; -245.000
423.385;  -24.825;  476.000;  222.000
423.510;  -26.900;   71.000;  -22.000
423.635;  -56.125;  133.000;   45.000
423.760;  -16.000;  383.000;  328.000
423.885;  -20.825;  336.000;  391.000
424.010;  -48.000;  -68.000;  -13.000
424.135;  -57.975;    5.000;  -33.000
424.259; -127.525; -654.000; -457.000
424.384; -102.800; -279.000; -272.000
424.509;  -80.500; -260.000; -186.000
424.634; -154.725; -761.000; -623.000
424.759; -111.225; -688.000; -544.000
424.883; -131.875; -506.000; -527.000
425.008; -121.150; -502.000; -410.000
425.133; -151.400; -679.000; -653.000
425.258; -113.050; -517.000; -381.000
425.382; -146.475; -867.000; -774.000
425.507; -116.400; -487.000; -543.000
425.632; -152.600; -802.000; -663.000
425.756;  -96.075; -256.000; -146.000
425.881; -160.025; -831.000; -857.000
426.006; -107.925; -604.000; -355.000
426.130; -142.600; -696.000; -508.000
426.255; -118.100; -611.000; -491.000
426.379;  -75.550; -189.000; -577.000
426.504;   25.800;  660.000;  544.000
426.629; -141.200; -519.000; -466.000
426.753;  -50.950;   64.000;  -46.000
426.878; -109.350; -252.000; -288.000
427.002; -156.875; -651.000; -668.000
427.127;  -87.625;  -35.000; -158.000
427.251;  -20.250;  372.000;  401.000
427.375;  -95.575; -191.000; -173.000
427.500; -124.100; -616.000; -610.000
427.624; -106.100; -234.000; -400.000
427.749;  -86.000; -216.000; -225.000
427.873; -115.950; -499.000; -412.000
427.997;  -95.400; -222.000; -230.000
428.122;   22.300;  795.000;  703.000
428.246;    1.825;  433.000;  434.000
428.371; -168.025; -869.000; -773.000
428.495; -145.175; -624.000; -646.000
428.619;  -90.750; -186.000; -117.000
428.743;  -48.850;   65.000;  132.000
428.868; -135.850; -732.000; -643.000
428.992; -104.450; -219.000; -326.000
429.116; -109.600; -329.000; -357.000
429.240;   -9.475;  419.000;  426.000
429.365; -105.125; -454.000; -574.000
429.489; -131.775; -638.000; -647.000
429.613;  -84.025; -236.000; -177.000
429.737; -119.300; -563.000; -432.000
429.861;  -96.300; -247.000; -133.000
429.985; -118.525; -425.000; -305.000
430.109; -152.325; -770.000; -908.000
430.234;  -31.550;   76.000;  -50.000
430.358;  -97.975; -250.000; -160.000
430.482; -139.350; -672.000; -564.000
430.606; -131.625; -655.000; -375.000
430.730; -120.375; -437.000; -388.000
430.854; -181.975; -909.000; -835.000
430.978; -148.050; -795.000; -764.000
431.102; -127.200; -499.000; -422.000
431.226; -162.150; -874.000; -815.000
431.350;  -37.500;  345.000;  422.000
431.474; -122.850; -661.000; -373.000
431.597; -180.700;-1060.000; -848.000
431.721;  -90.025; -276.000; -267.000
431.845; -147.175; -704.000; -472.000
431.969;  -90.850; -304.000; -349.000
432.093; -120.450; -395.000; -317.000
432.217;  -45.050;   32.000;   82.000
432.341; -126.475; -523.000; -518.000
432.464;  -63.950;   96.000;   40.000
432.588; -129.150; -401.000; -329.000
432.712;  -70.875;  -52.000;  -52.000
432.836;  -47.350;  213.000;  263.000
432.959;  -93.375; -372.000; -311.000
433.083;  -71.575;   11.000;    2.000
433.207;   -4.950;  285.000;  930.000
433.330;  -87.100; -391.000; -200.000
433.454; -103.975; -654.000; -638.000
433.578;   -1.350;  583.000;  278.000
433.701; -147.250; -623.000; -675.000
433.825; -120.100; -292.000; -299.000
433.949;  -45.500;   28.000;  -72.000
434.072; -104.825; -410.000; -323.000
434.196;  -78.725; -309.000; -117.000
434.319; 3274.825;25482.000;25124.000
434.443; -150.350; -656.000; -603.000
434.566;  -60.750;  281.000;   62.000
434.690; -116.625; -637.000; -383.000
434.813; -106.100; -251.000; -173.000
434.937; -130.000; -569.000; -696.000
435.060; -123.550; -423.000; -332.000
435.184; -108.475; -492.000; -217.000
435.307;  -58.425;  159.000;  102.000
435.431;  -44.525;  -40.000;   24.000
435.554; -102.475; -399.000; -240.000
435.677;  -89.800; -350.000; -258.000
435.801;  -54.025;  -25.000;   49.000
435.924;  -47.575;    1.000;  -67.000
436.048; -169.800;-1019.000; -732.000
436.171; -107.325; -240.000;  -66.000
436.294;  -87.775; -248.000; -229.000
436.417; -174.825; -963.000; -849.000
436.541; -160.800; -814.000; -840.000
436.664;  -74.525; -242.000; -316.000
436.787;  -66.150;   13.000;  113.000
436.910; -130.400; -792.000; -422.000
437.034;  -49.500;  142.000;  143.000
437.157;  -48.050;  -11.000;    0.000
437.280; -113.950; -392.000; -292.000
437.403; -161.575; -982.000; -869.000
437.526; -173.225; -903.000; -865.000
437.649; -113.875; -505.000; -332.000
437.772; -142.000; -692.000; -540.000
437.896;    0.250;  700.000;  544.000
438.019; -136.300; -758.000; -503.000
438.142; -118.850; -596.000; -506.000
438.265; -157.675; -639.000; -670.000
438.388; -110.550; -520.000; -410.000
438.511; -139.125; -597.000; -394.000
438.634;  -90.275; -247.000; -125.000
438.757; -149.575; -693.000; -619.000
438.880;  -73.125;  -34.000;  -57.000
439.003; -131.525; -417.000; -437.000
439.126;  -83.000; -287.000; -167.000
439.248;  -90.600;  -98.000; -139.000
439.371;  -51.625;    9.000;  -53.000
439.494;    6.300;  510.000;  439.000
439.617;  -55.225;   65.000;  -88.000
439.740; -183.600; -968.000; -816.000
439.863; -141.475; -755.000; -595.000
439.986; -143.225; -476.000; -431.000
440.108;  -81.000; -161.000; -112.000
440.231; -190.850; -950.000; -836.000
440.354;  -82.800;  -64.000; -150.000
440.477; -147.050; -566.000; -542.000
440.599; -113.800; -200.000; -225.000
440.722; -141.750; -709.000; -586.000
440.845;   52.575;  751.000;  928.000
440.968; -124.050; -415.000; -311.000
441.090;  -74.775; -199.000;  -33.000
441.213; -178.850;-1021.000; -825.000
441.336;  -71.425; -159.000;   -5.000
441.458; -118.100; -549.000; -396.000
441.581; -144.875; -628.000; -629.000
441.703; -100.175; -152.000;   13.000
441.826; -121.800; -557.000; -400.000
441.948;  -66.400;   56.000;   51.000
442.071;    9.875;  555.000;  424.000
442.193; -141.275; -531.000; -485.000
442.316;  -35.300;  152.000;   97.000
442.438;  -99.850; -233.000;  -10.000
442.561;  -28.600;  272.000;  262.000
442.683; -166.125; -809.000; -522.000
442.806;  -72.375;   -8.000;   74.000
442.928; -172.200; -859.000; -604.000
443.051; -113.100; -577.000; -373.000
443.173; -119.675; -341.000; -339.000
443.295; -108.875; -263.000; -371.000
443.418; -108.875; -321.000;  -29.000
443.540;  -65.150; -106.000;   -4.000
443.662; -142.825; -563.000; -465.000
443.785;  -25.350;  335.000;  199.000
443.907; -108.450; -362.000; -208.000
444.029; -130.150; -767.000; -494.000
444.152; -156.600; -644.000; -554.000
444.274;  -48.600;  -18.000;  -24.000
444.396; -126.375; -461.000; -221.000
444.518; -129.875; -691.000; -454.000
444.640; -113.500; -268.000; -111.000
444.763;  -42.325;  388.000;  249.000
444.885; -139.900; -432.000; -392.000
445.007;  -54.525;   35.000;   86.000
445.129; -135.000; -610.000; -515.000
445.251; -124.400; -372.000; -439.000
445.373; -150.350; -537.000; -386.000
445.495;   -7.150;  242.000;  350.000
445.617;   30.725;  853.000;  753.000
445.739;  -86.300; -215.000;  -97.000
445.861;  -87.275; -245.000; -112.000
445.984;  -87.600; -267.000; -101.000
446.105; -111.900; -418.000; -251.000
446.227;  -75.050; -176.000;  -19.000
446.349; -126.625; -358.000; -249.000
446.471; -130.150; -615.000; -448.000
446.593; -108.825; -316.000;   19.000
446.715;  -66.650;  -67.000;   41.000
446.837;   14.625;  697.000;  832.000
446.959; -116.725; -457.000; -478.000
447.081; -139.500; -628.000; -518.000
447.203;   34.750;  862.000;  834.000
447.325; -100.675; -270.000;   42.000
447.446;  -20.125;  286.000;  530.000
447.568; -179.950; -921.000; -803.000
447.690; -118.800; -236.000; -245.000
447.812; -168.550; -798.000; -519.000
447.933;  -53.675;  155.000;  127.000
448.055;  -99.050; -306.000; -261.000
448.177;  -47.375;   31.000;   79.000
448.299; -195.550; -935.000; -727.000
448.420;  -39.525;  -25.000;  159.000
448.542;  -74.800;   -3.000;   33.000
448.664;  -37.100;  109.000;  322.000
448.785;  -44.925;  265.000;   83.000
448.907; -113.800; -614.000; -353.000
449.028; -148.300; -771.000; -471.000
449.150;    6.725;  492.000;  589.000
449.272; -195.550;-1044.000; -913.000
449.393;    4.850;  612.000;  694.000
449.515; -157.700; -634.000; -581.000
449.636;  -76.725; -264.000; -155.000
449.758;   22.025;  763.000;  622.000
449.879; -126.200; -498.000; -396.000
450.001;  -97.425; -149.000;  -49.000
450.122;  -50.600;  -95.000;  162.000
450.244;  -61.775;   37.000;  364.000
450.365; -127.250; -495.000; -301.000
450.486;  -73.000;   80.000;  268.000
450.608;  -36.400;  393.000;  326.000
450.729;   -1.925;  578.000;  645.000
450.850; -136.650; -574.000; -466.000
450.972; -171.250; -552.000; -389.000
451.093;  -25.050;  190.000;  588.000
451.214; -121.450; -516.000; -337.000
451.336;    0.225;  773.000;  579.000
451.457;  -40.525;  264.000;  393.000
451.578;  -75.675; -118.000;  -74.000
451.699; -137.225; -546.000; -540.000
451.821;  -94.325; -284.000;  -50.000
451.942;  -43.975;  278.000;  285.000
452.063;  -28.125;  228.000;  419.000
452.184;  -88.000;  -54.000;  -49.000
452.305;  -42.650;  103.000;  170.000
452.427; -137.150; -549.000; -301.000
452.548;  -77.025;   23.000;   79.000
452.669; -103.675; -257.000;  -89.000
452.790;  -81.100;    3.000;  -18.000
452.911;  -47.000;  195.000;  259.000
453.032;  -92.650; -289.000;  -60.000
453.153;  -78.875;  -29.000;   81.000
453.274;   36.400;  737.000;  868.000
453.395;  -76.450;  -51.000;  175.000
453.516;   75.425; 1317.000; 1388.000
453.637; -113.175; -205.000; -150.000
453.758;  -59.050;   15.000;   69.000
453.879; -130.325; -462.000; -250.000
454.000;   57.750; 1086.000;  948.000
454.121; -147.250; -554.000; -326.000
454.242; -140.400; -599.000; -383.000
454.362;  -74.775;  -99.000;  114.000
454.483;  -90.975; -309.000; -229.000
454.604;  -13.475;  512.000;  580.000
454.725; -125.875; -627.000; -555.000
454.846; -158.700; -474.000; -406.000
454.967;  -33.300;  230.000;  539.000
455.087;  -55.800;  179.000;  153.000
455.208;   -2.200;  554.000;  856.000
455.329;  -82.950;  -22.000;   82.000
455.450;   -9.475;  473.000;  633.000
455.570;  -99.150; -234.000; -211.000
455.691;  -40.450;  201.000;  407.000
455.812; -118.150; -270.000;  -92.000
455.932;  -70.875;  107.000;  -97.000
456.053;  -82.675;   36.000;   24.000
456.173; -114.075; -433.000; -355.000
456.294; -129.700; -476.000; -303.000
456.415;  -75.275;  -73.000;   70.000
456.535;  -53.475;  297.000;  273.000
456.656;  -48.300;  132.000;  240.000
456.776;  -82.075;    3.000;  298.000
456.897;  -27.200;  308.000;  513.000
457.017; -110.900; -153.000;   -3.000
457.138; -119.600; -402.000; -249.000
457.258;  -49.950;  263.000;  224.000
457.379;  -23.575;  509.000;  521.000
457.499;  -43.000;  443.000;  432.000
457.620; -127.300; -407.000; -231.000
457.740; -104.300; -132.000;  -11.000
457.860;  -62.375;   87.000;   44.000
457.981;  -73.125;  132.000;  124.000
458.101;  -95.600;  -89.000;   40.000
458.221;  -34.575;  336.000;  402.000
458.342;  -68.925;   -4.000;  -37.000
458.462;  -22.700;  617.000;  352.000
458.582; -101.250; -302.000; -294.000
458.703;  -67.800;  303.000;  154.000
458.823;  -77.350;   22.000;  163.000
458.943;  -25.450;  341.000;  467.000
459.063;  -47.275; 1124.000;  192.000
459.183;  -62.925;  328.000;  313.000
459.304;  -16.925;  315.000;  517.000
459.424;  -92.525; -246.000;  -89.000
459.544;   -9.600;  388.000;  764.000
459.664;  -11.375;  499.000;  506.000
459.784;   32.200; 1004.000; 1175.000
459.904;    1.475;  867.000;  744.000
460.024;   32.550;  867.000;  684.000
460.144;  -41.725;  449.000;  554.000
460.264;   -8.175;  515.000;  327.000
460.385; -100.700; -145.000; -119.000
460.505;   15.400;  905.000;  858.000
460.625;  -98.450;  -17.000;  -68.000
460.745;  -36.475;  396.000;  541.000
460.864;  -49.875;  153.000;  469.000
460.984;  -16.775;  499.000;  573.000
461.104;   97.425; 1656.000; 1775.000
461.224;    6.350;  657.000;  650.000
461.344;  -32.350;  431.000;  360.000
461.464;  -37.525;  258.000;  513.000
461.584;  -44.775;  283.000;  466.000
461.704;  -66.600;   58.000;  108.000
461.824;  -66.400;  238.000;  259.000
461.943;  -42.850;  191.000;  130.000
462.063;  -79.825;    2.000;  324.000
462.183;   14.700;  639.000;  717.000
462.303;   70.725; 1678.000; 1230.000
462.422;    4.950;  781.000;  840.000
462.542;  -58.350;  271.000;  391.000
462.662;  -22.500;  353.000;  380.000
462.782;  -21.550;  833.000;  572.000
462.901;   -6.475;  545.000;  717.000
463.021;  101.675; 1702.000; 1638.000
463.141;  -29.350;  337.000;  770.000
463.260;  -27.900;  614.000;  474.000
463.380;    3.350;  902.000;  884.000
463.499;  -26.550;  342.000;  332.000
463.619;  -32.950;  581.000;  559.000
463.738;   87.075; 1644.000;  903.000
463.858;    7.550;  657.000;  811.000
463.978;  -36.550;  542.000;  396.000
464.097;   25.575;  921.000; 1114.000
464.217;   38.950; 1196.000; 1143.000
464.336;   55.225; 1068.000; 1130.000
464.455;  -61.600;  328.000;  659.000
464.575;  -15.400;  597.000;  602.000
464.694;   56.850; 1204.000; 1179.000
464.814;   15.875; 1190.000; 1138.000
464.933;   38.950; 1095.000; 1027.000
465.052;   62.450; 1412.000; 1054.000
465.172;   -0.925;  922.000;  799.000
465.291;   80.100; 1376.000; 1320.000
465.410;   -0.175;  462.000;  735.000
465.530;   66.300; 1355.000; 1310.000
465.649;   46.200; 1209.000; 1273.000
465.768;  107.525; 1673.000; 1508.000
465.888;   30.800;  941.000; 1174.000
466.007;   91.800; 1335.000; 1440.000
466.126;    2.725;  721.000;  641.000
466.245;   32.125; 1176.000; 1187.000
466.364;   -1.600;  950.000; 1060.000
466.484;   36.875; 1024.000; 1213.000
466.603;   35.225; 1101.000; 1222.000
466.722;   83.025; 1490.000; 1769.000
466.841;   51.825; 1151.000; 1401.000
466.960;   23.900; 1069.000;  972.000
467.079;  117.350; 1971.000; 1786.000
467.198;   45.225; 1238.000; 1181.000
467.317;   66.100; 1768.000; 1162.000
467.436;   61.150; 1709.000; 1261.000
467.555;  113.925; 1796.000; 1746.000
467.674;   76.175; 1227.000; 1329.000
467.793;   45.075; 1376.000; 1374.000
467.912;   82.425; 1658.000; 1539.000
468.031;  124.950; 2038.000; 1930.000
468.150;  130.400; 1842.000; 1837.000
468.269;  160.375; 2313.000; 2090.000
468.388;  179.625; 2168.000; 2339.000
468.507;  223.175; 2884.000; 2903.000
468.626;  206.825; 2555.000; 2541.000
468.744;  137.875; 2018.000; 2174.000
468.863;  193.050; 2312.000; 2523.000
468.982;   84.475; 1503.000; 1555.000
469.101;  215.675; 2788.000; 2692.000
469.220;  146.375; 2333.000; 2176.000
469.338;  249.600; 2935.000; 3051.000
469.457;  173.525; 2719.000; 2545.000
469.576;  320.850; 3953.000; 3784.000
469.695;  207.000; 2877.000; 3066.000
469.813;  407.875; 4148.000; 4192.000
469.932;  362.325; 4255.000; 4485.000
470.051;  343.075; 4075.000; 4161.000
470.169;  382.275; 4470.000; 4338.000
470.288;  422.750; 4700.000; 4809.000
470.406;  440.450; 5059.000; 5194.000
470.525;  555.175; 6101.000; 5787.000
470.644;  628.050; 6847.000; 6794.000
470.762;  796.400; 8397.000; 7873.000
470.881;  820.975; 8651.000; 8464.000
470.999;  952.200; 9685.000; 9151.000
471.118; 1062.900;11174.000;10711.000

