
Integration time [ms]: 100.000
Averaging Nr. [scans]: 40
Smoothing Nr. [pixels]: 0
Data measured with spectrometer [name]: 2101012U2
Wave   ;Sample   ;Dark     ;Reference
[nm]   ;[counts] ;[counts] ;[counts] 

197.733;   47.900;  516.000;  404.000
197.879;  -78.800; -610.000; -634.000
198.025;  -59.275; -475.000; -420.000
198.171;  -70.650; -602.000; -612.000
198.317;  -30.925; -401.000; -316.000
198.463;  -57.400; -655.000; -404.000
198.609;    5.175;  181.000; -137.000
198.755;  -68.200; -644.000; -410.000
198.901;  -62.375; -505.000; -424.000
199.047;  -73.450; -615.000; -488.000
199.193;  -37.900; -230.000; -468.000
199.339;  -45.025; -222.000; -369.000
199.485;   32.825;  330.000;  271.000
199.631;   11.850;  227.000;  310.000
199.777;  -46.025; -466.000; -398.000
199.923;  -59.125; -610.000; -424.000
200.069;   -3.400; -141.000;  -58.000
200.215;   52.400;  128.000;  453.000
200.361;   45.825;  243.000;  477.000
200.507;  -62.675; -600.000; -373.000
200.653;  -29.575; -371.000; -194.000
200.798;  -39.575; -215.000; -125.000
200.944;    1.300; -146.000;  -41.000
201.090;   46.625;   61.000;  222.000
201.236;  -10.975; -116.000; -158.000
201.382;  125.600;  874.000;  903.000
201.528;    1.525;  -58.000;  -48.000
201.674;  -60.125; -386.000; -293.000
201.819;  -70.475; -540.000; -439.000
201.965;  -83.575; -699.000; -447.000
202.111;  -13.625; -273.000; -226.000
202.257;  -46.425; -250.000; -238.000
202.402;    1.450;   13.000;  -36.000
202.548;  -30.650; -169.000; -116.000
202.694;   87.025;  410.000; -183.000
202.840;  -72.300; -603.000; -531.000
202.985;  -72.550; -681.000; -639.000
203.131; -107.050; -832.000; -666.000
203.277;  -24.600; -199.000; -262.000
203.423;  -54.125; -434.000; -520.000
203.568;  -37.600; -462.000; -237.000
203.714;  -64.725; -535.000; -542.000
203.860;  -74.125; -682.000; -641.000
204.005;    7.050;  112.000;  167.000
204.151;   73.425;  561.000;  556.000
204.296;  -45.900; -354.000; -221.000
204.442;  -79.650; -600.000; -547.000
204.588;  -70.850; -592.000; -579.000
204.733;    1.100;  178.000;  168.000
204.879; -130.400;-1018.000; -822.000
205.025;   -2.175;  -99.000;  126.000
205.170;  -12.050;  -17.000;   94.000
205.316;   70.750;  438.000;  661.000
205.461;  -83.150; -698.000; -554.000
205.607;   77.225;  609.000;  665.000
205.752;  -88.175; -626.000; -551.000
205.898;  -57.900; -501.000; -391.000
206.043;  -58.200; -578.000; -506.000
206.189;  -38.400; -243.000; -285.000
206.334;   70.225;  554.000;  606.000
206.480;   64.500;  409.000;  239.000
206.625;  -74.025; -529.000; -552.000
206.771;  -54.300; -451.000; -373.000
206.916;  -43.775; -210.000; -537.000
207.062;  -63.700; -545.000; -591.000
207.207;  -61.150; -546.000; -443.000
207.353;   57.100;  185.000;  460.000
207.498;    1.425;  196.000;   85.000
207.643;  -45.850; -501.000; -370.000
207.789; -128.725;-1069.000; -910.000
207.934; -101.950; -665.000; -713.000
208.080;  -25.400; -154.000;   66.000
208.225;   -9.875;  -22.000;  -57.000
208.370;  -87.100; -727.000; -619.000
208.516;  -76.450; -741.000; -487.000
208.661;  -32.075; -127.000;  -69.000
208.806;  -16.625; -165.000; -171.000
208.952; -135.675;-1044.000; -731.000
209.097;   79.350;  378.000;  349.000
209.242;  -57.025; -307.000; -382.000
209.387;   70.375;  392.000;  350.000
209.533;  -58.575; -321.000; -350.000
209.678;   70.900;  472.000;  543.000
209.823;  -44.725; -408.000; -310.000
209.969; -101.825; -860.000; -757.000
210.114;  -95.675; -907.000; -719.000
210.259; -107.075; -939.000; -889.000
210.404;  -15.250; -171.000;  103.000
210.549;   -0.425;  108.000;    3.000
210.695;  -15.425;   -3.000;  -95.000
210.840;   38.450;   94.000;   67.000
210.985;  -75.225; -484.000; -303.000
211.130;   54.525;  268.000;  406.000
211.275;   21.250;  207.000;  199.000
211.420;  -47.750; -300.000; -289.000
211.566;  -64.700; -536.000; -489.000
211.711;    9.400;  218.000;  157.000
211.856;  -74.600; -545.000; -519.000
212.001;    1.625;  151.000;   44.000
212.146;   31.675;  153.000;   49.000
212.291;  -38.875; -210.000; -186.000
212.436;  -30.350; -280.000;   -6.000
212.581;  -77.250; -685.000; -653.000
212.726;  -70.875; -487.000; -538.000
212.871;  -58.775; -552.000; -217.000
213.016; -143.500;-1172.000;-1029.000
213.161;   56.800;  406.000;  291.000
213.306;  -79.525; -435.000; -577.000
213.451;  -96.600; -778.000; -689.000
213.596;  -36.075; -455.000; -347.000
213.741;  -61.350; -448.000; -538.000
213.886;  -71.400; -498.000; -517.000
214.031;  -26.750; -294.000; -124.000
214.176;  -57.450; -408.000; -341.000
214.321;   -9.400; -296.000; -157.000
214.466;   -9.100; -163.000;  -43.000
214.611;   -5.375;  -61.000;  -10.000
214.756; -127.275; -948.000; -858.000
214.901;  -25.700; -388.000; -226.000
215.046; -133.300; -797.000; -825.000
215.191;    7.675;  128.000;   35.000
215.336;  -19.725; -157.000;  -19.000
215.480;  -65.375; -684.000; -505.000
215.625;  -18.825; -175.000;  -19.000
215.770;  -82.275; -757.000; -662.000
215.915;   -6.150;   -5.000;  -97.000
216.060;  -16.725; -113.000;  -21.000
216.205; -108.100; -731.000; -779.000
216.349;  -69.675; -470.000; -533.000
216.494; -136.200; -939.000; -867.000
216.639; -111.000; -823.000; -888.000
216.784;  -91.425; -577.000; -525.000
216.929;   45.925;  392.000;  281.000
217.073;  -13.150; -244.000;  -31.000
217.218;   -0.275;   78.000;  -47.000
217.363;  -83.350; -656.000; -618.000
217.507;  -83.300; -623.000; -588.000
217.652; -117.100; -845.000; -874.000
217.797;  -88.225; -708.000; -659.000
217.942; -113.125; -856.000; -720.000
218.086;   77.450;  608.000;  539.000
218.231;  -17.475; -174.000;  -26.000
218.376;  -46.100; -337.000; -229.000
218.520;   -9.475;  -41.000;   96.000
218.665;  -35.875; -338.000; -204.000
218.810;  -39.800; -275.000; -233.000
218.954;   13.250;  201.000;   35.000
219.099; -106.325; -713.000; -963.000
219.243;  -61.250; -589.000; -554.000
219.388;  -38.775; -264.000; -136.000
219.532;  -14.025; -116.000; -116.000
219.677;  -85.275; -564.000; -521.000
219.822;   -5.200;   33.000;   89.000
219.966;   24.350;   17.000;  -99.000
220.111;  -33.375; -328.000;  -40.000
220.255; -109.300; -797.000; -750.000
220.400;  -12.500; -180.000; -146.000
220.544;  -73.525; -516.000; -450.000
220.689;  -55.050; -422.000; -451.000
220.833;  -16.775; -123.000;  -58.000
220.978;  -51.325; -393.000; -563.000
221.122;   13.125;  319.000;  307.000
221.267; -125.950; -906.000; -837.000
221.411;  -76.250; -478.000; -394.000
221.555;  -12.225; -104.000;  -23.000
221.700;  -46.925; -329.000; -222.000
221.844;   27.850;  255.000;  272.000
221.989;  -54.200; -328.000; -311.000
222.133;  -30.625; -289.000; -307.000
222.277;  -10.950;    5.000;   78.000
222.422;   19.500;  227.000;  113.000
222.566;  -42.275; -381.000; -214.000
222.711;  -50.100; -414.000; -479.000
222.855;  -85.475; -643.000; -586.000
222.999;  -84.375; -642.000; -717.000
223.144;  -25.325; -195.000; -194.000
223.288;   49.450;  423.000;  251.000
223.432;   36.300;  184.000;  230.000
223.576;   13.250;  152.000;  -21.000
223.721;   22.050;  364.000;  273.000
223.865;  -64.150; -472.000; -475.000
224.009;  204.875; 1673.000; 1631.000
224.153;  -86.050; -660.000; -671.000
224.298;  -78.175; -531.000; -489.000
224.442;  -11.275;  -74.000;  -33.000
224.586;   -3.125; -169.000; -106.000
224.730;  -99.150; -858.000; -670.000
224.875; -104.475; -739.000; -688.000
225.019;    1.200;  102.000;  188.000
225.163;   52.125;  208.000;  341.000
225.307;   19.600;   97.000;  -91.000
225.451;   38.200;  360.000;  481.000
225.595;   20.850;  264.000;  176.000
225.739;  -16.100; -170.000;  -94.000
225.884;    7.450;   86.000;    5.000
226.028;  -98.475; -760.000; -626.000
226.172;  -41.950; -260.000; -273.000
226.316; -130.725; -941.000; -902.000
226.460;  -71.725; -645.000; -493.000
226.604;  -48.975; -406.000; -400.000
226.748; -104.075; -836.000; -733.000
226.892;  -30.150; -227.000; -181.000
227.036;  -52.950; -537.000; -447.000
227.180;  -61.325; -551.000; -375.000
227.324;  -52.950; -561.000; -580.000
227.468; -104.325; -819.000; -717.000
227.612;    8.100;  242.000;  -28.000
227.756; -102.475; -845.000; -698.000
227.900;   53.425;  342.000;  441.000
228.044;  -66.700; -509.000; -290.000
228.188;   51.525;  448.000;  568.000
228.332;  -84.025; -546.000; -472.000
228.476;  -22.025; -223.000; -149.000
228.620;  -35.350; -210.000; -150.000
228.764;   66.675;  431.000;  349.000
228.908;  -25.800; -155.000;   30.000
229.052;  -57.900; -615.000; -528.000
229.195;  -26.625; -172.000;   13.000
229.339;  -45.000; -235.000; -305.000
229.483;  -23.475;    5.000; -162.000
229.627;   -1.550; -156.000;  139.000
229.771;  -51.775; -218.000; -294.000
229.915;   12.750;  230.000;   79.000
230.059;  -95.225; -648.000; -663.000
230.202;  -33.675; -370.000; -317.000
230.346;  -11.550; -107.000;  107.000
230.490;  -74.350; -489.000; -521.000
230.634; -106.325; -736.000; -553.000
230.777;   77.225;  478.000;  509.000
230.921;  -48.725; -450.000; -359.000
231.065;  -40.100; -246.000; -286.000
231.209;   18.550;  261.000;  265.000
231.352;   18.400;   54.000;   40.000
231.496;    5.100;  568.000;  188.000
231.640;  -84.175; -693.000; -621.000
231.783;   60.425;  546.000;  525.000
231.927;  -41.850; -294.000; -365.000
232.071; -124.775; -962.000; -736.000
232.214; -116.300; -980.000; -764.000
232.358;  -97.850; -683.000; -599.000
232.502;    5.850;  -19.000;    7.000
232.645; -135.825;-1090.000; -927.000
232.789;  -28.675; -257.000; -218.000
232.933;  -50.025; -407.000; -224.000
233.076; -125.675;-1038.000; -897.000
233.220;  -98.875; -752.000; -777.000
233.363;  -82.150; -669.000; -477.000
233.507;   49.300;  371.000;  129.000
233.650; -102.625; -764.000; -834.000
233.794;   29.950;  438.000;  461.000
233.938;  -56.975; -530.000; -362.000
234.081;  -25.775;  -93.000;   31.000
234.225;  -60.325; -631.000; -539.000
234.368; -106.625; -773.000; -723.000
234.512;  -41.125; -385.000; -299.000
234.655;  -94.700; -582.000; -555.000
234.798;  -65.475; -493.000; -466.000
234.942; -130.475; -884.000;-1002.000
235.085;  -85.850; -651.000; -443.000
235.229;  -69.000; -405.000; -410.000
235.372;  -56.225; -247.000; -191.000
235.516;  -61.400; -397.000; -321.000
235.659;   22.025;   92.000;  121.000
235.802;  -18.075;  -38.000;  -22.000
235.946;   23.625;  335.000;  215.000
236.089;   31.325;  126.000;  250.000
236.233;   43.350;  275.000;  298.000
236.376;  -49.950; -235.000; -378.000
236.519;  -49.075; -297.000; -319.000
236.663;  -21.575; -215.000; -117.000
236.806; -134.450;-1029.000; -999.000
236.949;   38.350;  543.000;  431.000
237.092;   63.625;  412.000;  391.000
237.236;  -90.600; -589.000; -502.000
237.379;   54.125;  352.000;  428.000
237.522; -122.700; -879.000; -768.000
237.666;  -26.300; -271.000;   18.000
237.809; -126.025; -851.000; -823.000
237.952;   28.100;  469.000;  271.000
238.095;  -75.400; -447.000; -442.000
238.238;   73.950;  688.000;  700.000
238.382;   -8.575;  166.000;  103.000
238.525;  -68.750; -598.000; -511.000
238.668; -145.500;-1060.000; -985.000
238.811;  -88.525; -638.000; -643.000
238.954;  -53.300; -483.000; -334.000
239.097;   78.475;  617.000;  664.000
239.241;   31.000;  394.000;  326.000
239.384;  -34.925; -254.000; -214.000
239.527;  -68.825; -424.000; -224.000
239.670; -144.700; -994.000;-1091.000
239.813; -113.375; -696.000; -658.000
239.956;   84.000;  579.000;  473.000
240.099; -121.425; -778.000; -725.000
240.242;   50.500;  428.000;  432.000
240.385;   30.600;  466.000;  450.000
240.528;  -68.475; -706.000; -473.000
240.671;    3.525;  189.000;  134.000
240.814;  -51.000; -441.000; -158.000
240.957; -100.250; -767.000; -578.000
241.100;  -88.150; -779.000; -755.000
241.243; -143.150;-1234.000; -893.000
241.386;  -74.375; -508.000; -379.000
241.529;  -88.825; -735.000; -547.000
241.672;  -67.550; -566.000; -495.000
241.815; -105.700; -832.000; -808.000
241.958;  -33.150; -125.000; -182.000
242.101;  -88.150; -545.000; -390.000
242.244;  -46.875; -270.000; -325.000
242.387;  -47.825; -304.000; -246.000
242.530;   48.475;  470.000;  134.000
242.673;  -44.650; -381.000; -309.000
242.815; -114.800; -925.000; -899.000
242.958;  -74.500; -482.000; -381.000
243.101;   -0.375;  132.000;  187.000
243.244;  -84.625; -564.000; -521.000
243.387;  -43.625; -313.000; -316.000
243.530;  -98.150; -657.000; -674.000
243.672;  -13.650;   43.000;  -92.000
243.815;  -44.275; -355.000; -283.000
243.958;   -4.700;   98.000;  -26.000
244.101;   -1.675;   59.000;  -16.000
244.243;  -18.375;  -47.000;  101.000
244.386; -113.500; -761.000; -630.000
244.529;  -23.925; -132.000; -139.000
244.672; -166.325;-1154.000; -951.000
244.814; -105.650; -621.000; -794.000
244.957;  -47.125; -380.000; -304.000
245.100;  -67.725; -489.000; -489.000
245.242;  -65.500; -387.000; -374.000
245.385;  -11.025;  -59.000;  -39.000
245.528; -118.425; -871.000; -705.000
245.670;   76.475;  612.000;  634.000
245.813;  -83.125; -599.000; -547.000
245.956;  -35.925; -324.000; -275.000
246.098;  -67.925; -508.000; -650.000
246.241;    4.075;  194.000;   48.000
246.383;  -18.625; -119.000;  -73.000
246.526;  -70.475; -454.000; -525.000
246.669; -118.575; -889.000; -780.000
246.811;    7.575;  172.000;   -1.000
246.954;  -81.800; -512.000; -426.000
247.096;  -29.250;  -84.000;   -6.000
247.239;  -75.175; -482.000; -445.000
247.381;  -66.550; -647.000; -488.000
247.524;   75.400;  645.000;  679.000
247.666;  -14.850;   58.000;   11.000
247.809; -118.250; -887.000; -691.000
247.951;  -16.000;  -75.000;  138.000
248.094;   23.200;  432.000;  308.000
248.236; -149.050;-1262.000;-1238.000
248.378;    0.650; -356.000;  -81.000
248.521;  -19.000; -334.000; -337.000
248.663;  -53.450; -236.000; -267.000
248.806;  -27.525; -300.000; -266.000
248.948;  -70.000; -886.000; -763.000
249.090;  -44.050; -428.000; -398.000
249.233;  -60.100; -344.000; -381.000
249.375;  -61.550; -474.000; -451.000
249.518;  -30.100;  -83.000; -133.000
249.660;    3.300; -103.000;    3.000
249.802; -162.200;-1303.000;-1189.000
249.945;  -66.800; -612.000; -540.000
250.087; -113.675; -834.000; -768.000
250.229;  -47.875; -362.000; -480.000
250.371;  -79.900; -494.000; -439.000
250.514;  -60.600; -310.000; -244.000
250.656;   -8.050;   69.000;  102.000
250.798; -123.075; -849.000; -800.000
250.940;  -64.650; -322.000; -322.000
251.083;  -31.400; -335.000; -111.000
251.225;   57.800;  338.000;  310.000
251.367;  -35.250; -274.000; -373.000
251.509;  -36.650; -265.000; -210.000
251.651;  -97.550; -731.000; -671.000
251.794;   61.150;  538.000;  632.000
251.936;  -98.225; -821.000; -747.000
252.078;  -78.350; -540.000; -461.000
252.220;  -62.500; -645.000; -477.000
252.362;   90.725;  344.000;  462.000
252.504;  -65.800; -677.000; -584.000
252.646; -124.450; -875.000; -722.000
252.788;   -1.150;   14.000; -128.000
252.931;  -33.850; -257.000; -253.000
253.073;  -48.450; -376.000; -317.000
253.215;   -5.175;  141.000;  122.000
253.357;  -25.775;   82.000; -153.000
253.499;  -36.650; -374.000; -234.000
253.641;  -90.725; -749.000; -594.000
253.783;  -89.225; -609.000; -527.000
253.925;  -90.425; -586.000; -591.000
254.067; -105.600; -744.000; -667.000
254.209;  -33.400; -391.000; -259.000
254.351; -135.275; -865.000; -883.000
254.493;  -62.700; -441.000; -417.000
254.635; -104.450; -936.000; -818.000
254.777;  -78.600; -752.000; -687.000
254.918;  -68.150; -512.000; -430.000
255.060;  -55.575; -551.000; -395.000
255.202;  -64.400; -473.000; -261.000
255.344;  -88.050; -658.000; -455.000
255.486;  -78.700; -471.000; -406.000
255.628; -102.200; -780.000; -781.000
255.770;  -85.100; -676.000; -536.000
255.912;  -72.175; -559.000; -468.000
256.053; -106.000; -730.000; -508.000
256.195;  148.800; 1008.000;  903.000
256.337; -106.075; -861.000; -595.000
256.479;   61.875;  532.000;  416.000
256.621;  -62.050; -394.000; -212.000
256.762;  -91.250; -789.000; -742.000
256.904;   45.500;  485.000;  487.000
257.046;  -41.325; -381.000; -271.000
257.188;  -53.725; -351.000; -264.000
257.329;  -75.975; -525.000; -464.000
257.471; -109.100; -939.000; -807.000
257.613;  -60.100; -584.000; -498.000
257.755; -143.550;-1073.000; -982.000
257.896;   19.225;  286.000;  392.000
258.038;  -66.650; -403.000; -352.000
258.180;  -41.825; -354.000; -279.000
258.321;  -84.650; -581.000; -457.000
258.463;   -4.050;  -71.000;  133.000
258.605;  -87.625; -562.000; -570.000
258.746;  -92.700; -886.000; -772.000
258.888; -149.900;-1026.000;-1020.000
259.029;    9.625;  121.000;   -8.000
259.171;  -98.300; -614.000; -550.000
259.313;  -18.600;  -49.000;  -47.000
259.454;  -76.300; -536.000; -414.000
259.596;  -64.275; -483.000; -390.000
259.737;  -57.650; -590.000; -474.000
259.879;   30.025;  217.000;  311.000
260.020;   89.675;  901.000;  636.000
260.162;  -39.925; -146.000; -253.000
260.303; -120.425; -768.000; -687.000
260.445;  -76.975; -609.000; -613.000
260.586;   14.575;  392.000;  157.000
260.728;  -38.125; -360.000; -248.000
260.869; -125.825; -350.000; -343.000
261.011;   77.775;  706.000;  537.000
261.152;  -38.450; -479.000; -319.000
261.293;  -80.725; -576.000; -595.000
261.435;  -34.475; -219.000; -184.000
261.576;  -59.300; -455.000; -325.000
261.718;   56.900;  420.000;  470.000
261.859; -102.950; -940.000; -949.000
262.000; -133.700; -951.000;-1016.000
262.142;  -14.750;  -52.000;  -60.000
262.283; -114.700; -808.000; -691.000
262.424;  -91.400; -666.000; -625.000
262.566; -151.675;-1161.000; -983.000
262.707; -112.025; -840.000; -830.000
262.848; -124.350; -769.000; -726.000
262.990;  -43.375; -362.000; -345.000
263.131;   64.200;  650.000;  681.000
263.272;  -14.625;  -61.000;  -41.000
263.413;  -94.600; -589.000; -561.000
263.555;  -76.300; -669.000; -143.000
263.696;  -86.850; -550.000; -641.000
263.837;  -57.350; -449.000; -551.000
263.978;  -12.600;   -5.000;  -77.000
264.119;  -50.850; -283.000; -264.000
264.261; -107.825; -847.000; -630.000
264.402;   -3.500;   33.000;   40.000
264.543;  -78.350; -509.000; -524.000
264.684;   -1.200;   61.000;  -50.000
264.825;  -85.325; -816.000; -538.000
264.966;  -10.775;  -84.000;  -67.000
265.107; -113.450; -646.000; -670.000
265.248; -122.000; -825.000; -812.000
265.390;  -18.100;  152.000;   -9.000
265.531;  -23.250; -238.000; -107.000
265.672;  -73.025; -557.000; -630.000
265.813;   62.125;  563.000;  439.000
265.954; -150.350; -959.000; -940.000
266.095;  -16.050; -372.000; -322.000
266.236;  -84.225; -686.000; -548.000
266.377;  -47.175; -243.000; -297.000
266.518;  -77.975; -619.000; -547.000
266.659;   26.350;  170.000;  268.000
266.800;    2.175;   83.000;   85.000
266.941;  -68.150; -487.000; -478.000
267.082;    1.850;  354.000;   99.000
267.223;  -64.700; -344.000; -273.000
267.364; -102.075; -892.000; -686.000
267.504;  -19.500;    3.000;  135.000
267.645;   -5.800;  160.000;   67.000
267.786;  -30.125; -147.000;  -86.000
267.927;  -78.925; -473.000; -379.000
268.068;  -25.475; -186.000;  -61.000
268.209;  -35.450; -175.000; -413.000
268.350;  -43.325; -388.000; -532.000
268.490;  -87.675; -648.000; -521.000
268.631;   19.200;  127.000;  225.000
268.772; -115.025; -874.000; -647.000
268.913;  -44.575; -328.000; -476.000
269.054;  -23.850; -117.000;   12.000
269.194;  -40.375; -418.000; -402.000
269.335; -163.300;-1137.000;-1074.000
269.476;  -31.125;   33.000;  -35.000
269.617;  -53.425; -347.000; -392.000
269.757;  -86.075; -713.000; -646.000
269.898; -101.750; -856.000; -613.000
270.039;  -52.925; -415.000; -405.000
270.180; -136.800; -952.000; -816.000
270.320;  -31.125; -190.000; -250.000
270.461;  -45.975; -277.000; -249.000
270.602;  -12.000; -186.000; -156.000
270.742; -116.150; -868.000; -943.000
270.883;  -64.900; -442.000; -390.000
271.023;  -53.275; -358.000; -357.000
271.164;  -68.025; -607.000; -528.000
271.305; -109.425; -666.000; -654.000
271.445;  -84.400; -722.000; -683.000
271.586;  -69.500; -462.000; -283.000
271.726;  -51.250; -397.000; -322.000
271.867;  -47.550; -594.000; -534.000
272.008;  217.700; -473.000; -285.000
272.148;  150.100;  462.000;  468.000
272.289;   11.900; -113.000; -181.000
272.429;   12.225;   19.000;  185.000
272.570;  -77.575; -633.000; -737.000
272.710;  -96.000; -825.000; -775.000
272.851;  -18.225;  113.000; -130.000
272.991; -158.125;-1173.000;-1077.000
273.131;  -63.300; -419.000; -459.000
273.272;  -95.725; -683.000; -723.000
273.412;   22.525; -143.000;  -31.000
273.553;  -36.500; -488.000; -507.000
273.693;  141.300;  913.000;  858.000
273.834;  -69.025; -894.000; -692.000
273.974;  -74.475; -664.000; -615.000
274.114;  -88.325; -772.000; -560.000
274.255;   84.425;  414.000;  373.000
274.395;    7.525; -180.000; -125.000
274.535;   44.225;  199.000;  350.000
274.676;   20.575;  225.000;   94.000
274.816;   12.825;  110.000;   34.000
274.956;  -67.900; -624.000; -690.000
275.097;  -46.250;-1014.000; -922.000
275.237; -101.850; -913.000; -803.000
275.377; -105.000; -778.000; -689.000
275.517; -141.125; -878.000; -937.000
275.658;  -59.275; -590.000; -555.000
275.798;  -62.500; -606.000; -413.000
275.938;   11.800;  215.000;  323.000
276.078; -110.600; -626.000; -395.000
276.218;    0.850;   99.000;  104.000
276.359; -120.000;-1026.000;-1024.000
276.499;  -65.750; -605.000; -446.000
276.639;  -31.250; -305.000; -151.000
276.779;  -49.925; -475.000; -357.000
276.919;  -96.350; -783.000; -624.000
277.059;  -27.525; -261.000; -212.000
277.199;  -40.125; -357.000; -259.000
277.340;   66.050;  287.000;  175.000
277.480; -104.850; -840.000; -693.000
277.620;   35.250;  192.000;   16.000
277.760; -193.350;-1533.000;-1294.000
277.900;   27.550;  113.000;   33.000
278.040;   28.275;  137.000;  159.000
278.180;   36.825;  270.000;  170.000
278.320;  -12.375;   21.000;   56.000
278.460;  -75.750; -443.000; -469.000
278.600; -103.525; -708.000; -598.000
278.740;   50.175;  448.000;  224.000
278.880;  -12.350; -768.000; -791.000
279.020;   -2.175; -194.000; -144.000
279.160;  -88.625; -672.000; -595.000
279.300; -125.650; -926.000; -873.000
279.440;  -74.000; -709.000; -622.000
279.579;   -4.100;-1014.000; -929.000
279.719;  -47.700; -410.000; -394.000
279.859;   74.075;   -4.000;   41.000
279.999;   30.050; -208.000;  101.000
280.139;  -15.225; -435.000; -387.000
280.279;  -67.800; -708.000; -745.000
280.419;  -14.150; -229.000; -147.000
280.559;  -35.575; -259.000; -180.000
280.698;  -71.825; -790.000; -639.000
280.838;  -70.450; -778.000; -800.000
280.978; -109.250; -846.000; -790.000
281.118; -114.575; -811.000; -704.000
281.257;    2.125;   24.000;    6.000
281.397;  -90.575;-1094.000; -960.000
281.537;  -69.125; -599.000; -712.000
281.677;  -20.750; -150.000; -101.000
281.816;  -87.850; -700.000; -630.000
281.956;  -33.900; -193.000; -257.000
282.096;  -56.650; -539.000; -396.000
282.235; -105.600; -672.000; -638.000
282.375;  -13.000; -243.000;  -98.000
282.515;  -93.525; -715.000; -707.000
282.654;   42.925;   29.000;  106.000
282.794;   24.850;  388.000;  244.000
282.934;  -51.875; -530.000; -491.000
283.073; -132.300;-1030.000; -857.000
283.213;  -52.625; -460.000; -467.000
283.353;  -11.325; -408.000; -349.000
283.492;  -30.350; -264.000; -296.000
283.632;  -45.900; -254.000; -168.000
283.771;  -96.575; -859.000; -730.000
283.911;  -36.900; -369.000; -260.000
284.050; -107.675; -794.000; -748.000
284.190; -163.350;-1229.000;-1096.000
284.329; -134.875;-1055.000; -964.000
284.469;  -46.825; -516.000; -591.000
284.608;  -56.750; -559.000; -598.000
284.748;  -89.775; -614.000; -570.000
284.887;   -3.975;  -87.000;  -20.000
285.027; -125.075; -844.000; -892.000
285.166;  -20.050; -192.000; -249.000
285.306;   25.600; -116.000;  -33.000
285.445;  -36.600; -229.000; -343.000
285.584; -101.675; -630.000; -494.000
285.724;  -48.975; -282.000; -322.000
285.863; -111.550; -857.000; -507.000
286.002;  -63.250; -366.000; -276.000
286.142; -112.025; -715.000; -622.000
286.281;  -68.225; -525.000; -493.000
286.420;  -66.800; -554.000; -417.000
286.560;   93.100;  653.000;  623.000
286.699; -135.675; -958.000; -912.000
286.838;  -79.550; -590.000; -591.000
286.978;  -81.050; -533.000; -537.000
287.117; -130.425;-1085.000; -950.000
287.256;  -45.775; -228.000; -211.000
287.395;  -44.775; -197.000; -378.000
287.535;  -44.650; -370.000; -298.000
287.674;  -75.800; -509.000; -484.000
287.813;   54.550;  661.000;  533.000
287.952; -137.150;-1010.000; -871.000
288.091; -150.475;-1049.000; -915.000
288.231;   14.875;   13.000;   15.000
288.370; -162.075;-1217.000;-1200.000
288.509;  -92.825; -728.000; -645.000
288.648;  -97.275; -770.000; -548.000
288.787;  -47.725; -243.000;  -87.000
288.926;  -46.700; -454.000; -475.000
289.065;  115.825;  859.000;  672.000
289.204;  -35.100; -377.000; -217.000
289.344;  -78.575; -791.000; -690.000
289.483;   31.800;  416.000;  304.000
289.622;  -20.625; -291.000; -149.000
289.761;  -19.600; -309.000; -166.000
289.900;  -98.850; -785.000; -626.000
290.039;   -7.800;  -12.000;  -95.000
290.178;  -23.950; -274.000; -180.000
290.317;  -72.075; -618.000; -479.000
290.456;  -53.425; -463.000; -451.000
290.595; -121.375; -961.000; -833.000
290.734; -124.825; -904.000; -891.000
290.873;  -74.175; -456.000; -420.000
291.011; -104.200; -833.000; -843.000
291.150; -105.025; -770.000; -682.000
291.289;  -25.925; -343.000; -110.000
291.428;  -95.275; -599.000; -480.000
291.567;  -58.800; -370.000; -442.000
291.706;   -3.650;  109.000;  154.000
291.845;  -80.950; -597.000; -505.000
291.984; -168.375;-1234.000;-1061.000
292.122;   77.150;  602.000;  582.000
292.261;   48.775;  620.000;  463.000
292.400;   13.725; -144.000;  211.000
292.539; -119.925; -959.000; -813.000
292.678;  -33.475; -325.000; -300.000
292.816; -147.375;-1136.000; -965.000
292.955;  -72.800; -844.000; -684.000
293.094;  -16.875; -173.000; -337.000
293.233;  -57.750; -556.000; -400.000
293.371;  -37.425; -225.000;  -84.000
293.510;  -98.625; -866.000; -780.000
293.649; -115.425; -959.000; -924.000
293.787;  -29.200;-1083.000;-1012.000
293.926;   -3.800; -113.000;  -32.000
294.065;  -37.325; -379.000; -290.000
294.203;   51.350;  298.000;  406.000
294.342;   20.400;   74.000;  156.000
294.481; 5203.925;51180.000; -836.000
294.619;  -26.375; -425.000; -582.000
294.758; -131.825;-1230.000;-1137.000
294.896;   95.675; -125.000;    5.000
295.035; -114.325;-1040.000;-1006.000
295.174; -105.350;-1082.000; -954.000
295.312;  -27.375; -323.000; -203.000
295.451;    2.050; -307.000; -428.000
295.589;  -39.925; -389.000; -518.000
295.728;   29.650; -292.000; -165.000
295.866;    8.200;  -36.000;  -51.000
296.005;  -55.275; -584.000; -341.000
296.143;  -55.750; -558.000; -596.000
296.282; -103.125; -957.000; -881.000
296.420;  -88.725; -657.000; -557.000
296.559;  -79.350; -892.000; -633.000
296.697;   80.025; -847.000; -665.000
296.835;  145.825;-1141.000;-1002.000
296.974;   59.275;  -23.000;   39.000
297.112;   43.700; -443.000; -504.000
297.251;  -59.950; -815.000; -755.000
297.389;  163.050; -576.000; -438.000
297.527;   55.600; -145.000;  -83.000
297.666;  -40.575; -486.000; -438.000
297.804;  -50.425; -404.000; -264.000
297.942;   -0.550; -136.000; -161.000
298.081;    4.850; -183.000;   63.000
298.219;   89.125;  -17.000;  -19.000
298.357;   89.800; -144.000;  -71.000
298.495;   74.325; -810.000; -812.000
298.634;  116.925;  245.000;  219.000
298.772;  104.575; -220.000; -338.000
298.910;  -27.500; -309.000; -182.000
299.048;   -2.600; -130.000; -153.000
299.187;  -23.050; -350.000; -250.000
299.325;   22.475;   52.000;  122.000
299.463;  102.600; -389.000; -299.000
299.601;  182.300; -327.000; -271.000
299.739;  -88.350; -908.000; -883.000
299.877;  -73.600; -791.000; -703.000
300.016;  -18.125;-1095.000; -935.000
300.154;  213.975;  -19.000; -161.000
300.292;  109.075; -428.000; -348.000
300.430;   68.875; -408.000; -291.000
300.568;  -90.250; -940.000; -874.000
300.706;  -27.475; -366.000; -469.000
300.844;  -38.025;-1108.000; -979.000
300.982;  136.950;  246.000;  282.000
301.120;  -86.925; -965.000; -866.000
301.258;  -47.350; -812.000; -705.000
301.396;   51.100;  104.000;  -41.000
301.534;  145.275; -218.000; -293.000
301.672;   54.550; -664.000; -521.000
301.810;  104.175; -613.000; -545.000
301.948;  149.025;   53.000;  149.000
302.086;  813.675; -250.000;  -32.000
302.224; 1258.525; -610.000; -585.000
302.362;   95.325; -558.000; -622.000
302.500;   44.700; -923.000; -893.000
302.638;  147.800;  128.000;  245.000
302.776;   31.925; -352.000; -408.000
302.913;   53.450;  447.000;  236.000
303.051;   14.575;  -86.000;  -23.000
303.189;   61.775;   90.000;  118.000
303.327;  -30.275; -341.000; -256.000
303.465;  -69.050; -832.000; -588.000
303.603;  -87.925; -805.000; -604.000
303.740;  118.450;  417.000;  241.000
303.878;   66.050; -800.000; -759.000
304.016;  -73.250; -915.000; -790.000
304.154; -111.100;-1123.000;-1152.000
304.291;  -32.225; -505.000; -554.000
304.429;    6.800;  102.000;   74.000
304.567; -102.350; -908.000; -893.000
304.705;  -40.550; -408.000; -515.000
304.842;  139.325; -616.000; -540.000
304.980;   64.700;  215.000;   35.000
305.118;   88.625; -367.000; -365.000
305.255;  -41.950; -945.000; -927.000
305.393;   62.750;  178.000;  239.000
305.531;  -89.525;-1173.000; -956.000
305.668;  -62.325; -663.000; -582.000
305.806;  138.150; -358.000; -439.000
305.943;  160.000; -629.000; -637.000
306.081;   75.425; -378.000; -267.000
306.219; -101.500; -863.000; -748.000
306.356;   15.425;  158.000;   27.000
306.494;  116.325;  981.000;  761.000
306.631;    0.950;  -11.000;  -55.000
306.769;   27.575; -613.000; -485.000
306.906;   -3.150; -284.000; -258.000
307.044;  -52.925; -473.000; -488.000
307.181;  -48.850; -410.000; -332.000
307.319;   11.275;  112.000;   87.000
307.456; -171.700;-1191.000;-1153.000
307.594;  -89.500; -980.000; -727.000
307.731;   -7.025; -371.000; -164.000
307.868;   -3.725;  -15.000;   20.000
308.006; -125.500; -961.000; -847.000
308.143;  -61.525; -618.000; -330.000
308.281;  246.075;  -37.000; -254.000
308.418;   24.300; -748.000; -640.000
308.555;  -48.200; -400.000; -250.000
308.693;  -73.325; -577.000; -573.000
308.830;  -93.750; -712.000; -657.000
308.967;  -18.325; -215.000;  -95.000
309.105;  -29.800; -507.000; -396.000
309.242;   78.700; -468.000; -367.000
309.379;  442.875; -577.000; -655.000
309.517;  -30.750; -936.000; -948.000
309.654;  -93.050; -910.000; -734.000
309.791;  -76.250; -662.000; -580.000
309.928;  -99.475; -977.000; -914.000
310.065;  196.075;  819.000;  697.000
310.203;   46.675; -825.000; -850.000
310.340;   32.175; -465.000; -321.000
310.477;  -69.025; -412.000; -516.000
310.614;  -54.950; -383.000; -473.000
310.751;  -68.900; -427.000; -518.000
310.889;   -7.075;    1.000;   11.000
311.026; -140.500;-1161.000; -939.000
311.163;  -28.950; -386.000; -380.000
311.300;  -71.300; -512.000; -479.000
311.437;  -68.650; -658.000; -619.000
311.574; -137.925;-1226.000; -985.000
311.711;  -60.000; -595.000; -433.000
311.848;  -20.900; -380.000; -388.000
311.985;   19.525;  270.000;   93.000
312.122; -102.125; -932.000; -762.000
312.259; -107.300; -941.000; -994.000
312.396;  -66.950; -508.000; -551.000
312.533;  -65.750; -812.000; -790.000
312.670; -125.300;-1070.000; -898.000
312.807;  -31.875; -352.000; -367.000
312.944;  -89.925; -513.000; -611.000
313.081;  -23.975; -150.000; -415.000
313.218;  -91.125;-1111.000; -867.000
313.355;   26.750; -531.000; -449.000
313.492;   25.850; -455.000; -292.000
313.629;  147.075;  815.000;  735.000
313.766; -142.025;-1176.000;-1008.000
313.902;  -17.800; -186.000;   21.000
314.039;  -39.100; -372.000; -289.000
314.176;   38.450;  286.000;  192.000
314.313;  -67.575; -569.000; -473.000
314.450;  -68.700; -788.000; -684.000
314.587;  -50.825; -468.000; -480.000
314.723;   12.800;  -78.000;  130.000
314.860;   31.300;  318.000;  332.000
314.997;   27.600;  223.000;  142.000
315.134;  -39.525; -385.000; -368.000
315.270;  -26.750; -480.000; -496.000
315.407; -117.175;-1094.000; -967.000
315.544;  -43.525; -657.000; -538.000
315.681;  -55.200; -681.000; -565.000
315.817;   42.925; -133.000; -176.000
315.954;   32.025; -613.000; -392.000
316.091; -121.425;-1045.000;-1023.000
316.227;  -21.150;  -71.000; -179.000
316.364;   12.075;   23.000;    6.000
316.500;  -35.225; -113.000; -300.000
316.637;  -43.250; -181.000; -302.000
316.774;  -75.575; -625.000; -358.000
316.910;  -85.750; -598.000; -629.000
317.047;  -76.075; -487.000; -351.000
317.183;  -43.775; -435.000; -566.000
317.320;  -19.275; -367.000; -321.000
317.456;  -93.350; -733.000; -805.000
317.593;  -87.175; -598.000; -641.000
317.729;   -5.625;  168.000;  -67.000
317.866; -182.600;-1434.000;-1285.000
318.002;  -86.675; -708.000; -948.000
318.139;  -82.825; -883.000; -867.000
318.275; -109.100;-1003.000; -738.000
318.412;  -54.225; -517.000; -336.000
318.548;   -4.100; -751.000; -720.000
318.685;  -78.300; -985.000; -888.000
318.821;  -95.200; -762.000; -735.000
318.957;  -22.250;   34.000;  -23.000
319.094;   36.225;  297.000;  154.000
319.230;  -28.175; -756.000; -742.000
319.367;  181.000; -471.000; -520.000
319.503;   78.250; -538.000; -436.000
319.639;  -86.500; -877.000; -793.000
319.775;  -53.500; -750.000; -685.000
319.912;  -43.525; -424.000; -519.000
320.048;  -76.175;-1184.000;-1184.000
320.184;   63.650;   59.000;   70.000
320.321;  -65.525; -497.000; -467.000
320.457;   62.025;  475.000;  662.000
320.593;  -53.250; -375.000; -382.000
320.729; -104.750; -732.000; -734.000
320.866;  -74.550; -577.000; -635.000
321.002;  -71.200; -759.000; -809.000
321.138;   -6.100; -135.000; -211.000
321.274;   92.550; -148.000; -115.000
321.410;   -1.900; -585.000; -353.000
321.546;    8.575;-1011.000; -911.000
321.683;   62.700;  400.000;  185.000
321.819;    9.125;  -48.000; -117.000
321.955;  -98.100; -743.000; -722.000
322.091;  -29.625; -585.000; -540.000
322.227;   -4.325; -382.000; -202.000
322.363;    5.250; -320.000; -215.000
322.499;  -34.275; -343.000; -331.000
322.635;  209.925;  636.000;  443.000
322.771;   49.300; -139.000;   12.000
322.907;  101.875;  129.000;  327.000
323.043;  -20.475; -115.000; -206.000
323.179;  -25.250; -394.000; -363.000
323.315;   76.250; -401.000; -371.000
323.451;  157.850; -328.000; -236.000
323.587;   89.450;  -60.000;  -77.000
323.723;   58.925; -682.000; -601.000
323.859;   -2.275; -258.000;  -76.000
323.995;  -14.450; -467.000; -409.000
324.131; -116.050; -967.000; -892.000
324.267;  -30.500; -254.000; -276.000
324.402; -112.500; -960.000; -983.000
324.538;   -2.375; -279.000; -104.000
324.674;   32.400;  164.000;   77.000
324.810;  219.725;  226.000;  308.000
324.946;   34.975; -810.000; -658.000
325.082;  -62.525; -568.000; -475.000
325.217;   -1.250;  -62.000;   16.000
325.353;  -95.250; -764.000; -659.000
325.489;  -78.950; -540.000; -506.000
325.625;  -64.050; -579.000; -525.000
325.760;   47.850;  517.000;  376.000
325.896;  -36.650; -515.000; -702.000
326.032;  -39.050; -403.000; -352.000
326.168;  -64.750; -462.000; -369.000
326.303;  -59.275; -352.000; -461.000
326.439;  -38.025; -336.000; -276.000
326.575;   17.300; -190.000;  -29.000
326.710;    2.675; -156.000;  -30.000
326.846;   -7.625;  146.000;  103.000
326.982;  -80.000; -530.000; -548.000
327.117;  -78.725; -481.000; -442.000
327.253;  -89.125; -745.000; -742.000
327.388; -151.300;-1137.000;-1153.000
327.524;  -10.475; -811.000; -578.000
327.659;  -34.800;  -58.000;  -22.000
327.795;   -7.925;   69.000;   45.000
327.931;  -91.000; -723.000; -499.000
328.066;  -18.475; -417.000; -276.000
328.202;    2.375;   12.000; -129.000
328.337;  109.925;  957.000;  713.000
328.473;   29.475;  -12.000;  -74.000
328.608;  -30.950; -256.000; -267.000
328.743;  -65.500; -799.000; -664.000
328.879;   21.650;  214.000;  114.000
329.014;  -28.800; -102.000; -122.000
329.150;  -76.950; -358.000; -483.000
329.285;  -67.825; -465.000; -466.000
329.421;  -51.475; -548.000; -246.000
329.556;  -17.500;  -36.000;   85.000
329.691; -102.550; -633.000; -615.000
329.827;  -89.700; -626.000; -480.000
329.962;  -37.700;  131.000; -301.000
330.097;  -89.250; -673.000; -585.000
330.233;  -58.550; -410.000; -223.000
330.368; -122.450; -839.000; -628.000
330.503;   -9.450;    3.000;   98.000
330.638;   36.325;  -93.000; -125.000
330.774;  -36.175; -609.000; -530.000
330.909;  -43.475; -434.000; -244.000
331.044;  -94.675; -714.000; -708.000
331.179; -164.450;-1217.000;-1109.000
331.315;    9.125;   77.000;   20.000
331.450;   13.200;  157.000;  285.000
331.585;  -69.675; -805.000; -706.000
331.720;  -64.925; -510.000; -460.000
331.855;  -17.525;  -35.000; -102.000
331.990;  187.300;   62.000;  138.000
332.126;   78.500; -110.000;   71.000
332.261;  -17.125; -379.000; -265.000
332.396;  -13.825; -135.000; -242.000
332.531; -112.050;-1074.000;-1031.000
332.666;   12.275; -519.000; -363.000
332.801;  -92.475; -726.000; -807.000
332.936;  -14.950; -192.000; -122.000
333.071; -140.250; -870.000; -817.000
333.206;   32.900;  307.000;  379.000
333.341;   32.050;  344.000;  418.000
333.476;  -86.450; -627.000; -623.000
333.611;  -37.275; -251.000; -173.000
333.746;  -45.575; -381.000; -464.000
333.881;  -94.925; -973.000; -935.000
334.016; -117.900; -936.000; -917.000
334.151; -113.375; -746.000; -702.000
334.286;   28.650;  152.000;  186.000
334.421;   -2.775; -125.000; -178.000
334.556;  -62.275; -611.000; -567.000
334.690;  -68.000; -631.000; -577.000
334.825;   62.375;  381.000;   83.000
334.960;  -43.875; -285.000; -413.000
335.095;    9.675;  135.000;  -91.000
335.230;  -89.400; -722.000; -738.000
335.365; -111.725;-1084.000; -990.000
335.499; -105.250;-1108.000;-1037.000
335.634;   49.550;    9.000;  534.000
335.769;  -81.600; -755.000; -720.000
335.904;  -36.300; -603.000; -561.000
336.038;  -36.975; -735.000; -657.000
336.173;  -88.775;-1206.000;-1194.000
336.308;   21.700; -116.000; -189.000
336.443;   34.650; -544.000; -634.000
336.577;  -38.325; -936.000; -787.000
336.712;   88.775;   -4.000;  -12.000
336.847;   -9.925; -724.000; -607.000
336.981;  131.025; -272.000; -208.000
337.116;  349.150;  615.000;  501.000
337.250;  234.575; -434.000; -421.000
337.385;  192.975; -297.000; -208.000
337.520;   19.450; -632.000; -603.000
337.654;  -45.300; -215.000; -126.000
337.789; -118.500; -989.000; -933.000
337.923;  -28.150; -104.000; -205.000
338.058;  -75.475; -673.000; -738.000
338.192;   -5.125; -611.000; -488.000
338.327;   -7.200;  -18.000; -155.000
338.461;  -61.225; -299.000; -469.000
338.596;  -79.400; -780.000; -638.000
338.730;  -90.075; -767.000; -803.000
338.865;   60.300;  -46.000; -140.000
338.999;  -69.875; -846.000; -702.000
339.134;  -40.575; -634.000; -536.000
339.268;   15.550; -741.000; -603.000
339.403;  303.975; -740.000; -775.000
339.537;   37.050; -894.000; -820.000
339.671; -109.125; -829.000; -813.000
339.806;  -67.075; -556.000; -512.000
339.940;   -2.950; -261.000; -235.000
340.074;  -96.275; -685.000; -510.000
340.209;  -43.550; -351.000; -230.000
340.343;  -96.250; -517.000; -573.000
340.477;  155.550;  998.000; 1036.000
340.612;  -61.475;-1033.000; -900.000
340.746;  103.825; -199.000; -243.000
340.880;  -59.550; -924.000; -785.000
341.014;  -14.925;  -45.000; -154.000
341.149; -104.075; -756.000; -718.000
341.283;  -94.650; -839.000; -754.000
341.417;  -52.500;-1124.000; -938.000
341.551;  248.175; -768.000; -708.000
341.685;   -9.875; -633.000; -611.000
341.820;  -50.475; -562.000; -493.000
341.954;  -38.025; -218.000; -349.000
342.088; -143.550;-1102.000;-1019.000
342.222;   57.950;  565.000;  618.000
342.356;  -55.550; -395.000; -335.000
342.490;  -59.825; -880.000; -841.000
342.624;  -52.375; -339.000; -242.000
342.758;   25.150; -364.000; -312.000
342.892;  -65.750; -710.000; -585.000
343.026;  -44.600;  -58.000; -116.000
343.160;  -53.075; -426.000; -376.000
343.294;  -79.300; -474.000; -337.000
343.428;    0.425; -488.000; -448.000
343.562;   -7.875; -172.000;  -23.000
343.696;   -8.025; -385.000; -314.000
343.830;    5.300; -362.000; -356.000
343.964;   44.150; -231.000; -168.000
344.098; 1279.000;  199.000;   70.000
344.232; 1055.000; -266.000; -127.000
344.366;  135.725; -567.000; -453.000
344.500;  129.050; -665.000; -744.000
344.634;   70.375; -324.000; -164.000
344.768;   19.475; -531.000; -341.000
344.902;   23.750;  278.000;  256.000
345.035;  -74.175; -556.000; -496.000
345.169; -116.325; -933.000; -656.000
345.303;   -6.425; -308.000; -482.000
345.437;  -44.675; -826.000; -717.000
345.571;  -72.675; -675.000; -594.000
345.704;  -58.150; -309.000; -532.000
345.838;  -10.225; -331.000; -284.000
345.972;  -26.775; -543.000; -495.000
346.106;  138.375; -179.000; -190.000
346.239;  436.350; -312.000; -243.000
346.373;   29.375; -343.000; -302.000
346.507; -121.950; -950.000; -962.000
346.640;  198.725;  -30.000;   13.000
346.774;   -8.825; -650.000; -797.000
346.908;  -11.975; -138.000;  -11.000
347.041;  -87.275; -646.000; -593.000
347.175;    8.300;  259.000;   27.000
347.309;  -48.475; -698.000; -628.000
347.442;  -81.300; -883.000; -732.000
347.576;  356.025;  670.000;  668.000
347.709;  291.900; -123.000;  -52.000
347.843;  -56.150; -933.000; -825.000
347.976;   38.200;  235.000;  294.000
348.110; -170.500;-1268.000;-1186.000
348.243;  -98.175; -679.000; -772.000
348.377;    2.600;  -26.000;   60.000
348.510;   64.500;  403.000;  540.000
348.644;  -19.825;  -37.000; -159.000
348.777;   10.200;  180.000;  191.000
348.911;  -40.450; -142.000; -112.000
349.044;  227.525;  471.000;  448.000
349.178;  268.075;-1069.000;-1006.000
349.311;  118.400;  141.000;  255.000
349.444;  -21.775; -927.000; -813.000
349.578;    3.525; -347.000; -200.000
349.711;  -84.700; -959.000; -862.000
349.845;   52.525; -661.000; -591.000
349.978; -126.100;-1224.000;-1137.000
350.111;  -75.025; -546.000; -612.000
350.244;  -60.900; -596.000; -700.000
350.378;   21.625; -392.000; -393.000
350.511;  -62.425; -393.000; -426.000
350.644;  -88.325; -808.000; -806.000
350.778;    6.350;  168.000;  104.000
350.911;    0.925;  134.000;  140.000
351.044;  -77.550; -685.000; -615.000
351.177;   -6.225; -321.000; -281.000
351.310;  -14.750;    3.000; -131.000
351.444;  -46.050; -888.000; -788.000
351.577;  167.350;  140.000;   90.000
351.710;  103.900;  593.000;  417.000
351.843;  -35.500; -165.000;  -77.000
351.976;   10.300;  149.000;  -79.000
352.109;  -70.925; -621.000; -612.000
352.242;   -9.850; -464.000; -419.000
352.376;  -16.300; -580.000; -636.000
352.509;  277.700; -437.000; -356.000
352.642;   65.900; -654.000; -604.000
352.775;   99.950; -141.000;  -98.000
352.908; -100.125; -933.000; -904.000
353.041;  -89.925; -814.000; -824.000
353.174;  -53.225; -551.000; -424.000
353.307;  -75.575; -753.000; -764.000
353.440;   88.300;  541.000;  453.000
353.573; -107.075; -957.000;-1008.000
353.706;  -36.875; -384.000; -558.000
353.839;    7.050; -264.000; -220.000
353.971;  -73.475; -657.000; -512.000
354.104;  -75.975; -896.000; -835.000
354.237;  -15.225; -627.000; -662.000
354.370;  -78.900; -846.000; -879.000
354.503; -173.875;-1231.000;-1308.000
354.636;  -20.500; -529.000; -348.000
354.769; -105.150; -937.000; -860.000
354.902;    1.450; -230.000; -139.000
355.034;  -14.175; -164.000; -220.000
355.167;  -19.150; -262.000; -162.000
355.300;  -92.850;-1061.000; -880.000
355.433;  785.125;  -71.000;  -14.000
355.565; 1237.000; -402.000; -384.000
355.698;  317.850; -356.000; -296.000
355.831;   -4.575; -882.000; -801.000
355.964;  138.275; -285.000; -170.000
356.096;  -60.825; -856.000; -843.000
356.229;   41.300; -523.000; -530.000
356.362;  260.575; -373.000; -266.000
356.494;  491.100; -229.000; -162.000
356.627;  608.850;  269.000;  377.000
356.760;  616.600;  120.000;   53.000
356.892;  774.400; -286.000; -601.000
357.025;  846.100;  403.000;  389.000
357.157;  835.375; -167.000; -179.000
357.290;  473.075; -856.000; -713.000
357.423;  167.300; -667.000; -556.000
357.555;  151.425; -217.000; -228.000
357.688;  155.700; -483.000; -364.000
357.820;  581.625; -870.000; -877.000
357.953; 4427.275; -563.000; -589.000
358.085; 1108.550; -632.000; -612.000
358.218; 1865.550;-1131.000; -932.000
358.350;  333.750;  -58.000;  312.000
358.483;  -84.250;-1300.000;-1187.000
358.615;   60.300;-1182.000;-1078.000
358.747;    3.400;-1187.000;-1058.000
358.880;   95.575; -810.000; -744.000
359.012;    6.725; -376.000; -202.000
359.145;  -23.725; -480.000; -511.000
359.277;  111.100; -962.000; -913.000
359.409; 3733.075;  536.000;  231.000
359.542; 1028.300; -738.000; -688.000
359.674;   96.325;   46.000;   13.000
359.806;  -52.300; -565.000; -438.000
359.939;  -37.500; -617.000; -516.000
360.071;  -32.975; -583.000; -579.000
360.203;  -12.725; -411.000; -364.000
360.335;   63.900;  164.000;  -16.000
360.468;  240.050; -249.000; -307.000
360.600; 2892.325; -547.000; -454.000
360.732; 2254.725; -546.000; -423.000
360.864;  326.600;-1216.000;-1044.000
360.996;  452.500; -516.000; -554.000
361.129;  106.325; -389.000; -598.000
361.261;   28.175;  110.000; -113.000
361.393;  -20.100; -252.000; -214.000
361.525;   25.550;   94.000;  244.000
361.657;  -20.150; -821.000; -703.000
361.789;   30.025; -139.000; -155.000
361.921;  382.025; -642.000; -593.000
362.053;  369.225;  524.000;  541.000
362.185;   72.075;  288.000;   72.000
362.318;  -65.750; -709.000; -705.000
362.450;  202.275;  294.000;  444.000
362.582;  288.725; -913.000; -870.000
362.714;   -2.525; -353.000; -332.000
362.846;  -71.150; -606.000; -490.000
362.978; -131.100; -941.000; -811.000
363.109;   92.825; -161.000; -260.000
363.241;  624.850; -739.000; -749.000
363.373;  379.775; -649.000; -564.000
363.505;  521.750; -186.000;  -91.000
363.637;  135.325; -787.000; -601.000
363.769; -106.750;-1067.000;-1080.000
363.901;  -57.325; -596.000; -654.000
364.033;  -98.600;-1103.000;-1062.000
364.165;    6.825; -283.000; -283.000
364.296;   75.350; -316.000; -177.000
364.428;   13.775;-1344.000;-1220.000
364.560;  -63.375; -679.000; -661.000
364.692;  -51.575; -738.000; -835.000
364.824;  451.075; -588.000; -456.000
364.955;  436.775; -402.000; -564.000
365.087;  588.850;-1097.000; -852.000
365.219;   13.275; -686.000; -816.000
365.351;  -70.000; -526.000; -572.000
365.482;   55.900;  300.000;  240.000
365.614;  -47.625; -402.000; -314.000
365.746;  -80.475; -729.000; -752.000
365.877; -103.975; -706.000; -672.000
366.009;  185.300;  -35.000;  -62.000
366.141;  -94.500;-1249.000;-1134.000
366.272; -103.075; -803.000; -719.000
366.404; -101.625;-1005.000; -874.000
366.535;   -1.225; -139.000;  -12.000
366.667;  -93.125; -644.000; -649.000
366.799;   45.975;  353.000;  203.000
366.930; -108.375; -862.000; -996.000
367.062;  121.175; -639.000; -613.000
367.193;   85.275; -872.000; -842.000
367.325;  -59.975; -580.000; -684.000
367.456;  123.950; -246.000;   31.000
367.588;  130.425; -371.000; -318.000
367.719;   35.650;  -44.000;  -45.000
367.851;    0.050; -222.000; -241.000
367.982;  -17.875; -875.000; -732.000
368.113;  180.150; -475.000; -358.000
368.245;  -98.075; -960.000; -841.000
368.376;   -5.300; -254.000; -302.000
368.508;  -26.900; -188.000; -263.000
368.639; -119.225;-1166.000;-1034.000
368.770;   21.725; -670.000; -589.000
368.902;  -18.775; -836.000; -926.000
369.033;  -94.425; -906.000; -855.000
369.164;  -42.900; -720.000; -653.000
369.296;  -94.475; -452.000; -601.000
369.427;   22.125; -209.000; -144.000
369.558;  -20.750; -593.000; -377.000
369.689;  -74.300; -721.000; -569.000
369.821; -122.900; -951.000; -845.000
369.952;  -13.100;   42.000; -108.000
370.083;  -38.000; -229.000; -108.000
370.214;  -88.900; -735.000; -650.000
370.345;   -5.725;   65.000;   81.000
370.477;  -68.600; -810.000; -790.000
370.608;  356.425; -328.000; -264.000
370.739;   10.350;-1233.000;-1292.000
370.870;   13.650;-1102.000; -923.000
371.001;  161.250; -378.000; -467.000
371.132;  -63.475; -754.000; -735.000
371.263;  -17.275;  -42.000; -148.000
371.394; -128.600; -841.000; -748.000
371.525;   25.600;  345.000;  225.000
371.657;  -60.025; -808.000; -670.000
371.788;   85.875;  103.000;  199.000
371.919;  244.350; -384.000; -304.000
372.050; 4773.725;  -91.000; -156.000
372.181; 1486.200; -188.000; -294.000
372.311;  543.100;   42.000; -127.000
372.442;   82.300; -457.000; -451.000
372.573;    2.375; -444.000; -340.000
372.704; -104.125;-1008.000; -980.000
372.835;  131.550; -228.000; -289.000
372.966;  -41.400; -646.000; -554.000
373.097;  -37.000; -575.000; -711.000
373.228;   -7.025; -717.000; -542.000
373.359;  242.800; -824.000; -536.000
373.490; 1319.575; -881.000; -727.000
373.620; 1688.625;-1001.000; -803.000
373.751; 2514.850; -332.000; -396.000
373.882; 1200.625; -663.000; -733.000
374.013;  135.675; -449.000; -262.000
374.143;   -6.625; -581.000; -659.000
374.274;  -62.200; -987.000; -908.000
374.405;  246.625; -388.000; -276.000
374.536;  645.400; -526.000; -387.000
374.666; 1649.425; -759.000; -807.000
374.797;  380.800; -817.000; -868.000
374.928; 1270.300; -710.000; -560.000
375.058; 1298.675; -535.000; -500.000
375.189;  124.500;  -59.000;  -93.000
375.320;  -89.175; -928.000;-1034.000
375.450;   -9.425; -625.000; -616.000
375.581;  -40.925; -526.000; -436.000
375.712;  -31.950; -574.000; -250.000
375.842;  462.225; -438.000; -415.000
375.973;  356.075; -554.000; -513.000
376.103;   15.375; -665.000; -648.000
376.234;  -54.150; -531.000; -552.000
376.364;   23.275; -944.000; -867.000
376.495;  407.800;  925.000;  529.000
376.625;   70.200; -472.000; -485.000
376.756;  118.300; -709.000; -678.000
376.886;  -25.700;-1178.000;-1026.000
377.017;    2.275;-1048.000;-1061.000
377.147;  232.675; -786.000; -782.000
377.278;   50.250;  174.000;  228.000
377.408; -120.125; -801.000; -815.000
377.538; -101.325; -707.000; -693.000
377.669;  -70.025; -537.000; -613.000
377.799;  -71.800; -645.000; -635.000
377.929;  -19.150; -610.000; -428.000
378.060; -120.800; -781.000; -847.000
378.190;  -60.775; -726.000; -531.000
378.320;  -39.250; -401.000; -406.000
378.451;    1.475; -131.000;  -22.000
378.581;    5.125;  -67.000; -110.000
378.711;  194.000; 1035.000;  866.000
378.841;   27.200; -533.000; -675.000
378.972;  -36.725; -871.000; -751.000
379.102;   42.325; -652.000; -579.000
379.232;   -5.150; -126.000;  -73.000
379.362;  -75.975;-1001.000; -885.000
379.492;   63.050; -373.000; -424.000
379.623;  150.325;    0.000;  111.000
379.753;  -68.350;-1107.000; -974.000
379.883;  270.125;   59.000;  156.000
380.013;   61.875;-1081.000;-1017.000
380.143;  -80.250;-1097.000;-1056.000
380.273;  -77.400; -985.000; -861.000
380.403;    5.100; -344.000; -257.000
380.533;   13.425; -651.000; -664.000
380.663;  109.725;  173.000;  128.000
380.793;  -43.925;-1027.000;-1074.000
380.923;  -15.375; -103.000;  -34.000
381.053;  -78.625; -613.000; -623.000
381.183;  -10.600; -106.000; -248.000
381.313;   76.075; -656.000; -470.000
381.443;   97.000; -692.000; -473.000
381.573;  333.450; -402.000; -409.000
381.703;  502.675;-1249.000;-1095.000
381.833;  -75.100;-1454.000;-1336.000
381.963;  135.025; -134.000;  -87.000
382.093; 1786.150; -925.000; -909.000
382.223;  596.700; -713.000; -602.000
382.353;   46.375; -801.000; -608.000
382.482;  588.375;-1091.000; -964.000
382.612; 1047.075; -872.000; -644.000
382.742;  607.725; -695.000; -622.000
382.872;  441.300; -565.000; -551.000
383.002;   86.350;  347.000; -132.000
383.131;    3.125; -226.000; -160.000
383.261;  -25.925; -706.000; -768.000
383.391;  289.475; -552.000; -377.000
383.521; 2400.625;  451.000;  263.000
383.650;  524.625; -947.000; -904.000
383.780;  -30.800; -783.000; -656.000
383.910;  117.400;  880.000;  802.000
384.039;   88.625; -794.000; -656.000
384.169;  404.150;-1205.000;-1017.000
384.299;   26.175; -650.000; -662.000
384.428;  -70.300; -764.000; -680.000
384.558;  -32.500; -308.000; -275.000
384.687;   -6.100; -414.000; -334.000
384.817;   49.775;   75.000;   -2.000
384.947;   51.725; -234.000; -141.000
385.076;  374.750;  982.000;  912.000
385.206;  146.050;  369.000;  480.000
385.335;  -16.375; -549.000; -417.000
385.465;  -60.475; -655.000; -663.000
385.594;  206.500;  -53.000;  -44.000
385.724;  684.975; -868.000; -838.000
385.853;  204.625; -296.000; -270.000
385.982; 1875.400; -743.000; -787.000
386.112; 3038.075;-1052.000; -871.000
386.241;  241.625; -307.000; -312.000
386.371;   46.250; -174.000;  -87.000
386.500;   39.250; -825.000; -789.000
386.629;   51.325; -874.000; -817.000
386.759;   68.525;  -43.000;   68.000
386.888;   15.750; -170.000; -250.000
387.017;  -52.800; -648.000; -620.000
387.147;  -68.975; -771.000; -798.000
387.276;   47.725; -410.000; -397.000
387.405;   58.450; -398.000; -342.000
387.535;  -15.875; -452.000; -361.000
387.664;  -56.325; -692.000; -620.000
387.793;  125.025; -198.000; -113.000
387.922;  726.150;  255.000;  200.000
388.052;   86.075; -576.000; -423.000
388.181;   85.550; -342.000; -472.000
388.310;  117.125; -889.000; -710.000
388.439;   25.150; -749.000; -742.000
388.568;  281.150;  365.000;  244.000
388.697; 1559.300; -756.000; -653.000
388.826;  369.350; -768.000; -666.000
388.956;  127.200; -285.000; -307.000
389.085;   -5.300; -347.000; -287.000
389.214; -101.300; -842.000; -872.000
389.343;  -47.825; -645.000; -413.000
389.472;  327.350;  126.000;  149.000
389.601;  513.725;   91.000;    0.000
389.730;   43.000; -568.000; -687.000
389.859;   98.325;  226.000;   46.000
389.988;  271.550; -423.000; -408.000
390.117;  219.375; -168.000; -146.000
390.246;   28.250; -331.000; -320.000
390.375;  206.750; -673.000; -626.000
390.504;  -57.350; -703.000; -621.000
390.633;  -73.825; -672.000; -726.000
390.761;  -44.225; -732.000; -645.000
390.890;   68.250;   -4.000; -130.000
391.019;   11.125; -421.000; -441.000
391.148; -111.875; -826.000; -855.000
391.277;  -57.125; -576.000; -493.000
391.406;  -31.450; -821.000; -805.000
391.534;   29.225;  574.000; -301.000
391.663;  -40.850; -583.000; -645.000
391.792;  -62.500; -673.000; -701.000
391.921;  187.600;   -3.000;   15.000
392.050;  326.550; -287.000; -228.000
392.178;   18.875;-1206.000;-1061.000
392.307;  245.950; -758.000; -712.000
392.436;  147.575; -427.000; -641.000
392.564;   25.125;  166.000;   -6.000
392.693;  -83.025; -860.000; -682.000
392.822;  319.625; -529.000; -534.000
392.950;  211.025; -880.000; -714.000
393.079;  479.125; -188.000; -328.000
393.208;   90.250; -488.000; -511.000
393.336;    4.475; -170.000; -145.000
393.465;  -43.375; -317.000; -199.000
393.593;   -3.075;   62.000;   79.000
393.722; -145.200;-1121.000; -916.000
393.850;  -38.300; -188.000;  -61.000
393.979; -149.900; -926.000; -805.000
394.107;  -61.925; -517.000; -537.000
394.236;   14.775; -570.000; -507.000
394.364;  253.400;  383.000;  206.000
394.493;  494.475; -911.000; -767.000
394.621;   13.350; -955.000; -916.000
394.750;  537.275; -873.000; -923.000
394.878; 2348.650; -247.000; -149.000
395.007; 3324.075; -721.000; -807.000
395.135;  260.750; -790.000; -721.000
395.263;  -98.825;-1038.000;-1040.000
395.392;   10.150;  -25.000; -107.000
395.520; -136.675; -818.000; -679.000
395.648;  -51.200; -865.000; -915.000
395.777;   23.200; -366.000; -405.000
395.905;  -32.650; -449.000; -564.000
396.033;   24.125;  217.000;  172.000
396.162;  785.550; -399.000; -453.000
396.290;  729.400;  -17.000;   -2.000
396.418;  180.975; -555.000; -514.000
396.546;  -34.775; -571.000; -466.000
396.674;  -82.175; -850.000; -878.000
396.803;   29.375;  -72.000;  -23.000
396.931;  160.625; -179.000; -199.000
397.059;  167.325;-1026.000; -989.000
397.187;  -78.950;-1026.000; -975.000
397.315; -117.500; -884.000; -649.000
397.443;  -90.975; -592.000; -443.000
397.572;  -87.175; -578.000; -424.000
397.700;   26.075; -607.000; -614.000
397.828;   74.725;  120.000;  -90.000
397.956;  -57.525; -508.000; -478.000
398.084;  -82.175; -767.000; -626.000
398.212;   51.125;  137.000;  124.000
398.340;   37.775;  -56.000;  159.000
398.468;   75.875; -390.000; -169.000
398.596; -117.050; -993.000; -953.000
398.724; -109.375; -762.000; -767.000
398.852; -151.975;-1024.000; -976.000
398.980;  -49.200; -560.000; -560.000
399.108;  -12.900; -982.000; -735.000
399.236;   55.850;   13.000;    8.000
399.363;   13.875;  222.000;  196.000
399.491;  -66.775; -404.000; -398.000
399.619; -110.000; -829.000; -800.000
399.747;  -72.650; -859.000; -771.000
399.875;  107.600;  220.000;  234.000
400.003;  -60.325; -359.000; -284.000
400.130;  -88.175; -421.000; -341.000
400.258;  -22.100;  -83.000;   38.000
400.386;  -77.475; -352.000; -168.000
400.514;  -29.175; -526.000; -587.000
400.641;  -42.750; -928.000; -802.000
400.769; -116.700; -979.000; -888.000
400.897;  -88.750; -838.000; -793.000
401.025;    7.200; -166.000; -152.000
401.152;    3.300;  220.000;   38.000
401.280;  -97.200; -430.000; -429.000
401.408; -112.425; -712.000; -576.000
401.535;  -82.750; -735.000; -758.000
401.663; -176.450;-1134.000;-1054.000
401.790;  -72.850; -514.000; -525.000
401.918;   37.575;  436.000;  405.000
402.046;  -14.625;  134.000;  122.000
402.173;  -32.175;  -18.000;    7.000
402.301;  -60.175; -519.000; -397.000
402.428;   35.700;  528.000;  383.000
402.556; -128.675;-1188.000; -913.000
402.683;  -26.825;  -20.000;   -1.000
402.811;  -29.125;  -37.000; -206.000
402.938;  -15.025;   20.000;   27.000
403.066;  290.600; -574.000; -558.000
403.193;  477.050;  299.000;  239.000
403.321;  389.250; -396.000; -574.000
403.448;  450.400;   83.000;   27.000
403.575;  226.325;  -90.000;  -46.000
403.703;  -74.975; -732.000; -557.000
403.830;  -55.250; -531.000; -496.000
403.957; -133.200;-1117.000;-1023.000
404.085;   17.250;  -61.000; -172.000
404.212;  112.225;  -50.000;   63.000
404.339;  213.550; -566.000; -306.000
404.467; 4526.400; -612.000; -524.000
404.594; 3661.675; -287.000; -227.000
404.721; 1083.225; -869.000; -764.000
404.848;   81.525; -113.000; -202.000
404.976;  -93.175; -856.000; -783.000
405.103;   -9.250;  -14.000;  -82.000
405.230;    0.275;  190.000;  226.000
405.357;   23.100;  117.000;   44.000
405.484;  212.150;  -49.000;    5.000
405.612;   48.975; -548.000; -563.000
405.739;  -61.600; -488.000; -243.000
405.866;   86.425;  669.000;  385.000
405.993;  -16.475; -398.000; -102.000
406.120; -132.825; -801.000; -887.000
406.247;  -47.200; -323.000; -342.000
406.374;  622.475;  540.000;  629.000
406.501;  247.075; -632.000; -702.000
406.628;  -59.450; -621.000; -589.000
406.755;  -79.925; -803.000; -620.000
406.882;  -27.275; -228.000; -277.000
407.009;  -87.125; -719.000; -628.000
407.136;  101.650; -480.000; -401.000
407.263;  301.850; -939.000; -829.000
407.390;  -52.450; -692.000; -614.000
407.517; -139.625;-1139.000;-1187.000
407.644;  -41.275; -332.000; -256.000
407.771; -139.800; -249.000; -287.000
407.898;    7.475;  168.000;  328.000
408.025;  -56.450; -421.000; -313.000
408.151;  -11.725;   82.000;  153.000
408.278;  -61.600; -267.000; -216.000
408.405; -101.750; -931.000; -899.000
408.532;  -58.150; -549.000; -542.000
408.659; -115.275; -677.000; -648.000
408.785; -208.350;-1298.000;-1170.000
408.912;  -60.675; -412.000; -296.000
409.039; -110.575; -610.000; -686.000
409.166; -107.900; -591.000; -555.000
409.292; -116.550; -571.000; -534.000
409.419; -103.650; -665.000; -649.000
409.546;  -99.550; -431.000; -192.000
409.672; -110.100; -713.000; -545.000
409.799;  -14.875;  -36.000;   34.000
409.926;  -37.825; -180.000; -179.000
410.052; -160.675;-1127.000;-1091.000
410.179;  -45.125; -368.000; -392.000
410.305;  -85.225; -375.000; -493.000
410.432;  -25.875; -220.000; -333.000
410.558;  -94.950; -305.000; -380.000
410.685; -106.700; -688.000; -431.000
410.812;  -88.475; -409.000; -588.000
410.938; -141.375; -964.000; -808.000
411.065;  -86.525; -671.000; -645.000
411.191;  -19.700; -189.000; -174.000
411.317;  -93.925; -823.000; -742.000
411.444;  -65.925; -317.000; -246.000
411.570;  -81.100; -339.000; -294.000
411.697; -134.925; -758.000; -752.000
411.823; -158.700; -989.000; -999.000
411.949;  -19.600;  -56.000;   17.000
412.076; -100.975; -539.000; -519.000
412.202; -123.225; -758.000; -757.000
412.329; -113.400; -798.000; -752.000
412.455; -110.100; -821.000; -657.000
412.581;  -19.375;  -15.000;  172.000
412.707;  -37.925; -540.000; -457.000
412.834;   15.225;  156.000;  219.000
412.960;  -80.450; -785.000; -784.000
413.086;  -98.700; -743.000; -701.000
413.212;  190.650;  604.000;  578.000
413.339;  -40.125; -685.000; -701.000
413.465;   43.075; -364.000; -310.000
413.591;  -60.600; -757.000; -474.000
413.717;  -47.925; -358.000; -366.000
413.843; -134.625; -839.000; -861.000
413.969;  -63.525;  -47.000; -292.000
414.096; -102.300; -679.000; -679.000
414.222;   -7.900;  -33.000;   85.000
414.348;    9.500; -652.000; -385.000
414.474;  175.950;   38.000;  -52.000
414.600;   -7.775; -126.000; -144.000
414.726;  -24.800;  -96.000;  -55.000
414.852;  -63.500; -365.000; -342.000
414.978;   32.225;  104.000;  -18.000
415.104;   53.100;   38.000;   80.000
415.230;   15.775; -329.000; -330.000
415.356;   38.150; -409.000; -514.000
415.482;  201.175;   13.000;  -35.000
415.608;  236.475; -247.000; -323.000
415.734;  836.175;   67.000;   38.000
415.860;17119.575; -875.000; -767.000
415.986;13252.375; -685.000; -607.000
416.111; 1156.325; -798.000; -652.000
416.237;  217.975; -424.000; -571.000
416.363;  842.400; -765.000; -733.000
416.489; 3406.900; -324.000; -251.000
416.615;  364.550; -707.000; -742.000
416.741;  -29.375; -677.000; -784.000
416.866;  -84.075; -673.000; -736.000
416.992; -140.275; -801.000; -818.000
417.118;  -30.975;  -41.000;  -80.000
417.244;  -46.250; -798.000; -531.000
417.369;  -75.175; -801.000; -612.000
417.495;   -7.050; -325.000; -254.000
417.621;  -70.650;-1015.000; -803.000
417.746;    7.850; -579.000; -572.000
417.872;   51.750; -254.000; -144.000
417.998;   20.525; -515.000; -530.000
418.123;  778.175;-1073.000; -845.000
418.249; 4442.625; -512.000; -601.000
418.374;  641.900; -916.000; -824.000
418.500;   86.925; -383.000; -482.000
418.626;   98.400;   70.000;  -59.000
418.751;  116.800; -549.000; -448.000
418.877;  177.300; -637.000; -643.000
419.002; 1388.200; -688.000; -560.000
419.128;10219.025; -930.000; -721.000
419.253; 2664.875; -967.000; -837.000
419.379;  330.875; -391.000; -338.000
419.504;  341.875;  325.000;  415.000
419.629;  423.775; -393.000; -212.000
419.755; 2559.675; -317.000; -254.000
419.880;16048.600;  -98.000;   67.000
420.006; 9292.075; -280.000; -221.000
420.131;25242.000; -662.000; -775.000
420.256; 3903.475; -315.000; -316.000
420.382;  516.700; -665.000; -687.000
420.507;   79.575; -649.000; -778.000
420.632;  193.650; -337.000; -339.000
420.758;  410.075; -251.000; -425.000
420.883;  -57.225; -876.000; -672.000
421.008;  -97.975; -775.000; -619.000
421.133;  -65.375; -509.000; -467.000
421.259;  -52.850; -325.000; -259.000
421.384;  -98.875; -834.000; -693.000
421.509;   15.200;-1052.000; -862.000
421.634; 1843.675; -936.000; -820.000
421.759;  892.600; -359.000; -327.000
421.885;  -13.975; -717.000; -656.000
422.010;  -71.875; -673.000; -542.000
422.135; -130.625; -695.000; -727.000
422.260;   26.150;  340.000;  280.000
422.385;  -33.400;   12.000;  -98.000
422.510;   15.250;  151.000;  -26.000
422.635;   27.975;  -87.000;  -43.000
422.760;  139.250; -766.000; -791.000
422.885;   84.525;  -57.000;  -80.000
423.010;  -32.075; -112.000; -169.000
423.135;  -87.825; -481.000; -561.000
423.260;    7.925; -150.000; -245.000
423.385;   88.675;  476.000;  222.000
423.510;   45.025;   71.000;  -22.000
423.635;  127.450;  133.000;   45.000
423.760;   68.375;  383.000;  328.000
423.885;   34.300;  336.000;  391.000
424.010;   16.275;  -68.000;  -13.000
424.135;  -23.150;    5.000;  -33.000
424.259;  -88.475; -654.000; -457.000
424.384;  -56.025; -279.000; -272.000
424.509;  -18.025; -260.000; -186.000
424.634; -114.175; -761.000; -623.000
424.759;  -30.050; -688.000; -544.000
424.883;  -20.425; -506.000; -527.000
425.008;  150.575; -502.000; -410.000
425.133; 1650.775; -679.000; -653.000
425.258;  832.375; -517.000; -381.000
425.382; 1271.325; -867.000; -774.000
425.507; 3440.700; -487.000; -543.000
425.632;  529.675; -802.000; -663.000
425.756;  384.000; -256.000; -146.000
425.881; 4501.375; -831.000; -857.000
426.006;12778.100; -604.000; -355.000
426.130; 2276.850; -696.000; -508.000
426.255;  283.900; -611.000; -491.000
426.379;  127.875; -189.000; -577.000
426.504;  327.900;  660.000;  544.000
426.629; 3438.725; -519.000; -466.000
426.753; 2594.675;   64.000;  -46.000
426.878;  299.325; -252.000; -288.000
427.002;  111.525; -651.000; -668.000
427.127; 1350.150;  -35.000; -158.000
427.251; 9266.475;  372.000;  401.000
427.375; 2942.600; -191.000; -173.000
427.500; 2828.675; -616.000; -610.000
427.624; 1082.000; -234.000; -400.000
427.749;  137.850; -216.000; -225.000
427.873;  -16.725; -499.000; -412.000
427.997;  -31.650; -222.000; -230.000
428.122;   79.900;  795.000;  703.000
428.246;   95.625;  433.000;  434.000
428.371; -103.150; -869.000; -773.000
428.495;  -99.975; -624.000; -646.000
428.619;  -31.025; -186.000; -117.000
428.743;   38.225;   65.000;  132.000
428.868;   62.800; -732.000; -643.000
428.992; 1821.775; -219.000; -326.000
429.116;  837.625; -329.000; -357.000
429.240;  411.350;  419.000;  426.000
429.365;    0.225; -454.000; -574.000
429.489;  -20.300; -638.000; -647.000
429.613;   24.025; -236.000; -177.000
429.737;   36.600; -563.000; -432.000
429.861;  233.625; -247.000; -133.000
429.985; 4535.250; -425.000; -305.000
430.109; 5291.875; -770.000; -908.000
430.234;  643.375;   76.000;  -50.000
430.358;   61.025; -250.000; -160.000
430.482;  -62.550; -672.000; -564.000
430.606;  -56.200; -655.000; -375.000
430.730;   54.400; -437.000; -388.000
430.854;  259.550; -909.000; -835.000
430.978;  -36.400; -795.000; -764.000
431.102;  -71.800; -499.000; -422.000
431.226; -105.025; -874.000; -815.000
431.350;   40.450;  345.000;  422.000
431.474;  -53.775; -661.000; -373.000
431.597; -132.375;-1060.000; -848.000
431.721;  -75.250; -276.000; -267.000
431.845; -138.350; -704.000; -472.000
431.969;  -89.250; -304.000; -349.000
432.093;  -97.300; -395.000; -317.000
432.217;  -21.075;   32.000;   82.000
432.341;  -80.425; -523.000; -518.000
432.464;    9.675;   96.000;   40.000
432.588;  338.375; -401.000; -329.000
432.712;  177.375;  -52.000;  -52.000
432.836;   45.525;  213.000;  263.000
432.959;  -15.550; -372.000; -311.000
433.083;   49.975;   11.000;    2.000
433.207;  309.025;  285.000;  930.000
433.330; 3912.675; -391.000; -200.000
433.454; 5118.425; -654.000; -638.000
433.578; 2982.050;  583.000;  278.000
433.701;  624.050; -623.000; -675.000
433.825;  240.450; -292.000; -299.000
433.949;  322.625;   28.000;  -72.000
434.072;  164.150; -410.000; -323.000
434.196;   -9.775; -309.000; -117.000
434.319; 3597.750;25482.000;25124.000
434.443;  709.550; -656.000; -603.000
434.566; 2249.325;  281.000;   62.000
434.690;  394.375; -637.000; -383.000
434.813;   57.800; -251.000; -173.000
434.937;  -78.475; -569.000; -696.000
435.060;    7.775; -423.000; -332.000
435.184;  582.375; -492.000; -217.000
435.307;  331.350;  159.000;  102.000
435.431;    6.950;  -40.000;   24.000
435.554;  -80.200; -399.000; -240.000
435.677;  -73.425; -350.000; -258.000
435.801;  -41.350;  -25.000;   49.000
435.924;   17.050;    1.000;  -67.000
436.048;  -70.575;-1019.000; -732.000
436.171;  -57.000; -240.000;  -66.000
436.294;  -25.875; -248.000; -229.000
436.417;   53.675; -963.000; -849.000
436.541;  -90.275; -814.000; -840.000
436.664;  -53.625; -242.000; -316.000
436.787;  -27.950;   13.000;  113.000
436.910; -113.625; -792.000; -422.000
437.034;   33.125;  142.000;  143.000
437.157;  110.650;  -11.000;    0.000
437.280;  -10.700; -392.000; -292.000
437.403;  -49.525; -982.000; -869.000
437.526; 1025.800; -903.000; -865.000
437.649; 3759.250; -505.000; -332.000
437.772;  681.700; -692.000; -540.000
437.896;  177.425;  700.000;  544.000
438.019;  -84.825; -758.000; -503.000
438.142;  -74.075; -596.000; -506.000
438.265;   21.525; -639.000; -670.000
438.388;  885.425; -520.000; -410.000
438.511;  236.550; -597.000; -394.000
438.634;  -31.150; -247.000; -125.000
438.757; -117.900; -693.000; -619.000
438.880;  -12.000;  -34.000;  -57.000
439.003;  -66.475; -417.000; -437.000
439.126;  -62.750; -287.000; -167.000
439.248;  -64.275;  -98.000; -139.000
439.371;  -39.750;    9.000;  -53.000
439.494;   25.675;  510.000;  439.000
439.617;  -36.150;   65.000;  -88.000
439.740; -186.850; -968.000; -816.000
439.863; -133.150; -755.000; -595.000
439.986; -114.925; -476.000; -431.000
440.108;  -46.600; -161.000; -112.000
440.231; -152.050; -950.000; -836.000
440.354;  -34.400;  -64.000; -150.000
440.477;  107.575; -566.000; -542.000
440.599;   56.725; -200.000; -225.000
440.722; -107.675; -709.000; -586.000
440.845;   67.075;  751.000;  928.000
440.968; -114.550; -415.000; -311.000
441.090;  -66.450; -199.000;  -33.000
441.213; -161.375;-1021.000; -825.000
441.336;  -54.025; -159.000;   -5.000
441.458;  -73.025; -549.000; -396.000
441.581;  -66.250; -628.000; -629.000
441.703;  -68.375; -152.000;   13.000
441.826; -110.850; -557.000; -400.000
441.948;  -50.675;   56.000;   51.000
442.071;    3.725;  555.000;  424.000
442.193; -114.225; -531.000; -485.000
442.316;   24.225;  152.000;   97.000
442.438;   26.200; -233.000;  -10.000
442.561;   84.875;  272.000;  262.000
442.683;  868.775; -809.000; -522.000
442.806; 1880.500;   -8.000;   74.000
442.928;  160.400; -859.000; -604.000
443.051;  -51.975; -577.000; -373.000
443.173;  -84.525; -341.000; -339.000
443.295;  -85.625; -263.000; -371.000
443.418;  -77.275; -321.000;  -29.000
443.540;    0.150; -106.000;   -4.000
443.662; -107.475; -563.000; -465.000
443.785;  -18.575;  335.000;  199.000
443.907;  -92.500; -362.000; -208.000
444.029; -130.175; -767.000; -494.000
444.152; -147.375; -644.000; -554.000
444.274;  -32.075;  -18.000;  -24.000
444.396; -105.300; -461.000; -221.000
444.518; -126.775; -691.000; -454.000
444.640; -118.625; -268.000; -111.000
444.763;  -24.200;  388.000;  249.000
444.885; -122.375; -432.000; -392.000
445.007;  -32.650;   35.000;   86.000
445.129; -114.125; -610.000; -515.000
445.251; -104.450; -372.000; -439.000
445.373; -143.650; -537.000; -386.000
445.495;   -5.650;  242.000;  350.000
445.617;   57.025;  853.000;  753.000
445.739;  -63.150; -215.000;  -97.000
445.861;  -39.175; -245.000; -112.000
445.984;  -25.225; -267.000; -101.000
446.105;  318.500; -418.000; -251.000
446.227;  920.025; -176.000;  -19.000
446.349;   68.200; -358.000; -249.000
446.471;  -89.900; -615.000; -448.000
446.593;  -50.350; -316.000;   19.000
446.715;   19.800;  -67.000;   41.000
446.837;   64.050;  697.000;  832.000
446.959;  -82.775; -457.000; -478.000
447.081; -128.075; -628.000; -518.000
447.203;   34.750;  862.000;  834.000
447.325;  -72.850; -270.000;   42.000
447.446;  -15.150;  286.000;  530.000
447.568; -140.200; -921.000; -803.000
447.690;  -74.375; -236.000; -245.000
447.812; -158.825; -798.000; -519.000
447.933;  -26.925;  155.000;  127.000
448.055;  -74.900; -306.000; -261.000
448.177;  194.825;   31.000;   79.000
448.299;  199.925; -935.000; -727.000
448.420;   49.950;  -25.000;  159.000
448.542;  -43.275;   -3.000;   33.000
448.664;   -9.100;  109.000;  322.000
448.785;  -34.250;  265.000;   83.000
448.907;  -80.550; -614.000; -353.000
449.028;   10.125; -771.000; -471.000
449.150;   58.650;  492.000;  589.000
449.272; -170.125;-1044.000; -913.000
449.393;   20.000;  612.000;  694.000
449.515; -128.000; -634.000; -581.000
449.636;  -54.675; -264.000; -155.000
449.758;   87.775;  763.000;  622.000
449.879;  -81.550; -498.000; -396.000
450.001;  -79.225; -149.000;  -49.000
450.122;  -43.675;  -95.000;  162.000
450.244;  -38.450;   37.000;  364.000
450.365; -100.375; -495.000; -301.000
450.486;  -34.075;   80.000;  268.000
450.608;    5.575;  393.000;  326.000
450.729;   46.525;  578.000;  645.000
450.850;  -24.800; -574.000; -466.000
450.972;  510.850; -552.000; -389.000
451.093; 3687.850;  190.000;  588.000
451.214; 1710.050; -516.000; -337.000
451.336;  327.375;  773.000;  579.000
451.457;   36.600;  264.000;  393.000
451.578;  -56.075; -118.000;  -74.000
451.699; -131.075; -546.000; -540.000
451.821;  -69.300; -284.000;  -50.000
451.942;  -15.175;  278.000;  285.000
452.063;   16.325;  228.000;  419.000
452.184;  394.150;  -54.000;  -49.000
452.305;  899.950;  103.000;  170.000
452.427;  101.625; -549.000; -301.000
452.548;  -14.650;   23.000;   79.000
452.669;  -30.400; -257.000;  -89.000
452.790;  -33.250;    3.000;  -18.000
452.911;   -4.700;  195.000;  259.000
453.032;  -61.950; -289.000;  -60.000
453.153;  -27.950;  -29.000;   81.000
453.274;   65.725;  737.000;  868.000
453.395;  -54.100;  -51.000;  175.000
453.516;  125.475; 1317.000; 1388.000
453.637;  -37.875; -205.000; -150.000
453.758;  -40.325;   15.000;   69.000
453.879; -124.750; -462.000; -250.000
454.000;   62.575; 1086.000;  948.000
454.121;  -92.250; -554.000; -326.000
454.242; -116.375; -599.000; -383.000
454.362;  -50.100;  -99.000;  114.000
454.483;  -36.850; -309.000; -229.000
454.604;   76.600;  512.000;  580.000
454.725; -123.500; -627.000; -555.000
454.846; -120.300; -474.000; -406.000
454.967;  -31.275;  230.000;  539.000
455.087;  -64.750;  179.000;  153.000
455.208;    0.500;  554.000;  856.000
455.329;  -51.400;  -22.000;   82.000
455.450;    9.275;  473.000;  633.000
455.570;  -82.150; -234.000; -211.000
455.691;  -52.500;  201.000;  407.000
455.812; -114.650; -270.000;  -92.000
455.932;  -67.375;  107.000;  -97.000
456.053;  -83.850;   36.000;   24.000
456.173; -125.275; -433.000; -355.000
456.294; -128.850; -476.000; -303.000
456.415;  -58.975;  -73.000;   70.000
456.535;  -40.525;  297.000;  273.000
456.656;  -44.550;  132.000;  240.000
456.776;  -83.975;    3.000;  298.000
456.897;   -9.625;  308.000;  513.000
457.017;  -84.275; -153.000;   -3.000
457.138; -103.700; -402.000; -249.000
457.258;  -28.725;  263.000;  224.000
457.379;  -15.700;  509.000;  521.000
457.499;  -33.450;  443.000;  432.000
457.620; -126.225; -407.000; -231.000
457.740;  -98.450; -132.000;  -11.000
457.860;  -62.150;   87.000;   44.000
457.981;  -48.325;  132.000;  124.000
458.101;  -72.075;  -89.000;   40.000
458.221;  -18.600;  336.000;  402.000
458.342;  -77.700;   -4.000;  -37.000
458.462;    2.375;  617.000;  352.000
458.582;  -45.725; -302.000; -294.000
458.703;  -11.100;  303.000;  154.000
458.823;  -36.775;   22.000;  163.000
458.943;   10.325;  341.000;  467.000
459.063;  -12.625; 1124.000;  192.000
459.183;  -23.200;  328.000;  313.000
459.304;    2.100;  315.000;  517.000
459.424;  -72.850; -246.000;  -89.000
459.544;  250.650;  388.000;  764.000
459.664;  668.775;  499.000;  506.000
459.784;  293.625; 1004.000; 1175.000
459.904;   47.100;  867.000;  744.000
460.024;   76.675;  867.000;  684.000
460.144;   24.500;  449.000;  554.000
460.264;   -5.100;  515.000;  327.000
460.385;  -92.800; -145.000; -119.000
460.505;   32.950;  905.000;  858.000
460.625;  -89.950;  -17.000;  -68.000
460.745;  -23.675;  396.000;  541.000
460.864;  -51.950;  153.000;  469.000
460.984;   19.525;  499.000;  573.000
461.104;  130.100; 1656.000; 1775.000
461.224;   17.475;  657.000;  650.000
461.344;  -22.600;  431.000;  360.000
461.464;  -37.250;  258.000;  513.000
461.584;    3.300;  283.000;  466.000
461.704;  -24.975;   58.000;  108.000
461.824;  -55.925;  238.000;  259.000
461.943;  -42.375;  191.000;  130.000
462.063;  -74.025;    2.000;  324.000
462.183;   34.950;  639.000;  717.000
462.303;   96.075; 1678.000; 1230.000
462.422;   33.925;  781.000;  840.000
462.542;  -30.500;  271.000;  391.000
462.662;   45.300;  353.000;  380.000
462.782;  200.175;  833.000;  572.000
462.901;  389.900;  545.000;  717.000
463.021;  260.825; 1702.000; 1638.000
463.141;  -27.800;  337.000;  770.000
463.260;  -10.150;  614.000;  474.000
463.380;   28.675;  902.000;  884.000
463.499;  -52.100;  342.000;  332.000
463.619;  -47.925;  581.000;  559.000
463.738;  108.675; 1644.000;  903.000
463.858;    7.325;  657.000;  811.000
463.978;  -37.575;  542.000;  396.000
464.097;   41.600;  921.000; 1114.000
464.217;   92.825; 1196.000; 1143.000
464.336;   94.775; 1068.000; 1130.000
464.455;  -32.675;  328.000;  659.000
464.575;   63.925;  597.000;  602.000
464.694;  192.800; 1204.000; 1179.000
464.814;  124.125; 1190.000; 1138.000
464.933;   69.400; 1095.000; 1027.000
465.052;   93.100; 1412.000; 1054.000
465.172;  102.650;  922.000;  799.000
465.291;  142.725; 1376.000; 1320.000
465.410;   22.800;  462.000;  735.000
465.530;   91.750; 1355.000; 1310.000
465.649;   69.825; 1209.000; 1273.000
465.768;  151.625; 1673.000; 1508.000
465.888;   64.000;  941.000; 1174.000
466.007;   93.000; 1335.000; 1440.000
466.126;   -4.200;  721.000;  641.000
466.245;   45.525; 1176.000; 1187.000
466.364;   16.950;  950.000; 1060.000
466.484;   58.275; 1024.000; 1213.000
466.603;   34.250; 1101.000; 1222.000
466.722;  126.775; 1490.000; 1769.000
466.841;   72.700; 1151.000; 1401.000
466.960;   31.750; 1069.000;  972.000
467.079;  128.625; 1971.000; 1786.000
467.198;   48.050; 1238.000; 1181.000
467.317;   92.725; 1768.000; 1162.000
467.436;   64.050; 1709.000; 1261.000
467.555;  104.475; 1796.000; 1746.000
467.674;   65.900; 1227.000; 1329.000
467.793;   43.475; 1376.000; 1374.000
467.912;   66.975; 1658.000; 1539.000
468.031;  133.600; 2038.000; 1930.000
468.150;  140.200; 1842.000; 1837.000
468.269;  182.800; 2313.000; 2090.000
468.388;  188.475; 2168.000; 2339.000
468.507;  244.200; 2884.000; 2903.000
468.626;  278.475; 2555.000; 2541.000
468.744;  135.725; 2018.000; 2174.000
468.863;  203.925; 2312.000; 2523.000
468.982;   95.400; 1503.000; 1555.000
469.101;  227.625; 2788.000; 2692.000
469.220;  143.875; 2333.000; 2176.000
469.338;  250.775; 2935.000; 3051.000
469.457;  201.375; 2719.000; 2545.000
469.576;  338.750; 3953.000; 3784.000
469.695;  240.400; 2877.000; 3066.000
469.813;  420.050; 4148.000; 4192.000
469.932;  409.075; 4255.000; 4485.000
470.051;  407.325; 4075.000; 4161.000
470.169;  750.125; 4470.000; 4338.000
470.288; 1269.075; 4700.000; 4809.000
470.406;  820.825; 5059.000; 5194.000
470.525;  623.500; 6101.000; 5787.000
470.644;  652.100; 6847.000; 6794.000
470.762;  840.375; 8397.000; 7873.000
470.881;  882.175; 8651.000; 8464.000
470.999; 1011.425; 9685.000; 9151.000
471.118; 1105.750;11174.000;10711.000

