
Integration time [ms]: 100.000
Averaging Nr. [scans]: 40
Smoothing Nr. [pixels]: 0
Data measured with spectrometer [name]: 2101012U2
Wave   ;Sample   ;Dark     ;Reference
[nm]   ;[counts] ;[counts] ;[counts] 

197.733;   55.350;  516.000;  404.000
197.879;  -90.000; -610.000; -634.000
198.025;  -37.750; -475.000; -420.000
198.171;  -72.800; -602.000; -612.000
198.317;  -37.250; -401.000; -316.000
198.463;  -59.550; -655.000; -404.000
198.609;   30.000;  181.000; -137.000
198.755;  -79.800; -644.000; -410.000
198.901;  -78.325; -505.000; -424.000
199.047;  -65.775; -615.000; -488.000
199.193;  -46.325; -230.000; -468.000
199.339;  -41.600; -222.000; -369.000
199.485;   43.875;  330.000;  271.000
199.631;    7.625;  227.000;  310.000
199.777;  -25.700; -466.000; -398.000
199.923;  -62.075; -610.000; -424.000
200.069;   -6.025; -141.000;  -58.000
200.215;   45.075;  128.000;  453.000
200.361;   58.575;  243.000;  477.000
200.507;  -73.025; -600.000; -373.000
200.653;  -10.950; -371.000; -194.000
200.798;  -33.650; -215.000; -125.000
200.944;  -13.225; -146.000;  -41.000
201.090;   31.550;   61.000;  222.000
201.236;   -6.475; -116.000; -158.000
201.382;  122.400;  874.000;  903.000
201.528;   -1.950;  -58.000;  -48.000
201.674;  -23.850; -386.000; -293.000
201.819;  -56.250; -540.000; -439.000
201.965;  -75.400; -699.000; -447.000
202.111;  -22.475; -273.000; -226.000
202.257;  -39.225; -250.000; -238.000
202.402;   13.125;   13.000;  -36.000
202.548;  -22.025; -169.000; -116.000
202.694;   76.100;  410.000; -183.000
202.840;  -78.300; -603.000; -531.000
202.985;  -72.000; -681.000; -639.000
203.131; -112.550; -832.000; -666.000
203.277;  -25.100; -199.000; -262.000
203.423;  -52.925; -434.000; -520.000
203.568;  -51.350; -462.000; -237.000
203.714;  -74.100; -535.000; -542.000
203.860;  -87.425; -682.000; -641.000
204.005;   17.975;  112.000;  167.000
204.151;   79.400;  561.000;  556.000
204.296;  -54.000; -354.000; -221.000
204.442;  -73.875; -600.000; -547.000
204.588;  -77.075; -592.000; -579.000
204.733;   27.400;  178.000;  168.000
204.879; -131.525;-1018.000; -822.000
205.025;   13.500;  -99.000;  126.000
205.170;  -11.850;  -17.000;   94.000
205.316;   87.225;  438.000;  661.000
205.461;  -81.725; -698.000; -554.000
205.607;   72.125;  609.000;  665.000
205.752;  -79.450; -626.000; -551.000
205.898;  -44.225; -501.000; -391.000
206.043;  -59.975; -578.000; -506.000
206.189;  -41.975; -243.000; -285.000
206.334;   83.850;  554.000;  606.000
206.480;   79.550;  409.000;  239.000
206.625;  -86.925; -529.000; -552.000
206.771;  -38.600; -451.000; -373.000
206.916;  -35.750; -210.000; -537.000
207.062;  -64.750; -545.000; -591.000
207.207;  -55.275; -546.000; -443.000
207.353;   50.900;  185.000;  460.000
207.498;   16.475;  196.000;   85.000
207.643;  -46.400; -501.000; -370.000
207.789; -121.425;-1069.000; -910.000
207.934; -103.100; -665.000; -713.000
208.080;   -8.500; -154.000;   66.000
208.225;   -3.125;  -22.000;  -57.000
208.370;  -78.900; -727.000; -619.000
208.516;  -71.300; -741.000; -487.000
208.661;  -23.175; -127.000;  -69.000
208.806;  -23.375; -165.000; -171.000
208.952; -126.175;-1044.000; -731.000
209.097;   61.550;  378.000;  349.000
209.242;  -49.750; -307.000; -382.000
209.387;   72.225;  392.000;  350.000
209.533;  -54.275; -321.000; -350.000
209.678;   74.725;  472.000;  543.000
209.823;  -54.300; -408.000; -310.000
209.969; -103.200; -860.000; -757.000
210.114;  -92.400; -907.000; -719.000
210.259; -105.675; -939.000; -889.000
210.404;  -12.675; -171.000;  103.000
210.549;   10.350;  108.000;    3.000
210.695;  -15.675;   -3.000;  -95.000
210.840;   32.325;   94.000;   67.000
210.985;  -70.325; -484.000; -303.000
211.130;   63.525;  268.000;  406.000
211.275;   18.050;  207.000;  199.000
211.420;  -60.050; -300.000; -289.000
211.566;  -66.000; -536.000; -489.000
211.711;   10.800;  218.000;  157.000
211.856;  -68.750; -545.000; -519.000
212.001;   13.675;  151.000;   44.000
212.146;   14.025;  153.000;   49.000
212.291;  -15.425; -210.000; -186.000
212.436;  -19.625; -280.000;   -6.000
212.581;  -81.000; -685.000; -653.000
212.726;  -61.075; -487.000; -538.000
212.871;  -47.025; -552.000; -217.000
213.016; -148.925;-1172.000;-1029.000
213.161;   61.425;  406.000;  291.000
213.306;  -62.225; -435.000; -577.000
213.451;  -85.125; -778.000; -689.000
213.596;  -58.375; -455.000; -347.000
213.741;  -31.050; -448.000; -538.000
213.886;  -73.850; -498.000; -517.000
214.031;  -26.650; -294.000; -124.000
214.176;  -65.425; -408.000; -341.000
214.321;  -22.400; -296.000; -157.000
214.466;  -22.725; -163.000;  -43.000
214.611;   -1.675;  -61.000;  -10.000
214.756; -113.725; -948.000; -858.000
214.901;  -17.250; -388.000; -226.000
215.046; -113.750; -797.000; -825.000
215.191;    9.525;  128.000;   35.000
215.336;  -10.575; -157.000;  -19.000
215.480;  -58.175; -684.000; -505.000
215.625;  -17.950; -175.000;  -19.000
215.770;  -84.375; -757.000; -662.000
215.915;  -11.050;   -5.000;  -97.000
216.060;    5.050; -113.000;  -21.000
216.205; -103.975; -731.000; -779.000
216.349;  -71.300; -470.000; -533.000
216.494; -131.350; -939.000; -867.000
216.639; -100.800; -823.000; -888.000
216.784;  -84.650; -577.000; -525.000
216.929;   46.475;  392.000;  281.000
217.073;  -28.925; -244.000;  -31.000
217.218;    2.575;   78.000;  -47.000
217.363;  -70.075; -656.000; -618.000
217.507;  -73.850; -623.000; -588.000
217.652; -114.125; -845.000; -874.000
217.797;  -83.550; -708.000; -659.000
217.942; -101.175; -856.000; -720.000
218.086;   71.775;  608.000;  539.000
218.231;  -36.575; -174.000;  -26.000
218.376;  -49.800; -337.000; -229.000
218.520;    5.375;  -41.000;   96.000
218.665;  -20.725; -338.000; -204.000
218.810;  -40.675; -275.000; -233.000
218.954;   17.600;  201.000;   35.000
219.099; -100.525; -713.000; -963.000
219.243;  -67.800; -589.000; -554.000
219.388;  -32.950; -264.000; -136.000
219.532;  -16.950; -116.000; -116.000
219.677;  -81.800; -564.000; -521.000
219.822;    2.925;   33.000;   89.000
219.966;    4.200;   17.000;  -99.000
220.111;  -27.775; -328.000;  -40.000
220.255; -101.775; -797.000; -750.000
220.400;  -17.425; -180.000; -146.000
220.544;  -76.500; -516.000; -450.000
220.689;  -39.675; -422.000; -451.000
220.833;  -31.400; -123.000;  -58.000
220.978;  -51.225; -393.000; -563.000
221.122;    8.125;  319.000;  307.000
221.267; -119.500; -906.000; -837.000
221.411;  -61.525; -478.000; -394.000
221.555;   -4.825; -104.000;  -23.000
221.700;  -47.550; -329.000; -222.000
221.844;   33.850;  255.000;  272.000
221.989;  -36.525; -328.000; -311.000
222.133;  -26.325; -289.000; -307.000
222.277;  -24.650;    5.000;   78.000
222.422;   22.175;  227.000;  113.000
222.566;  -35.650; -381.000; -214.000
222.711;  -57.125; -414.000; -479.000
222.855;  -72.950; -643.000; -586.000
222.999;  -77.175; -642.000; -717.000
223.144;  -24.050; -195.000; -194.000
223.288;   42.925;  423.000;  251.000
223.432;   25.300;  184.000;  230.000
223.576;   26.575;  152.000;  -21.000
223.721;   38.475;  364.000;  273.000
223.865;  -55.350; -472.000; -475.000
224.009;  220.325; 1673.000; 1631.000
224.153;  -72.975; -660.000; -671.000
224.298;  -72.150; -531.000; -489.000
224.442;   -0.100;  -74.000;  -33.000
224.586;    1.600; -169.000; -106.000
224.730;  -91.400; -858.000; -670.000
224.875;  -96.850; -739.000; -688.000
225.019;   20.575;  102.000;  188.000
225.163;   54.750;  208.000;  341.000
225.307;   28.775;   97.000;  -91.000
225.451;   45.450;  360.000;  481.000
225.595;   33.850;  264.000;  176.000
225.739;  -24.275; -170.000;  -94.000
225.884;   -1.925;   86.000;    5.000
226.028;  -85.675; -760.000; -626.000
226.172;  -24.425; -260.000; -273.000
226.316; -113.475; -941.000; -902.000
226.460;  -68.875; -645.000; -493.000
226.604;  -45.225; -406.000; -400.000
226.748;  -97.875; -836.000; -733.000
226.892;  -20.350; -227.000; -181.000
227.036;  -43.750; -537.000; -447.000
227.180;  -66.850; -551.000; -375.000
227.324;  -66.250; -561.000; -580.000
227.468; -113.150; -819.000; -717.000
227.612;   16.225;  242.000;  -28.000
227.756; -114.925; -845.000; -698.000
227.900;   51.450;  342.000;  441.000
228.044;  -43.250; -509.000; -290.000
228.188;   60.025;  448.000;  568.000
228.332;  -90.700; -546.000; -472.000
228.476;  -16.975; -223.000; -149.000
228.620;  -39.775; -210.000; -150.000
228.764;   73.350;  431.000;  349.000
228.908;  -20.850; -155.000;   30.000
229.052;  -52.075; -615.000; -528.000
229.195;  -27.875; -172.000;   13.000
229.339;  -23.100; -235.000; -305.000
229.483;  -17.450;    5.000; -162.000
229.627;    2.600; -156.000;  139.000
229.771;  -50.750; -218.000; -294.000
229.915;   10.500;  230.000;   79.000
230.059;  -82.475; -648.000; -663.000
230.202;  -31.475; -370.000; -317.000
230.346;  -12.025; -107.000;  107.000
230.490;  -60.400; -489.000; -521.000
230.634; -119.900; -736.000; -553.000
230.777;   75.625;  478.000;  509.000
230.921;  -46.525; -450.000; -359.000
231.065;  -33.350; -246.000; -286.000
231.209;   22.075;  261.000;  265.000
231.352;   22.500;   54.000;   40.000
231.496;   10.500;  568.000;  188.000
231.640;  -60.575; -693.000; -621.000
231.783;   63.250;  546.000;  525.000
231.927;  -45.850; -294.000; -365.000
232.071; -119.625; -962.000; -736.000
232.214; -107.950; -980.000; -764.000
232.358;  -94.325; -683.000; -599.000
232.502;    6.050;  -19.000;    7.000
232.645; -138.775;-1090.000; -927.000
232.789;  -20.975; -257.000; -218.000
232.933;  -28.600; -407.000; -224.000
233.076; -124.950;-1038.000; -897.000
233.220; -112.925; -752.000; -777.000
233.363;  -66.675; -669.000; -477.000
233.507;   50.225;  371.000;  129.000
233.650;  -93.375; -764.000; -834.000
233.794;   39.175;  438.000;  461.000
233.938;  -63.300; -530.000; -362.000
234.081;  -29.275;  -93.000;   31.000
234.225;  -73.200; -631.000; -539.000
234.368; -110.650; -773.000; -723.000
234.512;  -34.975; -385.000; -299.000
234.655;  -93.100; -582.000; -555.000
234.798;  -51.500; -493.000; -466.000
234.942; -123.600; -884.000;-1002.000
235.085;  -75.650; -651.000; -443.000
235.229;  -77.600; -405.000; -410.000
235.372;  -42.050; -247.000; -191.000
235.516;  -51.325; -397.000; -321.000
235.659;   28.175;   92.000;  121.000
235.802;  -14.125;  -38.000;  -22.000
235.946;   31.450;  335.000;  215.000
236.089;   25.250;  126.000;  250.000
236.233;   51.575;  275.000;  298.000
236.376;  -50.150; -235.000; -378.000
236.519;  -30.975; -297.000; -319.000
236.663;  -14.575; -215.000; -117.000
236.806; -131.550;-1029.000; -999.000
236.949;   61.900;  543.000;  431.000
237.092;   67.925;  412.000;  391.000
237.236;  -95.850; -589.000; -502.000
237.379;   57.925;  352.000;  428.000
237.522; -118.450; -879.000; -768.000
237.666;  -15.750; -271.000;   18.000
237.809; -127.800; -851.000; -823.000
237.952;   43.800;  469.000;  271.000
238.095;  -65.175; -447.000; -442.000
238.238;   89.900;  688.000;  700.000
238.382;    0.700;  166.000;  103.000
238.525;  -66.300; -598.000; -511.000
238.668; -137.425;-1060.000; -985.000
238.811;  -68.125; -638.000; -643.000
238.954;  -54.925; -483.000; -334.000
239.097;   85.825;  617.000;  664.000
239.241;   24.275;  394.000;  326.000
239.384;  -23.650; -254.000; -214.000
239.527;  -59.150; -424.000; -224.000
239.670; -146.675; -994.000;-1091.000
239.813;  -99.400; -696.000; -658.000
239.956;   77.950;  579.000;  473.000
240.099;  -98.325; -778.000; -725.000
240.242;   45.300;  428.000;  432.000
240.385;   30.650;  466.000;  450.000
240.528;  -65.075; -706.000; -473.000
240.671;    9.875;  189.000;  134.000
240.814;  -29.650; -441.000; -158.000
240.957; -107.425; -767.000; -578.000
241.100;  -98.500; -779.000; -755.000
241.243; -139.975;-1234.000; -893.000
241.386;  -54.000; -508.000; -379.000
241.529;  -95.050; -735.000; -547.000
241.672;  -65.075; -566.000; -495.000
241.815; -121.675; -832.000; -808.000
241.958;  -16.825; -125.000; -182.000
242.101;  -77.275; -545.000; -390.000
242.244;  -43.350; -270.000; -325.000
242.387;  -47.600; -304.000; -246.000
242.530;   57.225;  470.000;  134.000
242.673;  -49.925; -381.000; -309.000
242.815; -110.150; -925.000; -899.000
242.958;  -63.550; -482.000; -381.000
243.101;   18.900;  132.000;  187.000
243.244;  -88.950; -564.000; -521.000
243.387;  -45.550; -313.000; -316.000
243.530; -102.700; -657.000; -674.000
243.672;   -2.450;   43.000;  -92.000
243.815;  -46.175; -355.000; -283.000
243.958;    5.350;   98.000;  -26.000
244.101;    0.900;   59.000;  -16.000
244.243;   -7.225;  -47.000;  101.000
244.386; -106.175; -761.000; -630.000
244.529;  -18.875; -132.000; -139.000
244.672; -151.200;-1154.000; -951.000
244.814;  -96.650; -621.000; -794.000
244.957;  -39.975; -380.000; -304.000
245.100;  -72.425; -489.000; -489.000
245.242;  -67.950; -387.000; -374.000
245.385;   -8.375;  -59.000;  -39.000
245.528; -129.525; -871.000; -705.000
245.670;   93.650;  612.000;  634.000
245.813;  -84.525; -599.000; -547.000
245.956;  -37.300; -324.000; -275.000
246.098;  -74.775; -508.000; -650.000
246.241;    2.725;  194.000;   48.000
246.383;   -5.900; -119.000;  -73.000
246.526;  -72.900; -454.000; -525.000
246.669; -110.150; -889.000; -780.000
246.811;   18.600;  172.000;   -1.000
246.954;  -69.125; -512.000; -426.000
247.096;  -27.900;  -84.000;   -6.000
247.239;  -77.800; -482.000; -445.000
247.381;  -77.900; -647.000; -488.000
247.524;   78.075;  645.000;  679.000
247.666;  -16.725;   58.000;   11.000
247.809; -109.025; -887.000; -691.000
247.951;  -21.675;  -75.000;  138.000
248.094;   19.000;  432.000;  308.000
248.236; -156.025;-1262.000;-1238.000
248.378;    4.300; -356.000;  -81.000
248.521;  -21.750; -334.000; -337.000
248.663;  -36.350; -236.000; -267.000
248.806;  -23.050; -300.000; -266.000
248.948;  -88.750; -886.000; -763.000
249.090;  -50.475; -428.000; -398.000
249.233;  -47.525; -344.000; -381.000
249.375;  -63.250; -474.000; -451.000
249.518;  -19.600;  -83.000; -133.000
249.660;   15.425; -103.000;    3.000
249.802; -170.175;-1303.000;-1189.000
249.945;  -75.450; -612.000; -540.000
250.087; -116.575; -834.000; -768.000
250.229;  -57.000; -362.000; -480.000
250.371;  -77.800; -494.000; -439.000
250.514;  -38.125; -310.000; -244.000
250.656;  -73.975;   69.000;  102.000
250.798; -116.475; -849.000; -800.000
250.940;  -60.125; -322.000; -322.000
251.083;  -41.900; -335.000; -111.000
251.225;   49.475;  338.000;  310.000
251.367;  -36.350; -274.000; -373.000
251.509;  -35.325; -265.000; -210.000
251.651;  -90.450; -731.000; -671.000
251.794;   46.425;  538.000;  632.000
251.936; -101.550; -821.000; -747.000
252.078;  -86.100; -540.000; -461.000
252.220;  -81.075; -645.000; -477.000
252.362;   70.775;  344.000;  462.000
252.504;  -60.200; -677.000; -584.000
252.646; -121.975; -875.000; -722.000
252.788;    1.150;   14.000; -128.000
252.931;  -53.175; -257.000; -253.000
253.073;  -38.850; -376.000; -317.000
253.215;   -6.550;  141.000;  122.000
253.357;  -13.575;   82.000; -153.000
253.499;  -55.050; -374.000; -234.000
253.641;  -80.000; -749.000; -594.000
253.783;  -92.475; -609.000; -527.000
253.925;  -89.925; -586.000; -591.000
254.067; -101.550; -744.000; -667.000
254.209;  -40.875; -391.000; -259.000
254.351; -141.600; -865.000; -883.000
254.493;  -43.925; -441.000; -417.000
254.635; -126.525; -936.000; -818.000
254.777;  -93.875; -752.000; -687.000
254.918;  -69.725; -512.000; -430.000
255.060;  -43.775; -551.000; -395.000
255.202;  -52.850; -473.000; -261.000
255.344;  -80.450; -658.000; -455.000
255.486;  -74.025; -471.000; -406.000
255.628; -101.750; -780.000; -781.000
255.770;  -89.150; -676.000; -536.000
255.912;  -66.625; -559.000; -468.000
256.053; -100.825; -730.000; -508.000
256.195;  160.875; 1008.000;  903.000
256.337; -111.150; -861.000; -595.000
256.479;   67.300;  532.000;  416.000
256.621;  -54.600; -394.000; -212.000
256.762;  -97.100; -789.000; -742.000
256.904;   43.700;  485.000;  487.000
257.046;  -40.625; -381.000; -271.000
257.188;  -41.300; -351.000; -264.000
257.329;  -75.150; -525.000; -464.000
257.471; -126.125; -939.000; -807.000
257.613;  -60.525; -584.000; -498.000
257.755; -148.900;-1073.000; -982.000
257.896;   32.525;  286.000;  392.000
258.038;  -62.100; -403.000; -352.000
258.180;  -40.950; -354.000; -279.000
258.321;  -83.075; -581.000; -457.000
258.463;   -7.375;  -71.000;  133.000
258.605;  -89.500; -562.000; -570.000
258.746; -114.050; -886.000; -772.000
258.888; -141.000;-1026.000;-1020.000
259.029;   11.500;  121.000;   -8.000
259.171;  -81.725; -614.000; -550.000
259.313;   -2.075;  -49.000;  -47.000
259.454;  -71.775; -536.000; -414.000
259.596;  -60.625; -483.000; -390.000
259.737;  -78.325; -590.000; -474.000
259.879;   37.800;  217.000;  311.000
260.020;   75.200;  901.000;  636.000
260.162;  -30.575; -146.000; -253.000
260.303; -112.700; -768.000; -687.000
260.445;  -77.850; -609.000; -613.000
260.586;   18.150;  392.000;  157.000
260.728;  -51.525; -360.000; -248.000
260.869; -120.500; -350.000; -343.000
261.011;   84.350;  706.000;  537.000
261.152;  -73.775; -479.000; -319.000
261.293;  -71.150; -576.000; -595.000
261.435;  -37.800; -219.000; -184.000
261.576;  -60.125; -455.000; -325.000
261.718;   45.150;  420.000;  470.000
261.859; -122.375; -940.000; -949.000
262.000; -122.325; -951.000;-1016.000
262.142;  -28.700;  -52.000;  -60.000
262.283; -114.025; -808.000; -691.000
262.424;  -89.175; -666.000; -625.000
262.566; -141.875;-1161.000; -983.000
262.707; -111.100; -840.000; -830.000
262.848; -113.500; -769.000; -726.000
262.990;  -48.925; -362.000; -345.000
263.131;   81.025;  650.000;  681.000
263.272;    0.450;  -61.000;  -41.000
263.413; -107.600; -589.000; -561.000
263.555;  -63.600; -669.000; -143.000
263.696;  -76.525; -550.000; -641.000
263.837;  -66.675; -449.000; -551.000
263.978;  -12.200;   -5.000;  -77.000
264.119;  -41.350; -283.000; -264.000
264.261; -116.300; -847.000; -630.000
264.402;    3.200;   33.000;   40.000
264.543;  -84.350; -509.000; -524.000
264.684;   -6.400;   61.000;  -50.000
264.825;  -76.750; -816.000; -538.000
264.966;   -9.975;  -84.000;  -67.000
265.107; -102.850; -646.000; -670.000
265.248; -106.150; -825.000; -812.000
265.390;  -17.450;  152.000;   -9.000
265.531;  -31.700; -238.000; -107.000
265.672;  -96.425; -557.000; -630.000
265.813;   55.625;  563.000;  439.000
265.954; -153.825; -959.000; -940.000
266.095;  -24.600; -372.000; -322.000
266.236; -102.725; -686.000; -548.000
266.377;  -38.750; -243.000; -297.000
266.518;  -70.125; -619.000; -547.000
266.659;   22.075;  170.000;  268.000
266.800;    1.075;   83.000;   85.000
266.941;  -80.025; -487.000; -478.000
267.082;   12.250;  354.000;   99.000
267.223;  -52.025; -344.000; -273.000
267.364; -108.675; -892.000; -686.000
267.504;   -7.050;    3.000;  135.000
267.645;   -4.000;  160.000;   67.000
267.786;  -39.400; -147.000;  -86.000
267.927;  -76.700; -473.000; -379.000
268.068;  -14.225; -186.000;  -61.000
268.209;  -39.150; -175.000; -413.000
268.350;  -60.250; -388.000; -532.000
268.490; -101.325; -648.000; -521.000
268.631;   28.650;  127.000;  225.000
268.772; -121.025; -874.000; -647.000
268.913;  -55.475; -328.000; -476.000
269.054;  -28.475; -117.000;   12.000
269.194;  -37.225; -418.000; -402.000
269.335; -158.050;-1137.000;-1074.000
269.476;  -16.675;   33.000;  -35.000
269.617;  -38.925; -347.000; -392.000
269.757;  -71.800; -713.000; -646.000
269.898; -102.075; -856.000; -613.000
270.039;  -71.300; -415.000; -405.000
270.180; -131.375; -952.000; -816.000
270.320;  -13.650; -190.000; -250.000
270.461;  -42.950; -277.000; -249.000
270.602;  -17.500; -186.000; -156.000
270.742; -122.175; -868.000; -943.000
270.883;  -57.575; -442.000; -390.000
271.023;  -53.200; -358.000; -357.000
271.164;  -71.875; -607.000; -528.000
271.305;  -98.850; -666.000; -654.000
271.445;  -94.500; -722.000; -683.000
271.586;  -71.550; -462.000; -283.000
271.726;  -44.300; -397.000; -322.000
271.867;  -66.125; -594.000; -534.000
272.008;  168.300; -473.000; -285.000
272.148;  111.375;  462.000;  468.000
272.289;   11.200; -113.000; -181.000
272.429;    4.675;   19.000;  185.000
272.570;  -87.350; -633.000; -737.000
272.710;  -93.950; -825.000; -775.000
272.851;  -32.900;  113.000; -130.000
272.991; -154.100;-1173.000;-1077.000
273.131;  -66.175; -419.000; -459.000
273.272; -104.475; -683.000; -723.000
273.412;    6.475; -143.000;  -31.000
273.553;  -49.700; -488.000; -507.000
273.693;  119.375;  913.000;  858.000
273.834; -105.725; -894.000; -692.000
273.974;  -75.975; -664.000; -615.000
274.114; -103.650; -772.000; -560.000
274.255;   62.550;  414.000;  373.000
274.395;   -7.575; -180.000; -125.000
274.535;   20.700;  199.000;  350.000
274.676;   25.925;  225.000;   94.000
274.816;    1.600;  110.000;   34.000
274.956;  -99.075; -624.000; -690.000
275.097;  -67.300;-1014.000; -922.000
275.237; -103.975; -913.000; -803.000
275.377;  -90.125; -778.000; -689.000
275.517; -151.075; -878.000; -937.000
275.658;  -51.325; -590.000; -555.000
275.798;  -78.850; -606.000; -413.000
275.938;   11.275;  215.000;  323.000
276.078;  -96.000; -626.000; -395.000
276.218;   -6.825;   99.000;  104.000
276.359; -133.025;-1026.000;-1024.000
276.499;  -67.975; -605.000; -446.000
276.639;  -36.575; -305.000; -151.000
276.779;  -53.650; -475.000; -357.000
276.919; -102.100; -783.000; -624.000
277.059;  -21.325; -261.000; -212.000
277.199;  -42.725; -357.000; -259.000
277.340;   35.575;  287.000;  175.000
277.480; -111.000; -840.000; -693.000
277.620;   24.350;  192.000;   16.000
277.760; -189.975;-1533.000;-1294.000
277.900;    9.025;  113.000;   33.000
278.040;   15.925;  137.000;  159.000
278.180;   42.175;  270.000;  170.000
278.320;   -9.975;   21.000;   56.000
278.460;  -59.950; -443.000; -469.000
278.600;  -98.175; -708.000; -598.000
278.740;   64.450;  448.000;  224.000
278.880;  -68.825; -768.000; -791.000
279.020;  -11.550; -194.000; -144.000
279.160;  -94.125; -672.000; -595.000
279.300; -109.575; -926.000; -873.000
279.440;  -96.700; -709.000; -622.000
279.579;  -24.975;-1014.000; -929.000
279.719;  -61.100; -410.000; -394.000
279.859;   65.075;   -4.000;   41.000
279.999;   18.625; -208.000;  101.000
280.139;  -27.900; -435.000; -387.000
280.279;  -85.575; -708.000; -745.000
280.419;  -25.425; -229.000; -147.000
280.559;  -34.775; -259.000; -180.000
280.698;  -86.675; -790.000; -639.000
280.838;  -97.600; -778.000; -800.000
280.978; -102.925; -846.000; -790.000
281.118; -123.075; -811.000; -704.000
281.257;    5.300;   24.000;    6.000
281.397; -119.400;-1094.000; -960.000
281.537;  -96.675; -599.000; -712.000
281.677;  -23.350; -150.000; -101.000
281.816;  -94.975; -700.000; -630.000
281.956;  -36.925; -193.000; -257.000
282.096;  -61.225; -539.000; -396.000
282.235; -107.575; -672.000; -638.000
282.375;  -24.400; -243.000;  -98.000
282.515;  -96.300; -715.000; -707.000
282.654;   17.900;   29.000;  106.000
282.794;   23.375;  388.000;  244.000
282.934;  -60.925; -530.000; -491.000
283.073; -132.950;-1030.000; -857.000
283.213;  -50.850; -460.000; -467.000
283.353;  -47.150; -408.000; -349.000
283.492;  -26.850; -264.000; -296.000
283.632;  -36.125; -254.000; -168.000
283.771; -104.200; -859.000; -730.000
283.911;  -52.625; -369.000; -260.000
284.050; -106.050; -794.000; -748.000
284.190; -157.050;-1229.000;-1096.000
284.329; -145.250;-1055.000; -964.000
284.469;  -75.275; -516.000; -591.000
284.608;  -60.300; -559.000; -598.000
284.748;  -83.550; -614.000; -570.000
284.887;  -12.675;  -87.000;  -20.000
285.027; -132.000; -844.000; -892.000
285.166;  -36.425; -192.000; -249.000
285.306;    4.000; -116.000;  -33.000
285.445;  -50.875; -229.000; -343.000
285.584; -101.375; -630.000; -494.000
285.724;  -41.775; -282.000; -322.000
285.863; -121.325; -857.000; -507.000
286.002;  -54.275; -366.000; -276.000
286.142; -101.650; -715.000; -622.000
286.281;  -76.975; -525.000; -493.000
286.420;  -82.875; -554.000; -417.000
286.560;   85.500;  653.000;  623.000
286.699; -143.375; -958.000; -912.000
286.838;  -85.550; -590.000; -591.000
286.978;  -96.825; -533.000; -537.000
287.117; -142.175;-1085.000; -950.000
287.256;  -43.850; -228.000; -211.000
287.395;  -46.975; -197.000; -378.000
287.535;  -64.925; -370.000; -298.000
287.674;  -84.550; -509.000; -484.000
287.813;   47.250;  661.000;  533.000
287.952; -123.750;-1010.000; -871.000
288.091; -147.800;-1049.000; -915.000
288.231;    8.975;   13.000;   15.000
288.370; -176.875;-1217.000;-1200.000
288.509;  -86.775; -728.000; -645.000
288.648;  -90.400; -770.000; -548.000
288.787;  -29.825; -243.000;  -87.000
288.926;  -74.200; -454.000; -475.000
289.065;  119.000;  859.000;  672.000
289.204;  -62.625; -377.000; -217.000
289.344;  -94.700; -791.000; -690.000
289.483;   13.950;  416.000;  304.000
289.622;  -37.100; -291.000; -149.000
289.761;  -28.750; -309.000; -166.000
289.900;  -97.575; -785.000; -626.000
290.039;  -18.325;  -12.000;  -95.000
290.178;  -46.050; -274.000; -180.000
290.317;  -81.050; -618.000; -479.000
290.456;  -51.600; -463.000; -451.000
290.595; -130.700; -961.000; -833.000
290.734; -150.000; -904.000; -891.000
290.873;  -69.125; -456.000; -420.000
291.011; -119.475; -833.000; -843.000
291.150; -106.850; -770.000; -682.000
291.289;  -30.775; -343.000; -110.000
291.428;  -91.725; -599.000; -480.000
291.567;  -63.475; -370.000; -442.000
291.706;  -12.075;  109.000;  154.000
291.845;  -89.200; -597.000; -505.000
291.984; -162.125;-1234.000;-1061.000
292.122;   74.950;  602.000;  582.000
292.261;   46.600;  620.000;  463.000
292.400;    1.050; -144.000;  211.000
292.539; -128.250; -959.000; -813.000
292.678;  -34.525; -325.000; -300.000
292.816; -161.850;-1136.000; -965.000
292.955;  -95.525; -844.000; -684.000
293.094;   -8.775; -173.000; -337.000
293.233;  -49.300; -556.000; -400.000
293.371;  -46.675; -225.000;  -84.000
293.510;  -99.625; -866.000; -780.000
293.649; -127.950; -959.000; -924.000
293.787;  -74.200;-1083.000;-1012.000
293.926;   -5.325; -113.000;  -32.000
294.065;  -53.475; -379.000; -290.000
294.203;   37.000;  298.000;  406.000
294.342;   22.750;   74.000;  156.000
294.481; 6451.400;51180.000; -836.000
294.619;  -34.075; -425.000; -582.000
294.758; -167.950;-1230.000;-1137.000
294.896;   53.375; -125.000;    5.000
295.035; -119.700;-1040.000;-1006.000
295.174; -116.725;-1082.000; -954.000
295.312;  -32.850; -323.000; -203.000
295.451;  -13.225; -307.000; -428.000
295.589;  -76.800; -389.000; -518.000
295.728;    6.075; -292.000; -165.000
295.866;    4.150;  -36.000;  -51.000
296.005;  -74.975; -584.000; -341.000
296.143;  -83.700; -558.000; -596.000
296.282; -115.750; -957.000; -881.000
296.420; -105.150; -657.000; -557.000
296.559;  -86.550; -892.000; -633.000
296.697;   -7.100; -847.000; -665.000
296.835;   20.775;-1141.000;-1002.000
296.974;   43.750;  -23.000;   39.000
297.112;   -3.975; -443.000; -504.000
297.251;  -92.300; -815.000; -755.000
297.389;   59.875; -576.000; -438.000
297.527;   21.225; -145.000;  -83.000
297.666;  -60.625; -486.000; -438.000
297.804;  -63.150; -404.000; -264.000
297.942;  -20.225; -136.000; -161.000
298.081;  -20.525; -183.000;   63.000
298.219;   53.875;  -17.000;  -19.000
298.357;   29.575; -144.000;  -71.000
298.495;   11.775; -810.000; -812.000
298.634;   52.425;  245.000;  219.000
298.772;   29.675; -220.000; -338.000
298.910;  -52.425; -309.000; -182.000
299.048;  -14.775; -130.000; -153.000
299.187;  -45.425; -350.000; -250.000
299.325;   19.400;   52.000;  122.000
299.463;   30.425; -389.000; -299.000
299.601;   84.650; -327.000; -271.000
299.739; -107.300; -908.000; -883.000
299.877;  -76.125; -791.000; -703.000
300.016;  -42.200;-1095.000; -935.000
300.154;  134.125;  -19.000; -161.000
300.292;   31.825; -428.000; -348.000
300.430;   22.675; -408.000; -291.000
300.568; -117.550; -940.000; -874.000
300.706;  -50.325; -366.000; -469.000
300.844;  -93.225;-1108.000; -979.000
300.982;  115.250;  246.000;  282.000
301.120; -113.800; -965.000; -866.000
301.258;  -73.625; -812.000; -705.000
301.396;   16.750;  104.000;  -41.000
301.534;   56.500; -218.000; -293.000
301.672;  -39.900; -664.000; -521.000
301.810;   10.500; -613.000; -545.000
301.948;   88.250;   53.000;  149.000
302.086;  558.650; -250.000;  -32.000
302.224;  839.250; -610.000; -585.000
302.362;   23.425; -558.000; -622.000
302.500;  -49.050; -923.000; -893.000
302.638;  104.975;  128.000;  245.000
302.776;  -18.700; -352.000; -408.000
302.913;   39.700;  447.000;  236.000
303.051;  -32.700;  -86.000;  -23.000
303.189;   35.475;   90.000;  118.000
303.327;  -49.700; -341.000; -256.000
303.465;  -90.375; -832.000; -588.000
303.603;  -95.925; -805.000; -604.000
303.740;   70.750;  417.000;  241.000
303.878;    3.450; -800.000; -759.000
304.016;  -96.750; -915.000; -790.000
304.154; -136.225;-1123.000;-1152.000
304.291;  -27.200; -505.000; -554.000
304.429;   -6.100;  102.000;   74.000
304.567; -139.150; -908.000; -893.000
304.705;  -59.525; -408.000; -515.000
304.842;   84.400; -616.000; -540.000
304.980;   50.250;  215.000;   35.000
305.118;   16.200; -367.000; -365.000
305.255;  -79.300; -945.000; -927.000
305.393;   56.275;  178.000;  239.000
305.531; -118.400;-1173.000; -956.000
305.668;  -61.575; -663.000; -582.000
305.806;   93.675; -358.000; -439.000
305.943;   86.100; -629.000; -637.000
306.081;   44.225; -378.000; -267.000
306.219; -104.675; -863.000; -748.000
306.356;    1.100;  158.000;   27.000
306.494;  100.325;  981.000;  761.000
306.631;   -9.100;  -11.000;  -55.000
306.769;   -4.650; -613.000; -485.000
306.906;  -27.525; -284.000; -258.000
307.044;  -72.825; -473.000; -488.000
307.181;  -62.125; -410.000; -332.000
307.319;   -4.250;  112.000;   87.000
307.456; -175.750;-1191.000;-1153.000
307.594; -111.175; -980.000; -727.000
307.731;  -14.075; -371.000; -164.000
307.868;  -17.400;  -15.000;   20.000
308.006; -142.900; -961.000; -847.000
308.143;  -74.625; -618.000; -330.000
308.281;  141.100;  -37.000; -254.000
308.418;  -19.025; -748.000; -640.000
308.555;  -86.600; -400.000; -250.000
308.693;  -79.475; -577.000; -573.000
308.830; -111.050; -712.000; -657.000
308.967;  -16.950; -215.000;  -95.000
309.105;  -54.550; -507.000; -396.000
309.242;   29.950; -468.000; -367.000
309.379;  257.900; -577.000; -655.000
309.517;  -66.200; -936.000; -948.000
309.654; -111.525; -910.000; -734.000
309.791;  -78.600; -662.000; -580.000
309.928; -117.000; -977.000; -914.000
310.065;  158.925;  819.000;  697.000
310.203;  -28.525; -825.000; -850.000
310.340;  -20.325; -465.000; -321.000
310.477;  -87.975; -412.000; -516.000
310.614;  -71.350; -383.000; -473.000
310.751;  -89.225; -427.000; -518.000
310.889;  -13.750;    1.000;   11.000
311.026; -156.025;-1161.000; -939.000
311.163;  -61.250; -386.000; -380.000
311.300;  -78.800; -512.000; -479.000
311.437;  -73.625; -658.000; -619.000
311.574; -165.825;-1226.000; -985.000
311.711;  -57.125; -595.000; -433.000
311.848;  -56.025; -380.000; -388.000
311.985;    0.450;  270.000;   93.000
312.122; -130.475; -932.000; -762.000
312.259; -124.350; -941.000; -994.000
312.396;  -78.700; -508.000; -551.000
312.533;  -90.250; -812.000; -790.000
312.670; -131.925;-1070.000; -898.000
312.807;  -43.850; -352.000; -367.000
312.944;  -89.750; -513.000; -611.000
313.081;  -39.100; -150.000; -415.000
313.218; -113.725;-1111.000; -867.000
313.355;   11.775; -531.000; -449.000
313.492;  -16.900; -455.000; -292.000
313.629;  116.975;  815.000;  735.000
313.766; -148.400;-1176.000;-1008.000
313.902;   -7.075; -186.000;   21.000
314.039;  -56.725; -372.000; -289.000
314.176;   16.775;  286.000;  192.000
314.313;  -78.300; -569.000; -473.000
314.450;  -71.250; -788.000; -684.000
314.587;  -66.175; -468.000; -480.000
314.723;    1.925;  -78.000;  130.000
314.860;   32.250;  318.000;  332.000
314.997;   16.625;  223.000;  142.000
315.134;  -46.550; -385.000; -368.000
315.270;  -37.775; -480.000; -496.000
315.407; -137.800;-1094.000; -967.000
315.544;  -69.125; -657.000; -538.000
315.681;  -63.975; -681.000; -565.000
315.817;   30.000; -133.000; -176.000
315.954;   12.700; -613.000; -392.000
316.091; -128.925;-1045.000;-1023.000
316.227;  -25.475;  -71.000; -179.000
316.364;   -7.925;   23.000;    6.000
316.500;  -68.950; -113.000; -300.000
316.637;  -52.150; -181.000; -302.000
316.774;  -99.525; -625.000; -358.000
316.910;  -94.225; -598.000; -629.000
317.047;  -78.300; -487.000; -351.000
317.183;  -52.075; -435.000; -566.000
317.320;   -7.775; -367.000; -321.000
317.456;  -64.125; -733.000; -805.000
317.593;  -89.500; -598.000; -641.000
317.729;    6.325;  168.000;  -67.000
317.866; -200.700;-1434.000;-1285.000
318.002; -102.550; -708.000; -948.000
318.139; -117.075; -883.000; -867.000
318.275; -102.725;-1003.000; -738.000
318.412;  -72.375; -517.000; -336.000
318.548;  -42.325; -751.000; -720.000
318.685; -100.850; -985.000; -888.000
318.821; -102.950; -762.000; -735.000
318.957;  -24.025;   34.000;  -23.000
319.094;   36.100;  297.000;  154.000
319.230;  -74.275; -756.000; -742.000
319.367;   99.675; -471.000; -520.000
319.503;   31.875; -538.000; -436.000
319.639;  -93.325; -877.000; -793.000
319.775;  -60.000; -750.000; -685.000
319.912;  -57.425; -424.000; -519.000
320.048;  -91.200;-1184.000;-1184.000
320.184;   72.000;   59.000;   70.000
320.321;  -65.250; -497.000; -467.000
320.457;   46.875;  475.000;  662.000
320.593;  -51.175; -375.000; -382.000
320.729; -102.000; -732.000; -734.000
320.866;  -76.025; -577.000; -635.000
321.002;  -82.800; -759.000; -809.000
321.138;  -26.200; -135.000; -211.000
321.274;   67.975; -148.000; -115.000
321.410;  -35.325; -585.000; -353.000
321.546;  -46.150;-1011.000; -911.000
321.683;   58.075;  400.000;  185.000
321.819;    3.475;  -48.000; -117.000
321.955; -114.500; -743.000; -722.000
322.091;  -44.100; -585.000; -540.000
322.227;  -19.575; -382.000; -202.000
322.363;  -28.000; -320.000; -215.000
322.499;  -48.325; -343.000; -331.000
322.635;  154.000;  636.000;  443.000
322.771;    6.875; -139.000;   12.000
322.907;   77.450;  129.000;  327.000
323.043;  -15.525; -115.000; -206.000
323.179;  -32.400; -394.000; -363.000
323.315;   -0.875; -401.000; -371.000
323.451;   62.775; -328.000; -236.000
323.587;   57.625;  -60.000;  -77.000
323.723;    6.550; -682.000; -601.000
323.859;  -27.850; -258.000;  -76.000
323.995;  -52.575; -467.000; -409.000
324.131; -128.750; -967.000; -892.000
324.267;  -38.550; -254.000; -276.000
324.402; -133.875; -960.000; -983.000
324.538;  -14.850; -279.000; -104.000
324.674;   19.050;  164.000;   77.000
324.810;   87.100;  226.000;  308.000
324.946;  -29.550; -810.000; -658.000
325.082;  -77.825; -568.000; -475.000
325.217;  -30.850;  -62.000;   16.000
325.353;  -98.750; -764.000; -659.000
325.489;  -87.875; -540.000; -506.000
325.625;  -72.625; -579.000; -525.000
325.760;   63.525;  517.000;  376.000
325.896;  -12.075; -515.000; -702.000
326.032;  -69.325; -403.000; -352.000
326.168;  -65.125; -462.000; -369.000
326.303;  -67.225; -352.000; -461.000
326.439;  -27.550; -336.000; -276.000
326.575;   -4.275; -190.000;  -29.000
326.710;  -12.175; -156.000;  -30.000
326.846;  -24.125;  146.000;  103.000
326.982;  -91.750; -530.000; -548.000
327.117;  -74.200; -481.000; -442.000
327.253;  -88.450; -745.000; -742.000
327.388; -137.100;-1137.000;-1153.000
327.524;  -55.950; -811.000; -578.000
327.659;  -32.000;  -58.000;  -22.000
327.795;  -16.125;   69.000;   45.000
327.931;  -87.100; -723.000; -499.000
328.066;  -25.175; -417.000; -276.000
328.202;  -18.100;   12.000; -129.000
328.337;   91.000;  957.000;  713.000
328.473;   23.300;  -12.000;  -74.000
328.608;  -21.725; -256.000; -267.000
328.743;  -95.275; -799.000; -664.000
328.879;    7.400;  214.000;  114.000
329.014;  -26.250; -102.000; -122.000
329.150;  -76.050; -358.000; -483.000
329.285;  -77.650; -465.000; -466.000
329.421;  -60.825; -548.000; -246.000
329.556;  -43.250;  -36.000;   85.000
329.691; -109.700; -633.000; -615.000
329.827;  -96.025; -626.000; -480.000
329.962;  -45.275;  131.000; -301.000
330.097;  -82.925; -673.000; -585.000
330.233;  -51.375; -410.000; -223.000
330.368; -127.250; -839.000; -628.000
330.503;   -5.600;    3.000;   98.000
330.638;    1.000;  -93.000; -125.000
330.774;  -63.425; -609.000; -530.000
330.909;  -56.600; -434.000; -244.000
331.044;  -96.475; -714.000; -708.000
331.179; -186.225;-1217.000;-1109.000
331.315;  -13.350;   77.000;   20.000
331.450;   12.075;  157.000;  285.000
331.585;  -82.225; -805.000; -706.000
331.720;  -92.225; -510.000; -460.000
331.855;  -24.650;  -35.000; -102.000
331.990;  261.375;   62.000;  138.000
332.126;  135.525; -110.000;   71.000
332.261;   -3.300; -379.000; -265.000
332.396;    9.075; -135.000; -242.000
332.531;  -98.000;-1074.000;-1031.000
332.666;   38.350; -519.000; -363.000
332.801; -102.250; -726.000; -807.000
332.936;  -32.075; -192.000; -122.000
333.071; -151.225; -870.000; -817.000
333.206;   10.400;  307.000;  379.000
333.341;   13.775;  344.000;  418.000
333.476;  -94.425; -627.000; -623.000
333.611;  -51.025; -251.000; -173.000
333.746;  -36.175; -381.000; -464.000
333.881; -123.750; -973.000; -935.000
334.016; -128.125; -936.000; -917.000
334.151; -133.950; -746.000; -702.000
334.286;   22.300;  152.000;  186.000
334.421;  -20.250; -125.000; -178.000
334.556;  -85.100; -611.000; -567.000
334.690;  -98.675; -631.000; -577.000
334.825;   42.175;  381.000;   83.000
334.960;  -59.450; -285.000; -413.000
335.095;    7.900;  135.000;  -91.000
335.230; -109.800; -722.000; -738.000
335.365; -132.450;-1084.000; -990.000
335.499; -141.425;-1108.000;-1037.000
335.634;    4.150;    9.000;  534.000
335.769; -116.425; -755.000; -720.000
335.904;  -55.375; -603.000; -561.000
336.038;  -60.975; -735.000; -657.000
336.173; -122.800;-1206.000;-1194.000
336.308;  -16.300; -116.000; -189.000
336.443;   -2.150; -544.000; -634.000
336.577;  -85.875; -936.000; -787.000
336.712;   43.350;   -4.000;  -12.000
336.847;  -68.375; -724.000; -607.000
336.981;   46.900; -272.000; -208.000
337.116;  247.675;  615.000;  501.000
337.250;  121.550; -434.000; -421.000
337.385;  265.925; -297.000; -208.000
337.520;  118.500; -632.000; -603.000
337.654;  -49.875; -215.000; -126.000
337.789; -128.125; -989.000; -933.000
337.923;  -36.500; -104.000; -205.000
338.058;  -92.625; -673.000; -738.000
338.192;  -48.125; -611.000; -488.000
338.327;  -10.650;  -18.000; -155.000
338.461;  -80.525; -299.000; -469.000
338.596;  -82.200; -780.000; -638.000
338.730; -102.275; -767.000; -803.000
338.865;   93.400;  -46.000; -140.000
338.999;  -50.875; -846.000; -702.000
339.134;  -28.025; -634.000; -536.000
339.268;    7.675; -741.000; -603.000
339.403;  377.425; -740.000; -775.000
339.537;  140.575; -894.000; -820.000
339.671; -111.100; -829.000; -813.000
339.806;  -66.625; -556.000; -512.000
339.940;   12.525; -261.000; -235.000
340.074; -109.425; -685.000; -510.000
340.209;  -36.325; -351.000; -230.000
340.343;  -98.925; -517.000; -573.000
340.477;  134.675;  998.000; 1036.000
340.612;  -48.925;-1033.000; -900.000
340.746;  139.000; -199.000; -243.000
340.880;  -86.100; -924.000; -785.000
341.014;  -27.500;  -45.000; -154.000
341.149; -127.350; -756.000; -718.000
341.283; -109.800; -839.000; -754.000
341.417; -118.300;-1124.000; -938.000
341.551;   96.425; -768.000; -708.000
341.685;  -42.225; -633.000; -611.000
341.820;  -44.225; -562.000; -493.000
341.954;  -61.325; -218.000; -349.000
342.088; -152.300;-1102.000;-1019.000
342.222;   40.575;  565.000;  618.000
342.356;  -77.950; -395.000; -335.000
342.490; -111.150; -880.000; -841.000
342.624;  -45.025; -339.000; -242.000
342.758;  -27.450; -364.000; -312.000
342.892;  -80.000; -710.000; -585.000
343.026;  -43.925;  -58.000; -116.000
343.160;  -54.200; -426.000; -376.000
343.294;  -89.150; -474.000; -337.000
343.428;  -41.250; -488.000; -448.000
343.562;  -43.650; -172.000;  -23.000
343.696;  -30.725; -385.000; -314.000
343.830;  -36.675; -362.000; -356.000
343.964;    4.025; -231.000; -168.000
344.098;  797.750;  199.000;   70.000
344.232;  646.150; -266.000; -127.000
344.366;   82.700; -567.000; -453.000
344.500;   30.075; -665.000; -744.000
344.634;    6.625; -324.000; -164.000
344.768;  -43.625; -531.000; -341.000
344.902;   16.850;  278.000;  256.000
345.035;  -75.525; -556.000; -496.000
345.169; -124.650; -933.000; -656.000
345.303;  -44.475; -308.000; -482.000
345.437;  -79.150; -826.000; -717.000
345.571;  -70.700; -675.000; -594.000
345.704;  -76.900; -309.000; -532.000
345.838;  -25.450; -331.000; -284.000
345.972;  -47.950; -543.000; -495.000
346.106;  187.800; -179.000; -190.000
346.239;  412.450; -312.000; -243.000
346.373;   -4.425; -343.000; -302.000
346.507; -140.750; -950.000; -962.000
346.640;  119.925;  -30.000;   13.000
346.774;  -56.925; -650.000; -797.000
346.908;  -27.925; -138.000;  -11.000
347.041; -118.775; -646.000; -593.000
347.175;   -2.625;  259.000;   27.000
347.309;  -80.925; -698.000; -628.000
347.442; -106.175; -883.000; -732.000
347.576;  248.275;  670.000;  668.000
347.709;  150.625; -123.000;  -52.000
347.843; -105.475; -933.000; -825.000
347.976;   34.000;  235.000;  294.000
348.110; -182.025;-1268.000;-1186.000
348.243;  -96.425; -679.000; -772.000
348.377;   -3.225;  -26.000;   60.000
348.510;   45.800;  403.000;  540.000
348.644;  -42.175;  -37.000; -159.000
348.777;  -13.000;  180.000;  191.000
348.911;  -58.250; -142.000; -112.000
349.044;  155.450;  471.000;  448.000
349.178;  117.300;-1069.000;-1006.000
349.311;  116.275;  141.000;  255.000
349.444;   -5.450; -927.000; -813.000
349.578;  -32.975; -347.000; -200.000
349.711; -109.900; -959.000; -862.000
349.845;  -25.825; -661.000; -591.000
349.978; -156.000;-1224.000;-1137.000
350.111;  -90.100; -546.000; -612.000
350.244;  -88.550; -596.000; -700.000
350.378;   -7.900; -392.000; -393.000
350.511;  -72.200; -393.000; -426.000
350.644;  -99.200; -808.000; -806.000
350.778;    0.100;  168.000;  104.000
350.911;  -10.825;  134.000;  140.000
351.044;  -94.500; -685.000; -615.000
351.177;  -31.950; -321.000; -281.000
351.310;  -17.925;    3.000; -131.000
351.444;  -88.025; -888.000; -788.000
351.577;  102.100;  140.000;   90.000
351.710;   81.225;  593.000;  417.000
351.843;  -42.150; -165.000;  -77.000
351.976;  -10.925;  149.000;  -79.000
352.109; -104.950; -621.000; -612.000
352.242;  -36.525; -464.000; -419.000
352.376;  -73.000; -580.000; -636.000
352.509;  154.075; -437.000; -356.000
352.642;   -9.125; -654.000; -604.000
352.775;   47.125; -141.000;  -98.000
352.908; -130.275; -933.000; -904.000
353.041; -116.450; -814.000; -824.000
353.174;  -79.525; -551.000; -424.000
353.307;  -85.250; -753.000; -764.000
353.440;   61.400;  541.000;  453.000
353.573; -114.100; -957.000;-1008.000
353.706;  -68.950; -384.000; -558.000
353.839;  -32.325; -264.000; -220.000
353.971;  -93.800; -657.000; -512.000
354.104;  -84.700; -896.000; -835.000
354.237;  -45.900; -627.000; -662.000
354.370;  -91.575; -846.000; -879.000
354.503; -181.000;-1231.000;-1308.000
354.636;  -28.200; -529.000; -348.000
354.769; -138.075; -937.000; -860.000
354.902;  -28.525; -230.000; -139.000
355.034;   -9.525; -164.000; -220.000
355.167;  -29.575; -262.000; -162.000
355.300;  -86.925;-1061.000; -880.000
355.433; 1012.875;  -71.000;  -14.000
355.565; 1584.000; -402.000; -384.000
355.698;  427.275; -356.000; -296.000
355.831;  -29.250; -882.000; -801.000
355.964;   55.175; -285.000; -170.000
356.096;  -92.950; -856.000; -843.000
356.229;  -22.475; -523.000; -530.000
356.362;  326.350; -373.000; -266.000
356.494;  629.975; -229.000; -162.000
356.627;  421.000;  269.000;  377.000
356.760;  674.725;  120.000;   53.000
356.892; 1032.350; -286.000; -601.000
357.025;  586.800;  403.000;  389.000
357.157;  517.025; -167.000; -179.000
357.290;  756.125; -856.000; -713.000
357.423;  217.550; -667.000; -556.000
357.555;  103.000; -217.000; -228.000
357.688;  105.400; -483.000; -364.000
357.820;  405.625; -870.000; -877.000
357.953; 3421.475; -563.000; -589.000
358.085;  693.500; -632.000; -612.000
358.218;  866.400;-1131.000; -932.000
358.350;  174.700;  -58.000;  312.000
358.483; -127.425;-1300.000;-1187.000
358.615;  -66.850;-1182.000;-1078.000
358.747;  -92.025;-1187.000;-1058.000
358.880;   -8.325; -810.000; -744.000
359.012;   -4.975; -376.000; -202.000
359.145;  -34.275; -480.000; -511.000
359.277;   51.225; -962.000; -913.000
359.409; 2824.675;  536.000;  231.000
359.542;  747.875; -738.000; -688.000
359.674;   62.325;   46.000;   13.000
359.806;  -60.325; -565.000; -438.000
359.939;  -47.000; -617.000; -516.000
360.071;  -10.650; -583.000; -579.000
360.203;   -5.975; -411.000; -364.000
360.335;   28.100;  164.000;  -16.000
360.468;  176.075; -249.000; -307.000
360.600; 2326.575; -547.000; -454.000
360.732; 3079.375; -546.000; -423.000
360.864;  428.975;-1216.000;-1044.000
360.996;  211.000; -516.000; -554.000
361.129;    2.075; -389.000; -598.000
361.261;    7.175;  110.000; -113.000
361.393;  -30.925; -252.000; -214.000
361.525;   12.500;   94.000;  244.000
361.657;  -61.325; -821.000; -703.000
361.789;   -5.300; -139.000; -155.000
361.921;  157.025; -642.000; -593.000
362.053;  215.700;  524.000;  541.000
362.185;   35.200;  288.000;   72.000
362.318; -106.500; -709.000; -705.000
362.450;   86.900;  294.000;  444.000
362.582;   29.150; -913.000; -870.000
362.714;  -56.500; -353.000; -332.000
362.846;  -90.425; -606.000; -490.000
362.978; -134.725; -941.000; -811.000
363.109;   24.150; -161.000; -260.000
363.241;  347.100; -739.000; -749.000
363.373;  447.975; -649.000; -564.000
363.505;  718.300; -186.000;  -91.000
363.637;  175.575; -787.000; -601.000
363.769; -127.650;-1067.000;-1080.000
363.901;  -75.875; -596.000; -654.000
364.033; -136.550;-1103.000;-1062.000
364.165;   -5.200; -283.000; -283.000
364.296;   69.225; -316.000; -177.000
364.428;  101.875;-1344.000;-1220.000
364.560;  -81.300; -679.000; -661.000
364.692;  -69.325; -738.000; -835.000
364.824;  191.575; -588.000; -456.000
364.955;  426.275; -402.000; -564.000
365.087; 1060.600;-1097.000; -852.000
365.219;   50.825; -686.000; -816.000
365.351;  -73.700; -526.000; -572.000
365.482;   36.250;  300.000;  240.000
365.614;  -60.850; -402.000; -314.000
365.746; -103.575; -729.000; -752.000
365.877;  -96.175; -706.000; -672.000
366.009;  283.250;  -35.000;  -62.000
366.141;  -94.925;-1249.000;-1134.000
366.272; -113.400; -803.000; -719.000
366.404; -113.200;-1005.000; -874.000
366.535;  -29.375; -139.000;  -12.000
366.667; -123.575; -644.000; -649.000
366.799;   29.625;  353.000;  203.000
366.930; -130.625; -862.000; -996.000
367.062;  132.150; -639.000; -613.000
367.193;  169.350; -872.000; -842.000
367.325;  -57.775; -580.000; -684.000
367.456;   24.050; -246.000;   31.000
367.588;  164.200; -371.000; -318.000
367.719;   22.050;  -44.000;  -45.000
367.851;  -19.025; -222.000; -241.000
367.982;  -75.475; -875.000; -732.000
368.113;   69.150; -475.000; -358.000
368.245; -127.525; -960.000; -841.000
368.376;  -26.500; -254.000; -302.000
368.508;  -43.975; -188.000; -263.000
368.639; -153.625;-1166.000;-1034.000
368.770;  -40.875; -670.000; -589.000
368.902;  -68.150; -836.000; -926.000
369.033; -114.950; -906.000; -855.000
369.164;  -51.375; -720.000; -653.000
369.296; -108.350; -452.000; -601.000
369.427;  -17.400; -209.000; -144.000
369.558;  -56.175; -593.000; -377.000
369.689;  -91.125; -721.000; -569.000
369.821; -136.600; -951.000; -845.000
369.952;  -24.675;   42.000; -108.000
370.083;  -47.775; -229.000; -108.000
370.214; -102.800; -735.000; -650.000
370.345;  -24.000;   65.000;   81.000
370.477;  -91.350; -810.000; -790.000
370.608;  177.125; -328.000; -264.000
370.739;  -74.225;-1233.000;-1292.000
370.870;  -54.925;-1102.000; -923.000
371.001;   64.200; -378.000; -467.000
371.132;  -82.700; -754.000; -735.000
371.263;  -33.525;  -42.000; -148.000
371.394; -125.875; -841.000; -748.000
371.525;   21.300;  345.000;  225.000
371.657;  -99.925; -808.000; -670.000
371.788;   56.575;  103.000;  199.000
371.919;  134.025; -384.000; -304.000
372.050; 3220.050;  -91.000; -156.000
372.181;  989.200; -188.000; -294.000
372.311;  301.150;   42.000; -127.000
372.442;   20.200; -457.000; -451.000
372.573;  -34.925; -444.000; -340.000
372.704; -132.500;-1008.000; -980.000
372.835;   57.900; -228.000; -289.000
372.966;  -65.100; -646.000; -554.000
373.097;  -83.550; -575.000; -711.000
373.228;  -60.125; -717.000; -542.000
373.359;   98.825; -824.000; -536.000
373.490;  775.675; -881.000; -727.000
373.620;  996.375;-1001.000; -803.000
373.751; 1520.925; -332.000; -396.000
373.882;  686.075; -663.000; -733.000
374.013;   34.475; -449.000; -262.000
374.143;  -45.650; -581.000; -659.000
374.274; -110.175; -987.000; -908.000
374.405;  134.250; -388.000; -276.000
374.536;  365.350; -526.000; -387.000
374.666;  941.450; -759.000; -807.000
374.797;  159.175; -817.000; -868.000
374.928;  711.525; -710.000; -560.000
375.058;  760.225; -535.000; -500.000
375.189;   62.525;  -59.000;  -93.000
375.320; -112.800; -928.000;-1034.000
375.450;  -54.725; -625.000; -616.000
375.581;  -60.500; -526.000; -436.000
375.712;  -33.000; -574.000; -250.000
375.842;  233.875; -438.000; -415.000
375.973;  178.650; -554.000; -513.000
376.103;  -75.725; -665.000; -648.000
376.234;  -94.225; -531.000; -552.000
376.364;  -62.075; -944.000; -867.000
376.495;  295.400;  925.000;  529.000
376.625;  -30.250; -472.000; -485.000
376.756;   22.700; -709.000; -678.000
376.886; -107.150;-1178.000;-1026.000
377.017;   57.925;-1048.000;-1061.000
377.147;  391.750; -786.000; -782.000
377.278;   59.625;  174.000;  228.000
377.408; -126.300; -801.000; -815.000
377.538; -103.175; -707.000; -693.000
377.669;  -94.575; -537.000; -613.000
377.799; -103.975; -645.000; -635.000
377.929;  -74.325; -610.000; -428.000
378.060; -139.950; -781.000; -847.000
378.190;  -55.775; -726.000; -531.000
378.320;  -68.500; -401.000; -406.000
378.451;  -22.475; -131.000;  -22.000
378.581;  -20.800;  -67.000; -110.000
378.711;  132.500; 1035.000;  866.000
378.841;  -29.950; -533.000; -675.000
378.972;  -88.075; -871.000; -751.000
379.102;  -29.050; -652.000; -579.000
379.232;  -32.875; -126.000;  -73.000
379.362; -116.925;-1001.000; -885.000
379.492;  -16.575; -373.000; -424.000
379.623;   90.225;    0.000;  111.000
379.753; -110.800;-1107.000; -974.000
379.883;  169.575;   59.000;  156.000
380.013;  -18.900;-1081.000;-1017.000
380.143; -106.725;-1097.000;-1056.000
380.273; -114.275; -985.000; -861.000
380.403;   -0.675; -344.000; -257.000
380.533;  -58.750; -651.000; -664.000
380.663;   39.275;  173.000;  128.000
380.793; -113.950;-1027.000;-1074.000
380.923;  -21.525; -103.000;  -34.000
381.053; -101.050; -613.000; -623.000
381.183;  -29.075; -106.000; -248.000
381.313;  -15.925; -656.000; -470.000
381.443;   28.375; -692.000; -473.000
381.573;  117.800; -402.000; -409.000
381.703;  185.425;-1249.000;-1095.000
381.833; -158.525;-1454.000;-1336.000
381.963;   80.650; -134.000;  -87.000
382.093; 1251.275; -925.000; -909.000
382.223;  402.550; -713.000; -602.000
382.353;  -43.375; -801.000; -608.000
382.482;  285.350;-1091.000; -964.000
382.612;  653.175; -872.000; -644.000
382.742;  369.200; -695.000; -622.000
382.872;  176.275; -565.000; -551.000
383.002;   44.525;  347.000; -132.000
383.131;  -36.400; -226.000; -160.000
383.261;  -49.175; -706.000; -768.000
383.391;  263.725; -552.000; -377.000
383.521; 3486.300;  451.000;  263.000
383.650;  898.725; -947.000; -904.000
383.780;  -14.325; -783.000; -656.000
383.910;   87.225;  880.000;  802.000
384.039;   -0.725; -794.000; -656.000
384.169;  144.450;-1205.000;-1017.000
384.299;  -32.875; -650.000; -662.000
384.428; -115.025; -764.000; -680.000
384.558;  -66.250; -308.000; -275.000
384.687;  -68.500; -414.000; -334.000
384.817;   10.450;   75.000;   -2.000
384.947;   -0.100; -234.000; -141.000
385.076;  244.025;  982.000;  912.000
385.206;   86.925;  369.000;  480.000
385.335;  -41.775; -549.000; -417.000
385.465;  -93.025; -655.000; -663.000
385.594;  102.125;  -53.000;  -44.000
385.724;  304.275; -868.000; -838.000
385.853;   94.550; -296.000; -270.000
385.982; 1165.950; -743.000; -787.000
386.112; 1890.800;-1052.000; -871.000
386.241;  116.550; -307.000; -312.000
386.371;    9.550; -174.000;  -87.000
386.500;  -11.900; -825.000; -789.000
386.629;    9.600; -874.000; -817.000
386.759;   46.025;  -43.000;   68.000
386.888;  -22.750; -170.000; -250.000
387.017; -103.075; -648.000; -620.000
387.147;  -96.850; -771.000; -798.000
387.276;  -22.550; -410.000; -397.000
387.405;    6.850; -398.000; -342.000
387.535;  -62.425; -452.000; -361.000
387.664;  -69.675; -692.000; -620.000
387.793;   35.850; -198.000; -113.000
387.922;  434.575;  255.000;  200.000
388.052;  -17.375; -576.000; -423.000
388.181;  -28.525; -342.000; -472.000
388.310;  -45.600; -889.000; -710.000
388.439;  -65.800; -749.000; -742.000
388.568;  142.600;  365.000;  244.000
388.697;  871.925; -756.000; -653.000
388.826;  166.075; -768.000; -666.000
388.956;   26.825; -285.000; -307.000
389.085;  -60.050; -347.000; -287.000
389.214; -110.400; -842.000; -872.000
389.343;  -87.800; -645.000; -413.000
389.472;  403.650;  126.000;  149.000
389.601;  538.975;   91.000;    0.000
389.730;   21.800; -568.000; -687.000
389.859;   40.775;  226.000;   46.000
389.988;  164.275; -423.000; -408.000
390.117;  102.800; -168.000; -146.000
390.246;  -24.975; -331.000; -320.000
390.375;   65.075; -673.000; -626.000
390.504;  -74.925; -703.000; -621.000
390.633; -114.050; -672.000; -726.000
390.761;  -73.900; -732.000; -645.000
390.890;   -2.350;   -4.000; -130.000
391.019;  -38.575; -421.000; -441.000
391.148; -137.925; -826.000; -855.000
391.277;  -88.875; -576.000; -493.000
391.406;  -93.575; -821.000; -805.000
391.534;   11.375;  574.000; -301.000
391.663;  -84.175; -583.000; -645.000
391.792;  -98.575; -673.000; -701.000
391.921;   65.625;   -3.000;   15.000
392.050;  140.825; -287.000; -228.000
392.178;  -63.225;-1206.000;-1061.000
392.307;  101.550; -758.000; -712.000
392.436;   25.925; -427.000; -641.000
392.564;   19.400;  166.000;   -6.000
392.693;  -95.275; -860.000; -682.000
392.822;  137.200; -529.000; -534.000
392.950;   31.500; -880.000; -714.000
393.079;  269.550; -188.000; -328.000
393.208;    7.800; -488.000; -511.000
393.336;  -19.725; -170.000; -145.000
393.465;  -64.525; -317.000; -199.000
393.593;  -10.625;   62.000;   79.000
393.722; -143.325;-1121.000; -916.000
393.850;  -26.025; -188.000;  -61.000
393.979; -158.525; -926.000; -805.000
394.107;  -84.225; -517.000; -537.000
394.236;  -49.300; -570.000; -507.000
394.364;  181.300;  383.000;  206.000
394.493;  291.450; -911.000; -767.000
394.621;  -15.250; -955.000; -916.000
394.750;  721.400; -873.000; -923.000
394.878; 3087.750; -247.000; -149.000
395.007; 4299.400; -721.000; -807.000
395.135;  340.625; -790.000; -721.000
395.263; -104.700;-1038.000;-1040.000
395.392;    1.125;  -25.000; -107.000
395.520; -148.575; -818.000; -679.000
395.648; -101.925; -865.000; -915.000
395.777;  -36.750; -366.000; -405.000
395.905;  -44.725; -449.000; -564.000
396.033;    6.450;  217.000;  172.000
396.162;  492.475; -399.000; -453.000
396.290;  439.625;  -17.000;   -2.000
396.418;   54.125; -555.000; -514.000
396.546;  -91.400; -571.000; -466.000
396.674;  -99.150; -850.000; -878.000
396.803;    4.250;  -72.000;  -23.000
396.931;   49.850; -179.000; -199.000
397.059;    1.525;-1026.000; -989.000
397.187; -122.375;-1026.000; -975.000
397.315; -131.025; -884.000; -649.000
397.443; -104.900; -592.000; -443.000
397.572;  -81.950; -578.000; -424.000
397.700;  -46.900; -607.000; -614.000
397.828;   -1.700;  120.000;  -90.000
397.956;  -60.425; -508.000; -478.000
398.084;  -62.700; -767.000; -626.000
398.212;   38.525;  137.000;  124.000
398.340;   -7.700;  -56.000;  159.000
398.468;   -5.875; -390.000; -169.000
398.596; -134.025; -993.000; -953.000
398.724; -119.950; -762.000; -767.000
398.852; -164.125;-1024.000; -976.000
398.980;  -65.425; -560.000; -560.000
399.108;  -67.150; -982.000; -735.000
399.236;   17.925;   13.000;    8.000
399.363;   11.575;  222.000;  196.000
399.491;  -72.775; -404.000; -398.000
399.619; -125.225; -829.000; -800.000
399.747; -102.700; -859.000; -771.000
399.875;   57.825;  220.000;  234.000
400.003;  -59.075; -359.000; -284.000
400.130;  -86.175; -421.000; -341.000
400.258;  -27.825;  -83.000;   38.000
400.386;  -74.325; -352.000; -168.000
400.514;  -59.075; -526.000; -587.000
400.641; -114.000; -928.000; -802.000
400.769; -138.075; -979.000; -888.000
400.897; -129.100; -838.000; -793.000
401.025;  -32.475; -166.000; -152.000
401.152;  -17.725;  220.000;   38.000
401.280;  -80.275; -430.000; -429.000
401.408; -126.150; -712.000; -576.000
401.535; -109.700; -735.000; -758.000
401.663; -191.450;-1134.000;-1054.000
401.790;  -83.400; -514.000; -525.000
401.918;   14.950;  436.000;  405.000
402.046;  -26.250;  134.000;  122.000
402.173;  -49.250;  -18.000;    7.000
402.301;  -73.125; -519.000; -397.000
402.428;   25.950;  528.000;  383.000
402.556; -137.625;-1188.000; -913.000
402.683;  -34.750;  -20.000;   -1.000
402.811;  -33.700;  -37.000; -206.000
402.938;  -12.975;   20.000;   27.000
403.066;  139.300; -574.000; -558.000
403.193;  280.900;  299.000;  239.000
403.321;  197.200; -396.000; -574.000
403.448;  257.875;   83.000;   27.000
403.575;  116.700;  -90.000;  -46.000
403.703; -107.375; -732.000; -557.000
403.830;  -68.825; -531.000; -496.000
403.957; -137.950;-1117.000;-1023.000
404.085;    7.425;  -61.000; -172.000
404.212;  101.475;  -50.000;   63.000
404.339;  273.725; -566.000; -306.000
404.467; 6140.575; -612.000; -524.000
404.594; 4021.250; -287.000; -227.000
404.721;  863.000; -869.000; -764.000
404.848;   87.500; -113.000; -202.000
404.976; -113.850; -856.000; -783.000
405.103;   -8.975;  -14.000;  -82.000
405.230;  -17.350;  190.000;  226.000
405.357;    9.325;  117.000;   44.000
405.484;  274.275;  -49.000;    5.000
405.612;   51.650; -548.000; -563.000
405.739;  -60.900; -488.000; -243.000
405.866;   72.900;  669.000;  385.000
405.993;  -50.700; -398.000; -102.000
406.120; -134.275; -801.000; -887.000
406.247;  -71.575; -323.000; -342.000
406.374;  362.350;  540.000;  629.000
406.501;   55.775; -632.000; -702.000
406.628;  -82.400; -621.000; -589.000
406.755; -101.050; -803.000; -620.000
406.882;  -43.300; -228.000; -277.000
407.009; -120.050; -719.000; -628.000
407.136;   16.975; -480.000; -401.000
407.263;   87.800; -939.000; -829.000
407.390;  -97.875; -692.000; -614.000
407.517; -172.275;-1139.000;-1187.000
407.644;  -63.925; -332.000; -256.000
407.771;  -70.250; -249.000; -287.000
407.898;   -4.675;  168.000;  328.000
408.025;  -72.150; -421.000; -313.000
408.151;  -20.025;   82.000;  153.000
408.278;  -72.400; -267.000; -216.000
408.405; -133.950; -931.000; -899.000
408.532;  -72.175; -549.000; -542.000
408.659; -125.725; -677.000; -648.000
408.785; -207.150;-1298.000;-1170.000
408.912;  -63.725; -412.000; -296.000
409.039; -120.375; -610.000; -686.000
409.166; -103.750; -591.000; -555.000
409.292; -117.200; -571.000; -534.000
409.419; -140.225; -665.000; -649.000
409.546;  -96.750; -431.000; -192.000
409.672; -109.075; -713.000; -545.000
409.799;  -45.950;  -36.000;   34.000
409.926;  -46.175; -180.000; -179.000
410.052; -183.050;-1127.000;-1091.000
410.179;  -69.075; -368.000; -392.000
410.305;  -95.950; -375.000; -493.000
410.432;  -51.475; -220.000; -333.000
410.558;  -85.175; -305.000; -380.000
410.685; -123.500; -688.000; -431.000
410.812; -105.475; -409.000; -588.000
410.938; -144.825; -964.000; -808.000
411.065; -104.925; -671.000; -645.000
411.191;  -27.250; -189.000; -174.000
411.317; -116.850; -823.000; -742.000
411.444;  -67.075; -317.000; -246.000
411.570;  -79.500; -339.000; -294.000
411.697; -128.850; -758.000; -752.000
411.823; -174.150; -989.000; -999.000
411.949;  -33.200;  -56.000;   17.000
412.076; -117.775; -539.000; -519.000
412.202; -111.450; -758.000; -757.000
412.329; -137.150; -798.000; -752.000
412.455; -116.325; -821.000; -657.000
412.581;  -43.275;  -15.000;  172.000
412.707;  -70.775; -540.000; -457.000
412.834;    7.925;  156.000;  219.000
412.960;  -87.625; -785.000; -784.000
413.086; -120.425; -743.000; -701.000
413.212;  131.025;  604.000;  578.000
413.339;  -83.250; -685.000; -701.000
413.465;  -16.150; -364.000; -310.000
413.591; -108.800; -757.000; -474.000
413.717;  -57.600; -358.000; -366.000
413.843; -140.775; -839.000; -861.000
413.969;  -59.475;  -47.000; -292.000
414.096; -104.275; -679.000; -679.000
414.222;  -12.450;  -33.000;   85.000
414.348;  -59.800; -652.000; -385.000
414.474;   75.550;   38.000;  -52.000
414.600;  -29.325; -126.000; -144.000
414.726;  -17.050;  -96.000;  -55.000
414.852;  -64.175; -365.000; -342.000
414.978;   20.500;  104.000;  -18.000
415.104;   46.700;   38.000;   80.000
415.230;   27.250; -329.000; -330.000
415.356;   24.225; -409.000; -514.000
415.482;  196.025;   13.000;  -35.000
415.608;  278.350; -247.000; -323.000
415.734;  980.400;   67.000;   38.000
415.860;20296.650; -875.000; -767.000
415.986;15804.300; -685.000; -607.000
416.111; 1374.175; -798.000; -652.000
416.237;  272.825; -424.000; -571.000
416.363; 1154.975; -765.000; -733.000
416.489; 4542.300; -324.000; -251.000
416.615;  534.025; -707.000; -742.000
416.741;  -15.975; -677.000; -784.000
416.866;  -92.125; -673.000; -736.000
416.992; -114.175; -801.000; -818.000
417.118;  -29.725;  -41.000;  -80.000
417.244;  -73.125; -798.000; -531.000
417.369;  -86.825; -801.000; -612.000
417.495;  -16.700; -325.000; -254.000
417.621; -101.975;-1015.000; -803.000
417.746;    2.325; -579.000; -572.000
417.872;   47.500; -254.000; -144.000
417.998;   53.525; -515.000; -530.000
418.123; 1047.625;-1073.000; -845.000
418.249; 5858.925; -512.000; -601.000
418.374;  891.950; -916.000; -824.000
418.500;  126.175; -383.000; -482.000
418.626;  114.875;   70.000;  -59.000
418.751;  119.800; -549.000; -448.000
418.877;  211.575; -637.000; -643.000
419.002; 1798.175; -688.000; -560.000
419.128;13397.975; -930.000; -721.000
419.253; 3523.625; -967.000; -837.000
419.379;  458.900; -391.000; -338.000
419.504;  422.100;  325.000;  415.000
419.629;  552.225; -393.000; -212.000
419.755; 3710.450; -317.000; -254.000
419.880;23056.600;  -98.000;   67.000
420.006;12192.700; -280.000; -221.000
420.131;31598.850; -662.000; -775.000
420.256; 4781.175; -315.000; -316.000
420.382;  637.800; -665.000; -687.000
420.507;   70.350; -649.000; -778.000
420.632;   98.750; -337.000; -339.000
420.758;  186.900; -251.000; -425.000
420.883;  -93.000; -876.000; -672.000
421.008; -109.025; -775.000; -619.000
421.133;  -85.125; -509.000; -467.000
421.259;  -42.100; -325.000; -259.000
421.384; -129.600; -834.000; -693.000
421.509;  -80.000;-1052.000; -862.000
421.634;  858.100; -936.000; -820.000
421.759;  391.550; -359.000; -327.000
421.885;  -73.025; -717.000; -656.000
422.010;  -87.350; -673.000; -542.000
422.135; -153.575; -695.000; -727.000
422.260;   29.725;  340.000;  280.000
422.385;  -38.100;   12.000;  -98.000
422.510;    2.050;  151.000;  -26.000
422.635;   12.700;  -87.000;  -43.000
422.760;   84.475; -766.000; -791.000
422.885;   53.550;  -57.000;  -80.000
423.010;  -42.525; -112.000; -169.000
423.135; -112.950; -481.000; -561.000
423.260;  -32.300; -150.000; -245.000
423.385;   40.875;  476.000;  222.000
423.510;   19.450;   71.000;  -22.000
423.635;   64.350;  133.000;   45.000
423.760;   58.725;  383.000;  328.000
423.885;   41.925;  336.000;  391.000
424.010;    3.400;  -68.000;  -13.000
424.135;  -19.275;    5.000;  -33.000
424.259;  -97.075; -654.000; -457.000
424.384;  -63.900; -279.000; -272.000
424.509;  -35.250; -260.000; -186.000
424.634; -100.075; -761.000; -623.000
424.759;  -20.050; -688.000; -544.000
424.883;  -13.075; -506.000; -527.000
425.008;  160.700; -502.000; -410.000
425.133; 2096.500; -679.000; -653.000
425.258; 1042.325; -517.000; -381.000
425.382;  913.575; -867.000; -774.000
425.507; 2403.625; -487.000; -543.000
425.632;  419.250; -802.000; -663.000
425.756;  480.525; -256.000; -146.000
425.881; 6968.475; -831.000; -857.000
426.006;20049.400; -604.000; -355.000
426.130; 3222.300; -696.000; -508.000
426.255;  421.450; -611.000; -491.000
426.379;  165.950; -189.000; -577.000
426.504;  381.350;  660.000;  544.000
426.629; 4070.825; -519.000; -466.000
426.753; 3025.850;   64.000;  -46.000
426.878;  362.300; -252.000; -288.000
427.002;  193.850; -651.000; -668.000
427.127; 1602.700;  -35.000; -158.000
427.251;12110.225;  372.000;  401.000
427.375; 3691.100; -191.000; -173.000
427.500; 2114.000; -616.000; -610.000
427.624;  743.975; -234.000; -400.000
427.749;   91.675; -216.000; -225.000
427.873;  -38.050; -499.000; -412.000
427.997;  -45.900; -222.000; -230.000
428.122;   60.375;  795.000;  703.000
428.246;   54.325;  433.000;  434.000
428.371; -140.325; -869.000; -773.000
428.495; -118.300; -624.000; -646.000
428.619;  -45.000; -186.000; -117.000
428.743;   13.050;   65.000;  132.000
428.868;  -20.225; -732.000; -643.000
428.992; 1222.125; -219.000; -326.000
429.116;  500.800; -329.000; -357.000
429.240;  223.950;  419.000;  426.000
429.365;  -36.925; -454.000; -574.000
429.489;  -63.000; -638.000; -647.000
429.613;   -7.650; -236.000; -177.000
429.737;   31.275; -563.000; -432.000
429.861;  260.900; -247.000; -133.000
429.985; 5670.175; -425.000; -305.000
430.109; 6686.850; -770.000; -908.000
430.234;  782.150;   76.000;  -50.000
430.358;   84.750; -250.000; -160.000
430.482;  -83.025; -672.000; -564.000
430.606;  -89.350; -655.000; -375.000
430.730;  -23.675; -437.000; -388.000
430.854;   49.800; -909.000; -835.000
430.978;  -83.775; -795.000; -764.000
431.102;  -98.525; -499.000; -422.000
431.226; -139.025; -874.000; -815.000
431.350;    9.325;  345.000;  422.000
431.474;  -91.675; -661.000; -373.000
431.597; -149.125;-1060.000; -848.000
431.721;  -81.275; -276.000; -267.000
431.845; -136.650; -704.000; -472.000
431.969;  -76.725; -304.000; -349.000
432.093;  -87.400; -395.000; -317.000
432.217;   -6.350;   32.000;   82.000
432.341; -112.300; -523.000; -518.000
432.464;    6.150;   96.000;   40.000
432.588;  125.900; -401.000; -329.000
432.712;   78.825;  -52.000;  -52.000
432.836;   40.775;  213.000;  263.000
432.959;  -11.950; -372.000; -311.000
433.083;  102.175;   11.000;    2.000
433.207;  394.175;  285.000;  930.000
433.330; 5269.650; -391.000; -200.000
433.454; 6900.075; -654.000; -638.000
433.578; 3878.575;  583.000;  278.000
433.701;  766.825; -623.000; -675.000
433.825;  113.800; -292.000; -299.000
433.949;  116.025;   28.000;  -72.000
434.072;    9.800; -410.000; -323.000
434.196;  -26.050; -309.000; -117.000
434.319; 3639.300;25482.000;25124.000
434.443;  683.000; -656.000; -603.000
434.566; 2847.175;  281.000;   62.000
434.690;  526.800; -637.000; -383.000
434.813;   47.175; -251.000; -173.000
434.937;  -89.800; -569.000; -696.000
435.060;  -62.175; -423.000; -332.000
435.184;  181.500; -492.000; -217.000
435.307;   99.850;  159.000;  102.000
435.431;   -5.375;  -40.000;   24.000
435.554;  -86.425; -399.000; -240.000
435.677; -101.500; -350.000; -258.000
435.801;  -38.950;  -25.000;   49.000
435.924;  -25.100;    1.000;  -67.000
436.048; -138.000;-1019.000; -732.000
436.171;  -78.700; -240.000;  -66.000
436.294;  -39.750; -248.000; -229.000
436.417;  100.575; -963.000; -849.000
436.541;  -78.325; -814.000; -840.000
436.664;  -68.750; -242.000; -316.000
436.787;  -47.625;   13.000;  113.000
436.910; -112.450; -792.000; -422.000
437.034;  -13.975;  142.000;  143.000
437.157;   11.350;  -11.000;    0.000
437.280;  -62.625; -392.000; -292.000
437.403; -116.300; -982.000; -869.000
437.526;  397.775; -903.000; -865.000
437.649; 1699.325; -505.000; -332.000
437.772;  236.475; -692.000; -540.000
437.896;   85.275;  700.000;  544.000
438.019; -113.800; -758.000; -503.000
438.142;  -97.100; -596.000; -506.000
438.265;  -48.525; -639.000; -670.000
438.388;  411.900; -520.000; -410.000
438.511;   57.775; -597.000; -394.000
438.634;  -61.975; -247.000; -125.000
438.757; -154.150; -693.000; -619.000
438.880;  -33.650;  -34.000;  -57.000
439.003;  -95.700; -417.000; -437.000
439.126;  -69.175; -287.000; -167.000
439.248;  -77.125;  -98.000; -139.000
439.371;  -33.750;    9.000;  -53.000
439.494;   17.050;  510.000;  439.000
439.617;  -58.075;   65.000;  -88.000
439.740; -183.025; -968.000; -816.000
439.863; -150.625; -755.000; -595.000
439.986; -137.275; -476.000; -431.000
440.108;  -58.325; -161.000; -112.000
440.231; -172.225; -950.000; -836.000
440.354;  -53.700;  -64.000; -150.000
440.477;  -25.475; -566.000; -542.000
440.599;  -28.700; -200.000; -225.000
440.722; -126.275; -709.000; -586.000
440.845;   60.175;  751.000;  928.000
440.968; -115.300; -415.000; -311.000
441.090;  -81.600; -199.000;  -33.000
441.213; -177.475;-1021.000; -825.000
441.336;  -58.350; -159.000;   -5.000
441.458;  -96.650; -549.000; -396.000
441.581; -110.975; -628.000; -629.000
441.703;  -73.425; -152.000;   13.000
441.826; -124.775; -557.000; -400.000
441.948;  -68.425;   56.000;   51.000
442.071;   22.150;  555.000;  424.000
442.193; -130.425; -531.000; -485.000
442.316;    1.150;  152.000;   97.000
442.438;   43.375; -233.000;  -10.000
442.561;   66.575;  272.000;  262.000
442.683;  342.350; -809.000; -522.000
442.806;  896.200;   -8.000;   74.000
442.928;   -8.400; -859.000; -604.000
443.051;  -72.775; -577.000; -373.000
443.173;  -87.500; -341.000; -339.000
443.295;  -85.125; -263.000; -371.000
443.418;  -79.125; -321.000;  -29.000
443.540;  -22.350; -106.000;   -4.000
443.662; -139.150; -563.000; -465.000
443.785;  -12.225;  335.000;  199.000
443.907; -100.800; -362.000; -208.000
444.029; -141.300; -767.000; -494.000
444.152; -159.950; -644.000; -554.000
444.274;  -49.150;  -18.000;  -24.000
444.396; -113.525; -461.000; -221.000
444.518; -132.525; -691.000; -454.000
444.640; -106.650; -268.000; -111.000
444.763;  -18.675;  388.000;  249.000
444.885; -112.150; -432.000; -392.000
445.007;  -43.875;   35.000;   86.000
445.129; -121.925; -610.000; -515.000
445.251; -114.600; -372.000; -439.000
445.373; -145.900; -537.000; -386.000
445.495;  -10.725;  242.000;  350.000
445.617;   42.425;  853.000;  753.000
445.739;  -75.425; -215.000;  -97.000
445.861;  -51.700; -245.000; -112.000
445.984;  -51.225; -267.000; -101.000
446.105;  109.400; -418.000; -251.000
446.227;  446.900; -176.000;  -19.000
446.349;  -31.125; -358.000; -249.000
446.471;  -98.050; -615.000; -448.000
446.593;  -70.250; -316.000;   19.000
446.715;  -25.100;  -67.000;   41.000
446.837;   36.125;  697.000;  832.000
446.959; -107.900; -457.000; -478.000
447.081; -132.275; -628.000; -518.000
447.203;   44.275;  862.000;  834.000
447.325; -102.550; -270.000;   42.000
447.446;  -12.350;  286.000;  530.000
447.568; -154.575; -921.000; -803.000
447.690;  -76.525; -236.000; -245.000
447.812; -150.900; -798.000; -519.000
447.933;  -35.450;  155.000;  127.000
448.055;  -71.475; -306.000; -261.000
448.177;   97.650;   31.000;   79.000
448.299;   36.475; -935.000; -727.000
448.420;   12.575;  -25.000;  159.000
448.542;  -54.075;   -3.000;   33.000
448.664;  -30.600;  109.000;  322.000
448.785;  -37.725;  265.000;   83.000
448.907;  -79.550; -614.000; -353.000
449.028;  -59.200; -771.000; -471.000
449.150;   43.250;  492.000;  589.000
449.272; -174.600;-1044.000; -913.000
449.393;   17.325;  612.000;  694.000
449.515; -144.825; -634.000; -581.000
449.636;  -73.400; -264.000; -155.000
449.758;   60.575;  763.000;  622.000
449.879;  -86.850; -498.000; -396.000
450.001;  -76.150; -149.000;  -49.000
450.122;  -38.825;  -95.000;  162.000
450.244;  -40.150;   37.000;  364.000
450.365;  -90.825; -495.000; -301.000
450.486;  -37.000;   80.000;  268.000
450.608;   32.525;  393.000;  326.000
450.729;   66.100;  578.000;  645.000
450.850;   21.700; -574.000; -466.000
450.972;  777.375; -552.000; -389.000
451.093; 5290.800;  190.000;  588.000
451.214; 2494.775; -516.000; -337.000
451.336;  405.175;  773.000;  579.000
451.457;   71.350;  264.000;  393.000
451.578;  -36.225; -118.000;  -74.000
451.699; -119.750; -546.000; -540.000
451.821;  -75.825; -284.000;  -50.000
451.942;  -10.100;  278.000;  285.000
452.063;   29.425;  228.000;  419.000
452.184;  552.525;  -54.000;  -49.000
452.305; 1179.100;  103.000;  170.000
452.427;  179.800; -549.000; -301.000
452.548;  -15.225;   23.000;   79.000
452.669;  -66.800; -257.000;  -89.000
452.790;  -45.300;    3.000;  -18.000
452.911;  -14.750;  195.000;  259.000
453.032;  -77.775; -289.000;  -60.000
453.153;  -65.625;  -29.000;   81.000
453.274;   57.675;  737.000;  868.000
453.395;  -62.375;  -51.000;  175.000
453.516;  107.300; 1317.000; 1388.000
453.637;  -79.750; -205.000; -150.000
453.758;  -54.550;   15.000;   69.000
453.879; -129.075; -462.000; -250.000
454.000;   86.200; 1086.000;  948.000
454.121; -116.650; -554.000; -326.000
454.242; -116.700; -599.000; -383.000
454.362;  -64.625;  -99.000;  114.000
454.483;  -38.375; -309.000; -229.000
454.604;   32.025;  512.000;  580.000
454.725; -133.425; -627.000; -555.000
454.846; -132.150; -474.000; -406.000
454.967;  -16.900;  230.000;  539.000
455.087;  -60.875;  179.000;  153.000
455.208;   16.700;  554.000;  856.000
455.329;  -70.950;  -22.000;   82.000
455.450;   51.150;  473.000;  633.000
455.570;  -74.775; -234.000; -211.000
455.691;  -53.625;  201.000;  407.000
455.812; -112.825; -270.000;  -92.000
455.932;  -63.275;  107.000;  -97.000
456.053;  -82.450;   36.000;   24.000
456.173; -120.775; -433.000; -355.000
456.294; -131.075; -476.000; -303.000
456.415;  -79.375;  -73.000;   70.000
456.535;  -48.775;  297.000;  273.000
456.656;  -44.550;  132.000;  240.000
456.776;  -75.400;    3.000;  298.000
456.897;   -9.675;  308.000;  513.000
457.017;  -87.675; -153.000;   -3.000
457.138; -105.225; -402.000; -249.000
457.258;  -40.775;  263.000;  224.000
457.379;  -24.950;  509.000;  521.000
457.499;  -37.175;  443.000;  432.000
457.620; -124.975; -407.000; -231.000
457.740; -105.400; -132.000;  -11.000
457.860;  -57.600;   87.000;   44.000
457.981;  -66.150;  132.000;  124.000
458.101;  -85.125;  -89.000;   40.000
458.221;  -29.325;  336.000;  402.000
458.342;  -65.525;   -4.000;  -37.000
458.462;    6.875;  617.000;  352.000
458.582;  -10.300; -302.000; -294.000
458.703;    1.925;  303.000;  154.000
458.823;  -27.600;   22.000;  163.000
458.943;   14.050;  341.000;  467.000
459.063;  -21.625; 1124.000;  192.000
459.183;  -27.100;  328.000;  313.000
459.304;    3.225;  315.000;  517.000
459.424;  -72.625; -246.000;  -89.000
459.544;  326.550;  388.000;  764.000
459.664;  878.375;  499.000;  506.000
459.784;  333.025; 1004.000; 1175.000
459.904;   59.450;  867.000;  744.000
460.024;   46.275;  867.000;  684.000
460.144;   -6.350;  449.000;  554.000
460.264;   -6.200;  515.000;  327.000
460.385; -107.750; -145.000; -119.000
460.505;   45.625;  905.000;  858.000
460.625;  -90.475;  -17.000;  -68.000
460.745;  -11.775;  396.000;  541.000
460.864;  -61.175;  153.000;  469.000
460.984;   15.425;  499.000;  573.000
461.104;  124.750; 1656.000; 1775.000
461.224;    6.575;  657.000;  650.000
461.344;  -29.000;  431.000;  360.000
461.464;  -45.625;  258.000;  513.000
461.584;  -20.850;  283.000;  466.000
461.704;  -47.600;   58.000;  108.000
461.824;  -63.400;  238.000;  259.000
461.943;  -56.375;  191.000;  130.000
462.063;  -72.750;    2.000;  324.000
462.183;   32.500;  639.000;  717.000
462.303;   96.050; 1678.000; 1230.000
462.422;   16.000;  781.000;  840.000
462.542;  -41.450;  271.000;  391.000
462.662;   24.850;  353.000;  380.000
462.782;  247.575;  833.000;  572.000
462.901;  504.300;  545.000;  717.000
463.021;  278.375; 1702.000; 1638.000
463.141;   -7.575;  337.000;  770.000
463.260;  -31.825;  614.000;  474.000
463.380;   19.175;  902.000;  884.000
463.499;  -48.850;  342.000;  332.000
463.619;  -24.600;  581.000;  559.000
463.738;  107.225; 1644.000;  903.000
463.858;    9.850;  657.000;  811.000
463.978;  -39.675;  542.000;  396.000
464.097;   43.525;  921.000; 1114.000
464.217;  109.325; 1196.000; 1143.000
464.336;  111.000; 1068.000; 1130.000
464.455;  -40.325;  328.000;  659.000
464.575;   32.575;  597.000;  602.000
464.694;  140.000; 1204.000; 1179.000
464.814;  128.400; 1190.000; 1138.000
464.933;   59.025; 1095.000; 1027.000
465.052;   93.050; 1412.000; 1054.000
465.172;   71.450;  922.000;  799.000
465.291;  122.600; 1376.000; 1320.000
465.410;   10.575;  462.000;  735.000
465.530;   77.250; 1355.000; 1310.000
465.649;   55.175; 1209.000; 1273.000
465.768;  139.050; 1673.000; 1508.000
465.888;   37.675;  941.000; 1174.000
466.007;   84.250; 1335.000; 1440.000
466.126;   -8.475;  721.000;  641.000
466.245;   40.025; 1176.000; 1187.000
466.364;   15.200;  950.000; 1060.000
466.484;   40.850; 1024.000; 1213.000
466.603;   23.425; 1101.000; 1222.000
466.722;  103.950; 1490.000; 1769.000
466.841;   74.775; 1151.000; 1401.000
466.960;   22.775; 1069.000;  972.000
467.079;  138.200; 1971.000; 1786.000
467.198;   49.100; 1238.000; 1181.000
467.317;   84.800; 1768.000; 1162.000
467.436;   63.925; 1709.000; 1261.000
467.555;  114.450; 1796.000; 1746.000
467.674;   70.550; 1227.000; 1329.000
467.793;   34.850; 1376.000; 1374.000
467.912;   82.725; 1658.000; 1539.000
468.031;  129.725; 2038.000; 1930.000
468.150;  144.050; 1842.000; 1837.000
468.269;  186.825; 2313.000; 2090.000
468.388;  178.975; 2168.000; 2339.000
468.507;  220.675; 2884.000; 2903.000
468.626;  274.875; 2555.000; 2541.000
468.744;  144.275; 2018.000; 2174.000
468.863;  200.000; 2312.000; 2523.000
468.982;   76.600; 1503.000; 1555.000
469.101;  210.425; 2788.000; 2692.000
469.220;  143.400; 2333.000; 2176.000
469.338;  246.450; 2935.000; 3051.000
469.457;  184.275; 2719.000; 2545.000
469.576;  341.700; 3953.000; 3784.000
469.695;  245.200; 2877.000; 3066.000
469.813;  398.375; 4148.000; 4192.000
469.932;  383.125; 4255.000; 4485.000
470.051;  416.375; 4075.000; 4161.000
470.169;  864.700; 4470.000; 4338.000
470.288; 1540.500; 4700.000; 4809.000
470.406;  932.925; 5059.000; 5194.000
470.525;  620.375; 6101.000; 5787.000
470.644;  642.775; 6847.000; 6794.000
470.762;  814.900; 8397.000; 7873.000
470.881;  912.850; 8651.000; 8464.000
470.999; 1034.850; 9685.000; 9151.000
471.118; 1102.775;11174.000;10711.000

