
Integration time [ms]: 200.000
Averaging Nr. [scans]: 10
Smoothing Nr. [pixels]: 0
Data measured with spectrometer [name]: 2101012U2
Wave   ;Sample   ;Dark     ;Reference
[nm]   ;[counts] ;[counts] ;[counts] 

197.733;  101.800;  516.000;  404.000
197.879; -150.000; -610.000; -634.000
198.025;  -98.700; -475.000; -420.000
198.171; -152.200; -602.000; -612.000
198.317;  -33.400; -401.000; -316.000
198.463; -164.400; -655.000; -404.000
198.609;   71.800;  181.000; -137.000
198.755; -186.800; -644.000; -410.000
198.901; -145.700; -505.000; -424.000
199.047; -159.400; -615.000; -488.000
199.193; -107.500; -230.000; -468.000
199.339;  -73.100; -222.000; -369.000
199.485;   61.500;  330.000;  271.000
199.631;   26.500;  227.000;  310.000
199.777; -118.700; -466.000; -398.000
199.923; -133.300; -610.000; -424.000
200.069;  -11.700; -141.000;  -58.000
200.215;  123.100;  128.000;  453.000
200.361;   67.500;  243.000;  477.000
200.507; -137.600; -600.000; -373.000
200.653;  -40.500; -371.000; -194.000
200.798;  -89.200; -215.000; -125.000
200.944;   -2.300; -146.000;  -41.000
201.090;   35.700;   61.000;  222.000
201.236;   23.800; -116.000; -158.000
201.382;  258.200;  874.000;  903.000
201.528;    4.200;  -58.000;  -48.000
201.674; -135.700; -386.000; -293.000
201.819; -143.400; -540.000; -439.000
201.965; -185.200; -699.000; -447.000
202.111;  -71.300; -273.000; -226.000
202.257;  -85.000; -250.000; -238.000
202.402;    2.500;   13.000;  -36.000
202.548;  -73.000; -169.000; -116.000
202.694;  146.900;  410.000; -183.000
202.840; -173.800; -603.000; -531.000
202.985; -154.400; -681.000; -639.000
203.131; -236.200; -832.000; -666.000
203.277;  -66.200; -199.000; -262.000
203.423; -112.800; -434.000; -520.000
203.568;  -75.600; -462.000; -237.000
203.714; -131.500; -535.000; -542.000
203.860; -166.600; -682.000; -641.000
204.005;   35.100;  112.000;  167.000
204.151;  171.300;  561.000;  556.000
204.296; -102.600; -354.000; -221.000
204.442; -146.000; -600.000; -547.000
204.588; -186.500; -592.000; -579.000
204.733;   37.100;  178.000;  168.000
204.879; -289.300;-1018.000; -822.000
205.025;   29.000;  -99.000;  126.000
205.170;  -16.800;  -17.000;   94.000
205.316;  172.800;  438.000;  661.000
205.461; -176.600; -698.000; -554.000
205.607;  196.900;  609.000;  665.000
205.752; -178.700; -626.000; -551.000
205.898; -105.100; -501.000; -391.000
206.043; -150.300; -578.000; -506.000
206.189;  -97.800; -243.000; -285.000
206.334;  154.500;  554.000;  606.000
206.480;  173.800;  409.000;  239.000
206.625; -182.000; -529.000; -552.000
206.771; -107.200; -451.000; -373.000
206.916;  -62.100; -210.000; -537.000
207.062; -164.600; -545.000; -591.000
207.207; -139.100; -546.000; -443.000
207.353;  121.400;  185.000;  460.000
207.498;   32.600;  196.000;   85.000
207.643;  -95.900; -501.000; -370.000
207.789; -278.600;-1069.000; -910.000
207.934; -212.300; -665.000; -713.000
208.080;  -75.700; -154.000;   66.000
208.225;  -31.900;  -22.000;  -57.000
208.370; -196.300; -727.000; -619.000
208.516; -142.500; -741.000; -487.000
208.661;  -41.200; -127.000;  -69.000
208.806;  -20.700; -165.000; -171.000
208.952; -260.300;-1044.000; -731.000
209.097;  168.700;  378.000;  349.000
209.242;  -97.600; -307.000; -382.000
209.387;   83.300;  392.000;  350.000
209.533; -137.600; -321.000; -350.000
209.678;  155.700;  472.000;  543.000
209.823; -129.000; -408.000; -310.000
209.969; -208.100; -860.000; -757.000
210.114; -234.900; -907.000; -719.000
210.259; -239.600; -939.000; -889.000
210.404;  -10.500; -171.000;  103.000
210.549;   39.500;  108.000;    3.000
210.695;  -56.400;   -3.000;  -95.000
210.840;   41.200;   94.000;   67.000
210.985; -121.200; -484.000; -303.000
211.130;  121.900;  268.000;  406.000
211.275;   30.400;  207.000;  199.000
211.420; -100.500; -300.000; -289.000
211.566; -162.000; -536.000; -489.000
211.711;   34.800;  218.000;  157.000
211.856; -165.300; -545.000; -519.000
212.001;   46.200;  151.000;   44.000
212.146;    5.400;  153.000;   49.000
212.291;  -30.100; -210.000; -186.000
212.436;  -96.900; -280.000;   -6.000
212.581; -181.200; -685.000; -653.000
212.726; -172.700; -487.000; -538.000
212.871; -109.900; -552.000; -217.000
213.016; -313.900;-1172.000;-1029.000
213.161;  102.500;  406.000;  291.000
213.306; -151.000; -435.000; -577.000
213.451; -217.200; -778.000; -689.000
213.596;  -64.200; -455.000; -347.000
213.741; -108.400; -448.000; -538.000
213.886; -152.800; -498.000; -517.000
214.031;  -45.300; -294.000; -124.000
214.176; -128.900; -408.000; -341.000
214.321;   -8.500; -296.000; -157.000
214.466;  -49.600; -163.000;  -43.000
214.611;    5.100;  -61.000;  -10.000
214.756; -272.300; -948.000; -858.000
214.901;  -51.600; -388.000; -226.000
215.046; -294.200; -797.000; -825.000
215.191;   48.800;  128.000;   35.000
215.336;  -41.600; -157.000;  -19.000
215.480; -158.600; -684.000; -505.000
215.625;  -21.100; -175.000;  -19.000
215.770; -182.400; -757.000; -662.000
215.915;  -14.800;   -5.000;  -97.000
216.060;   12.400; -113.000;  -21.000
216.205; -221.900; -731.000; -779.000
216.349; -159.400; -470.000; -533.000
216.494; -277.900; -939.000; -867.000
216.639; -243.700; -823.000; -888.000
216.784; -194.900; -577.000; -525.000
216.929;  105.400;  392.000;  281.000
217.073;   -5.200; -244.000;  -31.000
217.218;   13.700;   78.000;  -47.000
217.363; -192.100; -656.000; -618.000
217.507; -172.900; -623.000; -588.000
217.652; -257.100; -845.000; -874.000
217.797; -176.600; -708.000; -659.000
217.942; -235.000; -856.000; -720.000
218.086;  156.400;  608.000;  539.000
218.231;   -8.700; -174.000;  -26.000
218.376;  -66.700; -337.000; -229.000
218.520;   18.000;  -41.000;   96.000
218.665;  -48.400; -338.000; -204.000
218.810;  -88.900; -275.000; -233.000
218.954;   47.200;  201.000;   35.000
219.099; -259.800; -713.000; -963.000
219.243; -137.500; -589.000; -554.000
219.388;  -75.900; -264.000; -136.000
219.532;    1.000; -116.000; -116.000
219.677; -172.300; -564.000; -521.000
219.822;    0.400;   33.000;   89.000
219.966;    2.700;   17.000;  -99.000
220.111;  -35.100; -328.000;  -40.000
220.255; -210.500; -797.000; -750.000
220.400;  -46.800; -180.000; -146.000
220.544; -146.300; -516.000; -450.000
220.689; -135.300; -422.000; -451.000
220.833;  -39.600; -123.000;  -58.000
220.978; -117.100; -393.000; -563.000
221.122;   38.100;  319.000;  307.000
221.267; -238.500; -906.000; -837.000
221.411; -144.300; -478.000; -394.000
221.555;   -6.300; -104.000;  -23.000
221.700; -106.800; -329.000; -222.000
221.844;  102.700;  255.000;  272.000
221.989;  -86.000; -328.000; -311.000
222.133;  -56.800; -289.000; -307.000
222.277;  -18.200;    5.000;   78.000
222.422;   69.200;  227.000;  113.000
222.566; -102.700; -381.000; -214.000
222.711; -100.800; -414.000; -479.000
222.855; -172.000; -643.000; -586.000
222.999; -174.500; -642.000; -717.000
223.144;  -32.300; -195.000; -194.000
223.288;  143.800;  423.000;  251.000
223.432;   14.500;  184.000;  230.000
223.576;   48.500;  152.000;  -21.000
223.721;  104.600;  364.000;  273.000
223.865; -102.800; -472.000; -475.000
224.009;  426.400; 1673.000; 1631.000
224.153; -179.400; -660.000; -671.000
224.298; -146.200; -531.000; -489.000
224.442;  -12.700;  -74.000;  -33.000
224.586;  -47.200; -169.000; -106.000
224.730; -207.600; -858.000; -670.000
224.875; -225.900; -739.000; -688.000
225.019;   28.800;  102.000;  188.000
225.163;  116.300;  208.000;  341.000
225.307;   44.600;   97.000;  -91.000
225.451;   98.700;  360.000;  481.000
225.595;   74.000;  264.000;  176.000
225.739;  -19.900; -170.000;  -94.000
225.884;   15.200;   86.000;    5.000
226.028; -215.400; -760.000; -626.000
226.172;  -82.600; -260.000; -273.000
226.316; -233.300; -941.000; -902.000
226.460; -139.200; -645.000; -493.000
226.604; -136.600; -406.000; -400.000
226.748; -208.000; -836.000; -733.000
226.892;  -71.400; -227.000; -181.000
227.036; -101.900; -537.000; -447.000
227.180; -127.100; -551.000; -375.000
227.324; -120.800; -561.000; -580.000
227.468; -253.200; -819.000; -717.000
227.612;   23.700;  242.000;  -28.000
227.756; -214.800; -845.000; -698.000
227.900;   97.800;  342.000;  441.000
228.044; -111.800; -509.000; -290.000
228.188;  112.800;  448.000;  568.000
228.332; -163.500; -546.000; -472.000
228.476;  -37.100; -223.000; -149.000
228.620;  -70.500; -210.000; -150.000
228.764;  155.100;  431.000;  349.000
228.908;   -3.300; -155.000;   30.000
229.052; -142.900; -615.000; -528.000
229.195;  -57.200; -172.000;   13.000
229.339;  -44.100; -235.000; -305.000
229.483;  -85.700;    5.000; -162.000
229.627;   14.200; -156.000;  139.000
229.771; -127.000; -218.000; -294.000
229.915;   17.500;  230.000;   79.000
230.059; -193.200; -648.000; -663.000
230.202;  -49.500; -370.000; -317.000
230.346;  -42.300; -107.000;  107.000
230.490; -111.800; -489.000; -521.000
230.634; -200.100; -736.000; -553.000
230.777;  163.600;  478.000;  509.000
230.921;  -99.600; -450.000; -359.000
231.065;  -95.000; -246.000; -286.000
231.209;   59.500;  261.000;  265.000
231.352;   28.000;   54.000;   40.000
231.496;   55.500;  568.000;  188.000
231.640; -151.700; -693.000; -621.000
231.783;  118.300;  546.000;  525.000
231.927;  -83.800; -294.000; -365.000
232.071; -258.400; -962.000; -736.000
232.214; -234.800; -980.000; -764.000
232.358; -197.100; -683.000; -599.000
232.502;   27.400;  -19.000;    7.000
232.645; -305.800;-1090.000; -927.000
232.789;  -45.600; -257.000; -218.000
232.933;  -77.300; -407.000; -224.000
233.076; -269.400;-1038.000; -897.000
233.220; -226.200; -752.000; -777.000
233.363; -132.900; -669.000; -477.000
233.507;  140.400;  371.000;  129.000
233.650; -181.400; -764.000; -834.000
233.794;   67.800;  438.000;  461.000
233.938; -115.300; -530.000; -362.000
234.081;  -17.800;  -93.000;   31.000
234.225; -150.100; -631.000; -539.000
234.368; -229.100; -773.000; -723.000
234.512;  -88.000; -385.000; -299.000
234.655; -183.300; -582.000; -555.000
234.798; -137.600; -493.000; -466.000
234.942; -300.300; -884.000;-1002.000
235.085; -115.300; -651.000; -443.000
235.229; -152.100; -405.000; -410.000
235.372;  -64.700; -247.000; -191.000
235.516; -145.500; -397.000; -321.000
235.659;   52.800;   92.000;  121.000
235.802;  -17.600;  -38.000;  -22.000
235.946;   92.500;  335.000;  215.000
236.089;   61.100;  126.000;  250.000
236.233;  159.400;  275.000;  298.000
236.376; -114.000; -235.000; -378.000
236.519;  -66.400; -297.000; -319.000
236.663;  -45.800; -215.000; -117.000
236.806; -265.000;-1029.000; -999.000
236.949;  111.700;  543.000;  431.000
237.092;  117.500;  412.000;  391.000
237.236; -179.000; -589.000; -502.000
237.379;  139.700;  352.000;  428.000
237.522; -260.000; -879.000; -768.000
237.666;  -14.800; -271.000;   18.000
237.809; -297.000; -851.000; -823.000
237.952;   87.100;  469.000;  271.000
238.095; -148.900; -447.000; -442.000
238.238;  179.400;  688.000;  700.000
238.382;  -24.700;  166.000;  103.000
238.525; -130.000; -598.000; -511.000
238.668; -324.200;-1060.000; -985.000
238.811; -158.100; -638.000; -643.000
238.954; -105.100; -483.000; -334.000
239.097;  193.000;  617.000;  664.000
239.241;   69.900;  394.000;  326.000
239.384;  -56.600; -254.000; -214.000
239.527; -113.500; -424.000; -224.000
239.670; -284.300; -994.000;-1091.000
239.813; -223.800; -696.000; -658.000
239.956;  160.600;  579.000;  473.000
240.099; -251.100; -778.000; -725.000
240.242;  154.900;  428.000;  432.000
240.385;  115.400;  466.000;  450.000
240.528; -136.000; -706.000; -473.000
240.671;   15.300;  189.000;  134.000
240.814;  -74.000; -441.000; -158.000
240.957; -178.500; -767.000; -578.000
241.100; -215.300; -779.000; -755.000
241.243; -316.100;-1234.000; -893.000
241.386; -112.000; -508.000; -379.000
241.529; -176.400; -735.000; -547.000
241.672; -120.300; -566.000; -495.000
241.815; -282.400; -832.000; -808.000
241.958;  -74.400; -125.000; -182.000
242.101; -164.700; -545.000; -390.000
242.244;  -63.000; -270.000; -325.000
242.387; -101.000; -304.000; -246.000
242.530;  127.700;  470.000;  134.000
242.673;  -78.700; -381.000; -309.000
242.815; -222.400; -925.000; -899.000
242.958; -149.400; -482.000; -381.000
243.101;   57.100;  132.000;  187.000
243.244; -162.200; -564.000; -521.000
243.387;  -80.300; -313.000; -316.000
243.530; -212.000; -657.000; -674.000
243.672;   -0.100;   43.000;  -92.000
243.815; -111.400; -355.000; -283.000
243.958;   15.000;   98.000;  -26.000
244.101;    0.300;   59.000;  -16.000
244.243;  -22.800;  -47.000;  101.000
244.386; -236.900; -761.000; -630.000
244.529;  -31.300; -132.000; -139.000
244.672; -322.900;-1154.000; -951.000
244.814; -230.600; -621.000; -794.000
244.957; -129.800; -380.000; -304.000
245.100; -124.800; -489.000; -489.000
245.242; -117.800; -387.000; -374.000
245.385;    3.000;  -59.000;  -39.000
245.528; -254.600; -871.000; -705.000
245.670;  220.200;  612.000;  634.000
245.813; -172.500; -599.000; -547.000
245.956;  -46.400; -324.000; -275.000
246.098; -177.900; -508.000; -650.000
246.241;    9.000;  194.000;   48.000
246.383;  -26.200; -119.000;  -73.000
246.526; -130.100; -454.000; -525.000
246.669; -235.700; -889.000; -780.000
246.811;   95.900;  172.000;   -1.000
246.954; -168.100; -512.000; -426.000
247.096;  -57.800;  -84.000;   -6.000
247.239; -149.600; -482.000; -445.000
247.381; -141.400; -647.000; -488.000
247.524;  208.300;  645.000;  679.000
247.666;   22.400;   58.000;   11.000
247.809; -247.500; -887.000; -691.000
247.951;  -44.300;  -75.000;  138.000
248.094;   74.900;  432.000;  308.000
248.236; -331.500;-1262.000;-1238.000
248.378;  -19.200; -356.000;  -81.000
248.521;  -63.800; -334.000; -337.000
248.663;  -75.000; -236.000; -267.000
248.806;  -42.000; -300.000; -266.000
248.948; -199.500; -886.000; -763.000
249.090; -103.600; -428.000; -398.000
249.233; -116.100; -344.000; -381.000
249.375; -130.300; -474.000; -451.000
249.518;  -54.800;  -83.000; -133.000
249.660;   16.400; -103.000;    3.000
249.802; -373.900;-1303.000;-1189.000
249.945; -128.100; -612.000; -540.000
250.087; -250.400; -834.000; -768.000
250.229; -135.300; -362.000; -480.000
250.371; -163.500; -494.000; -439.000
250.514; -114.700; -310.000; -244.000
250.656; -125.900;   69.000;  102.000
250.798; -215.600; -849.000; -800.000
250.940; -146.300; -322.000; -322.000
251.083;  -39.400; -335.000; -111.000
251.225;  134.700;  338.000;  310.000
251.367;  -57.200; -274.000; -373.000
251.509;  -69.100; -265.000; -210.000
251.651; -194.700; -731.000; -671.000
251.794;  144.500;  538.000;  632.000
251.936; -223.800; -821.000; -747.000
252.078; -168.100; -540.000; -461.000
252.220; -139.600; -645.000; -477.000
252.362;  160.700;  344.000;  462.000
252.504; -117.600; -677.000; -584.000
252.646; -240.400; -875.000; -722.000
252.788;  -18.300;   14.000; -128.000
252.931;  -51.800; -257.000; -253.000
253.073;  -65.500; -376.000; -317.000
253.215;  -16.800;  141.000;  122.000
253.357;   -7.400;   82.000; -153.000
253.499; -117.800; -374.000; -234.000
253.641; -182.100; -749.000; -594.000
253.783; -179.800; -609.000; -527.000
253.925; -161.500; -586.000; -591.000
254.067; -217.400; -744.000; -667.000
254.209;  -56.500; -391.000; -259.000
254.351; -273.900; -865.000; -883.000
254.493; -106.100; -441.000; -417.000
254.635; -250.500; -936.000; -818.000
254.777; -193.000; -752.000; -687.000
254.918; -159.500; -512.000; -430.000
255.060; -107.900; -551.000; -395.000
255.202; -125.600; -473.000; -261.000
255.344; -135.900; -658.000; -455.000
255.486; -134.500; -471.000; -406.000
255.628; -211.700; -780.000; -781.000
255.770; -156.600; -676.000; -536.000
255.912;  -85.800; -559.000; -468.000
256.053; -194.200; -730.000; -508.000
256.195;  341.300; 1008.000;  903.000
256.337; -209.300; -861.000; -595.000
256.479;  145.400;  532.000;  416.000
256.621; -110.900; -394.000; -212.000
256.762; -179.700; -789.000; -742.000
256.904;  133.400;  485.000;  487.000
257.046;  -82.900; -381.000; -271.000
257.188;  -94.500; -351.000; -264.000
257.329; -149.700; -525.000; -464.000
257.471; -232.000; -939.000; -807.000
257.613; -121.900; -584.000; -498.000
257.755; -314.400;-1073.000; -982.000
257.896;   60.900;  286.000;  392.000
258.038; -106.400; -403.000; -352.000
258.180;  -85.200; -354.000; -279.000
258.321; -170.800; -581.000; -457.000
258.463;   -4.800;  -71.000;  133.000
258.605; -191.200; -562.000; -570.000
258.746; -205.500; -886.000; -772.000
258.888; -327.300;-1026.000;-1020.000
259.029;   40.500;  121.000;   -8.000
259.171; -192.700; -614.000; -550.000
259.313;  -17.700;  -49.000;  -47.000
259.454; -166.700; -536.000; -414.000
259.596; -129.600; -483.000; -390.000
259.737; -139.400; -590.000; -474.000
259.879;   86.400;  217.000;  311.000
260.020;  189.800;  901.000;  636.000
260.162;  -54.600; -146.000; -253.000
260.303; -250.400; -768.000; -687.000
260.445; -150.100; -609.000; -613.000
260.586;   66.700;  392.000;  157.000
260.728;  -55.600; -360.000; -248.000
260.869; -156.100; -350.000; -343.000
261.011;  171.300;  706.000;  537.000
261.152; -102.500; -479.000; -319.000
261.293; -141.200; -576.000; -595.000
261.435;  -79.900; -219.000; -184.000
261.576;  -87.600; -455.000; -325.000
261.718;   85.200;  420.000;  470.000
261.859; -238.100; -940.000; -949.000
262.000; -287.700; -951.000;-1016.000
262.142;   -5.100;  -52.000;  -60.000
262.283; -236.800; -808.000; -691.000
262.424; -183.600; -666.000; -625.000
262.566; -314.600;-1161.000; -983.000
262.707; -199.500; -840.000; -830.000
262.848; -251.500; -769.000; -726.000
262.990;  -58.700; -362.000; -345.000
263.131;  172.400;  650.000;  681.000
263.272;    0.000;  -61.000;  -41.000
263.413; -205.200; -589.000; -561.000
263.555; -116.700; -669.000; -143.000
263.696; -171.500; -550.000; -641.000
263.837; -113.000; -449.000; -551.000
263.978;  -24.400;   -5.000;  -77.000
264.119;  -63.400; -283.000; -264.000
264.261; -246.500; -847.000; -630.000
264.402;   34.300;   33.000;   40.000
264.543; -171.200; -509.000; -524.000
264.684;  -21.500;   61.000;  -50.000
264.825; -129.000; -816.000; -538.000
264.966;   15.000;  -84.000;  -67.000
265.107; -236.300; -646.000; -670.000
265.248; -234.300; -825.000; -812.000
265.390;   20.900;  152.000;   -9.000
265.531;  -16.900; -238.000; -107.000
265.672; -188.300; -557.000; -630.000
265.813;  147.300;  563.000;  439.000
265.954; -287.700; -959.000; -940.000
266.095;  -18.300; -372.000; -322.000
266.236; -215.100; -686.000; -548.000
266.377;  -77.700; -243.000; -297.000
266.518; -146.500; -619.000; -547.000
266.659;  116.700;  170.000;  268.000
266.800;   40.900;   83.000;   85.000
266.941; -153.400; -487.000; -478.000
267.082;   65.300;  354.000;   99.000
267.223;  -74.100; -344.000; -273.000
267.364; -220.700; -892.000; -686.000
267.504;    6.900;    3.000;  135.000
267.645;   16.000;  160.000;   67.000
267.786;  -59.400; -147.000;  -86.000
267.927; -130.500; -473.000; -379.000
268.068;   -7.200; -186.000;  -61.000
268.209;  -87.400; -175.000; -413.000
268.350;  -79.100; -388.000; -532.000
268.490; -170.900; -648.000; -521.000
268.631;   86.600;  127.000;  225.000
268.772; -199.000; -874.000; -647.000
268.913;  -97.200; -328.000; -476.000
269.054;   -5.000; -117.000;   12.000
269.194;  -98.400; -418.000; -402.000
269.335; -343.200;-1137.000;-1074.000
269.476;  -25.800;   33.000;  -35.000
269.617; -107.000; -347.000; -392.000
269.757; -184.600; -713.000; -646.000
269.898; -241.800; -856.000; -613.000
270.039;  -99.700; -415.000; -405.000
270.180; -281.000; -952.000; -816.000
270.320;  -10.200; -190.000; -250.000
270.461; -102.500; -277.000; -249.000
270.602;   -2.400; -186.000; -156.000
270.742; -258.900; -868.000; -943.000
270.883; -124.500; -442.000; -390.000
271.023; -106.600; -358.000; -357.000
271.164; -146.000; -607.000; -528.000
271.305; -207.400; -666.000; -654.000
271.445; -153.800; -722.000; -683.000
271.586;  -97.100; -462.000; -283.000
271.726;  -83.800; -397.000; -322.000
271.867; -136.900; -594.000; -534.000
272.008;  330.300; -473.000; -285.000
272.148;  253.200;  462.000;  468.000
272.289;   37.000; -113.000; -181.000
272.429;   59.800;   19.000;  185.000
272.570; -147.400; -633.000; -737.000
272.710; -205.600; -825.000; -775.000
272.851;  -33.000;  113.000; -130.000
272.991; -328.200;-1173.000;-1077.000
273.131; -137.700; -419.000; -459.000
273.272; -208.800; -683.000; -723.000
273.412;   43.800; -143.000;  -31.000
273.553; -122.000; -488.000; -507.000
273.693;  336.600;  913.000;  858.000
273.834; -204.700; -894.000; -692.000
273.974; -145.400; -664.000; -615.000
274.114; -179.400; -772.000; -560.000
274.255;  165.300;  414.000;  373.000
274.395;   24.900; -180.000; -125.000
274.535;  109.600;  199.000;  350.000
274.676;   83.900;  225.000;   94.000
274.816;   19.800;  110.000;   34.000
274.956; -173.700; -624.000; -690.000
275.097; -131.600;-1014.000; -922.000
275.237; -209.200; -913.000; -803.000
275.377; -181.900; -778.000; -689.000
275.517; -318.500; -878.000; -937.000
275.658; -110.800; -590.000; -555.000
275.798; -126.800; -606.000; -413.000
275.938;   58.000;  215.000;  323.000
276.078; -177.600; -626.000; -395.000
276.218;   29.300;   99.000;  104.000
276.359; -252.600;-1026.000;-1024.000
276.499; -111.000; -605.000; -446.000
276.639;  -49.300; -305.000; -151.000
276.779;  -75.200; -475.000; -357.000
276.919; -202.900; -783.000; -624.000
277.059;  -40.600; -261.000; -212.000
277.199; -100.000; -357.000; -259.000
277.340;  132.000;  287.000;  175.000
277.480; -210.500; -840.000; -693.000
277.620;   89.000;  192.000;   16.000
277.760; -380.200;-1533.000;-1294.000
277.900;   36.900;  113.000;   33.000
278.040;   65.300;  137.000;  159.000
278.180;   96.900;  270.000;  170.000
278.320;    9.600;   21.000;   56.000
278.460; -109.800; -443.000; -469.000
278.600; -176.300; -708.000; -598.000
278.740;  160.000;  448.000;  224.000
278.880; -124.700; -768.000; -791.000
279.020;   50.300; -194.000; -144.000
279.160; -174.600; -672.000; -595.000
279.300; -215.900; -926.000; -873.000
279.440; -182.600; -709.000; -622.000
279.579;  -69.800;-1014.000; -929.000
279.719;  -99.600; -410.000; -394.000
279.859;  160.600;   -4.000;   41.000
279.999;   15.500; -208.000;  101.000
280.139;  -72.900; -435.000; -387.000
280.279; -159.600; -708.000; -745.000
280.419;  -22.700; -229.000; -147.000
280.559;  -80.100; -259.000; -180.000
280.698; -192.000; -790.000; -639.000
280.838; -234.600; -778.000; -800.000
280.978; -188.400; -846.000; -790.000
281.118; -221.700; -811.000; -704.000
281.257;   45.700;   24.000;    6.000
281.397; -236.500;-1094.000; -960.000
281.537; -135.700; -599.000; -712.000
281.677;  -46.800; -150.000; -101.000
281.816; -124.400; -700.000; -630.000
281.956;  -54.100; -193.000; -257.000
282.096;  -82.200; -539.000; -396.000
282.235; -217.200; -672.000; -638.000
282.375;    2.000; -243.000;  -98.000
282.515; -191.500; -715.000; -707.000
282.654;  102.400;   29.000;  106.000
282.794;   68.100;  388.000;  244.000
282.934;  -98.800; -530.000; -491.000
283.073; -254.100;-1030.000; -857.000
283.213;  -84.900; -460.000; -467.000
283.353;  -77.000; -408.000; -349.000
283.492;  -35.000; -264.000; -296.000
283.632;  -69.400; -254.000; -168.000
283.771; -145.200; -859.000; -730.000
283.911; -100.500; -369.000; -260.000
284.050; -206.100; -794.000; -748.000
284.190; -317.100;-1229.000;-1096.000
284.329; -265.500;-1055.000; -964.000
284.469; -137.300; -516.000; -591.000
284.608;  -87.600; -559.000; -598.000
284.748; -149.500; -614.000; -570.000
284.887;   10.900;  -87.000;  -20.000
285.027; -264.200; -844.000; -892.000
285.166;  -15.400; -192.000; -249.000
285.306;   -7.600; -116.000;  -33.000
285.445;  -51.100; -229.000; -343.000
285.584; -189.900; -630.000; -494.000
285.724;  -77.200; -282.000; -322.000
285.863; -210.700; -857.000; -507.000
286.002;  -67.900; -366.000; -276.000
286.142; -203.700; -715.000; -622.000
286.281; -161.600; -525.000; -493.000
286.420; -155.600; -554.000; -417.000
286.560;  241.100;  653.000;  623.000
286.699; -252.900; -958.000; -912.000
286.838; -133.000; -590.000; -591.000
286.978; -178.300; -533.000; -537.000
287.117; -259.300;-1085.000; -950.000
287.256;  -47.900; -228.000; -211.000
287.395;  -75.800; -197.000; -378.000
287.535;  -92.400; -370.000; -298.000
287.674; -130.900; -509.000; -484.000
287.813;  124.200;  661.000;  533.000
287.952; -225.600;-1010.000; -871.000
288.091; -291.800;-1049.000; -915.000
288.231;   45.100;   13.000;   15.000
288.370; -352.100;-1217.000;-1200.000
288.509; -133.900; -728.000; -645.000
288.648; -177.500; -770.000; -548.000
288.787;  -32.200; -243.000;  -87.000
288.926;  -85.200; -454.000; -475.000
289.065;  281.400;  859.000;  672.000
289.204;  -95.900; -377.000; -217.000
289.344; -163.500; -791.000; -690.000
289.483;   67.300;  416.000;  304.000
289.622;  -30.800; -291.000; -149.000
289.761;    0.700; -309.000; -166.000
289.900; -192.200; -785.000; -626.000
290.039;  -45.400;  -12.000;  -95.000
290.178;  -39.200; -274.000; -180.000
290.317; -161.300; -618.000; -479.000
290.456; -121.500; -463.000; -451.000
290.595; -271.900; -961.000; -833.000
290.734; -258.400; -904.000; -891.000
290.873; -118.400; -456.000; -420.000
291.011; -148.400; -833.000; -843.000
291.150; -213.900; -770.000; -682.000
291.289;  -55.100; -343.000; -110.000
291.428; -188.900; -599.000; -480.000
291.567;  -73.900; -370.000; -442.000
291.706;   27.400;  109.000;  154.000
291.845; -142.100; -597.000; -505.000
291.984; -328.900;-1234.000;-1061.000
292.122;  181.300;  602.000;  582.000
292.261;  112.300;  620.000;  463.000
292.400;   18.700; -144.000;  211.000
292.539; -228.100; -959.000; -813.000
292.678;  -17.500; -325.000; -300.000
292.816; -301.000;-1136.000; -965.000
292.955; -155.300; -844.000; -684.000
293.094;    3.000; -173.000; -337.000
293.233;  -86.700; -556.000; -400.000
293.371;  -61.500; -225.000;  -84.000
293.510; -195.700; -866.000; -780.000
293.649; -263.300; -959.000; -924.000
293.787; -128.500;-1083.000;-1012.000
293.926;   25.500; -113.000;  -32.000
294.065;  -52.300; -379.000; -290.000
294.203;  133.900;  298.000;  406.000
294.342;  100.300;   74.000;  156.000
294.481;11580.900;51180.000; -836.000
294.619;  -59.200; -425.000; -582.000
294.758; -257.300;-1230.000;-1137.000
294.896;  140.000; -125.000;    5.000
295.035; -257.600;-1040.000;-1006.000
295.174; -234.900;-1082.000; -954.000
295.312;  -76.000; -323.000; -203.000
295.451;   -0.600; -307.000; -428.000
295.589;  -75.400; -389.000; -518.000
295.728;   70.800; -292.000; -165.000
295.866;    9.500;  -36.000;  -51.000
296.005; -115.000; -584.000; -341.000
296.143; -125.300; -558.000; -596.000
296.282; -184.700; -957.000; -881.000
296.420; -163.600; -657.000; -557.000
296.559; -107.500; -892.000; -633.000
296.697;   49.000; -847.000; -665.000
296.835;  127.000;-1141.000;-1002.000
296.974;  138.800;  -23.000;   39.000
297.112;   41.000; -443.000; -504.000
297.251; -130.400; -815.000; -755.000
297.389;  169.200; -576.000; -438.000
297.527;  134.000; -145.000;  -83.000
297.666;  -68.700; -486.000; -438.000
297.804;  -92.000; -404.000; -264.000
297.942;   47.500; -136.000; -161.000
298.081;   10.600; -183.000;   63.000
298.219;  132.800;  -17.000;  -19.000
298.357;  131.800; -144.000;  -71.000
298.495;   49.400; -810.000; -812.000
298.634;  184.700;  245.000;  219.000
298.772;  124.800; -220.000; -338.000
298.910;  -97.100; -309.000; -182.000
299.048;   -3.600; -130.000; -153.000
299.187;  -52.700; -350.000; -250.000
299.325;   89.600;   52.000;  122.000
299.463;   76.000; -389.000; -299.000
299.601;  193.800; -327.000; -271.000
299.739; -218.500; -908.000; -883.000
299.877; -140.200; -791.000; -703.000
300.016; -159.500;-1095.000; -935.000
300.154;  343.400;  -19.000; -161.000
300.292;  113.000; -428.000; -348.000
300.430;   95.200; -408.000; -291.000
300.568; -230.000; -940.000; -874.000
300.706;  -79.500; -366.000; -469.000
300.844; -167.400;-1108.000; -979.000
300.982;  214.100;  246.000;  282.000
301.120; -216.300; -965.000; -866.000
301.258; -157.400; -812.000; -705.000
301.396;   87.300;  104.000;  -41.000
301.534;  195.200; -218.000; -293.000
301.672;   -6.700; -664.000; -521.000
301.810;   69.600; -613.000; -545.000
301.948;  290.100;   53.000;  149.000
302.086; 1014.300; -250.000;  -32.000
302.224; 1635.300; -610.000; -585.000
302.362;  107.900; -558.000; -622.000
302.500;  -50.000; -923.000; -893.000
302.638;  256.500;  128.000;  245.000
302.776;   39.700; -352.000; -408.000
302.913;  121.800;  447.000;  236.000
303.051;   26.300;  -86.000;  -23.000
303.189;  173.100;   90.000;  118.000
303.327;  -67.400; -341.000; -256.000
303.465; -136.500; -832.000; -588.000
303.603; -166.600; -805.000; -604.000
303.740;  238.300;  417.000;  241.000
303.878;   38.800; -800.000; -759.000
304.016; -152.100; -915.000; -790.000
304.154; -218.200;-1123.000;-1152.000
304.291;  -44.400; -505.000; -554.000
304.429;   47.200;  102.000;   74.000
304.567; -228.100; -908.000; -893.000
304.705; -100.500; -408.000; -515.000
304.842;  206.100; -616.000; -540.000
304.980;  145.100;  215.000;   35.000
305.118;   97.600; -367.000; -365.000
305.255; -139.100; -945.000; -927.000
305.393;  145.200;  178.000;  239.000
305.531; -164.900;-1173.000; -956.000
305.668;  -88.800; -663.000; -582.000
305.806;  128.200; -358.000; -439.000
305.943;  190.800; -629.000; -637.000
306.081;  136.000; -378.000; -267.000
306.219; -189.600; -863.000; -748.000
306.356;   68.800;  158.000;   27.000
306.494;  296.400;  981.000;  761.000
306.631;   50.100;  -11.000;  -55.000
306.769;   49.100; -613.000; -485.000
306.906;  -22.100; -284.000; -258.000
307.044;  -75.900; -473.000; -488.000
307.181;  -67.300; -410.000; -332.000
307.319;  130.600;  112.000;   87.000
307.456; -349.700;-1191.000;-1153.000
307.594; -181.100; -980.000; -727.000
307.731;    3.100; -371.000; -164.000
307.868;   39.500;  -15.000;   20.000
308.006; -240.200; -961.000; -847.000
308.143; -100.900; -618.000; -330.000
308.281;  406.000;  -37.000; -254.000
308.418;    4.700; -748.000; -640.000
308.555; -125.300; -400.000; -250.000
308.693; -105.900; -577.000; -573.000
308.830; -171.400; -712.000; -657.000
308.967;   30.300; -215.000;  -95.000
309.105;  -31.600; -507.000; -396.000
309.242;  136.800; -468.000; -367.000
309.379;  670.000; -577.000; -655.000
309.517;  -72.600; -936.000; -948.000
309.654; -178.300; -910.000; -734.000
309.791;  -87.900; -662.000; -580.000
309.928; -179.900; -977.000; -914.000
310.065;  391.000;  819.000;  697.000
310.203;    8.800; -825.000; -850.000
310.340;   23.300; -465.000; -321.000
310.477; -106.600; -412.000; -516.000
310.614;  -90.000; -383.000; -473.000
310.751; -102.700; -427.000; -518.000
310.889;  -28.200;    1.000;   11.000
311.026; -273.500;-1161.000; -939.000
311.163;  -23.000; -386.000; -380.000
311.300; -103.100; -512.000; -479.000
311.437; -104.100; -658.000; -619.000
311.574; -292.800;-1226.000; -985.000
311.711;  -79.300; -595.000; -433.000
311.848;  -29.900; -380.000; -388.000
311.985;   69.400;  270.000;   93.000
312.122; -218.300; -932.000; -762.000
312.259; -183.800; -941.000; -994.000
312.396;  -74.900; -508.000; -551.000
312.533;  -98.200; -812.000; -790.000
312.670; -264.700;-1070.000; -898.000
312.807;   -3.900; -352.000; -367.000
312.944;  -94.100; -513.000; -611.000
313.081;  -36.500; -150.000; -415.000
313.218; -169.300;-1111.000; -867.000
313.355;   65.000; -531.000; -449.000
313.492;   35.000; -455.000; -292.000
313.629;  290.200;  815.000;  735.000
313.766; -280.800;-1176.000;-1008.000
313.902;   24.000; -186.000;   21.000
314.039;  -61.300; -372.000; -289.000
314.176;  112.700;  286.000;  192.000
314.313; -100.900; -569.000; -473.000
314.450; -112.800; -788.000; -684.000
314.587; -101.000; -468.000; -480.000
314.723;   51.600;  -78.000;  130.000
314.860;  150.800;  318.000;  332.000
314.997;  108.000;  223.000;  142.000
315.134;  -53.000; -385.000; -368.000
315.270;  -40.500; -480.000; -496.000
315.407; -229.900;-1094.000; -967.000
315.544;  -58.100; -657.000; -538.000
315.681; -117.900; -681.000; -565.000
315.817;   85.600; -133.000; -176.000
315.954;   40.700; -613.000; -392.000
316.091; -233.000;-1045.000;-1023.000
316.227;   -1.200;  -71.000; -179.000
316.364;   53.100;   23.000;    6.000
316.500;  -46.900; -113.000; -300.000
316.637;  -42.300; -181.000; -302.000
316.774; -164.200; -625.000; -358.000
316.910; -177.400; -598.000; -629.000
317.047; -105.500; -487.000; -351.000
317.183;  -74.500; -435.000; -566.000
317.320;    1.100; -367.000; -321.000
317.456; -122.300; -733.000; -805.000
317.593; -159.500; -598.000; -641.000
317.729;   49.300;  168.000;  -67.000
317.866; -378.000;-1434.000;-1285.000
318.002; -176.000; -708.000; -948.000
318.139; -195.800; -883.000; -867.000
318.275; -191.300;-1003.000; -738.000
318.412; -123.100; -517.000; -336.000
318.548;  -49.700; -751.000; -720.000
318.685; -190.600; -985.000; -888.000
318.821; -160.900; -762.000; -735.000
318.957;    0.200;   34.000;  -23.000
319.094;  154.900;  297.000;  154.000
319.230; -119.600; -756.000; -742.000
319.367;  222.600; -471.000; -520.000
319.503;  114.100; -538.000; -436.000
319.639; -142.300; -877.000; -793.000
319.775; -109.500; -750.000; -685.000
319.912;  -44.700; -424.000; -519.000
320.048; -195.400;-1184.000;-1184.000
320.184;  194.900;   59.000;   70.000
320.321;  -91.500; -497.000; -467.000
320.457;  197.800;  475.000;  662.000
320.593; -144.000; -375.000; -382.000
320.729; -185.200; -732.000; -734.000
320.866; -135.900; -577.000; -635.000
321.002; -160.300; -759.000; -809.000
321.138;   -1.900; -135.000; -211.000
321.274;  171.700; -148.000; -115.000
321.410;  -55.900; -585.000; -353.000
321.546;  -54.900;-1011.000; -911.000
321.683;  119.100;  400.000;  185.000
321.819;   65.800;  -48.000; -117.000
321.955; -215.500; -743.000; -722.000
322.091;  -41.900; -585.000; -540.000
322.227;    1.300; -382.000; -202.000
322.363;  -26.600; -320.000; -215.000
322.499;  -76.800; -343.000; -331.000
322.635;  336.300;  636.000;  443.000
322.771;   84.900; -139.000;   12.000
322.907;  174.600;  129.000;  327.000
323.043;  -31.700; -115.000; -206.000
323.179;  -59.400; -394.000; -363.000
323.315;   53.800; -401.000; -371.000
323.451;  252.800; -328.000; -236.000
323.587;  168.100;  -60.000;  -77.000
323.723;   28.300; -682.000; -601.000
323.859;  -26.300; -258.000;  -76.000
323.995;  -22.700; -467.000; -409.000
324.131; -248.100; -967.000; -892.000
324.267;  -42.600; -254.000; -276.000
324.402; -243.000; -960.000; -983.000
324.538;    0.800; -279.000; -104.000
324.674;   65.000;  164.000;   77.000
324.810;  357.700;  226.000;  308.000
324.946;   40.800; -810.000; -658.000
325.082;  -89.800; -568.000; -475.000
325.217;   -3.900;  -62.000;   16.000
325.353; -155.700; -764.000; -659.000
325.489; -143.300; -540.000; -506.000
325.625; -105.600; -579.000; -525.000
325.760;  123.900;  517.000;  376.000
325.896;  -20.800; -515.000; -702.000
326.032;  -92.400; -403.000; -352.000
326.168;  -73.900; -462.000; -369.000
326.303;  -95.800; -352.000; -461.000
326.439;   11.500; -336.000; -276.000
326.575;   45.300; -190.000;  -29.000
326.710;   50.900; -156.000;  -30.000
326.846;    9.700;  146.000;  103.000
326.982; -159.200; -530.000; -548.000
327.117; -169.400; -481.000; -442.000
327.253; -144.300; -745.000; -742.000
327.388; -317.900;-1137.000;-1153.000
327.524;  -48.500; -811.000; -578.000
327.659;  -30.400;  -58.000;  -22.000
327.795;  -18.100;   69.000;   45.000
327.931; -146.400; -723.000; -499.000
328.066;  -44.800; -417.000; -276.000
328.202;  -50.200;   12.000; -129.000
328.337;  254.100;  957.000;  713.000
328.473;  -11.300;  -12.000;  -74.000
328.608;    2.100; -256.000; -267.000
328.743; -156.000; -799.000; -664.000
328.879;   72.500;  214.000;  114.000
329.014;  -75.800; -102.000; -122.000
329.150; -118.000; -358.000; -483.000
329.285; -135.200; -465.000; -466.000
329.421;  -62.700; -548.000; -246.000
329.556;  -44.400;  -36.000;   85.000
329.691; -161.700; -633.000; -615.000
329.827; -151.000; -626.000; -480.000
329.962;  -42.100;  131.000; -301.000
330.097; -169.700; -673.000; -585.000
330.233;  -52.000; -410.000; -223.000
330.368; -245.900; -839.000; -628.000
330.503;   -0.700;    3.000;   98.000
330.638;   28.700;  -93.000; -125.000
330.774;  -77.200; -609.000; -530.000
330.909;  -35.100; -434.000; -244.000
331.044; -154.200; -714.000; -708.000
331.179; -338.700;-1217.000;-1109.000
331.315;   72.900;   77.000;   20.000
331.450;   46.900;  157.000;  285.000
331.585; -141.300; -805.000; -706.000
331.720; -118.100; -510.000; -460.000
331.855;    8.600;  -35.000; -102.000
331.990;  416.500;   62.000;  138.000
332.126;  242.200; -110.000;   71.000
332.261;  -35.900; -379.000; -265.000
332.396;   48.900; -135.000; -242.000
332.531; -184.200;-1074.000;-1031.000
332.666;   95.900; -519.000; -363.000
332.801; -197.500; -726.000; -807.000
332.936;   19.700; -192.000; -122.000
333.071; -284.600; -870.000; -817.000
333.206;   60.600;  307.000;  379.000
333.341;  124.200;  344.000;  418.000
333.476; -137.400; -627.000; -623.000
333.611;  -64.900; -251.000; -173.000
333.746;  -73.900; -381.000; -464.000
333.881; -209.400; -973.000; -935.000
334.016; -215.300; -936.000; -917.000
334.151; -266.100; -746.000; -702.000
334.286;   81.600;  152.000;  186.000
334.421;    9.300; -125.000; -178.000
334.556; -121.600; -611.000; -567.000
334.690; -170.800; -631.000; -577.000
334.825;  186.300;  381.000;   83.000
334.960; -102.400; -285.000; -413.000
335.095;   33.700;  135.000;  -91.000
335.230; -195.100; -722.000; -738.000
335.365; -232.400;-1084.000; -990.000
335.499; -238.800;-1108.000;-1037.000
335.634;   76.000;    9.000;  534.000
335.769; -167.000; -755.000; -720.000
335.904;  -88.100; -603.000; -561.000
336.038;  -85.300; -735.000; -657.000
336.173; -182.700;-1206.000;-1194.000
336.308;   11.100; -116.000; -189.000
336.443;    8.800; -544.000; -634.000
336.577; -185.300; -936.000; -787.000
336.712;  138.500;   -4.000;  -12.000
336.847;  -80.400; -724.000; -607.000
336.981;  122.000; -272.000; -208.000
337.116;  531.600;  615.000;  501.000
337.250;  278.000; -434.000; -421.000
337.385;  441.200; -297.000; -208.000
337.520;  128.700; -632.000; -603.000
337.654;  -42.600; -215.000; -126.000
337.789; -229.200; -989.000; -933.000
337.923;  -52.800; -104.000; -205.000
338.058; -141.300; -673.000; -738.000
338.192;  -64.600; -611.000; -488.000
338.327;   43.400;  -18.000; -155.000
338.461; -100.700; -299.000; -469.000
338.596; -152.500; -780.000; -638.000
338.730; -190.200; -767.000; -803.000
338.865;  218.300;  -46.000; -140.000
338.999;  -96.700; -846.000; -702.000
339.134;  -35.900; -634.000; -536.000
339.268;   -0.400; -741.000; -603.000
339.403;  663.300; -740.000; -775.000
339.537;  160.800; -894.000; -820.000
339.671; -184.200; -829.000; -813.000
339.806; -128.000; -556.000; -512.000
339.940;   50.700; -261.000; -235.000
340.074; -140.300; -685.000; -510.000
340.209;  -71.200; -351.000; -230.000
340.343; -138.600; -517.000; -573.000
340.477;  373.100;  998.000; 1036.000
340.612; -116.600;-1033.000; -900.000
340.746;  222.000; -199.000; -243.000
340.880; -120.900; -924.000; -785.000
341.014;    2.700;  -45.000; -154.000
341.149; -222.000; -756.000; -718.000
341.283; -191.000; -839.000; -754.000
341.417; -194.400;-1124.000; -938.000
341.551;  259.700; -768.000; -708.000
341.685;  -38.400; -633.000; -611.000
341.820;  -74.000; -562.000; -493.000
341.954;  -76.600; -218.000; -349.000
342.088; -251.900;-1102.000;-1019.000
342.222;  109.100;  565.000;  618.000
342.356;  -65.400; -395.000; -335.000
342.490; -187.900; -880.000; -841.000
342.624;  -17.000; -339.000; -242.000
342.758;   20.700; -364.000; -312.000
342.892;  -92.300; -710.000; -585.000
343.026;  -65.900;  -58.000; -116.000
343.160;  -43.000; -426.000; -376.000
343.294; -127.100; -474.000; -337.000
343.428;   -5.800; -488.000; -448.000
343.562;  -16.200; -172.000;  -23.000
343.696;  -36.000; -385.000; -314.000
343.830;    4.400; -362.000; -356.000
343.964;   79.900; -231.000; -168.000
344.098; 1623.000;  199.000;   70.000
344.232; 1325.700; -266.000; -127.000
344.366;  143.100; -567.000; -453.000
344.500;  148.500; -665.000; -744.000
344.634;   78.400; -324.000; -164.000
344.768;    8.200; -531.000; -341.000
344.902;   85.300;  278.000;  256.000
345.035; -110.700; -556.000; -496.000
345.169; -250.900; -933.000; -656.000
345.303;   -9.800; -308.000; -482.000
345.437; -170.400; -826.000; -717.000
345.571; -127.700; -675.000; -594.000
345.704; -105.700; -309.000; -532.000
345.838;   20.200; -331.000; -284.000
345.972;  -40.100; -543.000; -495.000
346.106;  323.100; -179.000; -190.000
346.239;  757.800; -312.000; -243.000
346.373;   -1.500; -343.000; -302.000
346.507; -268.800; -950.000; -962.000
346.640;  292.700;  -30.000;   13.000
346.774;  -53.200; -650.000; -797.000
346.908;    8.100; -138.000;  -11.000
347.041; -154.200; -646.000; -593.000
347.175;   60.100;  259.000;   27.000
347.309; -146.000; -698.000; -628.000
347.442; -152.900; -883.000; -732.000
347.576;  540.100;  670.000;  668.000
347.709;  413.500; -123.000;  -52.000
347.843; -188.400; -933.000; -825.000
347.976;  122.100;  235.000;  294.000
348.110; -337.700;-1268.000;-1186.000
348.243; -180.900; -679.000; -772.000
348.377;   47.900;  -26.000;   60.000
348.510;  137.200;  403.000;  540.000
348.644;  -37.100;  -37.000; -159.000
348.777;   57.600;  180.000;  191.000
348.911;  -78.000; -142.000; -112.000
349.044;  357.800;  471.000;  448.000
349.178;  258.000;-1069.000;-1006.000
349.311;  266.400;  141.000;  255.000
349.444;   -4.700; -927.000; -813.000
349.578;    7.300; -347.000; -200.000
349.711; -192.100; -959.000; -862.000
349.845;   -4.500; -661.000; -591.000
349.978; -277.100;-1224.000;-1137.000
350.111; -109.700; -546.000; -612.000
350.244; -134.300; -596.000; -700.000
350.378;   37.900; -392.000; -393.000
350.511;  -94.800; -393.000; -426.000
350.644; -185.700; -808.000; -806.000
350.778;   67.100;  168.000;  104.000
350.911;   56.200;  134.000;  140.000
351.044; -169.600; -685.000; -615.000
351.177;  -28.900; -321.000; -281.000
351.310;   10.400;    3.000; -131.000
351.444; -127.900; -888.000; -788.000
351.577;  256.600;  140.000;   90.000
351.710;  249.100;  593.000;  417.000
351.843;   -6.200; -165.000;  -77.000
351.976;   86.700;  149.000;  -79.000
352.109; -178.400; -621.000; -612.000
352.242;    3.800; -464.000; -419.000
352.376; -107.500; -580.000; -636.000
352.509;  356.900; -437.000; -356.000
352.642;   14.500; -654.000; -604.000
352.775;  121.200; -141.000;  -98.000
352.908; -187.200; -933.000; -904.000
353.041; -186.400; -814.000; -824.000
353.174;  -76.400; -551.000; -424.000
353.307; -143.400; -753.000; -764.000
353.440;  187.700;  541.000;  453.000
353.573; -194.800; -957.000;-1008.000
353.706;  -96.000; -384.000; -558.000
353.839;    6.400; -264.000; -220.000
353.971; -125.700; -657.000; -512.000
354.104; -148.400; -896.000; -835.000
354.237;  -49.200; -627.000; -662.000
354.370; -136.500; -846.000; -879.000
354.503; -354.500;-1231.000;-1308.000
354.636;  -42.100; -529.000; -348.000
354.769; -214.100; -937.000; -860.000
354.902;   49.900; -230.000; -139.000
355.034;   -3.300; -164.000; -220.000
355.167;   -6.400; -262.000; -162.000
355.300; -174.800;-1061.000; -880.000
355.433; 1739.900;  -71.000;  -14.000
355.565; 2593.300; -402.000; -384.000
355.698;  635.300; -356.000; -296.000
355.831;  -33.700; -882.000; -801.000
355.964;  217.300; -285.000; -170.000
356.096; -165.200; -856.000; -843.000
356.229;   19.800; -523.000; -530.000
356.362;  555.500; -373.000; -266.000
356.494; 1095.200; -229.000; -162.000
356.627;  900.200;  269.000;  377.000
356.760; 1177.500;  120.000;   53.000
356.892; 1637.100; -286.000; -601.000
357.025; 1198.400;  403.000;  389.000
357.157; 1140.200; -167.000; -179.000
357.290; 1112.800; -856.000; -713.000
357.423;  297.500; -667.000; -556.000
357.555;  203.100; -217.000; -228.000
357.688;  206.000; -483.000; -364.000
357.820;  739.000; -870.000; -877.000
357.953; 6219.600; -563.000; -589.000
358.085; 1386.900; -632.000; -612.000
358.218; 2038.300;-1131.000; -932.000
358.350;  447.800;  -58.000;  312.000
358.483; -226.900;-1300.000;-1187.000
358.615;  -12.900;-1182.000;-1078.000
358.747; -106.000;-1187.000;-1058.000
358.880;   43.200; -810.000; -744.000
359.012;   27.300; -376.000; -202.000
359.145;  -47.300; -480.000; -511.000
359.277;   48.400; -962.000; -913.000
359.409; 5201.800;  536.000;  231.000
359.542; 1272.600; -738.000; -688.000
359.674;  151.000;   46.000;   13.000
359.806;  -98.300; -565.000; -438.000
359.939;  -39.400; -617.000; -516.000
360.071;  -19.700; -583.000; -579.000
360.203;    4.300; -411.000; -364.000
360.335;  136.700;  164.000;  -16.000
360.468;  327.100; -249.000; -307.000
360.600; 4150.400; -547.000; -454.000
360.732; 4622.700; -546.000; -423.000
360.864;  580.100;-1216.000;-1044.000
360.996;  554.500; -516.000; -554.000
361.129;   97.100; -389.000; -598.000
361.261;  102.000;  110.000; -113.000
361.393;   -8.200; -252.000; -214.000
361.525;  108.200;   94.000;  244.000
361.657;  -96.400; -821.000; -703.000
361.789;   78.100; -139.000; -155.000
361.921;  433.200; -642.000; -593.000
362.053;  557.900;  524.000;  541.000
362.185;  129.000;  288.000;   72.000
362.318; -131.700; -709.000; -705.000
362.450;  249.900;  294.000;  444.000
362.582;  231.600; -913.000; -870.000
362.714;  -65.700; -353.000; -332.000
362.846; -129.400; -606.000; -490.000
362.978; -265.700; -941.000; -811.000
363.109;  105.200; -161.000; -260.000
363.241;  818.700; -739.000; -749.000
363.373;  752.200; -649.000; -564.000
363.505; 1154.100; -186.000;  -91.000
363.637;  287.400; -787.000; -601.000
363.769; -252.600;-1067.000;-1080.000
363.901; -112.500; -596.000; -654.000
364.033; -228.400;-1103.000;-1062.000
364.165;   70.300; -283.000; -283.000
364.296;  193.500; -316.000; -177.000
364.428;   90.500;-1344.000;-1220.000
364.560; -107.200; -679.000; -661.000
364.692; -105.500; -738.000; -835.000
364.824;  524.400; -588.000; -456.000
364.955;  760.700; -402.000; -564.000
365.087; 1491.900;-1097.000; -852.000
365.219;   41.300; -686.000; -816.000
365.351; -115.200; -526.000; -572.000
365.482;  176.600;  300.000;  240.000
365.614;  -49.000; -402.000; -314.000
365.746; -123.900; -729.000; -752.000
365.877; -172.900; -706.000; -672.000
366.009;  494.900;  -35.000;  -62.000
366.141; -181.900;-1249.000;-1134.000
366.272; -165.500; -803.000; -719.000
366.404; -208.100;-1005.000; -874.000
366.535;    5.100; -139.000;  -12.000
366.667; -182.600; -644.000; -649.000
366.799;  146.600;  353.000;  203.000
366.930; -220.800; -862.000; -996.000
367.062;  243.700; -639.000; -613.000
367.193;  226.600; -872.000; -842.000
367.325;  -73.900; -580.000; -684.000
367.456;  144.300; -246.000;   31.000
367.588;  303.000; -371.000; -318.000
367.719;   91.100;  -44.000;  -45.000
367.851;    3.900; -222.000; -241.000
367.982;  -70.600; -875.000; -732.000
368.113;  217.100; -475.000; -358.000
368.245; -226.700; -960.000; -841.000
368.376;   -3.700; -254.000; -302.000
368.508;  -50.700; -188.000; -263.000
368.639; -245.300;-1166.000;-1034.000
368.770;  -39.300; -670.000; -589.000
368.902; -103.700; -836.000; -926.000
369.033; -194.200; -906.000; -855.000
369.164;  -61.000; -720.000; -653.000
369.296; -174.600; -452.000; -601.000
369.427;   34.600; -209.000; -144.000
369.558;  -50.700; -593.000; -377.000
369.689; -120.100; -721.000; -569.000
369.821; -227.700; -951.000; -845.000
369.952;   34.100;   42.000; -108.000
370.083;  -47.800; -229.000; -108.000
370.214; -121.700; -735.000; -650.000
370.345;    7.600;   65.000;   81.000
370.477; -112.800; -810.000; -790.000
370.608;  423.200; -328.000; -264.000
370.739;  -82.000;-1233.000;-1292.000
370.870;  -83.400;-1102.000; -923.000
371.001;  178.000; -378.000; -467.000
371.132; -130.200; -754.000; -735.000
371.263;   14.700;  -42.000; -148.000
371.394; -220.200; -841.000; -748.000
371.525;  121.000;  345.000;  225.000
371.657; -138.400; -808.000; -670.000
371.788;  186.600;  103.000;  199.000
371.919;  336.300; -384.000; -304.000
372.050; 6408.500;  -91.000; -156.000
372.181; 1795.500; -188.000; -294.000
372.311;  714.200;   42.000; -127.000
372.442;  108.500; -457.000; -451.000
372.573;   31.300; -444.000; -340.000
372.704; -213.900;-1008.000; -980.000
372.835;  201.400; -228.000; -289.000
372.966;  -91.100; -646.000; -554.000
373.097;  -57.200; -575.000; -711.000
373.228;  -62.300; -717.000; -542.000
373.359;  277.400; -824.000; -536.000
373.490; 1616.500; -881.000; -727.000
373.620; 2047.800;-1001.000; -803.000
373.751; 3167.200; -332.000; -396.000
373.882; 1355.200; -663.000; -733.000
374.013;  158.000; -449.000; -262.000
374.143;  -55.900; -581.000; -659.000
374.274; -211.400; -987.000; -908.000
374.405;  332.000; -388.000; -276.000
374.536;  809.500; -526.000; -387.000
374.666; 1993.200; -759.000; -807.000
374.797;  399.900; -817.000; -868.000
374.928; 1581.300; -710.000; -560.000
375.058; 1593.900; -535.000; -500.000
375.189;  168.900;  -59.000;  -93.000
375.320; -196.800; -928.000;-1034.000
375.450;  -79.600; -625.000; -616.000
375.581;  -65.300; -526.000; -436.000
375.712;  -24.300; -574.000; -250.000
375.842;  568.600; -438.000; -415.000
375.973;  384.300; -554.000; -513.000
376.103;  -33.300; -665.000; -648.000
376.234; -127.500; -531.000; -552.000
376.364;  -45.500; -944.000; -867.000
376.495;  674.700;  925.000;  529.000
376.625;   54.600; -472.000; -485.000
376.756;  130.500; -709.000; -678.000
376.886; -130.600;-1178.000;-1026.000
377.017;  120.100;-1048.000;-1061.000
377.147;  596.200; -786.000; -782.000
377.278;  149.400;  174.000;  228.000
377.408; -217.600; -801.000; -815.000
377.538; -155.400; -707.000; -693.000
377.669; -117.700; -537.000; -613.000
377.799; -108.400; -645.000; -635.000
377.929; -106.700; -610.000; -428.000
378.060; -232.600; -781.000; -847.000
378.190;  -69.300; -726.000; -531.000
378.320;  -58.100; -401.000; -406.000
378.451;   32.600; -131.000;  -22.000
378.581;   31.900;  -67.000; -110.000
378.711;  347.200; 1035.000;  866.000
378.841;   31.800; -533.000; -675.000
378.972; -116.400; -871.000; -751.000
379.102;   15.900; -652.000; -579.000
379.232;   -8.000; -126.000;  -73.000
379.362; -175.800;-1001.000; -885.000
379.492;   47.500; -373.000; -424.000
379.623;  300.800;    0.000;  111.000
379.753; -163.900;-1107.000; -974.000
379.883;  476.300;   59.000;  156.000
380.013;   -5.100;-1081.000;-1017.000
380.143; -169.600;-1097.000;-1056.000
380.273; -174.300; -985.000; -861.000
380.403;   63.000; -344.000; -257.000
380.533;  -38.700; -651.000; -664.000
380.663;  222.200;  173.000;  128.000
380.793; -174.300;-1027.000;-1074.000
380.923;    1.500; -103.000;  -34.000
381.053; -153.100; -613.000; -623.000
381.183;  -11.800; -106.000; -248.000
381.313;   85.000; -656.000; -470.000
381.443;  103.000; -692.000; -473.000
381.573;  407.700; -402.000; -409.000
381.703;  555.400;-1249.000;-1095.000
381.833; -229.100;-1454.000;-1336.000
381.963;  265.100; -134.000;  -87.000
382.093; 2483.200; -925.000; -909.000
382.223;  705.400; -713.000; -602.000
382.353;   -9.400; -801.000; -608.000
382.482;  679.800;-1091.000; -964.000
382.612; 1390.100; -872.000; -644.000
382.742;  748.000; -695.000; -622.000
382.872;  505.100; -565.000; -551.000
383.002;  176.300;  347.000; -132.000
383.131;   -4.600; -226.000; -160.000
383.261;   -6.100; -706.000; -768.000
383.391;  565.500; -552.000; -377.000
383.521; 5415.300;  451.000;  263.000
383.650; 1147.700; -947.000; -904.000
383.780;  -51.000; -783.000; -656.000
383.910;  288.700;  880.000;  802.000
384.039;   37.300; -794.000; -656.000
384.169;  349.700;-1205.000;-1017.000
384.299;   -6.700; -650.000; -662.000
384.428; -124.500; -764.000; -680.000
384.558;  -25.000; -308.000; -275.000
384.687;   -1.300; -414.000; -334.000
384.817;  127.200;   75.000;   -2.000
384.947;   92.400; -234.000; -141.000
385.076;  591.300;  982.000;  912.000
385.206;  301.700;  369.000;  480.000
385.335;  -12.200; -549.000; -417.000
385.465;  -82.300; -655.000; -663.000
385.594;  321.600;  -53.000;  -44.000
385.724;  779.300; -868.000; -838.000
385.853;  299.400; -296.000; -270.000
385.982; 2480.800; -743.000; -787.000
386.112; 3739.800;-1052.000; -871.000
386.241;  276.800; -307.000; -312.000
386.371;  104.100; -174.000;  -87.000
386.500;   65.400; -825.000; -789.000
386.629;   81.700; -874.000; -817.000
386.759;  162.200;  -43.000;   68.000
386.888;   80.600; -170.000; -250.000
387.017;  -67.700; -648.000; -620.000
387.147; -104.400; -771.000; -798.000
387.276;   94.600; -410.000; -397.000
387.405;   81.500; -398.000; -342.000
387.535;    2.000; -452.000; -361.000
387.664;  -84.300; -692.000; -620.000
387.793;  180.400; -198.000; -113.000
387.922; 1021.000;  255.000;  200.000
388.052;   89.700; -576.000; -423.000
388.181;   93.800; -342.000; -472.000
388.310;   60.200; -889.000; -710.000
388.439;  -10.900; -749.000; -742.000
388.568;  414.300;  365.000;  244.000
388.697; 1857.100; -756.000; -653.000
388.826;  364.000; -768.000; -666.000
388.956;  125.900; -285.000; -307.000
389.085;    0.600; -347.000; -287.000
389.214; -179.900; -842.000; -872.000
389.343;  -71.000; -645.000; -413.000
389.472;  767.100;  126.000;  149.000
389.601;  901.100;   91.000;    0.000
389.730;   47.000; -568.000; -687.000
389.859;  225.400;  226.000;   46.000
389.988;  385.600; -423.000; -408.000
390.117;  269.000; -168.000; -146.000
390.246;   45.000; -331.000; -320.000
390.375;  205.400; -673.000; -626.000
390.504;  -60.100; -703.000; -621.000
390.633; -132.300; -672.000; -726.000
390.761;  -94.200; -732.000; -645.000
390.890;   74.000;   -4.000; -130.000
391.019;  -22.400; -421.000; -441.000
391.148; -208.200; -826.000; -855.000
391.277;  -48.600; -576.000; -493.000
391.406;  -99.700; -821.000; -805.000
391.534;  104.300;  574.000; -301.000
391.663;  -95.900; -583.000; -645.000
391.792; -113.000; -673.000; -701.000
391.921;  214.700;   -3.000;   15.000
392.050;  373.700; -287.000; -228.000
392.178;  -51.700;-1206.000;-1061.000
392.307;  298.500; -758.000; -712.000
392.436;  131.600; -427.000; -641.000
392.564;   79.400;  166.000;   -6.000
392.693; -148.300; -860.000; -682.000
392.822;  431.300; -529.000; -534.000
392.950;  155.400; -880.000; -714.000
393.079;  633.600; -188.000; -328.000
393.208;   80.400; -488.000; -511.000
393.336;   37.900; -170.000; -145.000
393.465;  -37.500; -317.000; -199.000
393.593;   73.800;   62.000;   79.000
393.722; -243.900;-1121.000; -916.000
393.850;   24.900; -188.000;  -61.000
393.979; -276.200; -926.000; -805.000
394.107;  -54.600; -517.000; -537.000
394.236;   -8.300; -570.000; -507.000
394.364;  545.900;  383.000;  206.000
394.493;  744.300; -911.000; -767.000
394.621;   20.900; -955.000; -916.000
394.750; 1269.400; -873.000; -923.000
394.878; 5302.000; -247.000; -149.000
395.007; 6802.500; -721.000; -807.000
395.135;  540.200; -790.000; -721.000
395.263; -137.900;-1038.000;-1040.000
395.392;   92.300;  -25.000; -107.000
395.520; -166.600; -818.000; -679.000
395.648; -148.500; -865.000; -915.000
395.777;  -30.600; -366.000; -405.000
395.905;  -57.700; -449.000; -564.000
396.033;   99.900;  217.000;  172.000
396.162; 1318.500; -399.000; -453.000
396.290; 1118.300;  -17.000;   -2.000
396.418;  221.000; -555.000; -514.000
396.546; -145.400; -571.000; -466.000
396.674; -166.000; -850.000; -878.000
396.803;   52.200;  -72.000;  -23.000
396.931;  248.500; -179.000; -199.000
397.059;   57.600;-1026.000; -989.000
397.187; -161.100;-1026.000; -975.000
397.315; -247.900; -884.000; -649.000
397.443; -113.000; -592.000; -443.000
397.572; -173.300; -578.000; -424.000
397.700;    5.900; -607.000; -614.000
397.828;   51.200;  120.000;  -90.000
397.956;  -21.600; -508.000; -478.000
398.084;  -85.900; -767.000; -626.000
398.212;  133.600;  137.000;  124.000
398.340;   62.800;  -56.000;  159.000
398.468;  120.200; -390.000; -169.000
398.596; -247.900; -993.000; -953.000
398.724; -199.700; -762.000; -767.000
398.852; -296.400;-1024.000; -976.000
398.980;  -57.900; -560.000; -560.000
399.108;  -75.600; -982.000; -735.000
399.236;  118.100;   13.000;    8.000
399.363;   71.500;  222.000;  196.000
399.491; -102.100; -404.000; -398.000
399.619; -203.400; -829.000; -800.000
399.747; -145.500; -859.000; -771.000
399.875;  204.600;  220.000;  234.000
400.003;  -76.300; -359.000; -284.000
400.130; -123.800; -421.000; -341.000
400.258;   -5.400;  -83.000;   38.000
400.386;  -79.600; -352.000; -168.000
400.514;  -65.800; -526.000; -587.000
400.641; -141.800; -928.000; -802.000
400.769; -220.500; -979.000; -888.000
400.897; -145.000; -838.000; -793.000
401.025;   32.200; -166.000; -152.000
401.152;   42.600;  220.000;   38.000
401.280; -112.300; -430.000; -429.000
401.408; -175.300; -712.000; -576.000
401.535; -150.700; -735.000; -758.000
401.663; -339.800;-1134.000;-1054.000
401.790;  -89.200; -514.000; -525.000
401.918;   97.300;  436.000;  405.000
402.046;   45.500;  134.000;  122.000
402.173;  -17.800;  -18.000;    7.000
402.301;  -87.300; -519.000; -397.000
402.428;  126.100;  528.000;  383.000
402.556; -262.400;-1188.000; -913.000
402.683;  -14.900;  -20.000;   -1.000
402.811;    8.100;  -37.000; -206.000
402.938;   60.500;   20.000;   27.000
403.066;  380.600; -574.000; -558.000
403.193;  547.500;  299.000;  239.000
403.321;  450.800; -396.000; -574.000
403.448;  571.200;   83.000;   27.000
403.575;  290.700;  -90.000;  -46.000
403.703; -142.200; -732.000; -557.000
403.830; -116.200; -531.000; -496.000
403.957; -219.100;-1117.000;-1023.000
404.085;   66.100;  -61.000; -172.000
404.212;  275.100;  -50.000;   63.000
404.339;  534.900; -566.000; -306.000
404.467;10407.100; -612.000; -524.000
404.594; 6509.500; -287.000; -227.000
404.721; 1513.400; -869.000; -764.000
404.848;  175.500; -113.000; -202.000
404.976; -168.800; -856.000; -783.000
405.103;   69.800;  -14.000;  -82.000
405.230;   22.200;  190.000;  226.000
405.357;  127.800;  117.000;   44.000
405.484;  552.200;  -49.000;    5.000
405.612;  107.800; -548.000; -563.000
405.739;  -79.700; -488.000; -243.000
405.866;  243.900;  669.000;  385.000
405.993;  -29.000; -398.000; -102.000
406.120; -222.100; -801.000; -887.000
406.247;  -65.200; -323.000; -342.000
406.374;  928.200;  540.000;  629.000
406.501;  225.400; -632.000; -702.000
406.628; -108.400; -621.000; -589.000
406.755; -152.000; -803.000; -620.000
406.882;  -45.100; -228.000; -277.000
407.009; -183.500; -719.000; -628.000
407.136;  151.000; -480.000; -401.000
407.263;  240.400; -939.000; -829.000
407.390; -108.000; -692.000; -614.000
407.517; -287.900;-1139.000;-1187.000
407.644;  -84.600; -332.000; -256.000
407.771;  -76.100; -249.000; -287.000
407.898;   88.800;  168.000;  328.000
408.025;  -79.100; -421.000; -313.000
408.151;   48.400;   82.000;  153.000
408.278;  -80.000; -267.000; -216.000
408.405; -175.000; -931.000; -899.000
408.532; -124.300; -549.000; -542.000
408.659; -167.300; -677.000; -648.000
408.785; -367.800;-1298.000;-1170.000
408.912;  -84.800; -412.000; -296.000
409.039; -171.900; -610.000; -686.000
409.166; -149.200; -591.000; -555.000
409.292; -137.700; -571.000; -534.000
409.419; -190.000; -665.000; -649.000
409.546; -134.800; -431.000; -192.000
409.672; -185.100; -713.000; -545.000
409.799;   -1.900;  -36.000;   34.000
409.926;  -10.400; -180.000; -179.000
410.052; -315.300;-1127.000;-1091.000
410.179;  -55.500; -368.000; -392.000
410.305; -118.700; -375.000; -493.000
410.432;  -26.600; -220.000; -333.000
410.558; -138.100; -305.000; -380.000
410.685; -161.500; -688.000; -431.000
410.812; -137.500; -409.000; -588.000
410.938; -195.900; -964.000; -808.000
411.065; -147.000; -671.000; -645.000
411.191;   -2.500; -189.000; -174.000
411.317; -183.100; -823.000; -742.000
411.444;  -78.500; -317.000; -246.000
411.570;  -73.800; -339.000; -294.000
411.697; -196.900; -758.000; -752.000
411.823; -293.600; -989.000; -999.000
411.949;  -20.000;  -56.000;   17.000
412.076; -167.500; -539.000; -519.000
412.202; -174.500; -758.000; -757.000
412.329; -187.200; -798.000; -752.000
412.455; -198.400; -821.000; -657.000
412.581;   11.100;  -15.000;  172.000
412.707;  -92.600; -540.000; -457.000
412.834;  100.000;  156.000;  219.000
412.960; -125.000; -785.000; -784.000
413.086; -188.900; -743.000; -701.000
413.212;  362.300;  604.000;  578.000
413.339; -117.400; -685.000; -701.000
413.465;   26.200; -364.000; -310.000
413.591; -147.300; -757.000; -474.000
413.717;  -73.600; -358.000; -366.000
413.843; -249.900; -839.000; -861.000
413.969;  -81.600;  -47.000; -292.000
414.096; -129.600; -679.000; -679.000
414.222;   43.300;  -33.000;   85.000
414.348;   16.500; -652.000; -385.000
414.474;  253.800;   38.000;  -52.000
414.600;    1.900; -126.000; -144.000
414.726;   43.400;  -96.000;  -55.000
414.852;  -49.400; -365.000; -342.000
414.978;  129.700;  104.000;  -18.000
415.104;  130.600;   38.000;   80.000
415.230;   77.300; -329.000; -330.000
415.356;  118.400; -409.000; -514.000
415.482;  445.000;   13.000;  -35.000
415.608;  505.200; -247.000; -323.000
415.734; 1835.900;   67.000;   38.000
415.860;37445.500; -875.000; -767.000
415.986;24503.900; -685.000; -607.000
416.111; 2071.800; -798.000; -652.000
416.237;  480.900; -424.000; -571.000
416.363; 2169.200; -765.000; -733.000
416.489; 7221.000; -324.000; -251.000
416.615;  722.700; -707.000; -742.000
416.741;   -2.900; -677.000; -784.000
416.866; -160.400; -673.000; -736.000
416.992; -193.200; -801.000; -818.000
417.118;   -3.500;  -41.000;  -80.000
417.244;  -70.400; -798.000; -531.000
417.369; -123.800; -801.000; -612.000
417.495;   40.900; -325.000; -254.000
417.621; -150.600;-1015.000; -803.000
417.746;   65.800; -579.000; -572.000
417.872;  114.600; -254.000; -144.000
417.998;  131.300; -515.000; -530.000
418.123; 2054.900;-1073.000; -845.000
418.249; 9374.000; -512.000; -601.000
418.374; 1175.100; -916.000; -824.000
418.500;  219.500; -383.000; -482.000
418.626;  241.100;   70.000;  -59.000
418.751;  244.900; -549.000; -448.000
418.877;  365.700; -637.000; -643.000
419.002; 3577.600; -688.000; -560.000
419.128;22277.700; -930.000; -721.000
419.253; 4865.600; -967.000; -837.000
419.379;  640.600; -391.000; -338.000
419.504;  796.100;  325.000;  415.000
419.629;  917.200; -393.000; -212.000
419.755; 6745.100; -317.000; -254.000
419.880;36162.600;  -98.000;   67.000
420.006;20733.000; -280.000; -221.000
420.131;50560.000; -662.000; -775.000
420.256; 6675.800; -315.000; -316.000
420.382;  937.800; -665.000; -687.000
420.507;  179.800; -649.000; -778.000
420.632;  282.300; -337.000; -339.000
420.758;  486.500; -251.000; -425.000
420.883; -108.300; -876.000; -672.000
421.008; -134.200; -775.000; -619.000
421.133; -100.400; -509.000; -467.000
421.259;  -19.000; -325.000; -259.000
421.384; -179.300; -834.000; -693.000
421.509;  -28.600;-1052.000; -862.000
421.634; 2220.800; -936.000; -820.000
421.759;  842.100; -359.000; -327.000
421.885;  -60.800; -717.000; -656.000
422.010;  -82.300; -673.000; -542.000
422.135; -268.200; -695.000; -727.000
422.260;  128.800;  340.000;  280.000
422.385;  -21.800;   12.000;  -98.000
422.510;  103.300;  151.000;  -26.000
422.635;   82.100;  -87.000;  -43.000
422.760;  245.600; -766.000; -791.000
422.885;  131.100;  -57.000;  -80.000
423.010;   14.800; -112.000; -169.000
423.135; -135.600; -481.000; -561.000
423.260;   30.000; -150.000; -245.000
423.385;  173.300;  476.000;  222.000
423.510;  140.900;   71.000;  -22.000
423.635;  170.300;  133.000;   45.000
423.760;  177.500;  383.000;  328.000
423.885;  149.300;  336.000;  391.000
424.010;   32.300;  -68.000;  -13.000
424.135;   13.900;    5.000;  -33.000
424.259;  -68.400; -654.000; -457.000
424.384;  -63.400; -279.000; -272.000
424.509;   28.400; -260.000; -186.000
424.634; -163.600; -761.000; -623.000
424.759;   -1.900; -688.000; -544.000
424.883;    3.700; -506.000; -527.000
425.008;  393.800; -502.000; -410.000
425.133; 3629.900; -679.000; -653.000
425.258; 1562.300; -517.000; -381.000
425.382; 1855.900; -867.000; -774.000
425.507; 4443.200; -487.000; -543.000
425.632;  711.600; -802.000; -663.000
425.756;  827.900; -256.000; -146.000
425.881;12105.800; -831.000; -857.000
426.006;29123.900; -604.000; -355.000
426.130; 4165.900; -696.000; -508.000
426.255;  606.500; -611.000; -491.000
426.379;  299.900; -189.000; -577.000
426.504;  792.400;  660.000;  544.000
426.629; 7712.800; -519.000; -466.000
426.753; 4761.000;   64.000;  -46.000
426.878;  611.800; -252.000; -288.000
427.002;  399.300; -651.000; -668.000
427.127; 3133.700;  -35.000; -158.000
427.251;20492.700;  372.000;  401.000
427.375; 5167.600; -191.000; -173.000
427.500; 4061.300; -616.000; -610.000
427.624; 1187.300; -234.000; -400.000
427.749;  202.000; -216.000; -225.000
427.873;  -26.000; -499.000; -412.000
427.997;  -36.600; -222.000; -230.000
428.122;  216.500;  795.000;  703.000
428.246;  209.300;  433.000;  434.000
428.371; -200.100; -869.000; -773.000
428.495; -162.200; -624.000; -646.000
428.619;   19.600; -186.000; -117.000
428.743;  133.900;   65.000;  132.000
428.868;   72.600; -732.000; -643.000
428.992; 2536.700; -219.000; -326.000
429.116;  909.000; -329.000; -357.000
429.240;  581.500;  419.000;  426.000
429.365;  -10.300; -454.000; -574.000
429.489;  -10.300; -638.000; -647.000
429.613;   97.200; -236.000; -177.000
429.737;  113.700; -563.000; -432.000
429.861;  545.300; -247.000; -133.000
429.985;10573.900; -425.000; -305.000
430.109;10399.300; -770.000; -908.000
430.234; 1224.000;   76.000;  -50.000
430.358;  146.000; -250.000; -160.000
430.482;  -63.600; -672.000; -564.000
430.606;  -79.900; -655.000; -375.000
430.730;  117.300; -437.000; -388.000
430.854;  285.300; -909.000; -835.000
430.978;  -65.100; -795.000; -764.000
431.102;  -92.300; -499.000; -422.000
431.226; -138.700; -874.000; -815.000
431.350;  171.100;  345.000;  422.000
431.474;  -81.200; -661.000; -373.000
431.597; -253.000;-1060.000; -848.000
431.721;  -78.700; -276.000; -267.000
431.845; -209.900; -704.000; -472.000
431.969; -106.500; -304.000; -349.000
432.093; -122.200; -395.000; -317.000
432.217;   47.700;   32.000;   82.000
432.341; -105.900; -523.000; -518.000
432.464;   84.400;   96.000;   40.000
432.588;  422.600; -401.000; -329.000
432.712;  271.300;  -52.000;  -52.000
432.836;  155.000;  213.000;  263.000
432.959;    4.300; -372.000; -311.000
433.083;  212.700;   11.000;    2.000
433.207;  746.300;  285.000;  930.000
433.330; 9449.900; -391.000; -200.000
433.454;10517.500; -654.000; -638.000
433.578; 6232.900;  583.000;  278.000
433.701; 1033.400; -623.000; -675.000
433.825;  285.000; -292.000; -299.000
433.949;  409.200;   28.000;  -72.000
434.072;  162.600; -410.000; -323.000
434.196;   32.300; -309.000; -117.000
434.319; 7787.900;25482.000;25124.000
434.443; 1468.200; -656.000; -603.000
434.566; 4711.100;  281.000;   62.000
434.690;  732.500; -637.000; -383.000
434.813;  102.700; -251.000; -173.000
434.937; -107.400; -569.000; -696.000
435.060;  -31.600; -423.000; -332.000
435.184;  663.800; -492.000; -217.000
435.307;  340.300;  159.000;  102.000
435.431;   55.200;  -40.000;   24.000
435.554;  -87.000; -399.000; -240.000
435.677;  -91.900; -350.000; -258.000
435.801;  -12.400;  -25.000;   49.000
435.924;   28.700;    1.000;  -67.000
436.048; -188.600;-1019.000; -732.000
436.171;  -56.400; -240.000;  -66.000
436.294;    6.200; -248.000; -229.000
436.417;  215.900; -963.000; -849.000
436.541; -134.500; -814.000; -840.000
436.664;  -13.300; -242.000; -316.000
436.787;   37.000;   13.000;  113.000
436.910; -160.500; -792.000; -422.000
437.034;   65.900;  142.000;  143.000
437.157;  198.000;  -11.000;    0.000
437.280;  -71.200; -392.000; -292.000
437.403; -133.200; -982.000; -869.000
437.526; 1267.100; -903.000; -865.000
437.649; 4107.900; -505.000; -332.000
437.772;  511.700; -692.000; -540.000
437.896;  289.900;  700.000;  544.000
438.019; -140.300; -758.000; -503.000
438.142; -100.800; -596.000; -506.000
438.265;    7.600; -639.000; -670.000
438.388; 1073.600; -520.000; -410.000
438.511;  183.400; -597.000; -394.000
438.634;  -36.300; -247.000; -125.000
438.757; -208.500; -693.000; -619.000
438.880;   19.800;  -34.000;  -57.000
439.003;  -81.300; -417.000; -437.000
439.126;  -50.900; -287.000; -167.000
439.248;  -37.100;  -98.000; -139.000
439.371;   -7.700;    9.000;  -53.000
439.494;  136.700;  510.000;  439.000
439.617;  -70.400;   65.000;  -88.000
439.740; -299.600; -968.000; -816.000
439.863; -233.800; -755.000; -595.000
439.986; -202.700; -476.000; -431.000
440.108;   -9.100; -161.000; -112.000
440.231; -280.500; -950.000; -836.000
440.354;  -10.100;  -64.000; -150.000
440.477;   93.700; -566.000; -542.000
440.599;   67.800; -200.000; -225.000
440.722; -197.200; -709.000; -586.000
440.845;  217.900;  751.000;  928.000
440.968; -153.300; -415.000; -311.000
441.090;  -62.300; -199.000;  -33.000
441.213; -277.800;-1021.000; -825.000
441.336;  -40.500; -159.000;   -5.000
441.458;  -78.900; -549.000; -396.000
441.581; -103.800; -628.000; -629.000
441.703;  -82.000; -152.000;   13.000
441.826; -152.400; -557.000; -400.000
441.948;  -38.500;   56.000;   51.000
442.071;  148.600;  555.000;  424.000
442.193; -169.400; -531.000; -485.000
442.316;   85.700;  152.000;   97.000
442.438;  101.900; -233.000;  -10.000
442.561;  239.300;  272.000;  262.000
442.683; 1146.300; -809.000; -522.000
442.806; 2071.700;   -8.000;   74.000
442.928;    8.700; -859.000; -604.000
443.051; -100.200; -577.000; -373.000
443.173; -137.600; -341.000; -339.000
443.295; -121.900; -263.000; -371.000
443.418;  -73.100; -321.000;  -29.000
443.540;   73.400; -106.000;   -4.000
443.662; -188.700; -563.000; -465.000
443.785;   19.700;  335.000;  199.000
443.907; -150.300; -362.000; -208.000
444.029; -214.600; -767.000; -494.000
444.152; -241.200; -644.000; -554.000
444.274;    1.800;  -18.000;  -24.000
444.396; -186.900; -461.000; -221.000
444.518; -206.100; -691.000; -454.000
444.640; -163.300; -268.000; -111.000
444.763;   51.800;  388.000;  249.000
444.885; -199.000; -432.000; -392.000
445.007;  -16.400;   35.000;   86.000
445.129; -178.900; -610.000; -515.000
445.251; -148.500; -372.000; -439.000
445.373; -226.800; -537.000; -386.000
445.495;   94.400;  242.000;  350.000
445.617;  175.800;  853.000;  753.000
445.739;  -40.700; -215.000;  -97.000
445.861;   -6.700; -245.000; -112.000
445.984;  -34.200; -267.000; -101.000
446.105;  406.300; -418.000; -251.000
446.227; 1102.400; -176.000;  -19.000
446.349;  -13.000; -358.000; -249.000
446.471; -154.400; -615.000; -448.000
446.593;  -64.300; -316.000;   19.000
446.715;   48.500;  -67.000;   41.000
446.837;  166.700;  697.000;  832.000
446.959; -140.700; -457.000; -478.000
447.081; -218.100; -628.000; -518.000
447.203;  223.900;  862.000;  834.000
447.325; -103.300; -270.000;   42.000
447.446;  120.700;  286.000;  530.000
447.568; -277.100; -921.000; -803.000
447.690;  -85.900; -236.000; -245.000
447.812; -236.100; -798.000; -519.000
447.933;    1.900;  155.000;  127.000
448.055;  -68.200; -306.000; -261.000
448.177;  329.900;   31.000;   79.000
448.299;  128.900; -935.000; -727.000
448.420;  121.700;  -25.000;  159.000
448.542;  -49.900;   -3.000;   33.000
448.664;   48.800;  109.000;  322.000
448.785;   -1.000;  265.000;   83.000
448.907;  -94.700; -614.000; -353.000
449.028;  -54.600; -771.000; -471.000
449.150;  212.700;  492.000;  589.000
449.272; -308.700;-1044.000; -913.000
449.393;  144.100;  612.000;  694.000
449.515; -247.300; -634.000; -581.000
449.636;  -72.000; -264.000; -155.000
449.758;  199.200;  763.000;  622.000
449.879; -125.200; -498.000; -396.000
450.001;  -98.200; -149.000;  -49.000
450.122;   17.800;  -95.000;  162.000
450.244;   14.000;   37.000;  364.000
450.365; -113.800; -495.000; -301.000
450.486;  -47.200;   80.000;  268.000
450.608;  120.000;  393.000;  326.000
450.729;  210.500;  578.000;  645.000
450.850;   66.600; -574.000; -466.000
450.972; 1444.200; -552.000; -389.000
451.093; 8853.900;  190.000;  588.000
451.214; 3311.800; -516.000; -337.000
451.336;  706.100;  773.000;  579.000
451.457;  165.100;  264.000;  393.000
451.578;  -31.800; -118.000;  -74.000
451.699; -192.200; -546.000; -540.000
451.821;  -44.300; -284.000;  -50.000
451.942;   -3.400;  278.000;  285.000
452.063;  114.500;  228.000;  419.000
452.184; 1123.600;  -54.000;  -49.000
452.305; 1986.700;  103.000;  170.000
452.427;  207.100; -549.000; -301.000
452.548;   18.300;   23.000;   79.000
452.669;  -48.400; -257.000;  -89.000
452.790;  -28.600;    3.000;  -18.000
452.911;   18.400;  195.000;  259.000
453.032;  -74.200; -289.000;  -60.000
453.153;  -13.400;  -29.000;   81.000
453.274;  229.200;  737.000;  868.000
453.395;    5.100;  -51.000;  175.000
453.516;  316.600; 1317.000; 1388.000
453.637;  -85.600; -205.000; -150.000
453.758;  -16.600;   15.000;   69.000
453.879; -169.000; -462.000; -250.000
454.000;  221.300; 1086.000;  948.000
454.121; -187.000; -554.000; -326.000
454.242; -174.600; -599.000; -383.000
454.362;  -56.900;  -99.000;  114.000
454.483;  -24.600; -309.000; -229.000
454.604;  221.400;  512.000;  580.000
454.725; -192.900; -627.000; -555.000
454.846; -215.300; -474.000; -406.000
454.967;    4.500;  230.000;  539.000
455.087;  -13.800;  179.000;  153.000
455.208;  106.100;  554.000;  856.000
455.329;  -49.500;  -22.000;   82.000
455.450;  132.900;  473.000;  633.000
455.570; -141.300; -234.000; -211.000
455.691;    2.000;  201.000;  407.000
455.812; -155.400; -270.000;  -92.000
455.932;  -48.600;  107.000;  -97.000
456.053; -117.900;   36.000;   24.000
456.173; -131.000; -433.000; -355.000
456.294; -198.600; -476.000; -303.000
456.415;  -75.300;  -73.000;   70.000
456.535;  -12.000;  297.000;  273.000
456.656;  -18.700;  132.000;  240.000
456.776; -100.800;    3.000;  298.000
456.897;   82.600;  308.000;  513.000
457.017; -113.800; -153.000;   -3.000
457.138; -147.800; -402.000; -249.000
457.258;   17.200;  263.000;  224.000
457.379;   73.600;  509.000;  521.000
457.499;   16.700;  443.000;  432.000
457.620; -170.700; -407.000; -231.000
457.740; -129.900; -132.000;  -11.000
457.860;  -39.200;   87.000;   44.000
457.981;  -30.400;  132.000;  124.000
458.101;  -47.500;  -89.000;   40.000
458.221;   51.600;  336.000;  402.000
458.342;  -78.100;   -4.000;  -37.000
458.462;  105.700;  617.000;  352.000
458.582;  -33.900; -302.000; -294.000
458.703;   56.500;  303.000;  154.000
458.823;   17.800;   22.000;  163.000
458.943;  123.200;  341.000;  467.000
459.063;   60.600; 1124.000;  192.000
459.183;   -6.000;  328.000;  313.000
459.304;   59.500;  315.000;  517.000
459.424;  -53.900; -246.000;  -89.000
459.544;  716.600;  388.000;  764.000
459.664; 1516.700;  499.000;  506.000
459.784;  602.600; 1004.000; 1175.000
459.904;  155.800;  867.000;  744.000
460.024;  228.800;  867.000;  684.000
460.144;   93.900;  449.000;  554.000
460.264;   37.900;  515.000;  327.000
460.385;  -94.300; -145.000; -119.000
460.505;  146.500;  905.000;  858.000
460.625; -139.500;  -17.000;  -68.000
460.745;    0.800;  396.000;  541.000
460.864;  -27.200;  153.000;  469.000
460.984;  103.100;  499.000;  573.000
461.104;  334.400; 1656.000; 1775.000
461.224;   94.500;  657.000;  650.000
461.344;   37.800;  431.000;  360.000
461.464;   14.700;  258.000;  513.000
461.584;    8.500;  283.000;  466.000
461.704;   -1.300;   58.000;  108.000
461.824;  -88.600;  238.000;  259.000
461.943;   -0.300;  191.000;  130.000
462.063; -103.300;    2.000;  324.000
462.183;  131.200;  639.000;  717.000
462.303;  294.600; 1678.000; 1230.000
462.422;  122.900;  781.000;  840.000
462.542;  -17.200;  271.000;  391.000
462.662;  182.300;  353.000;  380.000
462.782;  547.500;  833.000;  572.000
462.901;  916.500;  545.000;  717.000
463.021;  600.300; 1702.000; 1638.000
463.141;   52.200;  337.000;  770.000
463.260;    0.200;  614.000;  474.000
463.380;  109.300;  902.000;  884.000
463.499;  -21.700;  342.000;  332.000
463.619;   -5.600;  581.000;  559.000
463.738;  303.600; 1644.000;  903.000
463.858;  114.100;  657.000;  811.000
463.978;   -2.900;  542.000;  396.000
464.097;  200.500;  921.000; 1114.000
464.217;  272.400; 1196.000; 1143.000
464.336;  280.100; 1068.000; 1130.000
464.455;  -15.100;  328.000;  659.000
464.575;  167.000;  597.000;  602.000
464.694;  396.600; 1204.000; 1179.000
464.814;  337.200; 1190.000; 1138.000
464.933;  210.100; 1095.000; 1027.000
465.052;  299.600; 1412.000; 1054.000
465.172;  208.000;  922.000;  799.000
465.291;  386.300; 1376.000; 1320.000
465.410;  106.200;  462.000;  735.000
465.530;  232.900; 1355.000; 1310.000
465.649;  223.000; 1209.000; 1273.000
465.768;  333.100; 1673.000; 1508.000
465.888;  176.500;  941.000; 1174.000
466.007;  292.800; 1335.000; 1440.000
466.126;   90.700;  721.000;  641.000
466.245;  141.400; 1176.000; 1187.000
466.364;  129.300;  950.000; 1060.000
466.484;  192.400; 1024.000; 1213.000
466.603;  145.900; 1101.000; 1222.000
466.722;  345.500; 1490.000; 1769.000
466.841;  223.100; 1151.000; 1401.000
466.960;  147.200; 1069.000;  972.000
467.079;  345.200; 1971.000; 1786.000
467.198;  184.400; 1238.000; 1181.000
467.317;  229.100; 1768.000; 1162.000
467.436;  202.700; 1709.000; 1261.000
467.555;  337.900; 1796.000; 1746.000
467.674;  217.000; 1227.000; 1329.000
467.793;  143.800; 1376.000; 1374.000
467.912;  243.200; 1658.000; 1539.000
468.031;  340.800; 2038.000; 1930.000
468.150;  385.100; 1842.000; 1837.000
468.269;  483.500; 2313.000; 2090.000
468.388;  477.100; 2168.000; 2339.000
468.507;  595.600; 2884.000; 2903.000
468.626;  674.200; 2555.000; 2541.000
468.744;  362.800; 2018.000; 2174.000
468.863;  443.700; 2312.000; 2523.000
468.982;  235.700; 1503.000; 1555.000
469.101;  565.300; 2788.000; 2692.000
469.220;  328.900; 2333.000; 2176.000
469.338;  579.000; 2935.000; 3051.000
469.457;  455.100; 2719.000; 2545.000
469.576;  768.300; 3953.000; 3784.000
469.695;  568.700; 2877.000; 3066.000
469.813;  967.300; 4148.000; 4192.000
469.932;  863.100; 4255.000; 4485.000
470.051;  929.100; 4075.000; 4161.000
470.169; 1766.900; 4470.000; 4338.000
470.288; 2761.900; 4700.000; 4809.000
470.406; 1679.500; 5059.000; 5194.000
470.525; 1361.500; 6101.000; 5787.000
470.644; 1408.600; 6847.000; 6794.000
470.762; 1713.500; 8397.000; 7873.000
470.881; 1891.700; 8651.000; 8464.000
470.999; 2188.500; 9685.000; 9151.000
471.118; 2320.500;11174.000;10711.000

