
Integration time [ms]: 100.000
Averaging Nr. [scans]: 40
Smoothing Nr. [pixels]: 0
Data measured with spectrometer [name]: 2101012U2
Wave   ;Sample   ;Dark     ;Reference
[nm]   ;[counts] ;[counts] ;[counts] 

197.733;   53.400;  516.000;  404.000
197.879;  -81.625; -610.000; -634.000
198.025;  -44.625; -475.000; -420.000
198.171;  -75.375; -602.000; -612.000
198.317;  -32.725; -401.000; -316.000
198.463;  -67.900; -655.000; -404.000
198.609;   32.200;  181.000; -137.000
198.755;  -89.400; -644.000; -410.000
198.901;  -75.250; -505.000; -424.000
199.047;  -50.400; -615.000; -488.000
199.193;  -37.200; -230.000; -468.000
199.339;  -41.000; -222.000; -369.000
199.485;   37.125;  330.000;  271.000
199.631;   13.875;  227.000;  310.000
199.777;  -56.650; -466.000; -398.000
199.923;  -55.375; -610.000; -424.000
200.069;   -2.350; -141.000;  -58.000
200.215;   63.375;  128.000;  453.000
200.361;   40.375;  243.000;  477.000
200.507;  -42.800; -600.000; -373.000
200.653;  -28.600; -371.000; -194.000
200.798;  -44.350; -215.000; -125.000
200.944;   -6.075; -146.000;  -41.000
201.090;   36.925;   61.000;  222.000
201.236;   -4.325; -116.000; -158.000
201.382;  121.050;  874.000;  903.000
201.528;  -11.000;  -58.000;  -48.000
201.674;  -61.550; -386.000; -293.000
201.819;  -70.175; -540.000; -439.000
201.965;  -91.550; -699.000; -447.000
202.111;  -20.800; -273.000; -226.000
202.257;  -32.575; -250.000; -238.000
202.402;    0.050;   13.000;  -36.000
202.548;  -25.175; -169.000; -116.000
202.694;   78.675;  410.000; -183.000
202.840;  -68.900; -603.000; -531.000
202.985;  -70.850; -681.000; -639.000
203.131; -106.125; -832.000; -666.000
203.277;  -25.825; -199.000; -262.000
203.423;  -42.750; -434.000; -520.000
203.568;  -39.200; -462.000; -237.000
203.714;  -60.675; -535.000; -542.000
203.860;  -80.475; -682.000; -641.000
204.005;   25.900;  112.000;  167.000
204.151;   73.325;  561.000;  556.000
204.296;  -48.400; -354.000; -221.000
204.442;  -84.125; -600.000; -547.000
204.588;  -85.050; -592.000; -579.000
204.733;   25.725;  178.000;  168.000
204.879; -132.650;-1018.000; -822.000
205.025;   14.325;  -99.000;  126.000
205.170;   13.225;  -17.000;   94.000
205.316;   89.950;  438.000;  661.000
205.461;  -98.175; -698.000; -554.000
205.607;   72.550;  609.000;  665.000
205.752;  -71.400; -626.000; -551.000
205.898;  -55.850; -501.000; -391.000
206.043;  -63.975; -578.000; -506.000
206.189;  -44.075; -243.000; -285.000
206.334;   76.625;  554.000;  606.000
206.480;   83.375;  409.000;  239.000
206.625;  -75.725; -529.000; -552.000
206.771;  -57.275; -451.000; -373.000
206.916;  -30.525; -210.000; -537.000
207.062;  -86.475; -545.000; -591.000
207.207;  -57.275; -546.000; -443.000
207.353;   49.600;  185.000;  460.000
207.498;   13.050;  196.000;   85.000
207.643;  -53.075; -501.000; -370.000
207.789; -127.500;-1069.000; -910.000
207.934;  -81.875; -665.000; -713.000
208.080;  -32.550; -154.000;   66.000
208.225;   -2.875;  -22.000;  -57.000
208.370;  -83.975; -727.000; -619.000
208.516;  -71.000; -741.000; -487.000
208.661;  -25.925; -127.000;  -69.000
208.806;  -21.475; -165.000; -171.000
208.952; -125.725;-1044.000; -731.000
209.097;   63.375;  378.000;  349.000
209.242;  -50.200; -307.000; -382.000
209.387;   57.775;  392.000;  350.000
209.533;  -37.850; -321.000; -350.000
209.678;   80.550;  472.000;  543.000
209.823;  -54.825; -408.000; -310.000
209.969; -107.600; -860.000; -757.000
210.114; -109.775; -907.000; -719.000
210.259; -115.150; -939.000; -889.000
210.404;   -9.375; -171.000;  103.000
210.549;    7.325;  108.000;    3.000
210.695;  -12.200;   -3.000;  -95.000
210.840;   14.650;   94.000;   67.000
210.985;  -70.425; -484.000; -303.000
211.130;   55.325;  268.000;  406.000
211.275;   15.250;  207.000;  199.000
211.420;  -51.375; -300.000; -289.000
211.566;  -86.125; -536.000; -489.000
211.711;   22.900;  218.000;  157.000
211.856;  -74.075; -545.000; -519.000
212.001;   17.400;  151.000;   44.000
212.146;   19.250;  153.000;   49.000
212.291;  -20.000; -210.000; -186.000
212.436;  -22.800; -280.000;   -6.000
212.581;  -78.600; -685.000; -653.000
212.726;  -84.600; -487.000; -538.000
212.871;  -50.850; -552.000; -217.000
213.016; -157.975;-1172.000;-1029.000
213.161;   52.950;  406.000;  291.000
213.306;  -55.350; -435.000; -577.000
213.451;  -97.075; -778.000; -689.000
213.596;  -61.150; -455.000; -347.000
213.741;  -61.950; -448.000; -538.000
213.886;  -76.025; -498.000; -517.000
214.031;  -31.225; -294.000; -124.000
214.176;  -57.425; -408.000; -341.000
214.321;  -22.575; -296.000; -157.000
214.466;  -23.225; -163.000;  -43.000
214.611;  -11.000;  -61.000;  -10.000
214.756; -135.325; -948.000; -858.000
214.901;  -24.200; -388.000; -226.000
215.046; -120.075; -797.000; -825.000
215.191;   -0.275;  128.000;   35.000
215.336;   -5.575; -157.000;  -19.000
215.480;  -80.625; -684.000; -505.000
215.625;  -12.275; -175.000;  -19.000
215.770;  -99.550; -757.000; -662.000
215.915;   -3.425;   -5.000;  -97.000
216.060;   -4.100; -113.000;  -21.000
216.205; -112.800; -731.000; -779.000
216.349;  -73.450; -470.000; -533.000
216.494; -144.325; -939.000; -867.000
216.639; -109.600; -823.000; -888.000
216.784;  -85.025; -577.000; -525.000
216.929;   40.300;  392.000;  281.000
217.073;   -7.625; -244.000;  -31.000
217.218;   -1.925;   78.000;  -47.000
217.363;  -88.350; -656.000; -618.000
217.507;  -84.950; -623.000; -588.000
217.652; -140.075; -845.000; -874.000
217.797;  -94.575; -708.000; -659.000
217.942; -107.925; -856.000; -720.000
218.086;   58.325;  608.000;  539.000
218.231;  -17.400; -174.000;  -26.000
218.376;  -41.100; -337.000; -229.000
218.520;   -5.750;  -41.000;   96.000
218.665;  -31.550; -338.000; -204.000
218.810;  -47.075; -275.000; -233.000
218.954;    4.075;  201.000;   35.000
219.099; -112.425; -713.000; -963.000
219.243;  -70.025; -589.000; -554.000
219.388;  -19.625; -264.000; -136.000
219.532;  -13.975; -116.000; -116.000
219.677;  -75.500; -564.000; -521.000
219.822;    2.650;   33.000;   89.000
219.966;    7.950;   17.000;  -99.000
220.111;  -30.875; -328.000;  -40.000
220.255; -108.650; -797.000; -750.000
220.400;  -16.550; -180.000; -146.000
220.544;  -64.475; -516.000; -450.000
220.689;  -63.775; -422.000; -451.000
220.833;  -26.075; -123.000;  -58.000
220.978;  -44.375; -393.000; -563.000
221.122;   14.800;  319.000;  307.000
221.267; -120.950; -906.000; -837.000
221.411;  -82.150; -478.000; -394.000
221.555;   -3.025; -104.000;  -23.000
221.700;  -58.200; -329.000; -222.000
221.844;   16.400;  255.000;  272.000
221.989;  -46.400; -328.000; -311.000
222.133;  -43.125; -289.000; -307.000
222.277;  -14.100;    5.000;   78.000
222.422;    8.100;  227.000;  113.000
222.566;  -42.325; -381.000; -214.000
222.711;  -62.000; -414.000; -479.000
222.855;  -82.500; -643.000; -586.000
222.999;  -85.375; -642.000; -717.000
223.144;  -34.050; -195.000; -194.000
223.288;   32.675;  423.000;  251.000
223.432;   18.925;  184.000;  230.000
223.576;   31.850;  152.000;  -21.000
223.721;   42.025;  364.000;  273.000
223.865;  -60.275; -472.000; -475.000
224.009;  196.300; 1673.000; 1631.000
224.153;  -99.550; -660.000; -671.000
224.298;  -78.800; -531.000; -489.000
224.442;  -27.975;  -74.000;  -33.000
224.586;  -11.750; -169.000; -106.000
224.730;  -95.825; -858.000; -670.000
224.875; -101.025; -739.000; -688.000
225.019;   13.300;  102.000;  188.000
225.163;   59.150;  208.000;  341.000
225.307;   15.025;   97.000;  -91.000
225.451;   39.875;  360.000;  481.000
225.595;   22.150;  264.000;  176.000
225.739;  -19.675; -170.000;  -94.000
225.884;   -4.450;   86.000;    5.000
226.028; -105.425; -760.000; -626.000
226.172;  -43.750; -260.000; -273.000
226.316; -137.725; -941.000; -902.000
226.460;  -67.675; -645.000; -493.000
226.604;  -69.025; -406.000; -400.000
226.748; -105.100; -836.000; -733.000
226.892;  -33.675; -227.000; -181.000
227.036;  -57.550; -537.000; -447.000
227.180;  -47.775; -551.000; -375.000
227.324;  -78.475; -561.000; -580.000
227.468; -112.650; -819.000; -717.000
227.612;    9.325;  242.000;  -28.000
227.756; -101.925; -845.000; -698.000
227.900;   55.025;  342.000;  441.000
228.044;  -61.025; -509.000; -290.000
228.188;   61.950;  448.000;  568.000
228.332;  -98.600; -546.000; -472.000
228.476;  -32.650; -223.000; -149.000
228.620;  -32.100; -210.000; -150.000
228.764;   60.350;  431.000;  349.000
228.908;  -31.125; -155.000;   30.000
229.052;  -68.625; -615.000; -528.000
229.195;  -19.200; -172.000;   13.000
229.339;  -29.275; -235.000; -305.000
229.483;  -34.450;    5.000; -162.000
229.627;   -3.800; -156.000;  139.000
229.771;  -59.850; -218.000; -294.000
229.915;    3.025;  230.000;   79.000
230.059;  -95.325; -648.000; -663.000
230.202;  -27.575; -370.000; -317.000
230.346;  -35.450; -107.000;  107.000
230.490;  -66.350; -489.000; -521.000
230.634; -110.575; -736.000; -553.000
230.777;   72.300;  478.000;  509.000
230.921;  -57.325; -450.000; -359.000
231.065;  -40.275; -246.000; -286.000
231.209;   16.075;  261.000;  265.000
231.352;    6.625;   54.000;   40.000
231.496;   13.950;  568.000;  188.000
231.640;  -97.175; -693.000; -621.000
231.783;   69.325;  546.000;  525.000
231.927;  -53.250; -294.000; -365.000
232.071; -125.150; -962.000; -736.000
232.214; -123.725; -980.000; -764.000
232.358; -108.875; -683.000; -599.000
232.502;   10.150;  -19.000;    7.000
232.645; -140.500;-1090.000; -927.000
232.789;  -29.800; -257.000; -218.000
232.933;  -37.550; -407.000; -224.000
233.076; -144.375;-1038.000; -897.000
233.220; -112.550; -752.000; -777.000
233.363;  -79.925; -669.000; -477.000
233.507;   49.200;  371.000;  129.000
233.650; -111.975; -764.000; -834.000
233.794;   45.925;  438.000;  461.000
233.938;  -58.350; -530.000; -362.000
234.081;  -19.200;  -93.000;   31.000
234.225;  -60.950; -631.000; -539.000
234.368; -120.500; -773.000; -723.000
234.512;  -39.550; -385.000; -299.000
234.655;  -94.850; -582.000; -555.000
234.798;  -64.900; -493.000; -466.000
234.942; -130.225; -884.000;-1002.000
235.085;  -83.150; -651.000; -443.000
235.229;  -71.200; -405.000; -410.000
235.372;  -54.050; -247.000; -191.000
235.516;  -54.900; -397.000; -321.000
235.659;   14.800;   92.000;  121.000
235.802;  -15.200;  -38.000;  -22.000
235.946;   15.625;  335.000;  215.000
236.089;   28.425;  126.000;  250.000
236.233;   40.125;  275.000;  298.000
236.376;  -62.825; -235.000; -378.000
236.519;  -61.125; -297.000; -319.000
236.663;  -27.550; -215.000; -117.000
236.806; -133.925;-1029.000; -999.000
236.949;   76.425;  543.000;  431.000
237.092;   55.950;  412.000;  391.000
237.236;  -87.200; -589.000; -502.000
237.379;   65.975;  352.000;  428.000
237.522; -115.075; -879.000; -768.000
237.666;  -33.050; -271.000;   18.000
237.809; -134.475; -851.000; -823.000
237.952;   42.750;  469.000;  271.000
238.095;  -76.700; -447.000; -442.000
238.238;   74.650;  688.000;  700.000
238.382;    7.675;  166.000;  103.000
238.525;  -70.575; -598.000; -511.000
238.668; -135.225;-1060.000; -985.000
238.811;  -91.400; -638.000; -643.000
238.954;  -58.275; -483.000; -334.000
239.097;  101.375;  617.000;  664.000
239.241;   29.600;  394.000;  326.000
239.384;  -32.375; -254.000; -214.000
239.527;  -65.175; -424.000; -224.000
239.670; -149.200; -994.000;-1091.000
239.813; -105.200; -696.000; -658.000
239.956;   70.500;  579.000;  473.000
240.099; -117.875; -778.000; -725.000
240.242;   63.600;  428.000;  432.000
240.385;   41.050;  466.000;  450.000
240.528;  -72.750; -706.000; -473.000
240.671;    8.750;  189.000;  134.000
240.814;  -48.800; -441.000; -158.000
240.957; -100.075; -767.000; -578.000
241.100;  -95.675; -779.000; -755.000
241.243; -150.175;-1234.000; -893.000
241.386;  -65.125; -508.000; -379.000
241.529;  -99.700; -735.000; -547.000
241.672;  -63.475; -566.000; -495.000
241.815; -128.100; -832.000; -808.000
241.958;  -32.925; -125.000; -182.000
242.101;  -81.825; -545.000; -390.000
242.244;  -31.950; -270.000; -325.000
242.387;  -39.425; -304.000; -246.000
242.530;   51.650;  470.000;  134.000
242.673;  -46.775; -381.000; -309.000
242.815; -122.050; -925.000; -899.000
242.958;  -74.700; -482.000; -381.000
243.101;   21.325;  132.000;  187.000
243.244;  -99.000; -564.000; -521.000
243.387;  -51.000; -313.000; -316.000
243.530;  -87.025; -657.000; -674.000
243.672;   -0.325;   43.000;  -92.000
243.815;  -54.825; -355.000; -283.000
243.958;    4.450;   98.000;  -26.000
244.101;   -2.800;   59.000;  -16.000
244.243;  -16.375;  -47.000;  101.000
244.386; -112.150; -761.000; -630.000
244.529;  -38.500; -132.000; -139.000
244.672; -166.850;-1154.000; -951.000
244.814; -102.450; -621.000; -794.000
244.957;  -40.400; -380.000; -304.000
245.100;  -81.125; -489.000; -489.000
245.242;  -55.275; -387.000; -374.000
245.385;   -0.500;  -59.000;  -39.000
245.528; -113.925; -871.000; -705.000
245.670;   86.375;  612.000;  634.000
245.813;  -90.800; -599.000; -547.000
245.956;  -22.225; -324.000; -275.000
246.098;  -75.725; -508.000; -650.000
246.241;    1.500;  194.000;   48.000
246.383;  -13.275; -119.000;  -73.000
246.526;  -76.550; -454.000; -525.000
246.669; -132.725; -889.000; -780.000
246.811;   21.125;  172.000;   -1.000
246.954;  -67.000; -512.000; -426.000
247.096;  -12.375;  -84.000;   -6.000
247.239;  -81.350; -482.000; -445.000
247.381;  -69.750; -647.000; -488.000
247.524;   72.175;  645.000;  679.000
247.666;  -19.350;   58.000;   11.000
247.809; -117.700; -887.000; -691.000
247.951;  -17.450;  -75.000;  138.000
248.094;   23.125;  432.000;  308.000
248.236; -160.875;-1262.000;-1238.000
248.378;  -17.750; -356.000;  -81.000
248.521;  -18.200; -334.000; -337.000
248.663;  -39.625; -236.000; -267.000
248.806;  -26.200; -300.000; -266.000
248.948; -104.575; -886.000; -763.000
249.090;  -54.550; -428.000; -398.000
249.233;  -54.025; -344.000; -381.000
249.375;  -71.750; -474.000; -451.000
249.518;  -21.575;  -83.000; -133.000
249.660;  -14.075; -103.000;    3.000
249.802; -171.000;-1303.000;-1189.000
249.945;  -81.750; -612.000; -540.000
250.087; -110.575; -834.000; -768.000
250.229;  -50.050; -362.000; -480.000
250.371;  -58.450; -494.000; -439.000
250.514;  -52.450; -310.000; -244.000
250.656;  -65.825;   69.000;  102.000
250.798; -128.500; -849.000; -800.000
250.940;  -68.175; -322.000; -322.000
251.083;  -24.225; -335.000; -111.000
251.225;   52.450;  338.000;  310.000
251.367;  -51.825; -274.000; -373.000
251.509;  -29.175; -265.000; -210.000
251.651;  -98.475; -731.000; -671.000
251.794;   53.975;  538.000;  632.000
251.936; -107.800; -821.000; -747.000
252.078;  -79.900; -540.000; -461.000
252.220;  -84.475; -645.000; -477.000
252.362;   80.000;  344.000;  462.000
252.504;  -80.525; -677.000; -584.000
252.646; -115.100; -875.000; -722.000
252.788;   -9.250;   14.000; -128.000
252.931;  -40.125; -257.000; -253.000
253.073;  -55.325; -376.000; -317.000
253.215;   -1.125;  141.000;  122.000
253.357;  -18.600;   82.000; -153.000
253.499;  -61.325; -374.000; -234.000
253.641;  -88.275; -749.000; -594.000
253.783; -101.350; -609.000; -527.000
253.925;  -94.700; -586.000; -591.000
254.067; -113.150; -744.000; -667.000
254.209;  -38.950; -391.000; -259.000
254.351; -148.275; -865.000; -883.000
254.493;  -67.850; -441.000; -417.000
254.635; -126.825; -936.000; -818.000
254.777;  -92.825; -752.000; -687.000
254.918;  -64.025; -512.000; -430.000
255.060;  -68.525; -551.000; -395.000
255.202;  -48.650; -473.000; -261.000
255.344;  -93.100; -658.000; -455.000
255.486;  -70.175; -471.000; -406.000
255.628; -109.525; -780.000; -781.000
255.770;  -96.500; -676.000; -536.000
255.912;  -74.950; -559.000; -468.000
256.053;  -95.325; -730.000; -508.000
256.195;  145.675; 1008.000;  903.000
256.337;  -97.550; -861.000; -595.000
256.479;   59.225;  532.000;  416.000
256.621;  -50.925; -394.000; -212.000
256.762; -107.400; -789.000; -742.000
256.904;   43.025;  485.000;  487.000
257.046;  -47.925; -381.000; -271.000
257.188;  -46.400; -351.000; -264.000
257.329;  -87.400; -525.000; -464.000
257.471; -122.800; -939.000; -807.000
257.613;  -65.750; -584.000; -498.000
257.755; -151.350;-1073.000; -982.000
257.896;   23.400;  286.000;  392.000
258.038;  -78.550; -403.000; -352.000
258.180;  -63.250; -354.000; -279.000
258.321;  -88.200; -581.000; -457.000
258.463;   -4.825;  -71.000;  133.000
258.605;  -86.675; -562.000; -570.000
258.746; -103.275; -886.000; -772.000
258.888; -145.075;-1026.000;-1020.000
259.029;   15.725;  121.000;   -8.000
259.171;  -94.175; -614.000; -550.000
259.313;  -13.075;  -49.000;  -47.000
259.454;  -87.325; -536.000; -414.000
259.596;  -59.000; -483.000; -390.000
259.737;  -79.225; -590.000; -474.000
259.879;   40.550;  217.000;  311.000
260.020;   83.975;  901.000;  636.000
260.162;  -45.250; -146.000; -253.000
260.303; -115.675; -768.000; -687.000
260.445;  -80.725; -609.000; -613.000
260.586;   20.450;  392.000;  157.000
260.728;  -37.250; -360.000; -248.000
260.869;  -72.475; -350.000; -343.000
261.011;   81.050;  706.000;  537.000
261.152;  -67.425; -479.000; -319.000
261.293;  -96.800; -576.000; -595.000
261.435;  -36.525; -219.000; -184.000
261.576;  -57.775; -455.000; -325.000
261.718;   56.050;  420.000;  470.000
261.859; -133.325; -940.000; -949.000
262.000; -127.375; -951.000;-1016.000
262.142;  -24.150;  -52.000;  -60.000
262.283; -117.225; -808.000; -691.000
262.424;  -98.250; -666.000; -625.000
262.566; -163.475;-1161.000; -983.000
262.707; -116.625; -840.000; -830.000
262.848; -128.775; -769.000; -726.000
262.990;  -48.375; -362.000; -345.000
263.131;   67.800;  650.000;  681.000
263.272;  -17.675;  -61.000;  -41.000
263.413; -104.350; -589.000; -561.000
263.555;  -56.500; -669.000; -143.000
263.696;  -95.775; -550.000; -641.000
263.837;  -59.025; -449.000; -551.000
263.978;  -13.825;   -5.000;  -77.000
264.119;  -52.350; -283.000; -264.000
264.261; -118.750; -847.000; -630.000
264.402;  -13.675;   33.000;   40.000
264.543;  -86.100; -509.000; -524.000
264.684;   -6.500;   61.000;  -50.000
264.825;  -86.625; -816.000; -538.000
264.966;  -11.750;  -84.000;  -67.000
265.107; -109.725; -646.000; -670.000
265.248; -135.350; -825.000; -812.000
265.390;  -15.775;  152.000;   -9.000
265.531;  -12.775; -238.000; -107.000
265.672;  -92.850; -557.000; -630.000
265.813;   62.850;  563.000;  439.000
265.954; -146.550; -959.000; -940.000
266.095;  -30.600; -372.000; -322.000
266.236; -111.250; -686.000; -548.000
266.377;  -42.900; -243.000; -297.000
266.518;  -77.600; -619.000; -547.000
266.659;   18.700;  170.000;  268.000
266.800;    0.375;   83.000;   85.000
266.941;  -82.675; -487.000; -478.000
267.082;   16.600;  354.000;   99.000
267.223;  -49.225; -344.000; -273.000
267.364; -114.650; -892.000; -686.000
267.504;  -17.550;    3.000;  135.000
267.645;   -1.225;  160.000;   67.000
267.786;  -27.850; -147.000;  -86.000
267.927;  -73.425; -473.000; -379.000
268.068;  -22.050; -186.000;  -61.000
268.209;  -47.600; -175.000; -413.000
268.350;  -60.425; -388.000; -532.000
268.490;  -85.450; -648.000; -521.000
268.631;   30.050;  127.000;  225.000
268.772; -122.225; -874.000; -647.000
268.913;  -46.625; -328.000; -476.000
269.054;  -26.000; -117.000;   12.000
269.194;  -44.150; -418.000; -402.000
269.335; -159.975;-1137.000;-1074.000
269.476;  -35.250;   33.000;  -35.000
269.617;  -53.325; -347.000; -392.000
269.757;  -98.550; -713.000; -646.000
269.898; -105.150; -856.000; -613.000
270.039;  -68.325; -415.000; -405.000
270.180; -145.475; -952.000; -816.000
270.320;  -25.750; -190.000; -250.000
270.461;  -44.600; -277.000; -249.000
270.602;  -20.100; -186.000; -156.000
270.742; -124.925; -868.000; -943.000
270.883;  -66.250; -442.000; -390.000
271.023;  -67.100; -358.000; -357.000
271.164;  -74.025; -607.000; -528.000
271.305; -108.575; -666.000; -654.000
271.445;  -92.000; -722.000; -683.000
271.586;  -62.725; -462.000; -283.000
271.726;  -50.550; -397.000; -322.000
271.867;  -67.275; -594.000; -534.000
272.008;  148.075; -473.000; -285.000
272.148;  116.175;  462.000;  468.000
272.289;   16.825; -113.000; -181.000
272.429;    5.325;   19.000;  185.000
272.570; -116.350; -633.000; -737.000
272.710;  -97.400; -825.000; -775.000
272.851;  -27.925;  113.000; -130.000
272.991; -169.725;-1173.000;-1077.000
273.131;  -72.600; -419.000; -459.000
273.272;  -86.950; -683.000; -723.000
273.412;   -1.500; -143.000;  -31.000
273.553;  -63.350; -488.000; -507.000
273.693;  130.425;  913.000;  858.000
273.834; -104.550; -894.000; -692.000
273.974;  -88.650; -664.000; -615.000
274.114; -105.125; -772.000; -560.000
274.255;   66.300;  414.000;  373.000
274.395;   -6.100; -180.000; -125.000
274.535;   41.950;  199.000;  350.000
274.676;   23.775;  225.000;   94.000
274.816;   -8.125;  110.000;   34.000
274.956;  -77.700; -624.000; -690.000
275.097;  -76.500;-1014.000; -922.000
275.237; -113.200; -913.000; -803.000
275.377;  -97.050; -778.000; -689.000
275.517; -149.425; -878.000; -937.000
275.658;  -66.925; -590.000; -555.000
275.798;  -86.850; -606.000; -413.000
275.938;    5.800;  215.000;  323.000
276.078; -109.050; -626.000; -395.000
276.218;   -6.500;   99.000;  104.000
276.359; -140.150;-1026.000;-1024.000
276.499;  -76.525; -605.000; -446.000
276.639;  -30.425; -305.000; -151.000
276.779;  -57.325; -475.000; -357.000
276.919; -116.525; -783.000; -624.000
277.059;  -35.700; -261.000; -212.000
277.199;  -52.925; -357.000; -259.000
277.340;   51.050;  287.000;  175.000
277.480; -120.325; -840.000; -693.000
277.620;   30.175;  192.000;   16.000
277.760; -199.500;-1533.000;-1294.000
277.900;   16.025;  113.000;   33.000
278.040;    7.375;  137.000;  159.000
278.180;   36.825;  270.000;  170.000
278.320;    0.350;   21.000;   56.000
278.460;  -86.250; -443.000; -469.000
278.600;  -92.350; -708.000; -598.000
278.740;   44.725;  448.000;  224.000
278.880;  -70.425; -768.000; -791.000
279.020;   -5.175; -194.000; -144.000
279.160;  -90.100; -672.000; -595.000
279.300; -119.250; -926.000; -873.000
279.440; -100.625; -709.000; -622.000
279.579;  -27.375;-1014.000; -929.000
279.719;  -39.700; -410.000; -394.000
279.859;   63.425;   -4.000;   41.000
279.999;   11.125; -208.000;  101.000
280.139;  -24.525; -435.000; -387.000
280.279;  -70.775; -708.000; -745.000
280.419;  -19.325; -229.000; -147.000
280.559;  -39.150; -259.000; -180.000
280.698;  -81.350; -790.000; -639.000
280.838; -104.525; -778.000; -800.000
280.978; -106.550; -846.000; -790.000
281.118; -122.975; -811.000; -704.000
281.257;   -1.125;   24.000;    6.000
281.397; -128.800;-1094.000; -960.000
281.537; -103.475; -599.000; -712.000
281.677;  -32.100; -150.000; -101.000
281.816;  -95.375; -700.000; -630.000
281.956;  -40.400; -193.000; -257.000
282.096;  -71.125; -539.000; -396.000
282.235; -115.200; -672.000; -638.000
282.375;  -27.425; -243.000;  -98.000
282.515; -111.225; -715.000; -707.000
282.654;   23.125;   29.000;  106.000
282.794;   21.975;  388.000;  244.000
282.934;  -60.950; -530.000; -491.000
283.073; -140.825;-1030.000; -857.000
283.213;  -59.675; -460.000; -467.000
283.353;  -56.625; -408.000; -349.000
283.492;  -29.650; -264.000; -296.000
283.632;  -40.950; -254.000; -168.000
283.771; -101.975; -859.000; -730.000
283.911;  -74.725; -369.000; -260.000
284.050; -117.850; -794.000; -748.000
284.190; -169.250;-1229.000;-1096.000
284.329; -149.150;-1055.000; -964.000
284.469;  -82.875; -516.000; -591.000
284.608;  -66.350; -559.000; -598.000
284.748;  -95.250; -614.000; -570.000
284.887;   -3.375;  -87.000;  -20.000
285.027; -119.800; -844.000; -892.000
285.166;  -53.425; -192.000; -249.000
285.306;    2.300; -116.000;  -33.000
285.445;  -49.125; -229.000; -343.000
285.584;  -77.175; -630.000; -494.000
285.724;  -52.225; -282.000; -322.000
285.863; -107.275; -857.000; -507.000
286.002;  -64.825; -366.000; -276.000
286.142; -123.275; -715.000; -622.000
286.281;  -68.500; -525.000; -493.000
286.420;  -86.950; -554.000; -417.000
286.560;   83.975;  653.000;  623.000
286.699; -137.100; -958.000; -912.000
286.838;  -90.650; -590.000; -591.000
286.978;  -97.050; -533.000; -537.000
287.117; -137.450;-1085.000; -950.000
287.256;  -31.700; -228.000; -211.000
287.395;  -58.325; -197.000; -378.000
287.535;  -59.600; -370.000; -298.000
287.674;  -89.900; -509.000; -484.000
287.813;   46.975;  661.000;  533.000
287.952; -132.450;-1010.000; -871.000
288.091; -149.525;-1049.000; -915.000
288.231;    8.175;   13.000;   15.000
288.370; -171.550;-1217.000;-1200.000
288.509;  -91.775; -728.000; -645.000
288.648; -101.325; -770.000; -548.000
288.787;  -38.975; -243.000;  -87.000
288.926;  -76.075; -454.000; -475.000
289.065;  108.850;  859.000;  672.000
289.204;  -62.975; -377.000; -217.000
289.344;  -92.025; -791.000; -690.000
289.483;   22.500;  416.000;  304.000
289.622;  -22.950; -291.000; -149.000
289.761;  -19.775; -309.000; -166.000
289.900; -114.900; -785.000; -626.000
290.039;  -34.500;  -12.000;  -95.000
290.178;  -48.550; -274.000; -180.000
290.317;  -73.875; -618.000; -479.000
290.456;  -84.225; -463.000; -451.000
290.595; -149.075; -961.000; -833.000
290.734; -129.600; -904.000; -891.000
290.873;  -69.325; -456.000; -420.000
291.011; -111.100; -833.000; -843.000
291.150; -112.850; -770.000; -682.000
291.289;  -32.500; -343.000; -110.000
291.428; -109.425; -599.000; -480.000
291.567;  -78.400; -370.000; -442.000
291.706;  -10.325;  109.000;  154.000
291.845;  -98.925; -597.000; -505.000
291.984; -170.875;-1234.000;-1061.000
292.122;   64.225;  602.000;  582.000
292.261;   34.575;  620.000;  463.000
292.400;   -1.500; -144.000;  211.000
292.539; -136.675; -959.000; -813.000
292.678;  -40.275; -325.000; -300.000
292.816; -155.625;-1136.000; -965.000
292.955;  -93.700; -844.000; -684.000
293.094;  -23.375; -173.000; -337.000
293.233;  -66.325; -556.000; -400.000
293.371;  -36.850; -225.000;  -84.000
293.510; -122.025; -866.000; -780.000
293.649; -129.950; -959.000; -924.000
293.787;  -79.025;-1083.000;-1012.000
293.926;    1.625; -113.000;  -32.000
294.065;  -64.175; -379.000; -290.000
294.203;   44.225;  298.000;  406.000
294.342;   12.175;   74.000;  156.000
294.481; 6569.950;51180.000; -836.000
294.619;  -31.850; -425.000; -582.000
294.758; -155.850;-1230.000;-1137.000
294.896;   59.400; -125.000;    5.000
295.035; -127.250;-1040.000;-1006.000
295.174; -130.850;-1082.000; -954.000
295.312;  -41.725; -323.000; -203.000
295.451;  -25.225; -307.000; -428.000
295.589;  -63.025; -389.000; -518.000
295.728;    2.200; -292.000; -165.000
295.866;   -4.450;  -36.000;  -51.000
296.005;  -84.225; -584.000; -341.000
296.143;  -75.975; -558.000; -596.000
296.282; -111.200; -957.000; -881.000
296.420;  -92.975; -657.000; -557.000
296.559;  -88.450; -892.000; -633.000
296.697;   22.600; -847.000; -665.000
296.835;   22.325;-1141.000;-1002.000
296.974;   20.325;  -23.000;   39.000
297.112;   -7.825; -443.000; -504.000
297.251;  -87.775; -815.000; -755.000
297.389;   76.850; -576.000; -438.000
297.527;   24.450; -145.000;  -83.000
297.666;  -48.075; -486.000; -438.000
297.804;  -60.350; -404.000; -264.000
297.942;  -17.400; -136.000; -161.000
298.081;  -13.225; -183.000;   63.000
298.219;   48.800;  -17.000;  -19.000
298.357;   34.150; -144.000;  -71.000
298.495;   25.125; -810.000; -812.000
298.634;   65.250;  245.000;  219.000
298.772;   38.525; -220.000; -338.000
298.910;  -30.900; -309.000; -182.000
299.048;  -22.200; -130.000; -153.000
299.187;  -46.500; -350.000; -250.000
299.325;   10.750;   52.000;  122.000
299.463;   43.125; -389.000; -299.000
299.601;   92.175; -327.000; -271.000
299.739; -122.775; -908.000; -883.000
299.877;  -82.050; -791.000; -703.000
300.016;  -51.900;-1095.000; -935.000
300.154;  135.675;  -19.000; -161.000
300.292;   35.775; -428.000; -348.000
300.430;   13.325; -408.000; -291.000
300.568; -108.500; -940.000; -874.000
300.706;  -59.650; -366.000; -469.000
300.844;  -91.125;-1108.000; -979.000
300.982;   91.600;  246.000;  282.000
301.120; -113.625; -965.000; -866.000
301.258;  -84.900; -812.000; -705.000
301.396;   29.475;  104.000;  -41.000
301.534;   53.950; -218.000; -293.000
301.672;  -14.275; -664.000; -521.000
301.810;   30.575; -613.000; -545.000
301.948;  109.500;   53.000;  149.000
302.086;  549.000; -250.000;  -32.000
302.224;  847.800; -610.000; -585.000
302.362;   25.200; -558.000; -622.000
302.500;  -44.700; -923.000; -893.000
302.638;   94.925;  128.000;  245.000
302.776;   -3.150; -352.000; -408.000
302.913;   50.025;  447.000;  236.000
303.051;    9.400;  -86.000;  -23.000
303.189;   40.200;   90.000;  118.000
303.327;  -34.600; -341.000; -256.000
303.465;  -90.975; -832.000; -588.000
303.603;  -97.050; -805.000; -604.000
303.740;   90.175;  417.000;  241.000
303.878;    0.875; -800.000; -759.000
304.016;  -88.450; -915.000; -790.000
304.154; -135.500;-1123.000;-1152.000
304.291;  -35.875; -505.000; -554.000
304.429;    5.900;  102.000;   74.000
304.567; -125.675; -908.000; -893.000
304.705;  -63.950; -408.000; -515.000
304.842;   77.250; -616.000; -540.000
304.980;   48.625;  215.000;   35.000
305.118;   35.525; -367.000; -365.000
305.255;  -82.800; -945.000; -927.000
305.393;   53.000;  178.000;  239.000
305.531; -112.725;-1173.000; -956.000
305.668;  -73.375; -663.000; -582.000
305.806;   79.075; -358.000; -439.000
305.943;   93.275; -629.000; -637.000
306.081;   50.600; -378.000; -267.000
306.219; -116.500; -863.000; -748.000
306.356;    0.150;  158.000;   27.000
306.494;  103.025;  981.000;  761.000
306.631;    6.375;  -11.000;  -55.000
306.769;   -1.475; -613.000; -485.000
306.906;  -30.675; -284.000; -258.000
307.044;  -71.400; -473.000; -488.000
307.181;  -71.250; -410.000; -332.000
307.319;   -2.800;  112.000;   87.000
307.456; -196.175;-1191.000;-1153.000
307.594; -111.975; -980.000; -727.000
307.731;  -16.900; -371.000; -164.000
307.868;  -17.050;  -15.000;   20.000
308.006; -125.225; -961.000; -847.000
308.143;  -80.775; -618.000; -330.000
308.281;  130.025;  -37.000; -254.000
308.418;  -43.075; -748.000; -640.000
308.555;  -67.325; -400.000; -250.000
308.693;  -71.675; -577.000; -573.000
308.830; -113.850; -712.000; -657.000
308.967;  -20.350; -215.000;  -95.000
309.105;  -54.150; -507.000; -396.000
309.242;   13.125; -468.000; -367.000
309.379;  238.300; -577.000; -655.000
309.517;  -82.925; -936.000; -948.000
309.654; -115.050; -910.000; -734.000
309.791;  -72.675; -662.000; -580.000
309.928; -134.125; -977.000; -914.000
310.065;  168.125;  819.000;  697.000
310.203;  -32.250; -825.000; -850.000
310.340;   -7.825; -465.000; -321.000
310.477;  -88.500; -412.000; -516.000
310.614;  -72.225; -383.000; -473.000
310.751;  -90.575; -427.000; -518.000
310.889;  -20.225;    1.000;   11.000
311.026; -154.325;-1161.000; -939.000
311.163;  -46.575; -386.000; -380.000
311.300;  -85.000; -512.000; -479.000
311.437;  -92.400; -658.000; -619.000
311.574; -159.175;-1226.000; -985.000
311.711;  -62.900; -595.000; -433.000
311.848;  -52.150; -380.000; -388.000
311.985;   11.225;  270.000;   93.000
312.122; -123.800; -932.000; -762.000
312.259; -131.025; -941.000; -994.000
312.396;  -92.325; -508.000; -551.000
312.533;  -84.875; -812.000; -790.000
312.670; -145.300;-1070.000; -898.000
312.807;  -46.975; -352.000; -367.000
312.944;  -85.525; -513.000; -611.000
313.081;  -45.025; -150.000; -415.000
313.218; -105.600;-1111.000; -867.000
313.355;    0.850; -531.000; -449.000
313.492;    8.550; -455.000; -292.000
313.629;  116.875;  815.000;  735.000
313.766; -167.625;-1176.000;-1008.000
313.902;  -13.425; -186.000;   21.000
314.039;  -55.975; -372.000; -289.000
314.176;    9.200;  286.000;  192.000
314.313;  -81.350; -569.000; -473.000
314.450;  -95.075; -788.000; -684.000
314.587;  -69.625; -468.000; -480.000
314.723;    6.200;  -78.000;  130.000
314.860;   30.275;  318.000;  332.000
314.997;   27.100;  223.000;  142.000
315.134;  -46.075; -385.000; -368.000
315.270;  -44.175; -480.000; -496.000
315.407; -122.975;-1094.000; -967.000
315.544;  -49.175; -657.000; -538.000
315.681;  -68.400; -681.000; -565.000
315.817;   28.200; -133.000; -176.000
315.954;    7.125; -613.000; -392.000
316.091; -129.375;-1045.000;-1023.000
316.227;  -24.100;  -71.000; -179.000
316.364;   -2.925;   23.000;    6.000
316.500;  -41.700; -113.000; -300.000
316.637;  -40.125; -181.000; -302.000
316.774; -101.500; -625.000; -358.000
316.910; -102.925; -598.000; -629.000
317.047;  -76.775; -487.000; -351.000
317.183;  -65.475; -435.000; -566.000
317.320;  -20.750; -367.000; -321.000
317.456;  -89.100; -733.000; -805.000
317.593; -103.800; -598.000; -641.000
317.729;   14.050;  168.000;  -67.000
317.866; -227.025;-1434.000;-1285.000
318.002;  -99.975; -708.000; -948.000
318.139;  -99.200; -883.000; -867.000
318.275; -112.250;-1003.000; -738.000
318.412;  -66.100; -517.000; -336.000
318.548;  -48.900; -751.000; -720.000
318.685; -107.000; -985.000; -888.000
318.821;  -97.175; -762.000; -735.000
318.957;  -21.075;   34.000;  -23.000
319.094;   33.175;  297.000;  154.000
319.230;  -69.625; -756.000; -742.000
319.367;  104.400; -471.000; -520.000
319.503;   40.400; -538.000; -436.000
319.639; -101.825; -877.000; -793.000
319.775;  -69.050; -750.000; -685.000
319.912;  -56.575; -424.000; -519.000
320.048;  -88.575;-1184.000;-1184.000
320.184;   64.425;   59.000;   70.000
320.321;  -68.600; -497.000; -467.000
320.457;   71.975;  475.000;  662.000
320.593;  -72.450; -375.000; -382.000
320.729; -115.950; -732.000; -734.000
320.866;  -79.950; -577.000; -635.000
321.002;  -73.175; -759.000; -809.000
321.138;  -26.475; -135.000; -211.000
321.274;   63.125; -148.000; -115.000
321.410;  -39.350; -585.000; -353.000
321.546;  -54.950;-1011.000; -911.000
321.683;   50.525;  400.000;  185.000
321.819;    5.675;  -48.000; -117.000
321.955; -125.900; -743.000; -722.000
322.091;  -39.875; -585.000; -540.000
322.227;  -30.425; -382.000; -202.000
322.363;  -21.475; -320.000; -215.000
322.499;  -48.550; -343.000; -331.000
322.635;  135.150;  636.000;  443.000
322.771;    3.275; -139.000;   12.000
322.907;   77.225;  129.000;  327.000
323.043;  -31.475; -115.000; -206.000
323.179;  -36.925; -394.000; -363.000
323.315;    7.100; -401.000; -371.000
323.451;   78.650; -328.000; -236.000
323.587;   44.750;  -60.000;  -77.000
323.723;   -2.650; -682.000; -601.000
323.859;  -15.500; -258.000;  -76.000
323.995;  -45.925; -467.000; -409.000
324.131; -125.950; -967.000; -892.000
324.267;  -45.225; -254.000; -276.000
324.402; -130.750; -960.000; -983.000
324.538;  -16.475; -279.000; -104.000
324.674;   20.375;  164.000;   77.000
324.810;  108.375;  226.000;  308.000
324.946;    6.725; -810.000; -658.000
325.082;  -80.750; -568.000; -475.000
325.217;  -15.975;  -62.000;   16.000
325.353; -111.225; -764.000; -659.000
325.489;  -87.350; -540.000; -506.000
325.625;  -83.475; -579.000; -525.000
325.760;   59.925;  517.000;  376.000
325.896;  -34.725; -515.000; -702.000
326.032;  -57.400; -403.000; -352.000
326.168;  -50.950; -462.000; -369.000
326.303;  -70.600; -352.000; -461.000
326.439;  -28.675; -336.000; -276.000
326.575;    3.850; -190.000;  -29.000
326.710;  -19.900; -156.000;  -30.000
326.846;  -23.725;  146.000;  103.000
326.982;  -99.075; -530.000; -548.000
327.117;  -79.975; -481.000; -442.000
327.253;  -91.925; -745.000; -742.000
327.388; -167.350;-1137.000;-1153.000
327.524;  -60.725; -811.000; -578.000
327.659;  -25.475;  -58.000;  -22.000
327.795;  -21.025;   69.000;   45.000
327.931;  -87.675; -723.000; -499.000
328.066;  -38.025; -417.000; -276.000
328.202;   -7.375;   12.000; -129.000
328.337;   91.600;  957.000;  713.000
328.473;   41.825;  -12.000;  -74.000
328.608;  -21.650; -256.000; -267.000
328.743;  -98.625; -799.000; -664.000
328.879;   25.175;  214.000;  114.000
329.014;  -36.950; -102.000; -122.000
329.150;  -92.425; -358.000; -483.000
329.285;  -73.850; -465.000; -466.000
329.421;  -66.675; -548.000; -246.000
329.556;  -37.675;  -36.000;   85.000
329.691; -106.800; -633.000; -615.000
329.827;  -86.875; -626.000; -480.000
329.962;  -51.725;  131.000; -301.000
330.097;  -88.800; -673.000; -585.000
330.233;  -54.600; -410.000; -223.000
330.368; -126.100; -839.000; -628.000
330.503;   -9.300;    3.000;   98.000
330.638;   -1.175;  -93.000; -125.000
330.774;  -56.225; -609.000; -530.000
330.909;  -44.625; -434.000; -244.000
331.044; -102.550; -714.000; -708.000
331.179; -184.075;-1217.000;-1109.000
331.315;    1.925;   77.000;   20.000
331.450;   -0.775;  157.000;  285.000
331.585; -107.525; -805.000; -706.000
331.720;  -88.400; -510.000; -460.000
331.855;   -4.450;  -35.000; -102.000
331.990;  238.525;   62.000;  138.000
332.126;  100.150; -110.000;   71.000
332.261;  -23.850; -379.000; -265.000
332.396;   -4.825; -135.000; -242.000
332.531; -110.775;-1074.000;-1031.000
332.666;   15.250; -519.000; -363.000
332.801; -109.125; -726.000; -807.000
332.936;  -40.300; -192.000; -122.000
333.071; -134.725; -870.000; -817.000
333.206;   10.075;  307.000;  379.000
333.341;   27.750;  344.000;  418.000
333.476; -103.050; -627.000; -623.000
333.611;  -44.050; -251.000; -173.000
333.746;  -61.525; -381.000; -464.000
333.881; -120.950; -973.000; -935.000
334.016; -135.925; -936.000; -917.000
334.151; -127.675; -746.000; -702.000
334.286;   21.250;  152.000;  186.000
334.421;  -13.050; -125.000; -178.000
334.556;  -91.800; -611.000; -567.000
334.690;  -92.300; -631.000; -577.000
334.825;   45.625;  381.000;   83.000
334.960;  -60.375; -285.000; -413.000
335.095;   -0.300;  135.000;  -91.000
335.230; -104.225; -722.000; -738.000
335.365; -148.350;-1084.000; -990.000
335.499; -139.800;-1108.000;-1037.000
335.634;   14.300;    9.000;  534.000
335.769;  -99.725; -755.000; -720.000
335.904;  -62.275; -603.000; -561.000
336.038;  -69.200; -735.000; -657.000
336.173; -119.300;-1206.000;-1194.000
336.308;   -3.525; -116.000; -189.000
336.443;   13.925; -544.000; -634.000
336.577;  -70.850; -936.000; -787.000
336.712;   44.875;   -4.000;  -12.000
336.847;  -40.575; -724.000; -607.000
336.981;   62.475; -272.000; -208.000
337.116;  274.175;  615.000;  501.000
337.250;  134.900; -434.000; -421.000
337.385;  247.450; -297.000; -208.000
337.520;   68.225; -632.000; -603.000
337.654;  -45.525; -215.000; -126.000
337.789; -139.075; -989.000; -933.000
337.923;  -49.050; -104.000; -205.000
338.058;  -91.850; -673.000; -738.000
338.192;  -45.175; -611.000; -488.000
338.327;  -21.775;  -18.000; -155.000
338.461;  -63.625; -299.000; -469.000
338.596;  -87.825; -780.000; -638.000
338.730; -100.950; -767.000; -803.000
338.865;   78.375;  -46.000; -140.000
338.999;  -60.425; -846.000; -702.000
339.134;  -36.925; -634.000; -536.000
339.268;   15.625; -741.000; -603.000
339.403;  345.375; -740.000; -775.000
339.537;  120.275; -894.000; -820.000
339.671; -108.550; -829.000; -813.000
339.806;  -67.775; -556.000; -512.000
339.940;    1.975; -261.000; -235.000
340.074; -110.225; -685.000; -510.000
340.209;  -60.575; -351.000; -230.000
340.343;  -99.800; -517.000; -573.000
340.477;  119.950;  998.000; 1036.000
340.612;  -46.600;-1033.000; -900.000
340.746;  123.925; -199.000; -243.000
340.880;  -88.700; -924.000; -785.000
341.014;  -38.775;  -45.000; -154.000
341.149; -126.125; -756.000; -718.000
341.283; -127.125; -839.000; -754.000
341.417; -111.050;-1124.000; -938.000
341.551;  105.650; -768.000; -708.000
341.685;  -44.100; -633.000; -611.000
341.820;  -65.350; -562.000; -493.000
341.954;  -58.625; -218.000; -349.000
342.088; -162.675;-1102.000;-1019.000
342.222;   60.975;  565.000;  618.000
342.356;  -70.900; -395.000; -335.000
342.490; -102.625; -880.000; -841.000
342.624;  -50.725; -339.000; -242.000
342.758;  -19.425; -364.000; -312.000
342.892;  -89.600; -710.000; -585.000
343.026;  -46.750;  -58.000; -116.000
343.160;  -68.950; -426.000; -376.000
343.294;  -94.700; -474.000; -337.000
343.428;  -40.325; -488.000; -448.000
343.562;  -14.650; -172.000;  -23.000
343.696;  -29.675; -385.000; -314.000
343.830;  -27.675; -362.000; -356.000
343.964;    7.525; -231.000; -168.000
344.098;  815.725;  199.000;   70.000
344.232;  683.975; -266.000; -127.000
344.366;   83.800; -567.000; -453.000
344.500;   26.475; -665.000; -744.000
344.634;   21.450; -324.000; -164.000
344.768;  -32.350; -531.000; -341.000
344.902;   16.350;  278.000;  256.000
345.035;  -82.625; -556.000; -496.000
345.169; -140.500; -933.000; -656.000
345.303;  -65.175; -308.000; -482.000
345.437;  -80.125; -826.000; -717.000
345.571;  -81.750; -675.000; -594.000
345.704;  -71.800; -309.000; -532.000
345.838;  -18.575; -331.000; -284.000
345.972;  -44.000; -543.000; -495.000
346.106;  145.725; -179.000; -190.000
346.239;  402.225; -312.000; -243.000
346.373;    3.075; -343.000; -302.000
346.507; -129.325; -950.000; -962.000
346.640;  120.975;  -30.000;   13.000
346.774;  -51.175; -650.000; -797.000
346.908;  -30.025; -138.000;  -11.000
347.041;  -97.825; -646.000; -593.000
347.175;   -5.300;  259.000;   27.000
347.309;  -79.100; -698.000; -628.000
347.442; -103.950; -883.000; -732.000
347.576;  252.450;  670.000;  668.000
347.709;  183.850; -123.000;  -52.000
347.843;  -98.500; -933.000; -825.000
347.976;   23.725;  235.000;  294.000
348.110; -194.825;-1268.000;-1186.000
348.243; -102.775; -679.000; -772.000
348.377;    9.475;  -26.000;   60.000
348.510;   46.550;  403.000;  540.000
348.644;  -44.000;  -37.000; -159.000
348.777;   -6.050;  180.000;  191.000
348.911;  -62.775; -142.000; -112.000
349.044;  148.225;  471.000;  448.000
349.178;  114.525;-1069.000;-1006.000
349.311;  101.225;  141.000;  255.000
349.444;   -8.125; -927.000; -813.000
349.578;  -31.400; -347.000; -200.000
349.711; -106.825; -959.000; -862.000
349.845;  -18.100; -661.000; -591.000
349.978; -143.225;-1224.000;-1137.000
350.111;  -78.025; -546.000; -612.000
350.244;  -86.950; -596.000; -700.000
350.378;  -12.625; -392.000; -393.000
350.511;  -84.225; -393.000; -426.000
350.644; -115.450; -808.000; -806.000
350.778;    9.025;  168.000;  104.000
350.911;   -2.975;  134.000;  140.000
351.044; -103.850; -685.000; -615.000
351.177;  -35.625; -321.000; -281.000
351.310;  -15.225;    3.000; -131.000
351.444;  -91.275; -888.000; -788.000
351.577;  114.450;  140.000;   90.000
351.710;   89.025;  593.000;  417.000
351.843;  -41.700; -165.000;  -77.000
351.976;   -1.625;  149.000;  -79.000
352.109;  -89.950; -621.000; -612.000
352.242;  -31.500; -464.000; -419.000
352.376;  -58.925; -580.000; -636.000
352.509;  152.775; -437.000; -356.000
352.642;  -10.625; -654.000; -604.000
352.775;   37.975; -141.000;  -98.000
352.908; -119.100; -933.000; -904.000
353.041; -114.100; -814.000; -824.000
353.174;  -58.375; -551.000; -424.000
353.307;  -94.650; -753.000; -764.000
353.440;   84.825;  541.000;  453.000
353.573; -114.350; -957.000;-1008.000
353.706;  -53.175; -384.000; -558.000
353.839;  -19.650; -264.000; -220.000
353.971;  -87.675; -657.000; -512.000
354.104;  -92.600; -896.000; -835.000
354.237;  -60.525; -627.000; -662.000
354.370;  -86.925; -846.000; -879.000
354.503; -189.450;-1231.000;-1308.000
354.636;  -61.400; -529.000; -348.000
354.769; -131.300; -937.000; -860.000
354.902;  -26.475; -230.000; -139.000
355.034;  -36.950; -164.000; -220.000
355.167;  -17.850; -262.000; -162.000
355.300; -102.925;-1061.000; -880.000
355.433;  953.025;  -71.000;  -14.000
355.565; 1473.800; -402.000; -384.000
355.698;  387.050; -356.000; -296.000
355.831;  -13.650; -882.000; -801.000
355.964;   58.525; -285.000; -170.000
356.096;  -91.175; -856.000; -843.000
356.229;   -2.700; -523.000; -530.000
356.362;  317.000; -373.000; -266.000
356.494;  584.875; -229.000; -162.000
356.627;  459.500;  269.000;  377.000
356.760;  656.625;  120.000;   53.000
356.892;  939.550; -286.000; -601.000
357.025;  604.325;  403.000;  389.000
357.157;  553.100; -167.000; -179.000
357.290;  668.600; -856.000; -713.000
357.423;  196.775; -667.000; -556.000
357.555;  108.625; -217.000; -228.000
357.688;  107.000; -483.000; -364.000
357.820;  398.675; -870.000; -877.000
357.953; 3459.925; -563.000; -589.000
358.085;  722.950; -632.000; -612.000
358.218; 1017.275;-1131.000; -932.000
358.350;  178.725;  -58.000;  312.000
358.483; -136.425;-1300.000;-1187.000
358.615;  -43.525;-1182.000;-1078.000
358.747;  -81.700;-1187.000;-1058.000
358.880;    7.325; -810.000; -744.000
359.012;   -8.800; -376.000; -202.000
359.145;  -60.350; -480.000; -511.000
359.277;   38.650; -962.000; -913.000
359.409; 2869.300;  536.000;  231.000
359.542;  723.475; -738.000; -688.000
359.674;   65.725;   46.000;   13.000
359.806;  -74.750; -565.000; -438.000
359.939;  -65.225; -617.000; -516.000
360.071;   -8.500; -583.000; -579.000
360.203;  -29.200; -411.000; -364.000
360.335;   44.625;  164.000;  -16.000
360.468;  166.625; -249.000; -307.000
360.600; 2299.225; -547.000; -454.000
360.732; 2769.650; -546.000; -423.000
360.864;  361.725;-1216.000;-1044.000
360.996;  246.450; -516.000; -554.000
361.129;   26.275; -389.000; -598.000
361.261;    6.950;  110.000; -113.000
361.393;  -42.050; -252.000; -214.000
361.525;   23.350;   94.000;  244.000
361.657;  -46.550; -821.000; -703.000
361.789;    7.250; -139.000; -155.000
361.921;  191.300; -642.000; -593.000
362.053;  231.100;  524.000;  541.000
362.185;   40.850;  288.000;   72.000
362.318;  -79.750; -709.000; -705.000
362.450;  109.000;  294.000;  444.000
362.582;   80.825; -913.000; -870.000
362.714;  -56.625; -353.000; -332.000
362.846;  -96.800; -606.000; -490.000
362.978; -152.450; -941.000; -811.000
363.109;   37.850; -161.000; -260.000
363.241;  379.175; -739.000; -749.000
363.373;  422.875; -649.000; -564.000
363.505;  664.750; -186.000;  -91.000
363.637;  130.325; -787.000; -601.000
363.769; -130.375;-1067.000;-1080.000
363.901;  -64.825; -596.000; -654.000
364.033; -126.450;-1103.000;-1062.000
364.165;  -26.375; -283.000; -283.000
364.296;   70.275; -316.000; -177.000
364.428;   54.175;-1344.000;-1220.000
364.560;  -64.975; -679.000; -661.000
364.692;  -72.500; -738.000; -835.000
364.824;  214.075; -588.000; -456.000
364.955;  424.500; -402.000; -564.000
365.087;  916.975;-1097.000; -852.000
365.219;   18.550; -686.000; -816.000
365.351;  -77.775; -526.000; -572.000
365.482;   19.925;  300.000;  240.000
365.614;  -61.100; -402.000; -314.000
365.746; -104.600; -729.000; -752.000
365.877; -104.100; -706.000; -672.000
366.009;  258.375;  -35.000;  -62.000
366.141;  -97.650;-1249.000;-1134.000
366.272; -120.575; -803.000; -719.000
366.404; -115.975;-1005.000; -874.000
366.535;   -9.000; -139.000;  -12.000
366.667; -121.925; -644.000; -649.000
366.799;   28.425;  353.000;  203.000
366.930; -136.500; -862.000; -996.000
367.062;  110.550; -639.000; -613.000
367.193;  137.075; -872.000; -842.000
367.325;  -84.975; -580.000; -684.000
367.456;   30.875; -246.000;   31.000
367.588;  145.775; -371.000; -318.000
367.719;   14.975;  -44.000;  -45.000
367.851;  -23.475; -222.000; -241.000
367.982;  -49.450; -875.000; -732.000
368.113;   86.675; -475.000; -358.000
368.245; -133.800; -960.000; -841.000
368.376;  -30.450; -254.000; -302.000
368.508;  -28.825; -188.000; -263.000
368.639; -141.975;-1166.000;-1034.000
368.770;  -35.450; -670.000; -589.000
368.902;  -63.025; -836.000; -926.000
369.033; -119.525; -906.000; -855.000
369.164;  -51.525; -720.000; -653.000
369.296; -113.075; -452.000; -601.000
369.427;    3.900; -209.000; -144.000
369.558;  -58.675; -593.000; -377.000
369.689;  -82.100; -721.000; -569.000
369.821; -133.425; -951.000; -845.000
369.952;  -24.425;   42.000; -108.000
370.083;  -59.775; -229.000; -108.000
370.214;  -89.775; -735.000; -650.000
370.345;  -10.250;   65.000;   81.000
370.477; -100.850; -810.000; -790.000
370.608;  193.125; -328.000; -264.000
370.739;  -57.100;-1233.000;-1292.000
370.870;  -49.350;-1102.000; -923.000
371.001;   65.200; -378.000; -467.000
371.132; -100.950; -754.000; -735.000
371.263;  -36.700;  -42.000; -148.000
371.394; -141.325; -841.000; -748.000
371.525;   33.075;  345.000;  225.000
371.657;  -91.375; -808.000; -670.000
371.788;   59.900;  103.000;  199.000
371.919;  147.225; -384.000; -304.000
372.050; 3335.925;  -91.000; -156.000
372.181;  984.875; -188.000; -294.000
372.311;  329.225;   42.000; -127.000
372.442;   11.025; -457.000; -451.000
372.573;  -35.425; -444.000; -340.000
372.704; -131.950;-1008.000; -980.000
372.835;   64.550; -228.000; -289.000
372.966;  -77.250; -646.000; -554.000
373.097;  -93.500; -575.000; -711.000
373.228;  -54.200; -717.000; -542.000
373.359;  103.775; -824.000; -536.000
373.490;  831.225; -881.000; -727.000
373.620; 1057.650;-1001.000; -803.000
373.751; 1646.325; -332.000; -396.000
373.882;  724.475; -663.000; -733.000
374.013;   50.125; -449.000; -262.000
374.143;  -52.250; -581.000; -659.000
374.274; -113.200; -987.000; -908.000
374.405;  145.475; -388.000; -276.000
374.536;  398.400; -526.000; -387.000
374.666; 1018.625; -759.000; -807.000
374.797;  185.925; -817.000; -868.000
374.928;  781.500; -710.000; -560.000
375.058;  812.500; -535.000; -500.000
375.189;   48.000;  -59.000;  -93.000
375.320; -105.725; -928.000;-1034.000
375.450;  -44.550; -625.000; -616.000
375.581;  -55.500; -526.000; -436.000
375.712;  -39.825; -574.000; -250.000
375.842;  265.100; -438.000; -415.000
375.973;  189.700; -554.000; -513.000
376.103;  -77.425; -665.000; -648.000
376.234;  -85.375; -531.000; -552.000
376.364;  -54.000; -944.000; -867.000
376.495;  304.000;  925.000;  529.000
376.625;  -17.325; -472.000; -485.000
376.756;   42.100; -709.000; -678.000
376.886;  -84.600;-1178.000;-1026.000
377.017;   48.325;-1048.000;-1061.000
377.147;  337.450; -786.000; -782.000
377.278;   49.450;  174.000;  228.000
377.408; -128.825; -801.000; -815.000
377.538; -128.575; -707.000; -693.000
377.669;  -80.425; -537.000; -613.000
377.799; -101.900; -645.000; -635.000
377.929;  -67.500; -610.000; -428.000
378.060; -136.125; -781.000; -847.000
378.190;  -51.400; -726.000; -531.000
378.320;  -60.250; -401.000; -406.000
378.451;  -11.975; -131.000;  -22.000
378.581;  -11.900;  -67.000; -110.000
378.711;  131.925; 1035.000;  866.000
378.841;  -37.500; -533.000; -675.000
378.972;  -95.375; -871.000; -751.000
379.102;  -32.125; -652.000; -579.000
379.232;  -27.725; -126.000;  -73.000
379.362; -107.775;-1001.000; -885.000
379.492;  -20.725; -373.000; -424.000
379.623;   97.100;    0.000;  111.000
379.753;  -95.325;-1107.000; -974.000
379.883;  177.250;   59.000;  156.000
380.013;  -20.025;-1081.000;-1017.000
380.143; -116.200;-1097.000;-1056.000
380.273; -104.625; -985.000; -861.000
380.403;   -4.425; -344.000; -257.000
380.533;  -37.200; -651.000; -664.000
380.663;   45.475;  173.000;  128.000
380.793; -103.850;-1027.000;-1074.000
380.923;  -38.400; -103.000;  -34.000
381.053;  -99.575; -613.000; -623.000
381.183;  -42.400; -106.000; -248.000
381.313;   15.175; -656.000; -470.000
381.443;   10.950; -692.000; -473.000
381.573;  177.450; -402.000; -409.000
381.703;  227.425;-1249.000;-1095.000
381.833; -145.350;-1454.000;-1336.000
381.963;   95.800; -134.000;  -87.000
382.093; 1293.600; -925.000; -909.000
382.223;  398.850; -713.000; -602.000
382.353;  -33.625; -801.000; -608.000
382.482;  316.425;-1091.000; -964.000
382.612;  713.175; -872.000; -644.000
382.742;  386.925; -695.000; -622.000
382.872;  226.300; -565.000; -551.000
383.002;   59.575;  347.000; -132.000
383.131;  -27.400; -226.000; -160.000
383.261;  -48.300; -706.000; -768.000
383.391;  276.275; -552.000; -377.000
383.521; 3178.350;  451.000;  263.000
383.650;  738.150; -947.000; -904.000
383.780;  -20.650; -783.000; -656.000
383.910;   96.175;  880.000;  802.000
384.039;    3.800; -794.000; -656.000
384.169;  163.650;-1205.000;-1017.000
384.299;  -35.275; -650.000; -662.000
384.428; -112.225; -764.000; -680.000
384.558;  -50.550; -308.000; -275.000
384.687;  -45.875; -414.000; -334.000
384.817;    3.750;   75.000;   -2.000
384.947;   12.950; -234.000; -141.000
385.076;  268.400;  982.000;  912.000
385.206;   87.650;  369.000;  480.000
385.335;  -35.425; -549.000; -417.000
385.465;  -88.500; -655.000; -663.000
385.594;  113.600;  -53.000;  -44.000
385.724;  382.200; -868.000; -838.000
385.853;   99.450; -296.000; -270.000
385.982; 1235.800; -743.000; -787.000
386.112; 1983.150;-1052.000; -871.000
386.241;  114.075; -307.000; -312.000
386.371;   11.350; -174.000;  -87.000
386.500;  -18.575; -825.000; -789.000
386.629;    4.975; -874.000; -817.000
386.759;   66.050;  -43.000;   68.000
386.888;  -13.600; -170.000; -250.000
387.017;  -81.125; -648.000; -620.000
387.147;  -75.750; -771.000; -798.000
387.276;  -24.800; -410.000; -397.000
387.405;    1.000; -398.000; -342.000
387.535;  -59.175; -452.000; -361.000
387.664;  -70.775; -692.000; -620.000
387.793;   51.875; -198.000; -113.000
387.922;  470.775;  255.000;  200.000
388.052;   -6.125; -576.000; -423.000
388.181;    1.675; -342.000; -472.000
388.310;   -2.075; -889.000; -710.000
388.439;  -51.700; -749.000; -742.000
388.568;  169.500;  365.000;  244.000
388.697;  944.550; -756.000; -653.000
388.826;  165.125; -768.000; -666.000
388.956;   37.700; -285.000; -307.000
389.085;  -43.000; -347.000; -287.000
389.214; -125.050; -842.000; -872.000
389.343;  -74.850; -645.000; -413.000
389.472;  386.000;  126.000;  149.000
389.601;  517.875;   91.000;    0.000
389.730;    2.575; -568.000; -687.000
389.859;   46.975;  226.000;   46.000
389.988;  153.650; -423.000; -408.000
390.117;  120.975; -168.000; -146.000
390.246;  -13.825; -331.000; -320.000
390.375;   89.900; -673.000; -626.000
390.504;  -58.775; -703.000; -621.000
390.633; -106.200; -672.000; -726.000
390.761;  -73.500; -732.000; -645.000
390.890;    0.225;   -4.000; -130.000
391.019;  -46.200; -421.000; -441.000
391.148; -142.475; -826.000; -855.000
391.277;  -64.525; -576.000; -493.000
391.406;  -99.100; -821.000; -805.000
391.534;   15.925;  574.000; -301.000
391.663;  -77.800; -583.000; -645.000
391.792;  -94.650; -673.000; -701.000
391.921;   82.475;   -3.000;   15.000
392.050;  151.825; -287.000; -228.000
392.178;  -54.225;-1206.000;-1061.000
392.307;  115.000; -758.000; -712.000
392.436;   42.100; -427.000; -641.000
392.564;   25.475;  166.000;   -6.000
392.693;  -93.550; -860.000; -682.000
392.822;  184.925; -529.000; -534.000
392.950;   73.625; -880.000; -714.000
393.079;  274.900; -188.000; -328.000
393.208;   14.725; -488.000; -511.000
393.336;  -28.750; -170.000; -145.000
393.465;  -58.700; -317.000; -199.000
393.593;   -3.100;   62.000;   79.000
393.722; -154.325;-1121.000; -916.000
393.850;  -41.950; -188.000;  -61.000
393.979; -152.450; -926.000; -805.000
394.107;  -68.300; -517.000; -537.000
394.236;  -40.275; -570.000; -507.000
394.364;  187.150;  383.000;  206.000
394.493;  241.200; -911.000; -767.000
394.621;  -36.250; -955.000; -916.000
394.750;  716.825; -873.000; -923.000
394.878; 2932.925; -247.000; -149.000
395.007; 3971.950; -721.000; -807.000
395.135;  293.625; -790.000; -721.000
395.263; -109.550;-1038.000;-1040.000
395.392;   -4.350;  -25.000; -107.000
395.520; -144.625; -818.000; -679.000
395.648;  -96.725; -865.000; -915.000
395.777;  -22.225; -366.000; -405.000
395.905;  -60.200; -449.000; -564.000
396.033;   -0.425;  217.000;  172.000
396.162;  442.525; -399.000; -453.000
396.290;  378.825;  -17.000;   -2.000
396.418;   69.375; -555.000; -514.000
396.546;  -79.450; -571.000; -466.000
396.674; -102.350; -850.000; -878.000
396.803;   -3.225;  -72.000;  -23.000
396.931;   56.425; -179.000; -199.000
397.059;   27.550;-1026.000; -989.000
397.187; -131.000;-1026.000; -975.000
397.315; -144.075; -884.000; -649.000
397.443; -109.375; -592.000; -443.000
397.572; -101.800; -578.000; -424.000
397.700;  -20.875; -607.000; -614.000
397.828;   -8.825;  120.000;  -90.000
397.956;  -53.650; -508.000; -478.000
398.084;  -77.000; -767.000; -626.000
398.212;   24.250;  137.000;  124.000
398.340;   -7.475;  -56.000;  159.000
398.468;   21.475; -390.000; -169.000
398.596; -149.250; -993.000; -953.000
398.724; -118.075; -762.000; -767.000
398.852; -170.975;-1024.000; -976.000
398.980;  -71.300; -560.000; -560.000
399.108;  -68.150; -982.000; -735.000
399.236;   27.100;   13.000;    8.000
399.363;   13.100;  222.000;  196.000
399.491;  -87.325; -404.000; -398.000
399.619; -127.375; -829.000; -800.000
399.747; -113.825; -859.000; -771.000
399.875;   64.475;  220.000;  234.000
400.003;  -49.525; -359.000; -284.000
400.130; -100.075; -421.000; -341.000
400.258;  -44.325;  -83.000;   38.000
400.386;  -72.625; -352.000; -168.000
400.514;  -52.800; -526.000; -587.000
400.641;  -91.825; -928.000; -802.000
400.769; -146.450; -979.000; -888.000
400.897; -133.400; -838.000; -793.000
401.025;  -27.925; -166.000; -152.000
401.152;  -13.150;  220.000;   38.000
401.280;  -93.375; -430.000; -429.000
401.408; -142.475; -712.000; -576.000
401.535; -113.550; -735.000; -758.000
401.663; -182.875;-1134.000;-1054.000
401.790;  -90.200; -514.000; -525.000
401.918;   30.700;  436.000;  405.000
402.046;  -33.025;  134.000;  122.000
402.173;  -33.975;  -18.000;    7.000
402.301;  -74.025; -519.000; -397.000
402.428;   34.550;  528.000;  383.000
402.556; -154.325;-1188.000; -913.000
402.683;  -33.025;  -20.000;   -1.000
402.811;  -39.000;  -37.000; -206.000
402.938;  -25.275;   20.000;   27.000
403.066;  177.850; -574.000; -558.000
403.193;  305.525;  299.000;  239.000
403.321;  229.175; -396.000; -574.000
403.448;  312.075;   83.000;   27.000
403.575;  132.925;  -90.000;  -46.000
403.703; -100.575; -732.000; -557.000
403.830;  -81.800; -531.000; -496.000
403.957; -144.275;-1117.000;-1023.000
404.085;    0.025;  -61.000; -172.000
404.212;   93.125;  -50.000;   63.000
404.339;  276.500; -566.000; -306.000
404.467; 5774.075; -612.000; -524.000
404.594; 3743.625; -287.000; -227.000
404.721;  857.175; -869.000; -764.000
404.848;   81.750; -113.000; -202.000
404.976; -104.300; -856.000; -783.000
405.103;  -14.125;  -14.000;  -82.000
405.230;    0.350;  190.000;  226.000
405.357;    1.400;  117.000;   44.000
405.484;  248.475;  -49.000;    5.000
405.612;   37.200; -548.000; -563.000
405.739;  -77.625; -488.000; -243.000
405.866;   75.225;  669.000;  385.000
405.993;  -60.950; -398.000; -102.000
406.120; -136.300; -801.000; -887.000
406.247;  -66.250; -323.000; -342.000
406.374;  391.700;  540.000;  629.000
406.501;   64.125; -632.000; -702.000
406.628;  -99.275; -621.000; -589.000
406.755; -100.575; -803.000; -620.000
406.882;  -41.900; -228.000; -277.000
407.009;  -99.400; -719.000; -628.000
407.136;   43.525; -480.000; -401.000
407.263;   96.975; -939.000; -829.000
407.390;  -98.850; -692.000; -614.000
407.517; -186.000;-1139.000;-1187.000
407.644;  -69.025; -332.000; -256.000
407.771;  -65.650; -249.000; -287.000
407.898;    5.300;  168.000;  328.000
408.025;  -70.125; -421.000; -313.000
408.151;  -14.850;   82.000;  153.000
408.278;  -76.175; -267.000; -216.000
408.405; -128.900; -931.000; -899.000
408.532;  -96.000; -549.000; -542.000
408.659; -115.400; -677.000; -648.000
408.785; -200.275;-1298.000;-1170.000
408.912;  -79.875; -412.000; -296.000
409.039; -125.950; -610.000; -686.000
409.166; -105.650; -591.000; -555.000
409.292; -117.000; -571.000; -534.000
409.419; -122.225; -665.000; -649.000
409.546;  -97.250; -431.000; -192.000
409.672; -124.625; -713.000; -545.000
409.799;  -17.300;  -36.000;   34.000
409.926;  -43.050; -180.000; -179.000
410.052; -173.650;-1127.000;-1091.000
410.179;  -66.200; -368.000; -392.000
410.305;  -88.400; -375.000; -493.000
410.432;  -61.900; -220.000; -333.000
410.558;  -95.975; -305.000; -380.000
410.685;  -97.600; -688.000; -431.000
410.812; -106.775; -409.000; -588.000
410.938; -143.700; -964.000; -808.000
411.065; -112.150; -671.000; -645.000
411.191;  -39.625; -189.000; -174.000
411.317; -117.575; -823.000; -742.000
411.444;  -86.975; -317.000; -246.000
411.570;  -80.100; -339.000; -294.000
411.697; -140.225; -758.000; -752.000
411.823; -176.375; -989.000; -999.000
411.949;  -42.925;  -56.000;   17.000
412.076; -116.850; -539.000; -519.000
412.202; -127.875; -758.000; -757.000
412.329; -152.425; -798.000; -752.000
412.455; -126.525; -821.000; -657.000
412.581;  -35.800;  -15.000;  172.000
412.707;  -77.450; -540.000; -457.000
412.834;    2.900;  156.000;  219.000
412.960;  -84.000; -785.000; -784.000
413.086; -105.975; -743.000; -701.000
413.212;  127.500;  604.000;  578.000
413.339;  -82.550; -685.000; -701.000
413.465;   -6.850; -364.000; -310.000
413.591;  -99.950; -757.000; -474.000
413.717;  -58.675; -358.000; -366.000
413.843; -151.475; -839.000; -861.000
413.969;  -65.750;  -47.000; -292.000
414.096; -119.300; -679.000; -679.000
414.222;  -26.625;  -33.000;   85.000
414.348;  -36.000; -652.000; -385.000
414.474;   69.500;   38.000;  -52.000
414.600;  -24.625; -126.000; -144.000
414.726;  -25.825;  -96.000;  -55.000
414.852;  -72.000; -365.000; -342.000
414.978;   26.300;  104.000;  -18.000
415.104;   35.425;   38.000;   80.000
415.230;    8.275; -329.000; -330.000
415.356;   18.750; -409.000; -514.000
415.482;  202.875;   13.000;  -35.000
415.608;  268.550; -247.000; -323.000
415.734;  960.050;   67.000;   38.000
415.860;20039.850; -875.000; -767.000
415.986;14395.900; -685.000; -607.000
416.111; 1219.625; -798.000; -652.000
416.237;  257.025; -424.000; -571.000
416.363; 1121.175; -765.000; -733.000
416.489; 4188.775; -324.000; -251.000
416.615;  441.300; -707.000; -742.000
416.741;  -37.950; -677.000; -784.000
416.866;  -93.700; -673.000; -736.000
416.992; -123.350; -801.000; -818.000
417.118;  -35.975;  -41.000;  -80.000
417.244;  -72.100; -798.000; -531.000
417.369;  -76.425; -801.000; -612.000
417.495;   -3.075; -325.000; -254.000
417.621;  -81.975;-1015.000; -803.000
417.746;    5.825; -579.000; -572.000
417.872;   43.675; -254.000; -144.000
417.998;   39.275; -515.000; -530.000
418.123; 1059.075;-1073.000; -845.000
418.249; 5399.200; -512.000; -601.000
418.374;  741.800; -916.000; -824.000
418.500;  113.250; -383.000; -482.000
418.626;  107.500;   70.000;  -59.000
418.751;  102.750; -549.000; -448.000
418.877;  186.650; -637.000; -643.000
419.002; 1793.625; -688.000; -560.000
419.128;12645.750; -930.000; -721.000
419.253; 3049.050; -967.000; -837.000
419.379;  408.000; -391.000; -338.000
419.504;  403.225;  325.000;  415.000
419.629;  504.000; -393.000; -212.000
419.755; 3591.800; -317.000; -254.000
419.880;21145.700;  -98.000;   67.000
420.006;11455.500; -280.000; -221.000
420.131;29449.850; -662.000; -775.000
420.256; 4211.450; -315.000; -316.000
420.382;  555.800; -665.000; -687.000
420.507;   59.250; -649.000; -778.000
420.632;  130.925; -337.000; -339.000
420.758;  226.550; -251.000; -425.000
420.883;  -97.525; -876.000; -672.000
421.008; -112.825; -775.000; -619.000
421.133;  -97.500; -509.000; -467.000
421.259;  -56.875; -325.000; -259.000
421.384; -135.175; -834.000; -693.000
421.509;  -66.950;-1052.000; -862.000
421.634; 1028.725; -936.000; -820.000
421.759;  430.125; -359.000; -327.000
421.885;  -83.125; -717.000; -656.000
422.010;  -79.950; -673.000; -542.000
422.135; -145.700; -695.000; -727.000
422.260;   30.925;  340.000;  280.000
422.385;  -58.275;   12.000;  -98.000
422.510;   -1.600;  151.000;  -26.000
422.635;   21.350;  -87.000;  -43.000
422.760;   76.650; -766.000; -791.000
422.885;   37.775;  -57.000;  -80.000
423.010;  -39.250; -112.000; -169.000
423.135; -102.375; -481.000; -561.000
423.260;  -23.900; -150.000; -245.000
423.385;   54.550;  476.000;  222.000
423.510;   23.100;   71.000;  -22.000
423.635;   66.350;  133.000;   45.000
423.760;   56.400;  383.000;  328.000
423.885;   42.475;  336.000;  391.000
424.010;    8.800;  -68.000;  -13.000
424.135;  -28.525;    5.000;  -33.000
424.259; -104.950; -654.000; -457.000
424.384;  -64.275; -279.000; -272.000
424.509;  -36.050; -260.000; -186.000
424.634; -113.350; -761.000; -623.000
424.759;  -23.025; -688.000; -544.000
424.883;  -28.450; -506.000; -527.000
425.008;  169.450; -502.000; -410.000
425.133; 2010.200; -679.000; -653.000
425.258;  909.000; -517.000; -381.000
425.382;  978.750; -867.000; -774.000
425.507; 2419.275; -487.000; -543.000
425.632;  405.600; -802.000; -663.000
425.756;  469.500; -256.000; -146.000
425.881; 6610.400; -831.000; -857.000
426.006;17840.925; -604.000; -355.000
426.130; 2762.775; -696.000; -508.000
426.255;  357.925; -611.000; -491.000
426.379;  145.875; -189.000; -577.000
426.504;  374.850;  660.000;  544.000
426.629; 4022.200; -519.000; -466.000
426.753; 2788.150;   64.000;  -46.000
426.878;  326.500; -252.000; -288.000
427.002;  166.625; -651.000; -668.000
427.127; 1579.150;  -35.000; -158.000
427.251;11374.725;  372.000;  401.000
427.375; 3225.175; -191.000; -173.000
427.500; 2135.550; -616.000; -610.000
427.624;  715.175; -234.000; -400.000
427.749;   77.850; -216.000; -225.000
427.873;  -44.800; -499.000; -412.000
427.997;  -49.150; -222.000; -230.000
428.122;   69.125;  795.000;  703.000
428.246;   51.425;  433.000;  434.000
428.371; -146.725; -869.000; -773.000
428.495; -116.900; -624.000; -646.000
428.619;  -28.000; -186.000; -117.000
428.743;   18.275;   65.000;  132.000
428.868;    9.800; -732.000; -643.000
428.992; 1280.725; -219.000; -326.000
429.116;  523.975; -329.000; -357.000
429.240;  248.025;  419.000;  426.000
429.365;  -36.500; -454.000; -574.000
429.489;  -55.725; -638.000; -647.000
429.613;    6.375; -236.000; -177.000
429.737;   19.225; -563.000; -432.000
429.861;  248.025; -247.000; -133.000
429.985; 5580.525; -425.000; -305.000
430.109; 6083.525; -770.000; -908.000
430.234;  673.450;   76.000;  -50.000
430.358;   62.325; -250.000; -160.000
430.482;  -75.275; -672.000; -564.000
430.606;  -60.575; -655.000; -375.000
430.730;   -7.375; -437.000; -388.000
430.854;   89.850; -909.000; -835.000
430.978;  -86.475; -795.000; -764.000
431.102;  -86.750; -499.000; -422.000
431.226; -129.775; -874.000; -815.000
431.350;   10.900;  345.000;  422.000
431.474;  -94.800; -661.000; -373.000
431.597; -172.225;-1060.000; -848.000
431.721;  -89.675; -276.000; -267.000
431.845; -137.225; -704.000; -472.000
431.969;  -91.325; -304.000; -349.000
432.093; -104.850; -395.000; -317.000
432.217;  -23.650;   32.000;   82.000
432.341; -103.925; -523.000; -518.000
432.464;   14.125;   96.000;   40.000
432.588;  164.775; -401.000; -329.000
432.712;   79.300;  -52.000;  -52.000
432.836;   32.025;  213.000;  263.000
432.959;  -26.075; -372.000; -311.000
433.083;   84.125;   11.000;    2.000
433.207;  360.300;  285.000;  930.000
433.330; 5089.200; -391.000; -200.000
433.454; 6277.950; -654.000; -638.000
433.578; 3640.750;  583.000;  278.000
433.701;  656.500; -623.000; -675.000
433.825;  112.400; -292.000; -299.000
433.949;  151.125;   28.000;  -72.000
434.072;   45.500; -410.000; -323.000
434.196;  -26.250; -309.000; -117.000
434.319; 3725.825;25482.000;25124.000
434.443;  695.525; -656.000; -603.000
434.566; 2663.650;  281.000;   62.000
434.690;  420.800; -637.000; -383.000
434.813;   57.950; -251.000; -173.000
434.937;  -75.125; -569.000; -696.000
435.060;  -48.975; -423.000; -332.000
435.184;  257.225; -492.000; -217.000
435.307;  149.450;  159.000;  102.000
435.431;  -27.925;  -40.000;   24.000
435.554;  -83.725; -399.000; -240.000
435.677;  -94.250; -350.000; -258.000
435.801;  -67.100;  -25.000;   49.000
435.924;  -16.275;    1.000;  -67.000
436.048; -130.900;-1019.000; -732.000
436.171;  -73.425; -240.000;  -66.000
436.294;  -38.675; -248.000; -229.000
436.417;   86.450; -963.000; -849.000
436.541;  -97.075; -814.000; -840.000
436.664;  -58.525; -242.000; -316.000
436.787;  -45.675;   13.000;  113.000
436.910; -116.450; -792.000; -422.000
437.034;   -3.775;  142.000;  143.000
437.157;   43.325;  -11.000;    0.000
437.280;  -76.075; -392.000; -292.000
437.403;  -90.725; -982.000; -869.000
437.526;  545.850; -903.000; -865.000
437.649; 2039.725; -505.000; -332.000
437.772;  297.250; -692.000; -540.000
437.896;   93.625;  700.000;  544.000
438.019; -122.650; -758.000; -503.000
438.142;  -94.950; -596.000; -506.000
438.265;  -43.975; -639.000; -670.000
438.388;  486.450; -520.000; -410.000
438.511;   66.450; -597.000; -394.000
438.634;  -65.900; -247.000; -125.000
438.757; -143.075; -693.000; -619.000
438.880;  -31.125;  -34.000;  -57.000
439.003;  -93.175; -417.000; -437.000
439.126;  -77.900; -287.000; -167.000
439.248;  -69.725;  -98.000; -139.000
439.371;  -62.300;    9.000;  -53.000
439.494;   31.350;  510.000;  439.000
439.617;  -62.425;   65.000;  -88.000
439.740; -181.975; -968.000; -816.000
439.863; -147.100; -755.000; -595.000
439.986; -114.100; -476.000; -431.000
440.108;  -50.750; -161.000; -112.000
440.231; -179.550; -950.000; -836.000
440.354;  -44.050;  -64.000; -150.000
440.477;   14.950; -566.000; -542.000
440.599;  -28.475; -200.000; -225.000
440.722; -128.100; -709.000; -586.000
440.845;   59.650;  751.000;  928.000
440.968; -111.825; -415.000; -311.000
441.090;  -69.300; -199.000;  -33.000
441.213; -180.275;-1021.000; -825.000
441.336;  -59.175; -159.000;   -5.000
441.458;  -89.250; -549.000; -396.000
441.581;  -90.375; -628.000; -629.000
441.703;  -70.100; -152.000;   13.000
441.826; -118.125; -557.000; -400.000
441.948;  -44.325;   56.000;   51.000
442.071;   19.125;  555.000;  424.000
442.193; -118.575; -531.000; -485.000
442.316;   13.800;  152.000;   97.000
442.438;   34.600; -233.000;  -10.000
442.561;   55.450;  272.000;  262.000
442.683;  472.250; -809.000; -522.000
442.806; 1016.025;   -8.000;   74.000
442.928;   14.575; -859.000; -604.000
443.051;  -76.450; -577.000; -373.000
443.173;  -89.075; -341.000; -339.000
443.295;  -88.875; -263.000; -371.000
443.418;  -67.175; -321.000;  -29.000
443.540;  -10.400; -106.000;   -4.000
443.662; -125.175; -563.000; -465.000
443.785;  -21.850;  335.000;  199.000
443.907; -110.750; -362.000; -208.000
444.029; -130.950; -767.000; -494.000
444.152; -146.975; -644.000; -554.000
444.274;  -46.850;  -18.000;  -24.000
444.396; -120.950; -461.000; -221.000
444.518; -135.525; -691.000; -454.000
444.640; -115.625; -268.000; -111.000
444.763;  -21.725;  388.000;  249.000
444.885; -118.625; -432.000; -392.000
445.007;  -49.025;   35.000;   86.000
445.129; -128.800; -610.000; -515.000
445.251; -111.475; -372.000; -439.000
445.373; -138.325; -537.000; -386.000
445.495;   -0.075;  242.000;  350.000
445.617;   50.450;  853.000;  753.000
445.739;  -84.650; -215.000;  -97.000
445.861;  -42.425; -245.000; -112.000
445.984;  -33.200; -267.000; -101.000
446.105;  175.050; -418.000; -251.000
446.227;  533.425; -176.000;  -19.000
446.349;   -6.825; -358.000; -249.000
446.471; -104.175; -615.000; -448.000
446.593;  -80.975; -316.000;   19.000
446.715;  -26.425;  -67.000;   41.000
446.837;   44.500;  697.000;  832.000
446.959; -113.100; -457.000; -478.000
447.081; -138.925; -628.000; -518.000
447.203;   43.200;  862.000;  834.000
447.325;  -94.200; -270.000;   42.000
447.446;   -7.225;  286.000;  530.000
447.568; -162.925; -921.000; -803.000
447.690;  -84.150; -236.000; -245.000
447.812; -146.550; -798.000; -519.000
447.933;  -23.550;  155.000;  127.000
448.055;  -78.975; -306.000; -261.000
448.177;  133.375;   31.000;   79.000
448.299;   51.100; -935.000; -727.000
448.420;   11.625;  -25.000;  159.000
448.542;  -63.825;   -3.000;   33.000
448.664;  -40.200;  109.000;  322.000
448.785;  -43.925;  265.000;   83.000
448.907;  -84.750; -614.000; -353.000
449.028;  -48.800; -771.000; -471.000
449.150;   53.525;  492.000;  589.000
449.272; -194.825;-1044.000; -913.000
449.393;   20.600;  612.000;  694.000
449.515; -168.850; -634.000; -581.000
449.636;  -67.625; -264.000; -155.000
449.758;   69.175;  763.000;  622.000
449.879;  -95.000; -498.000; -396.000
450.001;  -78.175; -149.000;  -49.000
450.122;  -55.500;  -95.000;  162.000
450.244;  -26.500;   37.000;  364.000
450.365; -110.550; -495.000; -301.000
450.486;  -36.700;   80.000;  268.000
450.608;   16.325;  393.000;  326.000
450.729;   65.350;  578.000;  645.000
450.850;    3.425; -574.000; -466.000
450.972;  744.375; -552.000; -389.000
451.093; 4953.950;  190.000;  588.000
451.214; 2130.675; -516.000; -337.000
451.336;  380.600;  773.000;  579.000
451.457;   46.875;  264.000;  393.000
451.578;  -23.925; -118.000;  -74.000
451.699; -136.675; -546.000; -540.000
451.821;  -66.700; -284.000;  -50.000
451.942;   -1.800;  278.000;  285.000
452.063;   23.900;  228.000;  419.000
452.184;  552.500;  -54.000;  -49.000
452.305; 1096.850;  103.000;  170.000
452.427;  121.600; -549.000; -301.000
452.548;  -22.350;   23.000;   79.000
452.669;  -64.575; -257.000;  -89.000
452.790;  -55.575;    3.000;  -18.000
452.911;  -13.875;  195.000;  259.000
453.032;  -71.125; -289.000;  -60.000
453.153;  -68.175;  -29.000;   81.000
453.274;   63.325;  737.000;  868.000
453.395;  -46.325;  -51.000;  175.000
453.516;  110.175; 1317.000; 1388.000
453.637;  -73.575; -205.000; -150.000
453.758;  -74.900;   15.000;   69.000
453.879; -117.625; -462.000; -250.000
454.000;   77.975; 1086.000;  948.000
454.121; -128.400; -554.000; -326.000
454.242; -124.650; -599.000; -383.000
454.362;  -57.000;  -99.000;  114.000
454.483;  -65.075; -309.000; -229.000
454.604;   40.300;  512.000;  580.000
454.725; -135.625; -627.000; -555.000
454.846; -135.625; -474.000; -406.000
454.967;  -30.900;  230.000;  539.000
455.087;  -44.025;  179.000;  153.000
455.208;   -0.450;  554.000;  856.000
455.329;  -70.000;  -22.000;   82.000
455.450;   24.025;  473.000;  633.000
455.570;  -85.700; -234.000; -211.000
455.691;  -46.800;  201.000;  407.000
455.812; -121.725; -270.000;  -92.000
455.932;  -66.200;  107.000;  -97.000
456.053;  -77.275;   36.000;   24.000
456.173; -109.700; -433.000; -355.000
456.294; -137.975; -476.000; -303.000
456.415;  -78.075;  -73.000;   70.000
456.535;  -42.575;  297.000;  273.000
456.656;  -60.850;  132.000;  240.000
456.776;  -72.675;    3.000;  298.000
456.897;  -16.025;  308.000;  513.000
457.017;  -85.900; -153.000;   -3.000
457.138; -114.425; -402.000; -249.000
457.258;  -34.575;  263.000;  224.000
457.379;  -20.125;  509.000;  521.000
457.499;  -44.375;  443.000;  432.000
457.620; -125.650; -407.000; -231.000
457.740;  -96.575; -132.000;  -11.000
457.860;  -67.525;   87.000;   44.000
457.981;  -60.725;  132.000;  124.000
458.101;  -77.900;  -89.000;   40.000
458.221;  -35.525;  336.000;  402.000
458.342;  -62.700;   -4.000;  -37.000
458.462;   19.775;  617.000;  352.000
458.582;  -33.550; -302.000; -294.000
458.703;    6.200;  303.000;  154.000
458.823;  -35.825;   22.000;  163.000
458.943;   17.100;  341.000;  467.000
459.063;  -14.450; 1124.000;  192.000
459.183;  -29.950;  328.000;  313.000
459.304;    9.025;  315.000;  517.000
459.424;  -71.375; -246.000;  -89.000
459.544;  322.200;  388.000;  764.000
459.664;  812.875;  499.000;  506.000
459.784;  295.250; 1004.000; 1175.000
459.904;   46.575;  867.000;  744.000
460.024;   66.025;  867.000;  684.000
460.144;   -2.075;  449.000;  554.000
460.264;  -13.425;  515.000;  327.000
460.385;  -99.325; -145.000; -119.000
460.505;   32.850;  905.000;  858.000
460.625;  -88.550;  -17.000;  -68.000
460.745;  -36.975;  396.000;  541.000
460.864;  -61.675;  153.000;  469.000
460.984;    4.275;  499.000;  573.000
461.104;  137.150; 1656.000; 1775.000
461.224;    8.725;  657.000;  650.000
461.344;  -37.125;  431.000;  360.000
461.464;  -38.450;  258.000;  513.000
461.584;  -25.175;  283.000;  466.000
461.704;  -79.250;   58.000;  108.000
461.824;  -62.750;  238.000;  259.000
461.943;  -39.825;  191.000;  130.000
462.063;  -94.750;    2.000;  324.000
462.183;   13.400;  639.000;  717.000
462.303;  101.525; 1678.000; 1230.000
462.422;   23.125;  781.000;  840.000
462.542;  -47.750;  271.000;  391.000
462.662;   32.550;  353.000;  380.000
462.782;  241.500;  833.000;  572.000
462.901;  485.850;  545.000;  717.000
463.021;  272.725; 1702.000; 1638.000
463.141;  -15.675;  337.000;  770.000
463.260;  -22.100;  614.000;  474.000
463.380;    0.650;  902.000;  884.000
463.499;  -49.900;  342.000;  332.000
463.619;  -51.225;  581.000;  559.000
463.738;  102.700; 1644.000;  903.000
463.858;    7.450;  657.000;  811.000
463.978;  -32.525;  542.000;  396.000
464.097;   33.050;  921.000; 1114.000
464.217;  113.625; 1196.000; 1143.000
464.336;   91.575; 1068.000; 1130.000
464.455;  -33.775;  328.000;  659.000
464.575;   27.550;  597.000;  602.000
464.694;  148.875; 1204.000; 1179.000
464.814;  118.950; 1190.000; 1138.000
464.933;   79.575; 1095.000; 1027.000
465.052;   89.025; 1412.000; 1054.000
465.172;   90.325;  922.000;  799.000
465.291;  121.025; 1376.000; 1320.000
465.410;   16.450;  462.000;  735.000
465.530;   77.150; 1355.000; 1310.000
465.649;   54.400; 1209.000; 1273.000
465.768;  125.175; 1673.000; 1508.000
465.888;   44.375;  941.000; 1174.000
466.007;   64.925; 1335.000; 1440.000
466.126;   -3.650;  721.000;  641.000
466.245;   37.625; 1176.000; 1187.000
466.364;   15.425;  950.000; 1060.000
466.484;   62.600; 1024.000; 1213.000
466.603;   35.925; 1101.000; 1222.000
466.722;  110.650; 1490.000; 1769.000
466.841;   53.700; 1151.000; 1401.000
466.960;   37.250; 1069.000;  972.000
467.079;  137.400; 1971.000; 1786.000
467.198;   45.225; 1238.000; 1181.000
467.317;   91.975; 1768.000; 1162.000
467.436;   63.175; 1709.000; 1261.000
467.555;  124.200; 1796.000; 1746.000
467.674;   49.350; 1227.000; 1329.000
467.793;   45.650; 1376.000; 1374.000
467.912;   84.400; 1658.000; 1539.000
468.031;  138.450; 2038.000; 1930.000
468.150;  122.275; 1842.000; 1837.000
468.269;  177.750; 2313.000; 2090.000
468.388;  156.275; 2168.000; 2339.000
468.507;  246.450; 2884.000; 2903.000
468.626;  249.175; 2555.000; 2541.000
468.744;  119.100; 2018.000; 2174.000
468.863;  205.500; 2312.000; 2523.000
468.982;   88.575; 1503.000; 1555.000
469.101;  216.200; 2788.000; 2692.000
469.220;  158.775; 2333.000; 2176.000
469.338;  243.125; 2935.000; 3051.000
469.457;  191.075; 2719.000; 2545.000
469.576;  345.825; 3953.000; 3784.000
469.695;  215.375; 2877.000; 3066.000
469.813;  404.275; 4148.000; 4192.000
469.932;  409.700; 4255.000; 4485.000
470.051;  420.425; 4075.000; 4161.000
470.169;  848.450; 4470.000; 4338.000
470.288; 1482.225; 4700.000; 4809.000
470.406;  858.150; 5059.000; 5194.000
470.525;  633.600; 6101.000; 5787.000
470.644;  647.625; 6847.000; 6794.000
470.762;  828.725; 8397.000; 7873.000
470.881;  899.625; 8651.000; 8464.000
470.999; 1045.625; 9685.000; 9151.000
471.118; 1105.950;11174.000;10711.000

