
Integration time [ms]: 100.000
Averaging Nr. [scans]: 40
Smoothing Nr. [pixels]: 0
Data measured with spectrometer [name]: 2101012U2
Wave   ;Sample   ;Dark     ;Reference
[nm]   ;[counts] ;[counts] ;[counts] 

197.733;   64.475;  516.000;  404.000
197.879;  -82.100; -610.000; -634.000
198.025;  -37.325; -475.000; -420.000
198.171;  -69.575; -602.000; -612.000
198.317;  -40.325; -401.000; -316.000
198.463;  -51.325; -655.000; -404.000
198.609;   25.275;  181.000; -137.000
198.755;  -80.375; -644.000; -410.000
198.901;  -64.375; -505.000; -424.000
199.047;  -57.400; -615.000; -488.000
199.193;  -37.200; -230.000; -468.000
199.339;  -44.275; -222.000; -369.000
199.485;   43.775;  330.000;  271.000
199.631;    3.275;  227.000;  310.000
199.777;  -45.250; -466.000; -398.000
199.923;  -70.500; -610.000; -424.000
200.069;    6.650; -141.000;  -58.000
200.215;   50.450;  128.000;  453.000
200.361;   33.450;  243.000;  477.000
200.507;  -67.475; -600.000; -373.000
200.653;  -26.900; -371.000; -194.000
200.798;  -46.525; -215.000; -125.000
200.944;   -3.525; -146.000;  -41.000
201.090;   32.625;   61.000;  222.000
201.236;   -0.150; -116.000; -158.000
201.382;  118.575;  874.000;  903.000
201.528;   -0.325;  -58.000;  -48.000
201.674;  -33.175; -386.000; -293.000
201.819;  -68.350; -540.000; -439.000
201.965;  -78.825; -699.000; -447.000
202.111;  -25.100; -273.000; -226.000
202.257;  -32.800; -250.000; -238.000
202.402;   -5.525;   13.000;  -36.000
202.548;  -33.325; -169.000; -116.000
202.694;   87.175;  410.000; -183.000
202.840;  -80.000; -603.000; -531.000
202.985;  -60.525; -681.000; -639.000
203.131;  -96.850; -832.000; -666.000
203.277;  -22.125; -199.000; -262.000
203.423;  -46.625; -434.000; -520.000
203.568;  -37.550; -462.000; -237.000
203.714;  -53.850; -535.000; -542.000
203.860;  -74.250; -682.000; -641.000
204.005;   11.100;  112.000;  167.000
204.151;   86.450;  561.000;  556.000
204.296;  -37.650; -354.000; -221.000
204.442;  -61.525; -600.000; -547.000
204.588;  -77.775; -592.000; -579.000
204.733;   19.850;  178.000;  168.000
204.879; -126.000;-1018.000; -822.000
205.025;    6.775;  -99.000;  126.000
205.170;   14.275;  -17.000;   94.000
205.316;   70.325;  438.000;  661.000
205.461;  -86.975; -698.000; -554.000
205.607;   85.650;  609.000;  665.000
205.752;  -90.800; -626.000; -551.000
205.898;  -58.275; -501.000; -391.000
206.043;  -64.650; -578.000; -506.000
206.189;  -49.550; -243.000; -285.000
206.334;   67.800;  554.000;  606.000
206.480;   88.075;  409.000;  239.000
206.625;  -86.075; -529.000; -552.000
206.771;  -41.300; -451.000; -373.000
206.916;  -45.500; -210.000; -537.000
207.062;  -78.275; -545.000; -591.000
207.207;  -62.025; -546.000; -443.000
207.353;   43.850;  185.000;  460.000
207.498;    3.075;  196.000;   85.000
207.643;  -48.625; -501.000; -370.000
207.789; -142.100;-1069.000; -910.000
207.934;  -94.250; -665.000; -713.000
208.080;  -22.350; -154.000;   66.000
208.225;   -5.750;  -22.000;  -57.000
208.370;  -91.650; -727.000; -619.000
208.516;  -84.525; -741.000; -487.000
208.661;  -30.175; -127.000;  -69.000
208.806;  -27.325; -165.000; -171.000
208.952; -135.800;-1044.000; -731.000
209.097;   64.400;  378.000;  349.000
209.242;  -57.875; -307.000; -382.000
209.387;   53.800;  392.000;  350.000
209.533;  -71.000; -321.000; -350.000
209.678;   74.925;  472.000;  543.000
209.823;  -54.400; -408.000; -310.000
209.969;  -99.400; -860.000; -757.000
210.114;  -99.600; -907.000; -719.000
210.259; -114.100; -939.000; -889.000
210.404;   -7.800; -171.000;  103.000
210.549;    2.350;  108.000;    3.000
210.695;  -16.975;   -3.000;  -95.000
210.840;   27.000;   94.000;   67.000
210.985;  -68.025; -484.000; -303.000
211.130;   70.825;  268.000;  406.000
211.275;   26.150;  207.000;  199.000
211.420;  -42.550; -300.000; -289.000
211.566;  -63.375; -536.000; -489.000
211.711;   28.475;  218.000;  157.000
211.856;  -68.750; -545.000; -519.000
212.001;    8.875;  151.000;   44.000
212.146;    9.100;  153.000;   49.000
212.291;  -32.275; -210.000; -186.000
212.436;  -30.775; -280.000;   -6.000
212.581;  -87.900; -685.000; -653.000
212.726;  -78.725; -487.000; -538.000
212.871;  -53.500; -552.000; -217.000
213.016; -148.375;-1172.000;-1029.000
213.161;   59.200;  406.000;  291.000
213.306;  -70.000; -435.000; -577.000
213.451;  -78.850; -778.000; -689.000
213.596;  -61.775; -455.000; -347.000
213.741;  -59.800; -448.000; -538.000
213.886;  -88.400; -498.000; -517.000
214.031;  -19.050; -294.000; -124.000
214.176;  -63.750; -408.000; -341.000
214.321;  -15.350; -296.000; -157.000
214.466;  -37.375; -163.000;  -43.000
214.611;   14.675;  -61.000;  -10.000
214.756; -118.375; -948.000; -858.000
214.901;  -13.625; -388.000; -226.000
215.046; -120.175; -797.000; -825.000
215.191;    8.100;  128.000;   35.000
215.336;  -19.400; -157.000;  -19.000
215.480;  -67.025; -684.000; -505.000
215.625;  -15.075; -175.000;  -19.000
215.770;  -75.900; -757.000; -662.000
215.915;  -18.725;   -5.000;  -97.000
216.060;  -11.025; -113.000;  -21.000
216.205; -110.200; -731.000; -779.000
216.349;  -66.725; -470.000; -533.000
216.494; -142.775; -939.000; -867.000
216.639; -114.325; -823.000; -888.000
216.784;  -79.300; -577.000; -525.000
216.929;   60.400;  392.000;  281.000
217.073;  -14.925; -244.000;  -31.000
217.218;   -6.675;   78.000;  -47.000
217.363;  -79.025; -656.000; -618.000
217.507;  -85.850; -623.000; -588.000
217.652; -130.050; -845.000; -874.000
217.797;  -85.775; -708.000; -659.000
217.942; -109.350; -856.000; -720.000
218.086;   58.250;  608.000;  539.000
218.231;  -24.575; -174.000;  -26.000
218.376;  -42.125; -337.000; -229.000
218.520;  -19.550;  -41.000;   96.000
218.665;  -34.550; -338.000; -204.000
218.810;  -51.200; -275.000; -233.000
218.954;   17.150;  201.000;   35.000
219.099; -126.525; -713.000; -963.000
219.243;  -76.850; -589.000; -554.000
219.388;  -24.825; -264.000; -136.000
219.532;  -13.550; -116.000; -116.000
219.677;  -72.975; -564.000; -521.000
219.822;   15.625;   33.000;   89.000
219.966;    3.950;   17.000;  -99.000
220.111;  -28.475; -328.000;  -40.000
220.255;  -93.925; -797.000; -750.000
220.400;  -16.225; -180.000; -146.000
220.544;  -64.650; -516.000; -450.000
220.689;  -59.275; -422.000; -451.000
220.833;  -31.450; -123.000;  -58.000
220.978;  -42.400; -393.000; -563.000
221.122;   17.425;  319.000;  307.000
221.267; -106.050; -906.000; -837.000
221.411;  -63.875; -478.000; -394.000
221.555;  -16.375; -104.000;  -23.000
221.700;  -50.675; -329.000; -222.000
221.844;   26.775;  255.000;  272.000
221.989;  -63.100; -328.000; -311.000
222.133;  -32.300; -289.000; -307.000
222.277;   -1.050;    5.000;   78.000
222.422;    7.600;  227.000;  113.000
222.566;  -42.300; -381.000; -214.000
222.711;  -50.875; -414.000; -479.000
222.855;  -75.500; -643.000; -586.000
222.999;  -83.800; -642.000; -717.000
223.144;  -40.425; -195.000; -194.000
223.288;   45.750;  423.000;  251.000
223.432;   29.525;  184.000;  230.000
223.576;    8.975;  152.000;  -21.000
223.721;   37.150;  364.000;  273.000
223.865;  -47.650; -472.000; -475.000
224.009;  236.450; 1673.000; 1631.000
224.153;  -69.500; -660.000; -671.000
224.298;  -71.825; -531.000; -489.000
224.442;  -21.250;  -74.000;  -33.000
224.586;   -7.700; -169.000; -106.000
224.730;  -98.850; -858.000; -670.000
224.875; -110.800; -739.000; -688.000
225.019;   -6.050;  102.000;  188.000
225.163;   52.550;  208.000;  341.000
225.307;    9.975;   97.000;  -91.000
225.451;   34.350;  360.000;  481.000
225.595;   22.950;  264.000;  176.000
225.739;   -8.725; -170.000;  -94.000
225.884;   -3.525;   86.000;    5.000
226.028;  -96.225; -760.000; -626.000
226.172;  -47.200; -260.000; -273.000
226.316; -127.525; -941.000; -902.000
226.460;  -66.200; -645.000; -493.000
226.604;  -62.150; -406.000; -400.000
226.748; -100.550; -836.000; -733.000
226.892;  -32.025; -227.000; -181.000
227.036;  -65.925; -537.000; -447.000
227.180;  -57.650; -551.000; -375.000
227.324;  -77.450; -561.000; -580.000
227.468; -116.200; -819.000; -717.000
227.612;   12.300;  242.000;  -28.000
227.756;  -90.275; -845.000; -698.000
227.900;   56.075;  342.000;  441.000
228.044;  -54.075; -509.000; -290.000
228.188;   56.100;  448.000;  568.000
228.332;  -83.975; -546.000; -472.000
228.476;  -36.425; -223.000; -149.000
228.620;  -47.375; -210.000; -150.000
228.764;   66.250;  431.000;  349.000
228.908;  -16.975; -155.000;   30.000
229.052;  -53.925; -615.000; -528.000
229.195;  -20.450; -172.000;   13.000
229.339;  -19.225; -235.000; -305.000
229.483;  -37.225;    5.000; -162.000
229.627;  -10.525; -156.000;  139.000
229.771;  -64.325; -218.000; -294.000
229.915;   13.525;  230.000;   79.000
230.059;  -84.100; -648.000; -663.000
230.202;  -44.175; -370.000; -317.000
230.346;  -21.075; -107.000;  107.000
230.490;  -66.675; -489.000; -521.000
230.634; -103.200; -736.000; -553.000
230.777;   75.650;  478.000;  509.000
230.921;  -54.850; -450.000; -359.000
231.065;  -35.725; -246.000; -286.000
231.209;   36.550;  261.000;  265.000
231.352;   32.575;   54.000;   40.000
231.496;   12.275;  568.000;  188.000
231.640;  -94.000; -693.000; -621.000
231.783;   70.500;  546.000;  525.000
231.927;  -51.425; -294.000; -365.000
232.071; -131.425; -962.000; -736.000
232.214; -108.600; -980.000; -764.000
232.358; -102.225; -683.000; -599.000
232.502;    2.450;  -19.000;    7.000
232.645; -138.375;-1090.000; -927.000
232.789;  -10.325; -257.000; -218.000
232.933;  -51.275; -407.000; -224.000
233.076; -133.100;-1038.000; -897.000
233.220; -112.550; -752.000; -777.000
233.363;  -85.400; -669.000; -477.000
233.507;   75.325;  371.000;  129.000
233.650;  -91.775; -764.000; -834.000
233.794;   31.950;  438.000;  461.000
233.938;  -65.075; -530.000; -362.000
234.081;  -20.150;  -93.000;   31.000
234.225;  -74.275; -631.000; -539.000
234.368; -106.575; -773.000; -723.000
234.512;  -57.025; -385.000; -299.000
234.655;  -79.975; -582.000; -555.000
234.798;  -73.650; -493.000; -466.000
234.942; -131.100; -884.000;-1002.000
235.085;  -64.050; -651.000; -443.000
235.229;  -64.500; -405.000; -410.000
235.372;  -46.350; -247.000; -191.000
235.516;  -57.925; -397.000; -321.000
235.659;   22.375;   92.000;  121.000
235.802;  -15.650;  -38.000;  -22.000
235.946;   14.550;  335.000;  215.000
236.089;   25.500;  126.000;  250.000
236.233;   42.125;  275.000;  298.000
236.376;  -47.950; -235.000; -378.000
236.519;  -50.625; -297.000; -319.000
236.663;  -24.250; -215.000; -117.000
236.806; -147.775;-1029.000; -999.000
236.949;   58.025;  543.000;  431.000
237.092;   63.050;  412.000;  391.000
237.236;  -89.200; -589.000; -502.000
237.379;   71.425;  352.000;  428.000
237.522; -115.875; -879.000; -768.000
237.666;  -32.175; -271.000;   18.000
237.809; -120.925; -851.000; -823.000
237.952;   36.225;  469.000;  271.000
238.095;  -58.950; -447.000; -442.000
238.238;   75.175;  688.000;  700.000
238.382;    7.925;  166.000;  103.000
238.525;  -62.200; -598.000; -511.000
238.668; -141.750;-1060.000; -985.000
238.811;  -86.425; -638.000; -643.000
238.954;  -61.225; -483.000; -334.000
239.097;   89.925;  617.000;  664.000
239.241;   34.850;  394.000;  326.000
239.384;  -42.475; -254.000; -214.000
239.527;  -61.975; -424.000; -224.000
239.670; -130.525; -994.000;-1091.000
239.813; -123.350; -696.000; -658.000
239.956;   73.225;  579.000;  473.000
240.099; -110.075; -778.000; -725.000
240.242;   61.200;  428.000;  432.000
240.385;   36.100;  466.000;  450.000
240.528;  -62.650; -706.000; -473.000
240.671;    5.950;  189.000;  134.000
240.814;  -53.375; -441.000; -158.000
240.957; -102.625; -767.000; -578.000
241.100;  -94.650; -779.000; -755.000
241.243; -146.850;-1234.000; -893.000
241.386;  -61.750; -508.000; -379.000
241.529; -101.475; -735.000; -547.000
241.672;  -58.100; -566.000; -495.000
241.815; -122.000; -832.000; -808.000
241.958;  -26.450; -125.000; -182.000
242.101;  -89.150; -545.000; -390.000
242.244;  -35.325; -270.000; -325.000
242.387;  -46.050; -304.000; -246.000
242.530;   58.500;  470.000;  134.000
242.673;  -42.725; -381.000; -309.000
242.815; -125.025; -925.000; -899.000
242.958;  -79.750; -482.000; -381.000
243.101;   21.200;  132.000;  187.000
243.244;  -95.775; -564.000; -521.000
243.387;  -40.950; -313.000; -316.000
243.530;  -95.050; -657.000; -674.000
243.672;    0.525;   43.000;  -92.000
243.815;  -57.175; -355.000; -283.000
243.958;   -8.625;   98.000;  -26.000
244.101;   -5.800;   59.000;  -16.000
244.243;   -5.950;  -47.000;  101.000
244.386; -106.000; -761.000; -630.000
244.529;  -27.775; -132.000; -139.000
244.672; -155.600;-1154.000; -951.000
244.814;  -96.900; -621.000; -794.000
244.957;  -44.425; -380.000; -304.000
245.100;  -66.775; -489.000; -489.000
245.242;  -68.525; -387.000; -374.000
245.385;  -19.975;  -59.000;  -39.000
245.528; -112.075; -871.000; -705.000
245.670;   82.750;  612.000;  634.000
245.813;  -91.175; -599.000; -547.000
245.956;  -41.575; -324.000; -275.000
246.098;  -67.175; -508.000; -650.000
246.241;   -9.625;  194.000;   48.000
246.383;  -12.125; -119.000;  -73.000
246.526;  -77.200; -454.000; -525.000
246.669; -119.425; -889.000; -780.000
246.811;   15.250;  172.000;   -1.000
246.954;  -61.850; -512.000; -426.000
247.096;  -25.875;  -84.000;   -6.000
247.239;  -60.750; -482.000; -445.000
247.381;  -74.125; -647.000; -488.000
247.524;   90.950;  645.000;  679.000
247.666;  -17.275;   58.000;   11.000
247.809; -114.625; -887.000; -691.000
247.951;  -11.050;  -75.000;  138.000
248.094;   46.075;  432.000;  308.000
248.236; -154.675;-1262.000;-1238.000
248.378;   19.350; -356.000;  -81.000
248.521;  -27.300; -334.000; -337.000
248.663;  -45.875; -236.000; -267.000
248.806;  -23.025; -300.000; -266.000
248.948; -105.625; -886.000; -763.000
249.090;  -51.850; -428.000; -398.000
249.233;  -51.900; -344.000; -381.000
249.375;  -61.900; -474.000; -451.000
249.518;  -18.375;  -83.000; -133.000
249.660;  -13.675; -103.000;    3.000
249.802; -164.725;-1303.000;-1189.000
249.945;  -68.925; -612.000; -540.000
250.087;  -97.275; -834.000; -768.000
250.229;  -40.350; -362.000; -480.000
250.371;  -69.175; -494.000; -439.000
250.514;  -42.625; -310.000; -244.000
250.656;  -13.000;   69.000;  102.000
250.798; -117.375; -849.000; -800.000
250.940;  -58.475; -322.000; -322.000
251.083;  -32.500; -335.000; -111.000
251.225;   58.425;  338.000;  310.000
251.367;  -32.400; -274.000; -373.000
251.509;  -25.825; -265.000; -210.000
251.651; -109.425; -731.000; -671.000
251.794;   40.975;  538.000;  632.000
251.936; -105.475; -821.000; -747.000
252.078;  -77.900; -540.000; -461.000
252.220;  -71.075; -645.000; -477.000
252.362;   76.900;  344.000;  462.000
252.504;  -64.525; -677.000; -584.000
252.646; -103.400; -875.000; -722.000
252.788;   -8.625;   14.000; -128.000
252.931;  -40.650; -257.000; -253.000
253.073;  -46.100; -376.000; -317.000
253.215;  -16.075;  141.000;  122.000
253.357;  -18.275;   82.000; -153.000
253.499;  -54.175; -374.000; -234.000
253.641;  -92.850; -749.000; -594.000
253.783;  -95.575; -609.000; -527.000
253.925;  -82.400; -586.000; -591.000
254.067; -112.575; -744.000; -667.000
254.209;  -29.300; -391.000; -259.000
254.351; -136.125; -865.000; -883.000
254.493;  -57.175; -441.000; -417.000
254.635; -140.550; -936.000; -818.000
254.777;  -80.550; -752.000; -687.000
254.918;  -73.300; -512.000; -430.000
255.060;  -60.500; -551.000; -395.000
255.202;  -75.450; -473.000; -261.000
255.344;  -84.900; -658.000; -455.000
255.486;  -68.750; -471.000; -406.000
255.628; -102.575; -780.000; -781.000
255.770; -100.800; -676.000; -536.000
255.912;  -72.475; -559.000; -468.000
256.053;  -94.000; -730.000; -508.000
256.195;  139.500; 1008.000;  903.000
256.337;  -98.775; -861.000; -595.000
256.479;   62.125;  532.000;  416.000
256.621;  -56.200; -394.000; -212.000
256.762; -102.625; -789.000; -742.000
256.904;   60.925;  485.000;  487.000
257.046;  -37.075; -381.000; -271.000
257.188;  -43.400; -351.000; -264.000
257.329;  -73.925; -525.000; -464.000
257.471; -120.800; -939.000; -807.000
257.613;  -63.150; -584.000; -498.000
257.755; -140.175;-1073.000; -982.000
257.896;   24.825;  286.000;  392.000
258.038;  -73.900; -403.000; -352.000
258.180;  -37.800; -354.000; -279.000
258.321;  -87.075; -581.000; -457.000
258.463;  -13.450;  -71.000;  133.000
258.605;  -86.075; -562.000; -570.000
258.746;  -95.675; -886.000; -772.000
258.888; -154.375;-1026.000;-1020.000
259.029;   14.275;  121.000;   -8.000
259.171;  -99.700; -614.000; -550.000
259.313;  -12.650;  -49.000;  -47.000
259.454;  -76.325; -536.000; -414.000
259.596;  -57.125; -483.000; -390.000
259.737;  -77.925; -590.000; -474.000
259.879;   25.800;  217.000;  311.000
260.020;   79.125;  901.000;  636.000
260.162;  -42.775; -146.000; -253.000
260.303; -115.100; -768.000; -687.000
260.445;  -84.550; -609.000; -613.000
260.586;   18.350;  392.000;  157.000
260.728;  -29.800; -360.000; -248.000
260.869; -121.475; -350.000; -343.000
261.011;   71.025;  706.000;  537.000
261.152;  -68.875; -479.000; -319.000
261.293;  -76.625; -576.000; -595.000
261.435;  -39.925; -219.000; -184.000
261.576;  -57.700; -455.000; -325.000
261.718;   44.850;  420.000;  470.000
261.859; -131.550; -940.000; -949.000
262.000; -112.400; -951.000;-1016.000
262.142;  -31.200;  -52.000;  -60.000
262.283; -125.450; -808.000; -691.000
262.424;  -90.725; -666.000; -625.000
262.566; -153.525;-1161.000; -983.000
262.707; -111.925; -840.000; -830.000
262.848; -125.450; -769.000; -726.000
262.990;  -55.125; -362.000; -345.000
263.131;   59.625;  650.000;  681.000
263.272;   -5.900;  -61.000;  -41.000
263.413;  -90.625; -589.000; -561.000
263.555;  -69.225; -669.000; -143.000
263.696;  -78.250; -550.000; -641.000
263.837;  -61.550; -449.000; -551.000
263.978;   -4.950;   -5.000;  -77.000
264.119;  -53.025; -283.000; -264.000
264.261; -113.450; -847.000; -630.000
264.402;    3.350;   33.000;   40.000
264.543;  -86.975; -509.000; -524.000
264.684;   -7.025;   61.000;  -50.000
264.825;  -73.950; -816.000; -538.000
264.966;   -2.825;  -84.000;  -67.000
265.107; -111.325; -646.000; -670.000
265.248; -109.850; -825.000; -812.000
265.390;  -16.975;  152.000;   -9.000
265.531;  -27.925; -238.000; -107.000
265.672;  -88.950; -557.000; -630.000
265.813;   62.625;  563.000;  439.000
265.954; -141.800; -959.000; -940.000
266.095;  -27.100; -372.000; -322.000
266.236; -107.425; -686.000; -548.000
266.377;  -27.750; -243.000; -297.000
266.518;  -63.875; -619.000; -547.000
266.659;   27.700;  170.000;  268.000
266.800;   -4.575;   83.000;   85.000
266.941;  -76.975; -487.000; -478.000
267.082;    3.450;  354.000;   99.000
267.223;  -59.475; -344.000; -273.000
267.364; -122.275; -892.000; -686.000
267.504;  -22.050;    3.000;  135.000
267.645;   -9.775;  160.000;   67.000
267.786;  -40.175; -147.000;  -86.000
267.927;  -76.425; -473.000; -379.000
268.068;  -19.550; -186.000;  -61.000
268.209;  -46.675; -175.000; -413.000
268.350;  -56.450; -388.000; -532.000
268.490; -108.175; -648.000; -521.000
268.631;   20.900;  127.000;  225.000
268.772; -105.975; -874.000; -647.000
268.913;  -42.600; -328.000; -476.000
269.054;  -13.300; -117.000;   12.000
269.194;  -47.750; -418.000; -402.000
269.335; -166.675;-1137.000;-1074.000
269.476;   -5.400;   33.000;  -35.000
269.617;  -65.750; -347.000; -392.000
269.757;  -76.975; -713.000; -646.000
269.898; -111.600; -856.000; -613.000
270.039;  -63.100; -415.000; -405.000
270.180; -142.725; -952.000; -816.000
270.320;  -23.450; -190.000; -250.000
270.461;  -36.925; -277.000; -249.000
270.602;  -16.400; -186.000; -156.000
270.742; -121.775; -868.000; -943.000
270.883;  -62.700; -442.000; -390.000
271.023;  -71.700; -358.000; -357.000
271.164;  -83.675; -607.000; -528.000
271.305; -103.525; -666.000; -654.000
271.445;  -97.825; -722.000; -683.000
271.586;  -65.750; -462.000; -283.000
271.726;  -59.725; -397.000; -322.000
271.867;  -40.350; -594.000; -534.000
272.008;  202.425; -473.000; -285.000
272.148;  150.325;  462.000;  468.000
272.289;   -2.175; -113.000; -181.000
272.429;   23.700;   19.000;  185.000
272.570;  -93.200; -633.000; -737.000
272.710;  -97.225; -825.000; -775.000
272.851;  -17.500;  113.000; -130.000
272.991; -158.125;-1173.000;-1077.000
273.131;  -82.200; -419.000; -459.000
273.272;  -78.225; -683.000; -723.000
273.412;    7.550; -143.000;  -31.000
273.553;  -54.400; -488.000; -507.000
273.693;  143.075;  913.000;  858.000
273.834;  -79.550; -894.000; -692.000
273.974;  -71.025; -664.000; -615.000
274.114;  -93.675; -772.000; -560.000
274.255;   58.550;  414.000;  373.000
274.395;    9.250; -180.000; -125.000
274.535;   48.425;  199.000;  350.000
274.676;   15.000;  225.000;   94.000
274.816;    8.300;  110.000;   34.000
274.956;  -79.950; -624.000; -690.000
275.097;  -60.775;-1014.000; -922.000
275.237; -112.525; -913.000; -803.000
275.377; -106.375; -778.000; -689.000
275.517; -153.700; -878.000; -937.000
275.658;  -50.175; -590.000; -555.000
275.798;  -83.025; -606.000; -413.000
275.938;   10.450;  215.000;  323.000
276.078; -108.550; -626.000; -395.000
276.218;    6.375;   99.000;  104.000
276.359; -130.550;-1026.000;-1024.000
276.499;  -67.975; -605.000; -446.000
276.639;  -44.175; -305.000; -151.000
276.779;  -41.000; -475.000; -357.000
276.919; -101.825; -783.000; -624.000
277.059;  -23.025; -261.000; -212.000
277.199;  -42.125; -357.000; -259.000
277.340;   49.650;  287.000;  175.000
277.480; -109.800; -840.000; -693.000
277.620;   25.750;  192.000;   16.000
277.760; -199.625;-1533.000;-1294.000
277.900;   17.200;  113.000;   33.000
278.040;   15.100;  137.000;  159.000
278.180;   32.625;  270.000;  170.000
278.320;  -10.150;   21.000;   56.000
278.460;  -73.825; -443.000; -469.000
278.600;  -85.900; -708.000; -598.000
278.740;   51.050;  448.000;  224.000
278.880;  -42.525; -768.000; -791.000
279.020;    5.350; -194.000; -144.000
279.160;  -93.250; -672.000; -595.000
279.300; -118.100; -926.000; -873.000
279.440;  -86.475; -709.000; -622.000
279.579;    9.725;-1014.000; -929.000
279.719;  -44.475; -410.000; -394.000
279.859;   78.500;   -4.000;   41.000
279.999;   27.475; -208.000;  101.000
280.139;    5.250; -435.000; -387.000
280.279;  -63.950; -708.000; -745.000
280.419;  -14.125; -229.000; -147.000
280.559;  -31.000; -259.000; -180.000
280.698;  -86.525; -790.000; -639.000
280.838;  -94.900; -778.000; -800.000
280.978; -100.200; -846.000; -790.000
281.118; -109.125; -811.000; -704.000
281.257;    7.550;   24.000;    6.000
281.397; -113.825;-1094.000; -960.000
281.537;  -78.075; -599.000; -712.000
281.677;  -35.950; -150.000; -101.000
281.816;  -82.500; -700.000; -630.000
281.956;  -28.275; -193.000; -257.000
282.096;  -68.300; -539.000; -396.000
282.235; -100.325; -672.000; -638.000
282.375;  -31.375; -243.000;  -98.000
282.515; -107.100; -715.000; -707.000
282.654;   21.475;   29.000;  106.000
282.794;   22.400;  388.000;  244.000
282.934;  -53.575; -530.000; -491.000
283.073; -128.925;-1030.000; -857.000
283.213;  -64.375; -460.000; -467.000
283.353;  -41.975; -408.000; -349.000
283.492;  -39.900; -264.000; -296.000
283.632;  -41.325; -254.000; -168.000
283.771; -101.525; -859.000; -730.000
283.911;  -59.550; -369.000; -260.000
284.050; -116.400; -794.000; -748.000
284.190; -159.875;-1229.000;-1096.000
284.329; -144.250;-1055.000; -964.000
284.469;  -72.700; -516.000; -591.000
284.608;  -75.350; -559.000; -598.000
284.748;  -92.575; -614.000; -570.000
284.887;   10.975;  -87.000;  -20.000
285.027; -130.525; -844.000; -892.000
285.166;  -42.600; -192.000; -249.000
285.306;   25.150; -116.000;  -33.000
285.445;  -26.050; -229.000; -343.000
285.584;  -98.875; -630.000; -494.000
285.724;  -38.050; -282.000; -322.000
285.863; -116.400; -857.000; -507.000
286.002;  -51.425; -366.000; -276.000
286.142; -112.725; -715.000; -622.000
286.281;  -65.125; -525.000; -493.000
286.420;  -87.425; -554.000; -417.000
286.560;   82.275;  653.000;  623.000
286.699; -132.725; -958.000; -912.000
286.838;  -92.700; -590.000; -591.000
286.978;  -93.625; -533.000; -537.000
287.117; -138.075;-1085.000; -950.000
287.256;  -31.275; -228.000; -211.000
287.395;  -44.050; -197.000; -378.000
287.535;  -46.825; -370.000; -298.000
287.674;  -81.325; -509.000; -484.000
287.813;   53.000;  661.000;  533.000
287.952; -132.325;-1010.000; -871.000
288.091; -155.050;-1049.000; -915.000
288.231;   18.575;   13.000;   15.000
288.370; -167.650;-1217.000;-1200.000
288.509;  -97.875; -728.000; -645.000
288.648;  -91.950; -770.000; -548.000
288.787;  -15.150; -243.000;  -87.000
288.926;  -67.775; -454.000; -475.000
289.065;  123.950;  859.000;  672.000
289.204;  -52.450; -377.000; -217.000
289.344;  -82.275; -791.000; -690.000
289.483;   28.025;  416.000;  304.000
289.622;  -35.250; -291.000; -149.000
289.761;   -4.375; -309.000; -166.000
289.900; -112.625; -785.000; -626.000
290.039;  -22.875;  -12.000;  -95.000
290.178;  -35.850; -274.000; -180.000
290.317;  -84.750; -618.000; -479.000
290.456;  -70.325; -463.000; -451.000
290.595; -133.475; -961.000; -833.000
290.734; -129.450; -904.000; -891.000
290.873;  -62.575; -456.000; -420.000
291.011; -107.200; -833.000; -843.000
291.150; -105.000; -770.000; -682.000
291.289;  -30.525; -343.000; -110.000
291.428;  -96.100; -599.000; -480.000
291.567;  -54.025; -370.000; -442.000
291.706;  -17.050;  109.000;  154.000
291.845;  -85.750; -597.000; -505.000
291.984; -158.725;-1234.000;-1061.000
292.122;   64.400;  602.000;  582.000
292.261;   35.075;  620.000;  463.000
292.400;    2.750; -144.000;  211.000
292.539; -131.750; -959.000; -813.000
292.678;  -35.650; -325.000; -300.000
292.816; -148.925;-1136.000; -965.000
292.955;  -78.400; -844.000; -684.000
293.094;  -21.300; -173.000; -337.000
293.233;  -57.575; -556.000; -400.000
293.371;  -38.850; -225.000;  -84.000
293.510; -107.100; -866.000; -780.000
293.649; -127.100; -959.000; -924.000
293.787;  -41.300;-1083.000;-1012.000
293.926;    7.575; -113.000;  -32.000
294.065;  -53.775; -379.000; -290.000
294.203;   31.125;  298.000;  406.000
294.342;   28.400;   74.000;  156.000
294.481; 6105.625;51180.000; -836.000
294.619;  -38.475; -425.000; -582.000
294.758; -151.850;-1230.000;-1137.000
294.896;   92.050; -125.000;    5.000
295.035; -107.575;-1040.000;-1006.000
295.174; -117.500;-1082.000; -954.000
295.312;  -48.000; -323.000; -203.000
295.451;   -4.325; -307.000; -428.000
295.589;  -49.625; -389.000; -518.000
295.728;   18.575; -292.000; -165.000
295.866;    9.100;  -36.000;  -51.000
296.005;  -56.700; -584.000; -341.000
296.143;  -72.275; -558.000; -596.000
296.282;  -99.050; -957.000; -881.000
296.420;  -63.225; -657.000; -557.000
296.559;  -68.900; -892.000; -633.000
296.697;   44.950; -847.000; -665.000
296.835;   91.050;-1141.000;-1002.000
296.974;   40.900;  -23.000;   39.000
297.112;   29.975; -443.000; -504.000
297.251;  -59.550; -815.000; -755.000
297.389;  115.325; -576.000; -438.000
297.527;   41.575; -145.000;  -83.000
297.666;  -46.400; -486.000; -438.000
297.804;  -51.775; -404.000; -264.000
297.942;   -6.875; -136.000; -161.000
298.081;   -6.625; -183.000;   63.000
298.219;   70.700;  -17.000;  -19.000
298.357;   64.725; -144.000;  -71.000
298.495;   47.350; -810.000; -812.000
298.634;   91.100;  245.000;  219.000
298.772;   82.625; -220.000; -338.000
298.910;  -38.300; -309.000; -182.000
299.048;  -11.525; -130.000; -153.000
299.187;  -30.725; -350.000; -250.000
299.325;   25.650;   52.000;  122.000
299.463;   74.550; -389.000; -299.000
299.601;  130.275; -327.000; -271.000
299.739;  -90.675; -908.000; -883.000
299.877;  -67.975; -791.000; -703.000
300.016;  -39.975;-1095.000; -935.000
300.154;  169.825;  -19.000; -161.000
300.292;   84.025; -428.000; -348.000
300.430;   37.175; -408.000; -291.000
300.568;  -96.975; -940.000; -874.000
300.706;  -40.050; -366.000; -469.000
300.844;  -64.025;-1108.000; -979.000
300.982;  120.250;  246.000;  282.000
301.120; -102.650; -965.000; -866.000
301.258;  -48.875; -812.000; -705.000
301.396;   38.075;  104.000;  -41.000
301.534;  116.075; -218.000; -293.000
301.672;   -6.125; -664.000; -521.000
301.810;   58.150; -613.000; -545.000
301.948;  140.225;   53.000;  149.000
302.086;  725.875; -250.000;  -32.000
302.224; 1111.125; -610.000; -585.000
302.362;   62.050; -558.000; -622.000
302.500;  -15.200; -923.000; -893.000
302.638;  117.700;  128.000;  245.000
302.776;   -3.650; -352.000; -408.000
302.913;   26.025;  447.000;  236.000
303.051;  -11.625;  -86.000;  -23.000
303.189;   55.850;   90.000;  118.000
303.327;  -35.225; -341.000; -256.000
303.465;  -85.850; -832.000; -588.000
303.603; -104.875; -805.000; -604.000
303.740;  117.325;  417.000;  241.000
303.878;   46.375; -800.000; -759.000
304.016;  -94.175; -915.000; -790.000
304.154; -107.925;-1123.000;-1152.000
304.291;  -30.550; -505.000; -554.000
304.429;   12.100;  102.000;   74.000
304.567; -119.575; -908.000; -893.000
304.705;  -51.775; -408.000; -515.000
304.842;  126.275; -616.000; -540.000
304.980;   58.825;  215.000;   35.000
305.118;   62.450; -367.000; -365.000
305.255;  -62.900; -945.000; -927.000
305.393;   59.575;  178.000;  239.000
305.531;  -93.400;-1173.000; -956.000
305.668;  -68.275; -663.000; -582.000
305.806;  136.325; -358.000; -439.000
305.943;  145.075; -629.000; -637.000
306.081;   73.850; -378.000; -267.000
306.219;  -98.550; -863.000; -748.000
306.356;    3.075;  158.000;   27.000
306.494;   95.675;  981.000;  761.000
306.631;   -7.000;  -11.000;  -55.000
306.769;    8.050; -613.000; -485.000
306.906;  -22.150; -284.000; -258.000
307.044;  -62.800; -473.000; -488.000
307.181;  -69.575; -410.000; -332.000
307.319;    6.375;  112.000;   87.000
307.456; -170.050;-1191.000;-1153.000
307.594; -107.100; -980.000; -727.000
307.731;   -6.600; -371.000; -164.000
307.868;  -10.625;  -15.000;   20.000
308.006; -126.675; -961.000; -847.000
308.143;  -77.225; -618.000; -330.000
308.281;  201.450;  -37.000; -254.000
308.418;   -4.900; -748.000; -640.000
308.555;  -77.825; -400.000; -250.000
308.693;  -75.175; -577.000; -573.000
308.830; -113.975; -712.000; -657.000
308.967;  -22.725; -215.000;  -95.000
309.105;  -55.600; -507.000; -396.000
309.242;   49.775; -468.000; -367.000
309.379;  368.125; -577.000; -655.000
309.517;  -59.225; -936.000; -948.000
309.654; -105.325; -910.000; -734.000
309.791;  -70.225; -662.000; -580.000
309.928; -114.850; -977.000; -914.000
310.065;  179.200;  819.000;  697.000
310.203;    3.450; -825.000; -850.000
310.340;    9.775; -465.000; -321.000
310.477;  -74.725; -412.000; -516.000
310.614;  -65.025; -383.000; -473.000
310.751;  -69.050; -427.000; -518.000
310.889;  -18.275;    1.000;   11.000
311.026; -157.600;-1161.000; -939.000
311.163;  -42.375; -386.000; -380.000
311.300;  -87.500; -512.000; -479.000
311.437;  -76.375; -658.000; -619.000
311.574; -169.025;-1226.000; -985.000
311.711;  -63.025; -595.000; -433.000
311.848;  -41.250; -380.000; -388.000
311.985;   12.650;  270.000;   93.000
312.122; -124.450; -932.000; -762.000
312.259; -120.600; -941.000; -994.000
312.396;  -71.575; -508.000; -551.000
312.533;  -95.475; -812.000; -790.000
312.670; -131.525;-1070.000; -898.000
312.807;  -41.500; -352.000; -367.000
312.944;  -81.600; -513.000; -611.000
313.081;  -33.075; -150.000; -415.000
313.218; -102.900;-1111.000; -867.000
313.355;   23.075; -531.000; -449.000
313.492;    4.750; -455.000; -292.000
313.629;  142.775;  815.000;  735.000
313.766; -155.150;-1176.000;-1008.000
313.902;  -23.750; -186.000;   21.000
314.039;  -68.050; -372.000; -289.000
314.176;   17.725;  286.000;  192.000
314.313;  -79.400; -569.000; -473.000
314.450;  -68.875; -788.000; -684.000
314.587;  -61.775; -468.000; -480.000
314.723;   -0.325;  -78.000;  130.000
314.860;   38.100;  318.000;  332.000
314.997;   30.475;  223.000;  142.000
315.134;  -30.250; -385.000; -368.000
315.270;  -21.250; -480.000; -496.000
315.407; -132.150;-1094.000; -967.000
315.544;  -43.125; -657.000; -538.000
315.681;  -48.400; -681.000; -565.000
315.817;   34.675; -133.000; -176.000
315.954;   26.300; -613.000; -392.000
316.091; -109.250;-1045.000;-1023.000
316.227;  -29.175;  -71.000; -179.000
316.364;    5.575;   23.000;    6.000
316.500;  -40.550; -113.000; -300.000
316.637;  -42.475; -181.000; -302.000
316.774;  -96.800; -625.000; -358.000
316.910;  -97.600; -598.000; -629.000
317.047;  -65.000; -487.000; -351.000
317.183;  -40.575; -435.000; -566.000
317.320;  -19.575; -367.000; -321.000
317.456;  -69.925; -733.000; -805.000
317.593; -100.275; -598.000; -641.000
317.729;   -4.025;  168.000;  -67.000
317.866; -189.050;-1434.000;-1285.000
318.002;  -90.950; -708.000; -948.000
318.139;  -85.800; -883.000; -867.000
318.275; -107.250;-1003.000; -738.000
318.412;  -61.650; -517.000; -336.000
318.548;  -13.975; -751.000; -720.000
318.685;  -90.675; -985.000; -888.000
318.821;  -94.075; -762.000; -735.000
318.957;  -26.550;   34.000;  -23.000
319.094;   37.200;  297.000;  154.000
319.230;  -51.325; -756.000; -742.000
319.367;  167.075; -471.000; -520.000
319.503;   72.475; -538.000; -436.000
319.639;  -82.400; -877.000; -793.000
319.775;  -53.100; -750.000; -685.000
319.912;  -45.250; -424.000; -519.000
320.048;  -82.700;-1184.000;-1184.000
320.184;   73.025;   59.000;   70.000
320.321;  -63.550; -497.000; -467.000
320.457;   59.075;  475.000;  662.000
320.593;  -63.875; -375.000; -382.000
320.729;  -98.900; -732.000; -734.000
320.866;  -70.150; -577.000; -635.000
321.002;  -79.575; -759.000; -809.000
321.138;  -11.750; -135.000; -211.000
321.274;   75.600; -148.000; -115.000
321.410;  -32.125; -585.000; -353.000
321.546;  -18.375;-1011.000; -911.000
321.683;   69.450;  400.000;  185.000
321.819;   22.775;  -48.000; -117.000
321.955; -109.550; -743.000; -722.000
322.091;  -38.675; -585.000; -540.000
322.227;   -9.625; -382.000; -202.000
322.363;   -4.375; -320.000; -215.000
322.499;  -55.300; -343.000; -331.000
322.635;  169.175;  636.000;  443.000
322.771;   34.000; -139.000;   12.000
322.907;  105.825;  129.000;  327.000
323.043;  -10.625; -115.000; -206.000
323.179;  -24.225; -394.000; -363.000
323.315;   32.175; -401.000; -371.000
323.451;  114.475; -328.000; -236.000
323.587;   66.275;  -60.000;  -77.000
323.723;   28.800; -682.000; -601.000
323.859;  -11.400; -258.000;  -76.000
323.995;  -33.000; -467.000; -409.000
324.131; -125.925; -967.000; -892.000
324.267;  -40.400; -254.000; -276.000
324.402; -112.425; -960.000; -983.000
324.538;  -13.575; -279.000; -104.000
324.674;    8.825;  164.000;   77.000
324.810;  174.550;  226.000;  308.000
324.946;   19.900; -810.000; -658.000
325.082;  -64.875; -568.000; -475.000
325.217;   -9.275;  -62.000;   16.000
325.353;  -88.725; -764.000; -659.000
325.489;  -75.900; -540.000; -506.000
325.625;  -80.300; -579.000; -525.000
325.760;   49.300;  517.000;  376.000
325.896;  -20.025; -515.000; -702.000
326.032;  -62.525; -403.000; -352.000
326.168;  -64.375; -462.000; -369.000
326.303;  -58.275; -352.000; -461.000
326.439;  -25.000; -336.000; -276.000
326.575;   -6.475; -190.000;  -29.000
326.710;    4.775; -156.000;  -30.000
326.846;  -14.150;  146.000;  103.000
326.982;  -82.775; -530.000; -548.000
327.117;  -69.900; -481.000; -442.000
327.253;  -81.700; -745.000; -742.000
327.388; -130.600;-1137.000;-1153.000
327.524;  -45.650; -811.000; -578.000
327.659;  -27.750;  -58.000;  -22.000
327.795;   -6.825;   69.000;   45.000
327.931;  -99.950; -723.000; -499.000
328.066;  -34.850; -417.000; -276.000
328.202;  -11.800;   12.000; -129.000
328.337;   96.425;  957.000;  713.000
328.473;   28.000;  -12.000;  -74.000
328.608;  -17.225; -256.000; -267.000
328.743;  -76.350; -799.000; -664.000
328.879;   16.775;  214.000;  114.000
329.014;  -36.000; -102.000; -122.000
329.150;  -77.725; -358.000; -483.000
329.285;  -83.125; -465.000; -466.000
329.421;  -55.025; -548.000; -246.000
329.556;  -34.425;  -36.000;   85.000
329.691; -107.600; -633.000; -615.000
329.827;  -81.325; -626.000; -480.000
329.962;  -51.000;  131.000; -301.000
330.097;  -91.000; -673.000; -585.000
330.233;  -56.000; -410.000; -223.000
330.368; -128.050; -839.000; -628.000
330.503;  -26.400;    3.000;   98.000
330.638;   13.175;  -93.000; -125.000
330.774;  -40.075; -609.000; -530.000
330.909;  -50.075; -434.000; -244.000
331.044;  -94.400; -714.000; -708.000
331.179; -161.100;-1217.000;-1109.000
331.315;    7.725;   77.000;   20.000
331.450;   -0.775;  157.000;  285.000
331.585;  -78.825; -805.000; -706.000
331.720; -100.900; -510.000; -460.000
331.855;   -2.975;  -35.000; -102.000
331.990;  222.500;   62.000;  138.000
332.126;  117.125; -110.000;   71.000
332.261;  -23.825; -379.000; -265.000
332.396;   -8.175; -135.000; -242.000
332.531;  -99.075;-1074.000;-1031.000
332.666;   44.925; -519.000; -363.000
332.801; -105.525; -726.000; -807.000
332.936;  -27.825; -192.000; -122.000
333.071; -164.925; -870.000; -817.000
333.206;   17.575;  307.000;  379.000
333.341;   31.775;  344.000;  418.000
333.476;  -89.650; -627.000; -623.000
333.611;  -37.000; -251.000; -173.000
333.746;  -43.975; -381.000; -464.000
333.881; -121.700; -973.000; -935.000
334.016; -119.025; -936.000; -917.000
334.151; -119.800; -746.000; -702.000
334.286;   29.900;  152.000;  186.000
334.421;   -7.650; -125.000; -178.000
334.556;  -82.075; -611.000; -567.000
334.690;  -76.900; -631.000; -577.000
334.825;   57.250;  381.000;   83.000
334.960;  -53.100; -285.000; -413.000
335.095;    2.525;  135.000;  -91.000
335.230; -106.275; -722.000; -738.000
335.365; -140.975;-1084.000; -990.000
335.499; -125.825;-1108.000;-1037.000
335.634;   23.850;    9.000;  534.000
335.769; -102.125; -755.000; -720.000
335.904;  -48.300; -603.000; -561.000
336.038;  -53.325; -735.000; -657.000
336.173; -103.800;-1206.000;-1194.000
336.308;    7.175; -116.000; -189.000
336.443;    8.175; -544.000; -634.000
336.577;  -67.550; -936.000; -787.000
336.712;   80.800;   -4.000;  -12.000
336.847;  -24.625; -724.000; -607.000
336.981;   78.775; -272.000; -208.000
337.116;  315.450;  615.000;  501.000
337.250;  181.400; -434.000; -421.000
337.385;  242.200; -297.000; -208.000
337.520;   68.325; -632.000; -603.000
337.654;  -39.225; -215.000; -126.000
337.789; -124.450; -989.000; -933.000
337.923;  -23.500; -104.000; -205.000
338.058;  -89.125; -673.000; -738.000
338.192;  -27.200; -611.000; -488.000
338.327;   -9.575;  -18.000; -155.000
338.461;  -65.925; -299.000; -469.000
338.596;  -98.375; -780.000; -638.000
338.730;  -96.625; -767.000; -803.000
338.865;   70.525;  -46.000; -140.000
338.999;  -59.250; -846.000; -702.000
339.134;  -25.225; -634.000; -536.000
339.268;    7.300; -741.000; -603.000
339.403;  348.100; -740.000; -775.000
339.537;   95.825; -894.000; -820.000
339.671; -109.075; -829.000; -813.000
339.806;  -53.425; -556.000; -512.000
339.940;    0.575; -261.000; -235.000
340.074;  -93.375; -685.000; -510.000
340.209;  -35.075; -351.000; -230.000
340.343;  -80.250; -517.000; -573.000
340.477;  152.825;  998.000; 1036.000
340.612;  -60.200;-1033.000; -900.000
340.746;  122.850; -199.000; -243.000
340.880;  -59.150; -924.000; -785.000
341.014;  -17.850;  -45.000; -154.000
341.149; -134.925; -756.000; -718.000
341.283; -105.925; -839.000; -754.000
341.417;  -96.475;-1124.000; -938.000
341.551;  162.675; -768.000; -708.000
341.685;  -27.425; -633.000; -611.000
341.820;  -52.500; -562.000; -493.000
341.954;  -51.150; -218.000; -349.000
342.088; -147.450;-1102.000;-1019.000
342.222;   63.100;  565.000;  618.000
342.356;  -69.250; -395.000; -335.000
342.490;  -89.475; -880.000; -841.000
342.624;  -31.425; -339.000; -242.000
342.758;   12.050; -364.000; -312.000
342.892;  -70.000; -710.000; -585.000
343.026;  -52.625;  -58.000; -116.000
343.160;  -63.700; -426.000; -376.000
343.294;  -84.200; -474.000; -337.000
343.428;  -21.350; -488.000; -448.000
343.562;  -10.050; -172.000;  -23.000
343.696;  -32.800; -385.000; -314.000
343.830;  -22.250; -362.000; -356.000
343.964;   34.500; -231.000; -168.000
344.098; 1083.550;  199.000;   70.000
344.232;  888.625; -266.000; -127.000
344.366;  108.300; -567.000; -453.000
344.500;   83.650; -665.000; -744.000
344.634;   37.025; -324.000; -164.000
344.768;   -1.525; -531.000; -341.000
344.902;   15.100;  278.000;  256.000
345.035;  -68.975; -556.000; -496.000
345.169; -136.675; -933.000; -656.000
345.303;  -21.200; -308.000; -482.000
345.437;  -60.050; -826.000; -717.000
345.571;  -66.975; -675.000; -594.000
345.704;  -79.375; -309.000; -532.000
345.838;   -7.925; -331.000; -284.000
345.972;  -35.225; -543.000; -495.000
346.106;  163.100; -179.000; -190.000
346.239;  428.475; -312.000; -243.000
346.373;    6.275; -343.000; -302.000
346.507; -154.225; -950.000; -962.000
346.640;  164.050;  -30.000;   13.000
346.774;  -24.525; -650.000; -797.000
346.908;  -14.950; -138.000;  -11.000
347.041;  -94.175; -646.000; -593.000
347.175;    3.325;  259.000;   27.000
347.309;  -65.875; -698.000; -628.000
347.442;  -97.200; -883.000; -732.000
347.576;  298.175;  670.000;  668.000
347.709;  244.675; -123.000;  -52.000
347.843;  -83.525; -933.000; -825.000
347.976;   51.850;  235.000;  294.000
348.110; -182.425;-1268.000;-1186.000
348.243; -108.300; -679.000; -772.000
348.377;  -19.850;  -26.000;   60.000
348.510;   41.600;  403.000;  540.000
348.644;  -49.750;  -37.000; -159.000
348.777;   11.475;  180.000;  191.000
348.911;  -42.525; -142.000; -112.000
349.044;  196.275;  471.000;  448.000
349.178;  216.125;-1069.000;-1006.000
349.311;  119.950;  141.000;  255.000
349.444;   -2.100; -927.000; -813.000
349.578;  -16.175; -347.000; -200.000
349.711;  -87.175; -959.000; -862.000
349.845;    5.125; -661.000; -591.000
349.978; -154.150;-1224.000;-1137.000
350.111;  -85.550; -546.000; -612.000
350.244;  -80.500; -596.000; -700.000
350.378;   21.175; -392.000; -393.000
350.511;  -76.825; -393.000; -426.000
350.644; -103.700; -808.000; -806.000
350.778;    9.300;  168.000;  104.000
350.911;    5.125;  134.000;  140.000
351.044;  -95.125; -685.000; -615.000
351.177;  -41.275; -321.000; -281.000
351.310;  -20.425;    3.000; -131.000
351.444;  -62.925; -888.000; -788.000
351.577;  141.475;  140.000;   90.000
351.710;   93.875;  593.000;  417.000
351.843;  -42.750; -165.000;  -77.000
351.976;    5.825;  149.000;  -79.000
352.109;  -80.125; -621.000; -612.000
352.242;  -10.775; -464.000; -419.000
352.376;  -47.700; -580.000; -636.000
352.509;  211.550; -437.000; -356.000
352.642;   35.450; -654.000; -604.000
352.775;   83.375; -141.000;  -98.000
352.908; -116.050; -933.000; -904.000
353.041;  -97.425; -814.000; -824.000
353.174;  -54.350; -551.000; -424.000
353.307;  -73.725; -753.000; -764.000
353.440;   66.400;  541.000;  453.000
353.573; -115.050; -957.000;-1008.000
353.706;  -52.950; -384.000; -558.000
353.839;  -12.350; -264.000; -220.000
353.971;  -83.550; -657.000; -512.000
354.104;  -87.025; -896.000; -835.000
354.237;  -21.675; -627.000; -662.000
354.370;  -77.350; -846.000; -879.000
354.503; -163.575;-1231.000;-1308.000
354.636;  -32.350; -529.000; -348.000
354.769; -124.450; -937.000; -860.000
354.902;  -13.450; -230.000; -139.000
355.034;  -27.175; -164.000; -220.000
355.167;  -14.275; -262.000; -162.000
355.300;  -84.200;-1061.000; -880.000
355.433;  919.725;  -71.000;  -14.000
355.565; 1456.950; -402.000; -384.000
355.698;  377.825; -356.000; -296.000
355.831;    7.775; -882.000; -801.000
355.964;  107.825; -285.000; -170.000
356.096;  -72.400; -856.000; -843.000
356.229;   21.825; -523.000; -530.000
356.362;  293.750; -373.000; -266.000
356.494;  581.000; -229.000; -162.000
356.627;  544.000;  269.000;  377.000
356.760;  660.050;  120.000;   53.000
356.892;  919.625; -286.000; -601.000
357.025;  741.875;  403.000;  389.000
357.157;  733.450; -167.000; -179.000
357.290;  622.400; -856.000; -713.000
357.423;  200.725; -667.000; -556.000
357.555;  141.775; -217.000; -228.000
357.688;  154.175; -483.000; -364.000
357.820;  555.225; -870.000; -877.000
357.953; 4237.450; -563.000; -589.000
358.085;  956.575; -632.000; -612.000
358.218; 1407.675;-1131.000; -932.000
358.350;  252.750;  -58.000;  312.000
358.483;  -94.500;-1300.000;-1187.000
358.615;   11.125;-1182.000;-1078.000
358.747;  -37.125;-1187.000;-1058.000
358.880;   47.275; -810.000; -744.000
359.012;    9.850; -376.000; -202.000
359.145;  -30.850; -480.000; -511.000
359.277;   84.900; -962.000; -913.000
359.409; 3512.150;  536.000;  231.000
359.542;  936.750; -738.000; -688.000
359.674;   80.050;   46.000;   13.000
359.806;  -79.550; -565.000; -438.000
359.939;  -42.425; -617.000; -516.000
360.071;  -18.675; -583.000; -579.000
360.203;  -12.175; -411.000; -364.000
360.335;   51.425;  164.000;  -16.000
360.468;  239.725; -249.000; -307.000
360.600; 2776.600; -547.000; -454.000
360.732; 2742.350; -546.000; -423.000
360.864;  398.300;-1216.000;-1044.000
360.996;  344.300; -516.000; -554.000
361.129;   60.775; -389.000; -598.000
361.261;   28.600;  110.000; -113.000
361.393;  -25.050; -252.000; -214.000
361.525;   26.100;   94.000;  244.000
361.657;  -31.500; -821.000; -703.000
361.789;    9.725; -139.000; -155.000
361.921;  305.500; -642.000; -593.000
362.053;  300.175;  524.000;  541.000
362.185;   59.450;  288.000;   72.000
362.318;  -66.550; -709.000; -705.000
362.450;  120.125;  294.000;  444.000
362.582;  170.150; -913.000; -870.000
362.714;  -30.325; -353.000; -332.000
362.846;  -84.975; -606.000; -490.000
362.978; -152.100; -941.000; -811.000
363.109;   66.475; -161.000; -260.000
363.241;  523.075; -739.000; -749.000
363.373;  423.550; -649.000; -564.000
363.505;  612.900; -186.000;  -91.000
363.637;  162.175; -787.000; -601.000
363.769; -124.500;-1067.000;-1080.000
363.901;  -47.650; -596.000; -654.000
364.033; -111.950;-1103.000;-1062.000
364.165;    1.850; -283.000; -283.000
364.296;   80.175; -316.000; -177.000
364.428;   56.175;-1344.000;-1220.000
364.560;  -60.075; -679.000; -661.000
364.692;  -64.475; -738.000; -835.000
364.824;  336.175; -588.000; -456.000
364.955;  448.975; -402.000; -564.000
365.087;  835.650;-1097.000; -852.000
365.219;   25.300; -686.000; -816.000
365.351;  -60.375; -526.000; -572.000
365.482;   61.500;  300.000;  240.000
365.614;  -36.450; -402.000; -314.000
365.746; -102.350; -729.000; -752.000
365.877;  -91.525; -706.000; -672.000
366.009;  234.000;  -35.000;  -62.000
366.141;  -91.375;-1249.000;-1134.000
366.272;  -99.500; -803.000; -719.000
366.404; -107.200;-1005.000; -874.000
366.535;   -7.150; -139.000;  -12.000
366.667;  -90.625; -644.000; -649.000
366.799;   42.250;  353.000;  203.000
366.930; -110.850; -862.000; -996.000
367.062;  110.750; -639.000; -613.000
367.193;  116.650; -872.000; -842.000
367.325;  -58.475; -580.000; -684.000
367.456;   79.450; -246.000;   31.000
367.588;  156.900; -371.000; -318.000
367.719;   27.175;  -44.000;  -45.000
367.851;    0.450; -222.000; -241.000
367.982;  -37.200; -875.000; -732.000
368.113;  142.975; -475.000; -358.000
368.245; -107.375; -960.000; -841.000
368.376;  -29.150; -254.000; -302.000
368.508;  -37.425; -188.000; -263.000
368.639; -131.725;-1166.000;-1034.000
368.770;   -0.300; -670.000; -589.000
368.902;  -55.650; -836.000; -926.000
369.033; -109.500; -906.000; -855.000
369.164;  -37.325; -720.000; -653.000
369.296; -114.525; -452.000; -601.000
369.427;    2.725; -209.000; -144.000
369.558;  -44.250; -593.000; -377.000
369.689;  -87.300; -721.000; -569.000
369.821; -129.375; -951.000; -845.000
369.952;  -15.425;   42.000; -108.000
370.083;  -51.925; -229.000; -108.000
370.214;  -92.225; -735.000; -650.000
370.345;  -10.475;   65.000;   81.000
370.477;  -83.800; -810.000; -790.000
370.608;  275.575; -328.000; -264.000
370.739;  -12.850;-1233.000;-1292.000
370.870;  -20.425;-1102.000; -923.000
371.001;  124.650; -378.000; -467.000
371.132;  -71.950; -754.000; -735.000
371.263;  -18.550;  -42.000; -148.000
371.394; -145.175; -841.000; -748.000
371.525;   24.600;  345.000;  225.000
371.657;  -79.675; -808.000; -670.000
371.788;   83.275;  103.000;  199.000
371.919;  201.500; -384.000; -304.000
372.050; 4215.775;  -91.000; -156.000
372.181; 1307.400; -188.000; -294.000
372.311;  435.975;   42.000; -127.000
372.442;   62.300; -457.000; -451.000
372.573;   -8.375; -444.000; -340.000
372.704; -123.075;-1008.000; -980.000
372.835;  107.725; -228.000; -289.000
372.966;  -45.100; -646.000; -554.000
373.097;  -51.000; -575.000; -711.000
373.228;  -26.625; -717.000; -542.000
373.359;  182.325; -824.000; -536.000
373.490; 1124.475; -881.000; -727.000
373.620; 1437.575;-1001.000; -803.000
373.751; 2112.550; -332.000; -396.000
373.882;  975.425; -663.000; -733.000
374.013;   90.775; -449.000; -262.000
374.143;  -23.925; -581.000; -659.000
374.274;  -81.700; -987.000; -908.000
374.405;  198.050; -388.000; -276.000
374.536;  531.250; -526.000; -387.000
374.666; 1389.000; -759.000; -807.000
374.797;  296.475; -817.000; -868.000
374.928; 1052.300; -710.000; -560.000
375.058; 1102.200; -535.000; -500.000
375.189;  108.125;  -59.000;  -93.000
375.320;  -99.750; -928.000;-1034.000
375.450;  -19.775; -625.000; -616.000
375.581;  -60.225; -526.000; -436.000
375.712;  -20.925; -574.000; -250.000
375.842;  383.850; -438.000; -415.000
375.973;  276.225; -554.000; -513.000
376.103;  -33.875; -665.000; -648.000
376.234;  -82.475; -531.000; -552.000
376.364;   -4.600; -944.000; -867.000
376.495;  373.250;  925.000;  529.000
376.625;   17.950; -472.000; -485.000
376.756;   85.050; -709.000; -678.000
376.886;  -51.475;-1178.000;-1026.000
377.017;   41.125;-1048.000;-1061.000
377.147;  321.250; -786.000; -782.000
377.278;   52.675;  174.000;  228.000
377.408; -116.450; -801.000; -815.000
377.538;  -93.400; -707.000; -693.000
377.669;  -98.750; -537.000; -613.000
377.799;  -67.400; -645.000; -635.000
377.929;  -51.675; -610.000; -428.000
378.060; -137.650; -781.000; -847.000
378.190;  -60.225; -726.000; -531.000
378.320;  -49.275; -401.000; -406.000
378.451;   -0.425; -131.000;  -22.000
378.581;   -6.225;  -67.000; -110.000
378.711;  157.950; 1035.000;  866.000
378.841;   -7.650; -533.000; -675.000
378.972;  -64.175; -871.000; -751.000
379.102;   11.225; -652.000; -579.000
379.232;   -6.550; -126.000;  -73.000
379.362; -100.525;-1001.000; -885.000
379.492;   20.300; -373.000; -424.000
379.623;  133.350;    0.000;  111.000
379.753;  -77.550;-1107.000; -974.000
379.883;  233.725;   59.000;  156.000
380.013;   49.975;-1081.000;-1017.000
380.143;  -84.600;-1097.000;-1056.000
380.273;  -90.750; -985.000; -861.000
380.403;    3.650; -344.000; -257.000
380.533;   -8.750; -651.000; -664.000
380.663;   88.800;  173.000;  128.000
380.793;  -80.650;-1027.000;-1074.000
380.923;  -32.550; -103.000;  -34.000
381.053;  -90.050; -613.000; -623.000
381.183;  -38.900; -106.000; -248.000
381.313;   62.950; -656.000; -470.000
381.443;   43.650; -692.000; -473.000
381.573;  261.200; -402.000; -409.000
381.703;  381.425;-1249.000;-1095.000
381.833; -104.125;-1454.000;-1336.000
381.963;  114.375; -134.000;  -87.000
382.093; 1620.475; -925.000; -909.000
382.223;  537.550; -713.000; -602.000
382.353;    0.000; -801.000; -608.000
382.482;  472.800;-1091.000; -964.000
382.612;  924.800; -872.000; -644.000
382.742;  520.775; -695.000; -622.000
382.872;  333.550; -565.000; -551.000
383.002;   80.750;  347.000; -132.000
383.131;  -17.000; -226.000; -160.000
383.261;  -17.125; -706.000; -768.000
383.391;  300.825; -552.000; -377.000
383.521; 3036.050;  451.000;  263.000
383.650;  704.075; -947.000; -904.000
383.780;  -23.350; -783.000; -656.000
383.910;  109.325;  880.000;  802.000
384.039;   47.150; -794.000; -656.000
384.169;  265.525;-1205.000;-1017.000
384.299;    7.950; -650.000; -662.000
384.428;  -82.775; -764.000; -680.000
384.558;  -44.075; -308.000; -275.000
384.687;  -40.150; -414.000; -334.000
384.817;   16.025;   75.000;   -2.000
384.947;   25.425; -234.000; -141.000
385.076;  321.775;  982.000;  912.000
385.206;   96.200;  369.000;  480.000
385.335;  -23.325; -549.000; -417.000
385.465;  -67.925; -655.000; -663.000
385.594;  147.475;  -53.000;  -44.000
385.724;  537.575; -868.000; -838.000
385.853;  154.400; -296.000; -270.000
385.982; 1613.700; -743.000; -787.000
386.112; 2605.275;-1052.000; -871.000
386.241;  184.750; -307.000; -312.000
386.371;   34.650; -174.000;  -87.000
386.500;   13.975; -825.000; -789.000
386.629;   52.325; -874.000; -817.000
386.759;   75.500;  -43.000;   68.000
386.888;   -5.275; -170.000; -250.000
387.017;  -78.500; -648.000; -620.000
387.147;  -80.575; -771.000; -798.000
387.276;   15.150; -410.000; -397.000
387.405;   25.600; -398.000; -342.000
387.535;  -36.675; -452.000; -361.000
387.664;  -48.100; -692.000; -620.000
387.793;   68.175; -198.000; -113.000
387.922;  615.775;  255.000;  200.000
388.052;   48.000; -576.000; -423.000
388.181;   31.050; -342.000; -472.000
388.310;   10.875; -889.000; -710.000
388.439;  -29.275; -749.000; -742.000
388.568;  219.525;  365.000;  244.000
388.697; 1278.125; -756.000; -653.000
388.826;  277.200; -768.000; -666.000
388.956;   84.750; -285.000; -307.000
389.085;  -27.775; -347.000; -287.000
389.214; -119.850; -842.000; -872.000
389.343;  -68.925; -645.000; -413.000
389.472;  386.725;  126.000;  149.000
389.601;  522.925;   91.000;    0.000
389.730;   25.700; -568.000; -687.000
389.859;   71.000;  226.000;   46.000
389.988;  224.575; -423.000; -408.000
390.117;  176.700; -168.000; -146.000
390.246;   -1.850; -331.000; -320.000
390.375;  145.925; -673.000; -626.000
390.504;  -53.850; -703.000; -621.000
390.633;  -97.350; -672.000; -726.000
390.761;  -52.500; -732.000; -645.000
390.890;   34.025;   -4.000; -130.000
391.019;  -28.325; -421.000; -441.000
391.148; -134.025; -826.000; -855.000
391.277;  -68.775; -576.000; -493.000
391.406;  -74.800; -821.000; -805.000
391.534;   24.800;  574.000; -301.000
391.663;  -52.600; -583.000; -645.000
391.792;  -73.925; -673.000; -701.000
391.921;  107.725;   -3.000;   15.000
392.050;  239.900; -287.000; -228.000
392.178;  -22.400;-1206.000;-1061.000
392.307;  186.650; -758.000; -712.000
392.436;  120.050; -427.000; -641.000
392.564;   28.475;  166.000;   -6.000
392.693;  -80.050; -860.000; -682.000
392.822;  258.300; -529.000; -534.000
392.950;  138.175; -880.000; -714.000
393.079;  369.950; -188.000; -328.000
393.208;   54.425; -488.000; -511.000
393.336;   -6.350; -170.000; -145.000
393.465;  -54.775; -317.000; -199.000
393.593;   -2.275;   62.000;   79.000
393.722; -157.150;-1121.000; -916.000
393.850;  -34.375; -188.000;  -61.000
393.979; -163.650; -926.000; -805.000
394.107;  -56.900; -517.000; -537.000
394.236;  -15.100; -570.000; -507.000
394.364;  239.075;  383.000;  206.000
394.493;  424.050; -911.000; -767.000
394.621;  -20.125; -955.000; -916.000
394.750;  680.350; -873.000; -923.000
394.878; 2775.900; -247.000; -149.000
395.007; 3859.650; -721.000; -807.000
395.135;  294.925; -790.000; -721.000
395.263;  -78.025;-1038.000;-1040.000
395.392;    5.375;  -25.000; -107.000
395.520; -146.325; -818.000; -679.000
395.648;  -70.500; -865.000; -915.000
395.777;   -4.375; -366.000; -405.000
395.905;  -35.200; -449.000; -564.000
396.033;    9.000;  217.000;  172.000
396.162;  682.575; -399.000; -453.000
396.290;  625.300;  -17.000;   -2.000
396.418;  137.150; -555.000; -514.000
396.546;  -58.575; -571.000; -466.000
396.674;  -85.150; -850.000; -878.000
396.803;    9.200;  -72.000;  -23.000
396.931;  115.750; -179.000; -199.000
397.059;   91.550;-1026.000; -989.000
397.187; -100.075;-1026.000; -975.000
397.315; -144.725; -884.000; -649.000
397.443; -107.475; -592.000; -443.000
397.572;  -81.750; -578.000; -424.000
397.700;    5.050; -607.000; -614.000
397.828;   19.300;  120.000;  -90.000
397.956;  -44.125; -508.000; -478.000
398.084;  -64.800; -767.000; -626.000
398.212;   31.275;  137.000;  124.000
398.340;   13.775;  -56.000;  159.000
398.468;   48.225; -390.000; -169.000
398.596; -134.825; -993.000; -953.000
398.724; -115.625; -762.000; -767.000
398.852; -152.225;-1024.000; -976.000
398.980;  -71.800; -560.000; -560.000
399.108;  -46.225; -982.000; -735.000
399.236;   27.250;   13.000;    8.000
399.363;   10.675;  222.000;  196.000
399.491;  -60.550; -404.000; -398.000
399.619; -135.725; -829.000; -800.000
399.747;  -97.775; -859.000; -771.000
399.875;   82.325;  220.000;  234.000
400.003;  -60.075; -359.000; -284.000
400.130;  -91.850; -421.000; -341.000
400.258;  -33.125;  -83.000;   38.000
400.386;  -84.800; -352.000; -168.000
400.514;  -31.525; -526.000; -587.000
400.641;  -71.850; -928.000; -802.000
400.769; -141.475; -979.000; -888.000
400.897; -116.775; -838.000; -793.000
401.025;  -11.325; -166.000; -152.000
401.152;   -4.575;  220.000;   38.000
401.280;  -83.225; -430.000; -429.000
401.408; -105.025; -712.000; -576.000
401.535; -110.850; -735.000; -758.000
401.663; -191.625;-1134.000;-1054.000
401.790;  -85.075; -514.000; -525.000
401.918;   38.275;  436.000;  405.000
402.046;  -24.325;  134.000;  122.000
402.173;  -45.150;  -18.000;    7.000
402.301;  -86.525; -519.000; -397.000
402.428;   24.500;  528.000;  383.000
402.556; -150.850;-1188.000; -913.000
402.683;  -24.400;  -20.000;   -1.000
402.811;  -28.450;  -37.000; -206.000
402.938;  -21.850;   20.000;   27.000
403.066;  241.550; -574.000; -558.000
403.193;  394.500;  299.000;  239.000
403.321;  324.625; -396.000; -574.000
403.448;  391.800;   83.000;   27.000
403.575;  180.475;  -90.000;  -46.000
403.703;  -91.025; -732.000; -557.000
403.830;  -70.275; -531.000; -496.000
403.957; -140.575;-1117.000;-1023.000
404.085;    9.050;  -61.000; -172.000
404.212;  103.175;  -50.000;   63.000
404.339;  263.975; -566.000; -306.000
404.467; 5473.375; -612.000; -524.000
404.594; 3916.150; -287.000; -227.000
404.721; 1006.800; -869.000; -764.000
404.848;   94.800; -113.000; -202.000
404.976; -107.000; -856.000; -783.000
405.103;  -10.650;  -14.000;  -82.000
405.230;  -11.050;  190.000;  226.000
405.357;   21.700;  117.000;   44.000
405.484;  250.050;  -49.000;    5.000
405.612;   54.550; -548.000; -563.000
405.739;  -73.875; -488.000; -243.000
405.866;   86.350;  669.000;  385.000
405.993;  -56.225; -398.000; -102.000
406.120; -129.825; -801.000; -887.000
406.247;  -58.925; -323.000; -342.000
406.374;  522.975;  540.000;  629.000
406.501;  171.825; -632.000; -702.000
406.628;  -73.125; -621.000; -589.000
406.755;  -99.875; -803.000; -620.000
406.882;  -39.925; -228.000; -277.000
407.009; -110.775; -719.000; -628.000
407.136;   75.450; -480.000; -401.000
407.263;  210.250; -939.000; -829.000
407.390;  -66.325; -692.000; -614.000
407.517; -175.650;-1139.000;-1187.000
407.644;  -58.675; -332.000; -256.000
407.771;  -74.725; -249.000; -287.000
407.898;   -1.050;  168.000;  328.000
408.025;  -65.875; -421.000; -313.000
408.151;  -15.250;   82.000;  153.000
408.278;  -73.025; -267.000; -216.000
408.405; -113.900; -931.000; -899.000
408.532;  -60.100; -549.000; -542.000
408.659; -121.700; -677.000; -648.000
408.785; -213.750;-1298.000;-1170.000
408.912;  -62.400; -412.000; -296.000
409.039; -120.550; -610.000; -686.000
409.166;  -99.450; -591.000; -555.000
409.292; -106.725; -571.000; -534.000
409.419; -124.050; -665.000; -649.000
409.546;  -88.525; -431.000; -192.000
409.672; -116.000; -713.000; -545.000
409.799;  -22.175;  -36.000;   34.000
409.926;  -46.725; -180.000; -179.000
410.052; -173.200;-1127.000;-1091.000
410.179;  -61.050; -368.000; -392.000
410.305;  -84.675; -375.000; -493.000
410.432;  -58.525; -220.000; -333.000
410.558;  -92.275; -305.000; -380.000
410.685; -105.050; -688.000; -431.000
410.812;  -99.575; -409.000; -588.000
410.938; -140.725; -964.000; -808.000
411.065;  -97.200; -671.000; -645.000
411.191;  -19.675; -189.000; -174.000
411.317; -106.125; -823.000; -742.000
411.444;  -63.425; -317.000; -246.000
411.570;  -81.425; -339.000; -294.000
411.697; -131.300; -758.000; -752.000
411.823; -169.825; -989.000; -999.000
411.949;  -32.350;  -56.000;   17.000
412.076; -113.800; -539.000; -519.000
412.202; -120.050; -758.000; -757.000
412.329; -131.550; -798.000; -752.000
412.455; -129.225; -821.000; -657.000
412.581;  -20.850;  -15.000;  172.000
412.707;  -53.700; -540.000; -457.000
412.834;   15.675;  156.000;  219.000
412.960;  -85.875; -785.000; -784.000
413.086;  -99.625; -743.000; -701.000
413.212;  164.625;  604.000;  578.000
413.339;  -56.400; -685.000; -701.000
413.465;   16.075; -364.000; -310.000
413.591;  -80.775; -757.000; -474.000
413.717;  -64.850; -358.000; -366.000
413.843; -155.675; -839.000; -861.000
413.969;  -45.450;  -47.000; -292.000
414.096;  -95.175; -679.000; -679.000
414.222;  -19.275;  -33.000;   85.000
414.348;  -11.225; -652.000; -385.000
414.474;  114.725;   38.000;  -52.000
414.600;   -3.775; -126.000; -144.000
414.726;  -22.575;  -96.000;  -55.000
414.852;  -61.775; -365.000; -342.000
414.978;   21.225;  104.000;  -18.000
415.104;   38.025;   38.000;   80.000
415.230;   15.775; -329.000; -330.000
415.356;   33.025; -409.000; -514.000
415.482;  213.200;   13.000;  -35.000
415.608;  249.675; -247.000; -323.000
415.734;  919.325;   67.000;   38.000
415.860;19167.900; -875.000; -767.000
415.986;14634.800; -685.000; -607.000
416.111; 1265.500; -798.000; -652.000
416.237;  252.350; -424.000; -571.000
416.363; 1032.775; -765.000; -733.000
416.489; 4022.500; -324.000; -251.000
416.615;  450.475; -707.000; -742.000
416.741;  -25.175; -677.000; -784.000
416.866;  -84.300; -673.000; -736.000
416.992; -129.200; -801.000; -818.000
417.118;  -29.300;  -41.000;  -80.000
417.244;  -64.450; -798.000; -531.000
417.369;  -68.025; -801.000; -612.000
417.495;  -19.650; -325.000; -254.000
417.621;  -84.925;-1015.000; -803.000
417.746;   10.450; -579.000; -572.000
417.872;   58.275; -254.000; -144.000
417.998;   38.650; -515.000; -530.000
418.123;  942.275;-1073.000; -845.000
418.249; 5290.825; -512.000; -601.000
418.374;  763.925; -916.000; -824.000
418.500;  114.750; -383.000; -482.000
418.626;  104.125;   70.000;  -59.000
418.751;  112.925; -549.000; -448.000
418.877;  190.700; -637.000; -643.000
419.002; 1643.750; -688.000; -560.000
419.128;12044.600; -930.000; -721.000
419.253; 3095.150; -967.000; -837.000
419.379;  398.650; -391.000; -338.000
419.504;  384.750;  325.000;  415.000
419.629;  497.575; -393.000; -212.000
419.755; 3198.625; -317.000; -254.000
419.880;19946.650;  -98.000;   67.000
420.006;10910.250; -280.000; -221.000
420.131;28713.400; -662.000; -775.000
420.256; 4377.800; -315.000; -316.000
420.382;  570.600; -665.000; -687.000
420.507;   75.425; -649.000; -778.000
420.632;  140.350; -337.000; -339.000
420.758;  340.525; -251.000; -425.000
420.883;  -74.350; -876.000; -672.000
421.008;  -99.450; -775.000; -619.000
421.133;  -88.850; -509.000; -467.000
421.259;  -51.675; -325.000; -259.000
421.384; -107.825; -834.000; -693.000
421.509;  -22.950;-1052.000; -862.000
421.634; 1409.975; -936.000; -820.000
421.759;  651.525; -359.000; -327.000
421.885;  -45.100; -717.000; -656.000
422.010;  -79.300; -673.000; -542.000
422.135; -150.175; -695.000; -727.000
422.260;   30.750;  340.000;  280.000
422.385;  -58.050;   12.000;  -98.000
422.510;    8.225;  151.000;  -26.000
422.635;   24.875;  -87.000;  -43.000
422.760;  123.575; -766.000; -791.000
422.885;   59.750;  -57.000;  -80.000
423.010;  -44.950; -112.000; -169.000
423.135;  -95.175; -481.000; -561.000
423.260;  -12.775; -150.000; -245.000
423.385;   68.475;  476.000;  222.000
423.510;   25.225;   71.000;  -22.000
423.635;   99.950;  133.000;   45.000
423.760;   63.700;  383.000;  328.000
423.885;   52.500;  336.000;  391.000
424.010;   12.775;  -68.000;  -13.000
424.135;  -14.150;    5.000;  -33.000
424.259;  -86.800; -654.000; -457.000
424.384;  -70.175; -279.000; -272.000
424.509;  -25.100; -260.000; -186.000
424.634;  -84.425; -761.000; -623.000
424.759;  -19.325; -688.000; -544.000
424.883;  -17.225; -506.000; -527.000
425.008;  165.200; -502.000; -410.000
425.133; 1913.775; -679.000; -653.000
425.258;  962.950; -517.000; -381.000
425.382; 1180.700; -867.000; -774.000
425.507; 3104.975; -487.000; -543.000
425.632;  502.100; -802.000; -663.000
425.756;  436.675; -256.000; -146.000
425.881; 5863.325; -831.000; -857.000
426.006;16697.925; -604.000; -355.000
426.130; 2807.900; -696.000; -508.000
426.255;  368.300; -611.000; -491.000
426.379;  153.900; -189.000; -577.000
426.504;  358.475;  660.000;  544.000
426.629; 3864.000; -519.000; -466.000
426.753; 2829.625;   64.000;  -46.000
426.878;  311.525; -252.000; -288.000
427.002;  133.500; -651.000; -668.000
427.127; 1480.625;  -35.000; -158.000
427.251;10890.950;  372.000;  401.000
427.375; 3325.100; -191.000; -173.000
427.500; 2630.950; -616.000; -610.000
427.624;  958.400; -234.000; -400.000
427.749;  115.625; -216.000; -225.000
427.873;  -37.525; -499.000; -412.000
427.997;  -55.125; -222.000; -230.000
428.122;   74.925;  795.000;  703.000
428.246;   75.400;  433.000;  434.000
428.371; -120.425; -869.000; -773.000
428.495; -101.775; -624.000; -646.000
428.619;  -22.025; -186.000; -117.000
428.743;   22.575;   65.000;  132.000
428.868;   22.700; -732.000; -643.000
428.992; 1658.825; -219.000; -326.000
429.116;  699.600; -329.000; -357.000
429.240;  328.125;  419.000;  426.000
429.365;  -31.925; -454.000; -574.000
429.489;  -25.925; -638.000; -647.000
429.613;   21.575; -236.000; -177.000
429.737;   36.050; -563.000; -432.000
429.861;  240.975; -247.000; -133.000
429.985; 5235.525; -425.000; -305.000
430.109; 6088.725; -770.000; -908.000
430.234;  712.325;   76.000;  -50.000
430.358;   68.325; -250.000; -160.000
430.482;  -74.125; -672.000; -564.000
430.606;  -54.150; -655.000; -375.000
430.730;   25.275; -437.000; -388.000
430.854;  174.275; -909.000; -835.000
430.978;  -63.825; -795.000; -764.000
431.102;  -81.975; -499.000; -422.000
431.226; -109.000; -874.000; -815.000
431.350;   10.800;  345.000;  422.000
431.474;  -86.250; -661.000; -373.000
431.597; -146.450;-1060.000; -848.000
431.721;  -82.850; -276.000; -267.000
431.845; -139.250; -704.000; -472.000
431.969;  -74.875; -304.000; -349.000
432.093;  -82.925; -395.000; -317.000
432.217;  -11.825;   32.000;   82.000
432.341;  -85.225; -523.000; -518.000
432.464;    3.925;   96.000;   40.000
432.588;  250.025; -401.000; -329.000
432.712;  139.050;  -52.000;  -52.000
432.836;   49.900;  213.000;  263.000
432.959;  -16.900; -372.000; -311.000
433.083;   84.775;   11.000;    2.000
433.207;  369.550;  285.000;  930.000
433.330; 4701.850; -391.000; -200.000
433.454; 6083.400; -654.000; -638.000
433.578; 3512.125;  583.000;  278.000
433.701;  668.725; -623.000; -675.000
433.825;  178.225; -292.000; -299.000
433.949;  237.275;   28.000;  -72.000
434.072;   85.050; -410.000; -323.000
434.196;  -14.575; -309.000; -117.000
434.319; 3609.275;25482.000;25124.000
434.443;  700.100; -656.000; -603.000
434.566; 2594.775;  281.000;   62.000
434.690;  480.425; -637.000; -383.000
434.813;   43.100; -251.000; -173.000
434.937;  -75.575; -569.000; -696.000
435.060;  -50.425; -423.000; -332.000
435.184;  402.900; -492.000; -217.000
435.307;  231.225;  159.000;  102.000
435.431;   -8.375;  -40.000;   24.000
435.554;  -70.950; -399.000; -240.000
435.677;  -83.175; -350.000; -258.000
435.801;  -46.900;  -25.000;   49.000
435.924;   -2.100;    1.000;  -67.000
436.048; -108.975;-1019.000; -732.000
436.171;  -65.725; -240.000;  -66.000
436.294;  -33.900; -248.000; -229.000
436.417;   83.725; -963.000; -849.000
436.541;  -87.200; -814.000; -840.000
436.664;  -55.000; -242.000; -316.000
436.787;  -28.300;   13.000;  113.000
436.910; -115.150; -792.000; -422.000
437.034;    0.975;  142.000;  143.000
437.157;   65.450;  -11.000;    0.000
437.280;  -41.775; -392.000; -292.000
437.403;  -74.400; -982.000; -869.000
437.526;  757.225; -903.000; -865.000
437.649; 2842.750; -505.000; -332.000
437.772;  479.675; -692.000; -540.000
437.896;  116.150;  700.000;  544.000
438.019;  -90.625; -758.000; -503.000
438.142;  -79.600; -596.000; -506.000
438.265;   -9.225; -639.000; -670.000
438.388;  691.400; -520.000; -410.000
438.511;  156.050; -597.000; -394.000
438.634;  -47.400; -247.000; -125.000
438.757; -140.475; -693.000; -619.000
438.880;  -12.625;  -34.000;  -57.000
439.003;  -81.325; -417.000; -437.000
439.126;  -61.350; -287.000; -167.000
439.248;  -65.850;  -98.000; -139.000
439.371;  -36.700;    9.000;  -53.000
439.494;   21.750;  510.000;  439.000
439.617;  -62.400;   65.000;  -88.000
439.740; -186.600; -968.000; -816.000
439.863; -144.150; -755.000; -595.000
439.986; -115.350; -476.000; -431.000
440.108;  -51.125; -161.000; -112.000
440.231; -165.850; -950.000; -836.000
440.354;  -42.525;  -64.000; -150.000
440.477;   65.850; -566.000; -542.000
440.599;   16.425; -200.000; -225.000
440.722; -135.650; -709.000; -586.000
440.845;   74.525;  751.000;  928.000
440.968; -115.000; -415.000; -311.000
441.090;  -63.925; -199.000;  -33.000
441.213; -169.125;-1021.000; -825.000
441.336;  -62.625; -159.000;   -5.000
441.458;  -82.750; -549.000; -396.000
441.581;  -74.125; -628.000; -629.000
441.703;  -81.600; -152.000;   13.000
441.826; -114.325; -557.000; -400.000
441.948;  -53.400;   56.000;   51.000
442.071;   24.575;  555.000;  424.000
442.193; -116.925; -531.000; -485.000
442.316;   15.700;  152.000;   97.000
442.438;   37.325; -233.000;  -10.000
442.561;   74.000;  272.000;  262.000
442.683;  647.925; -809.000; -522.000
442.806; 1458.125;   -8.000;   74.000
442.928;   78.775; -859.000; -604.000
443.051;  -60.075; -577.000; -373.000
443.173;  -94.500; -341.000; -339.000
443.295; -100.875; -263.000; -371.000
443.418;  -61.950; -321.000;  -29.000
443.540;   -0.875; -106.000;   -4.000
443.662; -116.700; -563.000; -465.000
443.785;   -9.575;  335.000;  199.000
443.907; -112.325; -362.000; -208.000
444.029; -129.625; -767.000; -494.000
444.152; -142.350; -644.000; -554.000
444.274;  -26.100;  -18.000;  -24.000
444.396; -121.700; -461.000; -221.000
444.518; -135.525; -691.000; -454.000
444.640; -112.300; -268.000; -111.000
444.763;  -23.125;  388.000;  249.000
444.885; -117.875; -432.000; -392.000
445.007;  -37.500;   35.000;   86.000
445.129; -123.675; -610.000; -515.000
445.251;  -93.275; -372.000; -439.000
445.373; -143.850; -537.000; -386.000
445.495;    5.400;  242.000;  350.000
445.617;   45.700;  853.000;  753.000
445.739;  -73.300; -215.000;  -97.000
445.861;  -43.900; -245.000; -112.000
445.984;  -31.950; -267.000; -101.000
446.105;  258.550; -418.000; -251.000
446.227;  766.675; -176.000;  -19.000
446.349;   37.100; -358.000; -249.000
446.471;  -98.525; -615.000; -448.000
446.593;  -53.975; -316.000;   19.000
446.715;   -4.225;  -67.000;   41.000
446.837;   60.150;  697.000;  832.000
446.959;  -93.575; -457.000; -478.000
447.081; -137.250; -628.000; -518.000
447.203;   56.375;  862.000;  834.000
447.325;  -88.225; -270.000;   42.000
447.446;  -13.575;  286.000;  530.000
447.568; -162.325; -921.000; -803.000
447.690;  -72.800; -236.000; -245.000
447.812; -157.125; -798.000; -519.000
447.933;  -49.000;  155.000;  127.000
448.055;  -67.575; -306.000; -261.000
448.177;  183.375;   31.000;   79.000
448.299;  130.950; -935.000; -727.000
448.420;   34.650;  -25.000;  159.000
448.542;  -45.775;   -3.000;   33.000
448.664;  -16.900;  109.000;  322.000
448.785;  -40.925;  265.000;   83.000
448.907;  -87.175; -614.000; -353.000
449.028;  -19.475; -771.000; -471.000
449.150;   64.725;  492.000;  589.000
449.272; -184.675;-1044.000; -913.000
449.393;   18.675;  612.000;  694.000
449.515; -146.550; -634.000; -581.000
449.636;  -66.100; -264.000; -155.000
449.758;   75.650;  763.000;  622.000
449.879;  -89.775; -498.000; -396.000
450.001;  -72.775; -149.000;  -49.000
450.122;  -41.875;  -95.000;  162.000
450.244;  -22.425;   37.000;  364.000
450.365;  -83.875; -495.000; -301.000
450.486;  -46.125;   80.000;  268.000
450.608;    5.375;  393.000;  326.000
450.729;   65.700;  578.000;  645.000
450.850;   -2.150; -574.000; -466.000
450.972;  674.075; -552.000; -389.000
451.093; 4571.775;  190.000;  588.000
451.214; 2137.025; -516.000; -337.000
451.336;  382.050;  773.000;  579.000
451.457;   52.550;  264.000;  393.000
451.578;  -38.300; -118.000;  -74.000
451.699; -134.700; -546.000; -540.000
451.821;  -63.250; -284.000;  -50.000
451.942;    4.375;  278.000;  285.000
452.063;   34.900;  228.000;  419.000
452.184;  515.650;  -54.000;  -49.000
452.305; 1064.625;  103.000;  170.000
452.427;  137.300; -549.000; -301.000
452.548;  -11.575;   23.000;   79.000
452.669;  -53.150; -257.000;  -89.000
452.790;  -48.325;    3.000;  -18.000
452.911;  -17.825;  195.000;  259.000
453.032;  -61.150; -289.000;  -60.000
453.153;  -53.475;  -29.000;   81.000
453.274;   69.050;  737.000;  868.000
453.395;  -56.350;  -51.000;  175.000
453.516;  129.775; 1317.000; 1388.000
453.637;  -62.225; -205.000; -150.000
453.758;  -48.325;   15.000;   69.000
453.879; -124.850; -462.000; -250.000
454.000;   69.825; 1086.000;  948.000
454.121; -111.400; -554.000; -326.000
454.242; -122.125; -599.000; -383.000
454.362;  -73.475;  -99.000;  114.000
454.483;  -41.600; -309.000; -229.000
454.604;   54.450;  512.000;  580.000
454.725; -136.050; -627.000; -555.000
454.846; -132.375; -474.000; -406.000
454.967;  -42.900;  230.000;  539.000
455.087;  -53.525;  179.000;  153.000
455.208;   18.675;  554.000;  856.000
455.329;  -55.700;  -22.000;   82.000
455.450;   15.725;  473.000;  633.000
455.570;  -81.825; -234.000; -211.000
455.691;  -53.100;  201.000;  407.000
455.812; -109.075; -270.000;  -92.000
455.932;  -50.225;  107.000;  -97.000
456.053;  -92.025;   36.000;   24.000
456.173; -104.000; -433.000; -355.000
456.294; -127.400; -476.000; -303.000
456.415;  -60.875;  -73.000;   70.000
456.535;  -41.600;  297.000;  273.000
456.656;  -44.150;  132.000;  240.000
456.776;  -90.300;    3.000;  298.000
456.897;  -10.375;  308.000;  513.000
457.017;  -73.475; -153.000;   -3.000
457.138; -114.150; -402.000; -249.000
457.258;  -31.500;  263.000;  224.000
457.379;  -11.875;  509.000;  521.000
457.499;  -28.500;  443.000;  432.000
457.620; -139.650; -407.000; -231.000
457.740;  -95.800; -132.000;  -11.000
457.860;  -59.350;   87.000;   44.000
457.981;  -50.225;  132.000;  124.000
458.101;  -73.250;  -89.000;   40.000
458.221;  -18.575;  336.000;  402.000
458.342;  -67.900;   -4.000;  -37.000
458.462;   14.275;  617.000;  352.000
458.582;  -48.250; -302.000; -294.000
458.703;   -1.300;  303.000;  154.000
458.823;  -36.925;   22.000;  163.000
458.943;   15.150;  341.000;  467.000
459.063;  -23.200; 1124.000;  192.000
459.183;  -44.075;  328.000;  313.000
459.304;    7.650;  315.000;  517.000
459.424;  -64.900; -246.000;  -89.000
459.544;  302.475;  388.000;  764.000
459.664;  815.950;  499.000;  506.000
459.784;  310.950; 1004.000; 1175.000
459.904;   51.700;  867.000;  744.000
460.024;   67.600;  867.000;  684.000
460.144;   17.325;  449.000;  554.000
460.264;   -9.900;  515.000;  327.000
460.385;  -90.600; -145.000; -119.000
460.505;   30.950;  905.000;  858.000
460.625;  -98.100;  -17.000;  -68.000
460.745;  -23.700;  396.000;  541.000
460.864;  -62.500;  153.000;  469.000
460.984;   12.975;  499.000;  573.000
461.104;  151.450; 1656.000; 1775.000
461.224;   26.375;  657.000;  650.000
461.344;  -32.275;  431.000;  360.000
461.464;  -31.750;  258.000;  513.000
461.584;  -17.925;  283.000;  466.000
461.704;  -35.950;   58.000;  108.000
461.824;  -46.525;  238.000;  259.000
461.943;  -51.450;  191.000;  130.000
462.063;  -76.225;    2.000;  324.000
462.183;   24.050;  639.000;  717.000
462.303;  124.425; 1678.000; 1230.000
462.422;   37.500;  781.000;  840.000
462.542;  -44.800;  271.000;  391.000
462.662;   45.200;  353.000;  380.000
462.782;  224.150;  833.000;  572.000
462.901;  448.450;  545.000;  717.000
463.021;  273.125; 1702.000; 1638.000
463.141;  -14.525;  337.000;  770.000
463.260;  -31.275;  614.000;  474.000
463.380;   19.350;  902.000;  884.000
463.499;  -55.475;  342.000;  332.000
463.619;  -39.375;  581.000;  559.000
463.738;   99.875; 1644.000;  903.000
463.858;   15.475;  657.000;  811.000
463.978;  -45.925;  542.000;  396.000
464.097;   40.350;  921.000; 1114.000
464.217;  111.725; 1196.000; 1143.000
464.336;  105.625; 1068.000; 1130.000
464.455;  -47.550;  328.000;  659.000
464.575;   52.575;  597.000;  602.000
464.694;  188.950; 1204.000; 1179.000
464.814;  127.175; 1190.000; 1138.000
464.933;   78.350; 1095.000; 1027.000
465.052;  104.625; 1412.000; 1054.000
465.172;   70.675;  922.000;  799.000
465.291;  154.625; 1376.000; 1320.000
465.410;   13.975;  462.000;  735.000
465.530;   89.400; 1355.000; 1310.000
465.649;   65.550; 1209.000; 1273.000
465.768;  136.225; 1673.000; 1508.000
465.888;   49.500;  941.000; 1174.000
466.007;   77.925; 1335.000; 1440.000
466.126;   -1.775;  721.000;  641.000
466.245;   39.900; 1176.000; 1187.000
466.364;   30.350;  950.000; 1060.000
466.484;   60.100; 1024.000; 1213.000
466.603;   47.975; 1101.000; 1222.000
466.722;  108.175; 1490.000; 1769.000
466.841;   72.425; 1151.000; 1401.000
466.960;   37.450; 1069.000;  972.000
467.079;  121.825; 1971.000; 1786.000
467.198;   59.900; 1238.000; 1181.000
467.317;   82.150; 1768.000; 1162.000
467.436;   71.425; 1709.000; 1261.000
467.555;  103.500; 1796.000; 1746.000
467.674;   69.375; 1227.000; 1329.000
467.793;   48.675; 1376.000; 1374.000
467.912;   84.025; 1658.000; 1539.000
468.031;  142.775; 2038.000; 1930.000
468.150;  144.975; 1842.000; 1837.000
468.269;  195.400; 2313.000; 2090.000
468.388;  187.200; 2168.000; 2339.000
468.507;  234.775; 2884.000; 2903.000
468.626;  269.625; 2555.000; 2541.000
468.744;  132.625; 2018.000; 2174.000
468.863;  189.950; 2312.000; 2523.000
468.982;   89.250; 1503.000; 1555.000
469.101;  231.275; 2788.000; 2692.000
469.220;  150.000; 2333.000; 2176.000
469.338;  250.575; 2935.000; 3051.000
469.457;  183.500; 2719.000; 2545.000
469.576;  349.875; 3953.000; 3784.000
469.695;  247.775; 2877.000; 3066.000
469.813;  402.575; 4148.000; 4192.000
469.932;  398.325; 4255.000; 4485.000
470.051;  416.450; 4075.000; 4161.000
470.169;  836.375; 4470.000; 4338.000
470.288; 1438.825; 4700.000; 4809.000
470.406;  868.525; 5059.000; 5194.000
470.525;  628.775; 6101.000; 5787.000
470.644;  638.275; 6847.000; 6794.000
470.762;  829.800; 8397.000; 7873.000
470.881;  895.300; 8651.000; 8464.000
470.999; 1035.575; 9685.000; 9151.000
471.118; 1099.575;11174.000;10711.000

