
Integration time [ms]: 100.000
Averaging Nr. [scans]: 40
Smoothing Nr. [pixels]: 0
Data measured with spectrometer [name]: 2101012U2
Wave   ;Sample   ;Dark     ;Reference
[nm]   ;[counts] ;[counts] ;[counts] 

197.733;   44.375;  516.000;  404.000
197.879;  -80.950; -610.000; -634.000
198.025;  -41.825; -475.000; -420.000
198.171;  -82.475; -602.000; -612.000
198.317;  -18.625; -401.000; -316.000
198.463;  -79.000; -655.000; -404.000
198.609;   38.075;  181.000; -137.000
198.755;  -71.350; -644.000; -410.000
198.901;  -58.350; -505.000; -424.000
199.047;  -73.450; -615.000; -488.000
199.193;  -42.025; -230.000; -468.000
199.339;  -38.850; -222.000; -369.000
199.485;   40.875;  330.000;  271.000
199.631;   16.400;  227.000;  310.000
199.777;  -42.675; -466.000; -398.000
199.923;  -70.000; -610.000; -424.000
200.069;  -10.025; -141.000;  -58.000
200.215;   46.225;  128.000;  453.000
200.361;   25.400;  243.000;  477.000
200.507;  -75.400; -600.000; -373.000
200.653;  -12.425; -371.000; -194.000
200.798;  -39.100; -215.000; -125.000
200.944;    2.400; -146.000;  -41.000
201.090;   35.300;   61.000;  222.000
201.236;   -6.400; -116.000; -158.000
201.382;  107.200;  874.000;  903.000
201.528;    9.575;  -58.000;  -48.000
201.674;  -72.475; -386.000; -293.000
201.819;  -61.850; -540.000; -439.000
201.965;  -66.625; -699.000; -447.000
202.111;  -16.700; -273.000; -226.000
202.257;  -37.475; -250.000; -238.000
202.402;    2.425;   13.000;  -36.000
202.548;  -27.350; -169.000; -116.000
202.694;   78.975;  410.000; -183.000
202.840;  -78.975; -603.000; -531.000
202.985;  -67.025; -681.000; -639.000
203.131; -106.875; -832.000; -666.000
203.277;  -23.475; -199.000; -262.000
203.423;  -67.200; -434.000; -520.000
203.568;  -28.950; -462.000; -237.000
203.714;  -56.075; -535.000; -542.000
203.860;  -80.800; -682.000; -641.000
204.005;   11.500;  112.000;  167.000
204.151;   77.650;  561.000;  556.000
204.296;  -47.075; -354.000; -221.000
204.442;  -58.000; -600.000; -547.000
204.588;  -71.650; -592.000; -579.000
204.733;   36.675;  178.000;  168.000
204.879; -114.025;-1018.000; -822.000
205.025;    2.150;  -99.000;  126.000
205.170;   -2.400;  -17.000;   94.000
205.316;   87.775;  438.000;  661.000
205.461;  -85.075; -698.000; -554.000
205.607;   87.750;  609.000;  665.000
205.752;  -62.500; -626.000; -551.000
205.898;  -53.850; -501.000; -391.000
206.043;  -63.450; -578.000; -506.000
206.189;  -35.575; -243.000; -285.000
206.334;   54.450;  554.000;  606.000
206.480;   83.750;  409.000;  239.000
206.625;  -88.675; -529.000; -552.000
206.771;  -33.175; -451.000; -373.000
206.916;  -27.700; -210.000; -537.000
207.062;  -73.800; -545.000; -591.000
207.207;  -67.400; -546.000; -443.000
207.353;   68.575;  185.000;  460.000
207.498;    5.075;  196.000;   85.000
207.643;  -52.450; -501.000; -370.000
207.789; -125.850;-1069.000; -910.000
207.934;  -83.550; -665.000; -713.000
208.080;  -26.225; -154.000;   66.000
208.225;    2.100;  -22.000;  -57.000
208.370;  -86.675; -727.000; -619.000
208.516;  -67.550; -741.000; -487.000
208.661;  -24.325; -127.000;  -69.000
208.806;  -30.650; -165.000; -171.000
208.952; -115.225;-1044.000; -731.000
209.097;   74.875;  378.000;  349.000
209.242;  -54.050; -307.000; -382.000
209.387;   84.575;  392.000;  350.000
209.533;  -51.750; -321.000; -350.000
209.678;   83.600;  472.000;  543.000
209.823;  -56.250; -408.000; -310.000
209.969; -100.825; -860.000; -757.000
210.114; -102.750; -907.000; -719.000
210.259; -112.225; -939.000; -889.000
210.404;  -11.325; -171.000;  103.000
210.549;   -2.125;  108.000;    3.000
210.695;  -17.275;   -3.000;  -95.000
210.840;   25.400;   94.000;   67.000
210.985;  -68.775; -484.000; -303.000
211.130;   63.225;  268.000;  406.000
211.275;   10.825;  207.000;  199.000
211.420;  -41.250; -300.000; -289.000
211.566;  -68.325; -536.000; -489.000
211.711;   19.125;  218.000;  157.000
211.856;  -60.125; -545.000; -519.000
212.001;    4.225;  151.000;   44.000
212.146;   14.525;  153.000;   49.000
212.291;  -20.500; -210.000; -186.000
212.436;  -25.800; -280.000;   -6.000
212.581;  -73.850; -685.000; -653.000
212.726;  -84.025; -487.000; -538.000
212.871;  -41.100; -552.000; -217.000
213.016; -158.725;-1172.000;-1029.000
213.161;   65.925;  406.000;  291.000
213.306;  -83.650; -435.000; -577.000
213.451;  -87.625; -778.000; -689.000
213.596;  -49.300; -455.000; -347.000
213.741;  -44.825; -448.000; -538.000
213.886;  -73.350; -498.000; -517.000
214.031;  -12.325; -294.000; -124.000
214.176;  -49.000; -408.000; -341.000
214.321;  -17.700; -296.000; -157.000
214.466;  -43.575; -163.000;  -43.000
214.611;    2.475;  -61.000;  -10.000
214.756; -113.800; -948.000; -858.000
214.901;  -28.550; -388.000; -226.000
215.046; -125.925; -797.000; -825.000
215.191;   21.500;  128.000;   35.000
215.336;  -14.050; -157.000;  -19.000
215.480;  -68.325; -684.000; -505.000
215.625;  -25.225; -175.000;  -19.000
215.770;  -74.775; -757.000; -662.000
215.915;  -15.775;   -5.000;  -97.000
216.060;    2.200; -113.000;  -21.000
216.205; -106.375; -731.000; -779.000
216.349;  -72.800; -470.000; -533.000
216.494; -126.800; -939.000; -867.000
216.639; -104.050; -823.000; -888.000
216.784;  -74.025; -577.000; -525.000
216.929;   45.425;  392.000;  281.000
217.073;  -25.325; -244.000;  -31.000
217.218;   12.975;   78.000;  -47.000
217.363;  -92.975; -656.000; -618.000
217.507;  -80.050; -623.000; -588.000
217.652; -123.650; -845.000; -874.000
217.797;  -75.225; -708.000; -659.000
217.942; -101.900; -856.000; -720.000
218.086;   78.325;  608.000;  539.000
218.231;  -28.800; -174.000;  -26.000
218.376;  -22.350; -337.000; -229.000
218.520;    3.800;  -41.000;   96.000
218.665;  -22.350; -338.000; -204.000
218.810;  -43.225; -275.000; -233.000
218.954;   28.575;  201.000;   35.000
219.099; -108.550; -713.000; -963.000
219.243;  -57.175; -589.000; -554.000
219.388;  -28.100; -264.000; -136.000
219.532;  -13.775; -116.000; -116.000
219.677;  -81.100; -564.000; -521.000
219.822;    7.025;   33.000;   89.000
219.966;   -8.275;   17.000;  -99.000
220.111;  -38.625; -328.000;  -40.000
220.255;  -95.875; -797.000; -750.000
220.400;  -17.650; -180.000; -146.000
220.544;  -78.250; -516.000; -450.000
220.689;  -59.075; -422.000; -451.000
220.833;  -20.175; -123.000;  -58.000
220.978;  -35.650; -393.000; -563.000
221.122;   13.050;  319.000;  307.000
221.267; -102.825; -906.000; -837.000
221.411;  -76.925; -478.000; -394.000
221.555;   -6.000; -104.000;  -23.000
221.700;  -56.775; -329.000; -222.000
221.844;   31.550;  255.000;  272.000
221.989;  -37.125; -328.000; -311.000
222.133;  -31.475; -289.000; -307.000
222.277;  -23.150;    5.000;   78.000
222.422;    5.300;  227.000;  113.000
222.566;  -30.575; -381.000; -214.000
222.711;  -43.875; -414.000; -479.000
222.855;  -77.975; -643.000; -586.000
222.999;  -83.575; -642.000; -717.000
223.144;  -45.800; -195.000; -194.000
223.288;   53.375;  423.000;  251.000
223.432;   28.000;  184.000;  230.000
223.576;   10.925;  152.000;  -21.000
223.721;   32.625;  364.000;  273.000
223.865;  -58.450; -472.000; -475.000
224.009;  236.175; 1673.000; 1631.000
224.153;  -59.150; -660.000; -671.000
224.298;  -61.425; -531.000; -489.000
224.442;   -9.250;  -74.000;  -33.000
224.586;  -22.225; -169.000; -106.000
224.730;  -83.700; -858.000; -670.000
224.875; -113.350; -739.000; -688.000
225.019;    6.075;  102.000;  188.000
225.163;   34.375;  208.000;  341.000
225.307;   10.650;   97.000;  -91.000
225.451;   48.700;  360.000;  481.000
225.595;   31.325;  264.000;  176.000
225.739;  -20.850; -170.000;  -94.000
225.884;    3.175;   86.000;    5.000
226.028; -103.125; -760.000; -626.000
226.172;  -43.000; -260.000; -273.000
226.316; -113.775; -941.000; -902.000
226.460;  -58.400; -645.000; -493.000
226.604;  -55.625; -406.000; -400.000
226.748;  -97.125; -836.000; -733.000
226.892;  -34.150; -227.000; -181.000
227.036;  -36.150; -537.000; -447.000
227.180;  -64.750; -551.000; -375.000
227.324;  -59.575; -561.000; -580.000
227.468; -112.275; -819.000; -717.000
227.612;   20.325;  242.000;  -28.000
227.756;  -93.125; -845.000; -698.000
227.900;   41.375;  342.000;  441.000
228.044;  -57.000; -509.000; -290.000
228.188;   61.650;  448.000;  568.000
228.332;  -65.325; -546.000; -472.000
228.476;  -15.000; -223.000; -149.000
228.620;  -32.525; -210.000; -150.000
228.764;   63.200;  431.000;  349.000
228.908;  -11.800; -155.000;   30.000
229.052;  -55.075; -615.000; -528.000
229.195;  -21.350; -172.000;   13.000
229.339;  -16.150; -235.000; -305.000
229.483;  -19.300;    5.000; -162.000
229.627;    2.875; -156.000;  139.000
229.771;  -42.175; -218.000; -294.000
229.915;   19.650;  230.000;   79.000
230.059;  -97.900; -648.000; -663.000
230.202;  -51.175; -370.000; -317.000
230.346;  -20.625; -107.000;  107.000
230.490;  -45.125; -489.000; -521.000
230.634; -104.725; -736.000; -553.000
230.777;   71.775;  478.000;  509.000
230.921;  -53.650; -450.000; -359.000
231.065;  -46.000; -246.000; -286.000
231.209;   11.575;  261.000;  265.000
231.352;   27.725;   54.000;   40.000
231.496;   24.550;  568.000;  188.000
231.640;  -64.750; -693.000; -621.000
231.783;   51.875;  546.000;  525.000
231.927;  -43.425; -294.000; -365.000
232.071; -118.400; -962.000; -736.000
232.214; -106.000; -980.000; -764.000
232.358; -101.650; -683.000; -599.000
232.502;   12.150;  -19.000;    7.000
232.645; -129.525;-1090.000; -927.000
232.789;  -13.925; -257.000; -218.000
232.933;  -40.775; -407.000; -224.000
233.076; -118.500;-1038.000; -897.000
233.220; -107.175; -752.000; -777.000
233.363;  -58.450; -669.000; -477.000
233.507;   59.575;  371.000;  129.000
233.650;  -83.575; -764.000; -834.000
233.794;   26.250;  438.000;  461.000
233.938;  -49.200; -530.000; -362.000
234.081;  -11.725;  -93.000;   31.000
234.225;  -57.625; -631.000; -539.000
234.368; -126.250; -773.000; -723.000
234.512;  -48.875; -385.000; -299.000
234.655;  -78.350; -582.000; -555.000
234.798;  -65.325; -493.000; -466.000
234.942; -132.250; -884.000;-1002.000
235.085;  -65.225; -651.000; -443.000
235.229;  -88.550; -405.000; -410.000
235.372;  -37.125; -247.000; -191.000
235.516;  -58.925; -397.000; -321.000
235.659;   17.050;   92.000;  121.000
235.802;  -26.175;  -38.000;  -22.000
235.946;   23.175;  335.000;  215.000
236.089;   22.875;  126.000;  250.000
236.233;   45.925;  275.000;  298.000
236.376;  -65.400; -235.000; -378.000
236.519;  -41.075; -297.000; -319.000
236.663;  -30.375; -215.000; -117.000
236.806; -134.200;-1029.000; -999.000
236.949;   59.900;  543.000;  431.000
237.092;   50.625;  412.000;  391.000
237.236;  -94.750; -589.000; -502.000
237.379;   61.525;  352.000;  428.000
237.522; -115.250; -879.000; -768.000
237.666;  -14.550; -271.000;   18.000
237.809; -118.525; -851.000; -823.000
237.952;   34.525;  469.000;  271.000
238.095;  -64.825; -447.000; -442.000
238.238;   73.725;  688.000;  700.000
238.382;   -4.475;  166.000;  103.000
238.525;  -66.325; -598.000; -511.000
238.668; -121.200;-1060.000; -985.000
238.811;  -73.700; -638.000; -643.000
238.954;  -66.300; -483.000; -334.000
239.097;   83.500;  617.000;  664.000
239.241;   16.675;  394.000;  326.000
239.384;  -32.900; -254.000; -214.000
239.527;  -48.475; -424.000; -224.000
239.670; -136.000; -994.000;-1091.000
239.813; -107.500; -696.000; -658.000
239.956;   84.450;  579.000;  473.000
240.099; -120.675; -778.000; -725.000
240.242;   55.850;  428.000;  432.000
240.385;   48.550;  466.000;  450.000
240.528;  -73.075; -706.000; -473.000
240.671;   11.275;  189.000;  134.000
240.814;  -43.600; -441.000; -158.000
240.957;  -97.850; -767.000; -578.000
241.100;  -73.375; -779.000; -755.000
241.243; -141.625;-1234.000; -893.000
241.386;  -64.600; -508.000; -379.000
241.529;  -85.050; -735.000; -547.000
241.672;  -58.550; -566.000; -495.000
241.815; -109.075; -832.000; -808.000
241.958;  -14.275; -125.000; -182.000
242.101;  -77.575; -545.000; -390.000
242.244;  -30.600; -270.000; -325.000
242.387;  -28.925; -304.000; -246.000
242.530;   61.100;  470.000;  134.000
242.673;  -51.025; -381.000; -309.000
242.815; -107.025; -925.000; -899.000
242.958;  -79.050; -482.000; -381.000
243.101;   18.975;  132.000;  187.000
243.244;  -73.325; -564.000; -521.000
243.387;  -51.350; -313.000; -316.000
243.530; -106.750; -657.000; -674.000
243.672;   -1.700;   43.000;  -92.000
243.815;  -63.925; -355.000; -283.000
243.958;    8.700;   98.000;  -26.000
244.101;   -1.125;   59.000;  -16.000
244.243;  -15.200;  -47.000;  101.000
244.386; -121.375; -761.000; -630.000
244.529;  -19.100; -132.000; -139.000
244.672; -148.425;-1154.000; -951.000
244.814;  -95.975; -621.000; -794.000
244.957;  -63.575; -380.000; -304.000
245.100;  -59.625; -489.000; -489.000
245.242;  -56.725; -387.000; -374.000
245.385;  -14.175;  -59.000;  -39.000
245.528; -118.050; -871.000; -705.000
245.670;   92.325;  612.000;  634.000
245.813;  -93.025; -599.000; -547.000
245.956;  -24.750; -324.000; -275.000
246.098;  -70.150; -508.000; -650.000
246.241;    0.550;  194.000;   48.000
246.383;  -30.350; -119.000;  -73.000
246.526;  -65.950; -454.000; -525.000
246.669; -107.675; -889.000; -780.000
246.811;   17.125;  172.000;   -1.000
246.954;  -61.725; -512.000; -426.000
247.096;  -23.950;  -84.000;   -6.000
247.239;  -71.625; -482.000; -445.000
247.381;  -72.475; -647.000; -488.000
247.524;   54.275;  645.000;  679.000
247.666;    4.375;   58.000;   11.000
247.809; -116.675; -887.000; -691.000
247.951;  -11.650;  -75.000;  138.000
248.094;   19.875;  432.000;  308.000
248.236; -157.250;-1262.000;-1238.000
248.378;  -29.700; -356.000;  -81.000
248.521;  -39.850; -334.000; -337.000
248.663;  -45.475; -236.000; -267.000
248.806;  -15.200; -300.000; -266.000
248.948;  -97.200; -886.000; -763.000
249.090;  -47.400; -428.000; -398.000
249.233;  -62.675; -344.000; -381.000
249.375;  -63.275; -474.000; -451.000
249.518;  -22.400;  -83.000; -133.000
249.660;   -7.250; -103.000;    3.000
249.802; -179.475;-1303.000;-1189.000
249.945;  -65.475; -612.000; -540.000
250.087; -113.975; -834.000; -768.000
250.229;  -52.825; -362.000; -480.000
250.371;  -79.000; -494.000; -439.000
250.514;  -63.900; -310.000; -244.000
250.656;  -45.325;   69.000;  102.000
250.798; -110.150; -849.000; -800.000
250.940;  -63.650; -322.000; -322.000
251.083;  -25.625; -335.000; -111.000
251.225;   45.600;  338.000;  310.000
251.367;  -37.425; -274.000; -373.000
251.509;  -46.850; -265.000; -210.000
251.651;  -76.775; -731.000; -671.000
251.794;   38.525;  538.000;  632.000
251.936; -106.900; -821.000; -747.000
252.078;  -88.850; -540.000; -461.000
252.220;  -70.325; -645.000; -477.000
252.362;   45.225;  344.000;  462.000
252.504;  -83.625; -677.000; -584.000
252.646; -111.150; -875.000; -722.000
252.788;  -11.125;   14.000; -128.000
252.931;  -56.450; -257.000; -253.000
253.073;  -42.625; -376.000; -317.000
253.215;  -16.375;  141.000;  122.000
253.357;   -5.800;   82.000; -153.000
253.499;  -51.025; -374.000; -234.000
253.641;  -73.825; -749.000; -594.000
253.783;  -95.750; -609.000; -527.000
253.925;  -83.700; -586.000; -591.000
254.067; -119.500; -744.000; -667.000
254.209;  -29.550; -391.000; -259.000
254.351; -139.950; -865.000; -883.000
254.493;  -60.675; -441.000; -417.000
254.635; -138.375; -936.000; -818.000
254.777;  -86.175; -752.000; -687.000
254.918;  -71.650; -512.000; -430.000
255.060;  -58.200; -551.000; -395.000
255.202;  -73.175; -473.000; -261.000
255.344;  -76.450; -658.000; -455.000
255.486;  -72.925; -471.000; -406.000
255.628; -103.825; -780.000; -781.000
255.770;  -77.525; -676.000; -536.000
255.912;  -56.900; -559.000; -468.000
256.053;  -90.525; -730.000; -508.000
256.195;  149.275; 1008.000;  903.000
256.337; -110.350; -861.000; -595.000
256.479;   68.050;  532.000;  416.000
256.621;  -57.450; -394.000; -212.000
256.762;  -97.000; -789.000; -742.000
256.904;   38.150;  485.000;  487.000
257.046;  -47.375; -381.000; -271.000
257.188;  -49.875; -351.000; -264.000
257.329;  -56.500; -525.000; -464.000
257.471; -116.900; -939.000; -807.000
257.613;  -70.725; -584.000; -498.000
257.755; -141.425;-1073.000; -982.000
257.896;   46.575;  286.000;  392.000
258.038;  -68.025; -403.000; -352.000
258.180;  -26.925; -354.000; -279.000
258.321;  -78.650; -581.000; -457.000
258.463;   -3.300;  -71.000;  133.000
258.605; -103.575; -562.000; -570.000
258.746;  -96.550; -886.000; -772.000
258.888; -149.125;-1026.000;-1020.000
259.029;   16.475;  121.000;   -8.000
259.171;  -97.450; -614.000; -550.000
259.313;   -7.600;  -49.000;  -47.000
259.454;  -70.500; -536.000; -414.000
259.596;  -43.825; -483.000; -390.000
259.737;  -79.475; -590.000; -474.000
259.879;   29.200;  217.000;  311.000
260.020;   76.950;  901.000;  636.000
260.162;  -30.375; -146.000; -253.000
260.303; -113.525; -768.000; -687.000
260.445;  -70.100; -609.000; -613.000
260.586;   24.525;  392.000;  157.000
260.728;  -37.500; -360.000; -248.000
260.869;  -80.425; -350.000; -343.000
261.011;   71.625;  706.000;  537.000
261.152;  -71.350; -479.000; -319.000
261.293;  -76.500; -576.000; -595.000
261.435;  -41.225; -219.000; -184.000
261.576;  -45.725; -455.000; -325.000
261.718;   42.600;  420.000;  470.000
261.859; -116.150; -940.000; -949.000
262.000; -139.525; -951.000;-1016.000
262.142;  -23.100;  -52.000;  -60.000
262.283; -117.900; -808.000; -691.000
262.424;  -85.925; -666.000; -625.000
262.566; -159.875;-1161.000; -983.000
262.707;  -99.825; -840.000; -830.000
262.848; -117.525; -769.000; -726.000
262.990;  -46.750; -362.000; -345.000
263.131;   66.425;  650.000;  681.000
263.272;  -13.350;  -61.000;  -41.000
263.413;  -98.775; -589.000; -561.000
263.555;  -57.700; -669.000; -143.000
263.696;  -88.750; -550.000; -641.000
263.837;  -58.075; -449.000; -551.000
263.978;  -22.225;   -5.000;  -77.000
264.119;  -30.650; -283.000; -264.000
264.261; -116.300; -847.000; -630.000
264.402;    2.625;   33.000;   40.000
264.543;  -74.050; -509.000; -524.000
264.684;   -3.625;   61.000;  -50.000
264.825;  -88.550; -816.000; -538.000
264.966;    3.325;  -84.000;  -67.000
265.107; -118.650; -646.000; -670.000
265.248; -111.950; -825.000; -812.000
265.390;   -8.950;  152.000;   -9.000
265.531;  -27.350; -238.000; -107.000
265.672;  -85.675; -557.000; -630.000
265.813;   63.875;  563.000;  439.000
265.954; -145.500; -959.000; -940.000
266.095;   -8.175; -372.000; -322.000
266.236;  -99.250; -686.000; -548.000
266.377;  -32.625; -243.000; -297.000
266.518;  -72.025; -619.000; -547.000
266.659;   29.975;  170.000;  268.000
266.800;   11.700;   83.000;   85.000
266.941;  -72.700; -487.000; -478.000
267.082;   -3.875;  354.000;   99.000
267.223;  -49.600; -344.000; -273.000
267.364; -110.575; -892.000; -686.000
267.504;   -4.200;    3.000;  135.000
267.645;   -0.500;  160.000;   67.000
267.786;  -17.775; -147.000;  -86.000
267.927;  -72.225; -473.000; -379.000
268.068;  -28.525; -186.000;  -61.000
268.209;  -48.475; -175.000; -413.000
268.350;  -55.600; -388.000; -532.000
268.490;  -87.975; -648.000; -521.000
268.631;   28.850;  127.000;  225.000
268.772; -110.825; -874.000; -647.000
268.913;  -45.625; -328.000; -476.000
269.054;  -33.200; -117.000;   12.000
269.194;  -49.400; -418.000; -402.000
269.335; -156.775;-1137.000;-1074.000
269.476;  -11.325;   33.000;  -35.000
269.617;  -46.400; -347.000; -392.000
269.757;  -87.825; -713.000; -646.000
269.898; -115.375; -856.000; -613.000
270.039;  -70.175; -415.000; -405.000
270.180; -130.800; -952.000; -816.000
270.320;  -38.900; -190.000; -250.000
270.461;  -41.125; -277.000; -249.000
270.602;  -17.925; -186.000; -156.000
270.742; -134.000; -868.000; -943.000
270.883;  -54.650; -442.000; -390.000
271.023;  -62.575; -358.000; -357.000
271.164;  -77.925; -607.000; -528.000
271.305;  -96.150; -666.000; -654.000
271.445;  -92.725; -722.000; -683.000
271.586;  -66.050; -462.000; -283.000
271.726;  -49.725; -397.000; -322.000
271.867;  -77.025; -594.000; -534.000
272.008;   52.250; -473.000; -285.000
272.148;   64.950;  462.000;  468.000
272.289;   -4.275; -113.000; -181.000
272.429;   -3.700;   19.000;  185.000
272.570;  -98.225; -633.000; -737.000
272.710; -104.800; -825.000; -775.000
272.851;  -23.350;  113.000; -130.000
272.991; -172.500;-1173.000;-1077.000
273.131;  -59.325; -419.000; -459.000
273.272;  -94.275; -683.000; -723.000
273.412;  -13.025; -143.000;  -31.000
273.553;  -65.700; -488.000; -507.000
273.693;  110.375;  913.000;  858.000
273.834; -119.550; -894.000; -692.000
273.974;  -80.975; -664.000; -615.000
274.114; -102.950; -772.000; -560.000
274.255;   51.875;  414.000;  373.000
274.395;  -19.800; -180.000; -125.000
274.535;   42.050;  199.000;  350.000
274.676;   12.525;  225.000;   94.000
274.816;    3.725;  110.000;   34.000
274.956;  -89.100; -624.000; -690.000
275.097;  -97.200;-1014.000; -922.000
275.237; -120.075; -913.000; -803.000
275.377; -101.100; -778.000; -689.000
275.517; -152.900; -878.000; -937.000
275.658;  -77.225; -590.000; -555.000
275.798;  -93.925; -606.000; -413.000
275.938;   25.350;  215.000;  323.000
276.078;  -84.725; -626.000; -395.000
276.218;   10.475;   99.000;  104.000
276.359; -134.475;-1026.000;-1024.000
276.499;  -75.625; -605.000; -446.000
276.639;  -46.375; -305.000; -151.000
276.779;  -48.050; -475.000; -357.000
276.919; -108.825; -783.000; -624.000
277.059;  -19.725; -261.000; -212.000
277.199;  -54.275; -357.000; -259.000
277.340;   27.875;  287.000;  175.000
277.480; -112.975; -840.000; -693.000
277.620;   26.250;  192.000;   16.000
277.760; -191.850;-1533.000;-1294.000
277.900;    9.875;  113.000;   33.000
278.040;  -13.650;  137.000;  159.000
278.180;   24.325;  270.000;  170.000
278.320;  -14.950;   21.000;   56.000
278.460;  -66.800; -443.000; -469.000
278.600;  -76.600; -708.000; -598.000
278.740;   41.750;  448.000;  224.000
278.880; -126.775; -768.000; -791.000
279.020;  -30.750; -194.000; -144.000
279.160;  -88.250; -672.000; -595.000
279.300; -117.350; -926.000; -873.000
279.440;  -95.975; -709.000; -622.000
279.579;  -76.950;-1014.000; -929.000
279.719;  -68.350; -410.000; -394.000
279.859;   38.325;   -4.000;   41.000
279.999;  -15.950; -208.000;  101.000
280.139;  -34.550; -435.000; -387.000
280.279;  -86.625; -708.000; -745.000
280.419;   -9.900; -229.000; -147.000
280.559;  -46.700; -259.000; -180.000
280.698;  -84.725; -790.000; -639.000
280.838; -112.075; -778.000; -800.000
280.978;  -97.200; -846.000; -790.000
281.118; -108.800; -811.000; -704.000
281.257;   -5.225;   24.000;    6.000
281.397; -153.025;-1094.000; -960.000
281.537;  -95.450; -599.000; -712.000
281.677;  -27.175; -150.000; -101.000
281.816;  -83.900; -700.000; -630.000
281.956;  -36.175; -193.000; -257.000
282.096;  -58.900; -539.000; -396.000
282.235; -107.550; -672.000; -638.000
282.375;  -26.975; -243.000;  -98.000
282.515; -105.175; -715.000; -707.000
282.654;   26.750;   29.000;  106.000
282.794;   17.900;  388.000;  244.000
282.934;  -58.200; -530.000; -491.000
283.073; -132.000;-1030.000; -857.000
283.213;  -46.050; -460.000; -467.000
283.353;  -61.600; -408.000; -349.000
283.492;  -33.950; -264.000; -296.000
283.632;  -50.250; -254.000; -168.000
283.771;  -88.500; -859.000; -730.000
283.911;  -52.475; -369.000; -260.000
284.050; -101.550; -794.000; -748.000
284.190; -157.525;-1229.000;-1096.000
284.329; -124.650;-1055.000; -964.000
284.469;  -95.925; -516.000; -591.000
284.608;  -51.500; -559.000; -598.000
284.748;  -87.150; -614.000; -570.000
284.887;   -5.475;  -87.000;  -20.000
285.027; -136.925; -844.000; -892.000
285.166;  -39.825; -192.000; -249.000
285.306;  -14.150; -116.000;  -33.000
285.445;  -36.650; -229.000; -343.000
285.584;  -95.625; -630.000; -494.000
285.724;  -45.950; -282.000; -322.000
285.863; -112.325; -857.000; -507.000
286.002;  -60.825; -366.000; -276.000
286.142; -109.950; -715.000; -622.000
286.281;  -77.850; -525.000; -493.000
286.420;  -91.100; -554.000; -417.000
286.560;   95.550;  653.000;  623.000
286.699; -117.750; -958.000; -912.000
286.838;  -83.750; -590.000; -591.000
286.978;  -87.025; -533.000; -537.000
287.117; -140.200;-1085.000; -950.000
287.256;  -44.775; -228.000; -211.000
287.395;  -53.125; -197.000; -378.000
287.535;  -61.725; -370.000; -298.000
287.674;  -69.725; -509.000; -484.000
287.813;   49.700;  661.000;  533.000
287.952; -118.350;-1010.000; -871.000
288.091; -153.575;-1049.000; -915.000
288.231;   -4.525;   13.000;   15.000
288.370; -169.775;-1217.000;-1200.000
288.509;  -76.925; -728.000; -645.000
288.648;  -89.800; -770.000; -548.000
288.787;  -32.800; -243.000;  -87.000
288.926;  -68.325; -454.000; -475.000
289.065;  101.350;  859.000;  672.000
289.204;  -43.350; -377.000; -217.000
289.344;  -86.475; -791.000; -690.000
289.483;    3.775;  416.000;  304.000
289.622;  -16.200; -291.000; -149.000
289.761;  -14.750; -309.000; -166.000
289.900; -100.650; -785.000; -626.000
290.039;  -26.125;  -12.000;  -95.000
290.178;  -31.650; -274.000; -180.000
290.317;  -90.125; -618.000; -479.000
290.456;  -59.100; -463.000; -451.000
290.595; -139.675; -961.000; -833.000
290.734; -133.350; -904.000; -891.000
290.873;  -76.625; -456.000; -420.000
291.011; -114.775; -833.000; -843.000
291.150; -102.800; -770.000; -682.000
291.289;  -34.225; -343.000; -110.000
291.428; -104.525; -599.000; -480.000
291.567;  -61.000; -370.000; -442.000
291.706;  -20.075;  109.000;  154.000
291.845; -102.525; -597.000; -505.000
291.984; -169.500;-1234.000;-1061.000
292.122;   64.900;  602.000;  582.000
292.261;   40.850;  620.000;  463.000
292.400;    6.800; -144.000;  211.000
292.539; -136.175; -959.000; -813.000
292.678;  -35.050; -325.000; -300.000
292.816; -161.025;-1136.000; -965.000
292.955;  -86.725; -844.000; -684.000
293.094;  -50.375; -173.000; -337.000
293.233;  -61.550; -556.000; -400.000
293.371;  -43.575; -225.000;  -84.000
293.510; -104.625; -866.000; -780.000
293.649; -129.125; -959.000; -924.000
293.787; -110.225;-1083.000;-1012.000
293.926;  -15.275; -113.000;  -32.000
294.065;  -45.550; -379.000; -290.000
294.203;   17.700;  298.000;  406.000
294.342;   16.700;   74.000;  156.000
294.481; 5122.850;51180.000; -836.000
294.619;  -36.050; -425.000; -582.000
294.758; -156.900;-1230.000;-1137.000
294.896;   -3.500; -125.000;    5.000
295.035; -130.350;-1040.000;-1006.000
295.174; -128.625;-1082.000; -954.000
295.312;  -46.875; -323.000; -203.000
295.451;  -35.500; -307.000; -428.000
295.589;  -83.375; -389.000; -518.000
295.728;    9.500; -292.000; -165.000
295.866;  -16.475;  -36.000;  -51.000
296.005;  -66.650; -584.000; -341.000
296.143;  -88.925; -558.000; -596.000
296.282; -100.025; -957.000; -881.000
296.420;  -81.700; -657.000; -557.000
296.559;  -79.650; -892.000; -633.000
296.697;  -72.125; -847.000; -665.000
296.835;  -88.450;-1141.000;-1002.000
296.974;   21.250;  -23.000;   39.000
297.112;  -41.675; -443.000; -504.000
297.251; -103.575; -815.000; -755.000
297.389;  -18.875; -576.000; -438.000
297.527;    4.150; -145.000;  -83.000
297.666;  -57.250; -486.000; -438.000
297.804;  -71.450; -404.000; -264.000
297.942;   -9.100; -136.000; -161.000
298.081;  -31.750; -183.000;   63.000
298.219;   15.775;  -17.000;  -19.000
298.357;  -24.225; -144.000;  -71.000
298.495;  -58.800; -810.000; -812.000
298.634;    2.250;  245.000;  219.000
298.772;  -17.225; -220.000; -338.000
298.910;  -67.025; -309.000; -182.000
299.048;  -25.775; -130.000; -153.000
299.187;  -64.725; -350.000; -250.000
299.325;   -0.150;   52.000;  122.000
299.463;  -40.950; -389.000; -299.000
299.601;   -3.875; -327.000; -271.000
299.739; -135.650; -908.000; -883.000
299.877;  -86.600; -791.000; -703.000
300.016; -102.000;-1095.000; -935.000
300.154;   57.250;  -19.000; -161.000
300.292;  -42.425; -428.000; -348.000
300.430;  -16.875; -408.000; -291.000
300.568; -130.625; -940.000; -874.000
300.706;  -59.825; -366.000; -469.000
300.844; -140.675;-1108.000; -979.000
300.982;   61.950;  246.000;  282.000
301.120; -125.650; -965.000; -866.000
301.258;  -93.925; -812.000; -705.000
301.396;  -13.425;  104.000;  -41.000
301.534;  -29.250; -218.000; -293.000
301.672;  -81.425; -664.000; -521.000
301.810;  -65.100; -613.000; -545.000
301.948;    3.525;   53.000;  149.000
302.086;  196.525; -250.000;  -32.000
302.224;  220.600; -610.000; -585.000
302.362;  -56.625; -558.000; -622.000
302.500;  -95.925; -923.000; -893.000
302.638;   22.400;  128.000;  245.000
302.776;  -39.200; -352.000; -408.000
302.913;   45.900;  447.000;  236.000
303.051;  -34.675;  -86.000;  -23.000
303.189;   14.700;   90.000;  118.000
303.327;  -55.475; -341.000; -256.000
303.465;  -91.475; -832.000; -588.000
303.603;  -98.825; -805.000; -604.000
303.740;   56.250;  417.000;  241.000
303.878;  -77.350; -800.000; -759.000
304.016; -101.325; -915.000; -790.000
304.154; -162.075;-1123.000;-1152.000
304.291;  -60.500; -505.000; -554.000
304.429;  -13.925;  102.000;   74.000
304.567; -124.950; -908.000; -893.000
304.705;  -62.650; -408.000; -515.000
304.842;  -28.325; -616.000; -540.000
304.980;    3.525;  215.000;   35.000
305.118;  -23.900; -367.000; -365.000
305.255; -121.100; -945.000; -927.000
305.393;   35.950;  178.000;  239.000
305.531; -135.100;-1173.000; -956.000
305.668;  -74.250; -663.000; -582.000
305.806;   -2.725; -358.000; -439.000
305.943;  -21.075; -629.000; -637.000
306.081;  -24.775; -378.000; -267.000
306.219; -115.100; -863.000; -748.000
306.356;   11.925;  158.000;   27.000
306.494;  119.200;  981.000;  761.000
306.631;   -2.525;  -11.000;  -55.000
306.769;  -30.975; -613.000; -485.000
306.906;  -41.225; -284.000; -258.000
307.044;  -51.350; -473.000; -488.000
307.181;  -67.275; -410.000; -332.000
307.319;   11.400;  112.000;   87.000
307.456; -171.500;-1191.000;-1153.000
307.594; -101.775; -980.000; -727.000
307.731;  -29.850; -371.000; -164.000
307.868;  -13.750;  -15.000;   20.000
308.006; -129.625; -961.000; -847.000
308.143;  -71.600; -618.000; -330.000
308.281;   21.825;  -37.000; -254.000
308.418;  -66.575; -748.000; -640.000
308.555;  -71.900; -400.000; -250.000
308.693;  -70.950; -577.000; -573.000
308.830; -103.675; -712.000; -657.000
308.967;   -5.575; -215.000;  -95.000
309.105;  -47.975; -507.000; -396.000
309.242;  -16.625; -468.000; -367.000
309.379;   37.900; -577.000; -655.000
309.517; -103.325; -936.000; -948.000
309.654; -108.775; -910.000; -734.000
309.791;  -60.550; -662.000; -580.000
309.928; -106.625; -977.000; -914.000
310.065;  130.825;  819.000;  697.000
310.203;  -84.100; -825.000; -850.000
310.340;  -30.675; -465.000; -321.000
310.477;  -71.000; -412.000; -516.000
310.614;  -67.400; -383.000; -473.000
310.751;  -73.950; -427.000; -518.000
310.889;  -20.100;    1.000;   11.000
311.026; -138.500;-1161.000; -939.000
311.163;  -47.450; -386.000; -380.000
311.300;  -71.875; -512.000; -479.000
311.437;  -77.050; -658.000; -619.000
311.574; -149.150;-1226.000; -985.000
311.711;  -57.725; -595.000; -433.000
311.848;  -31.800; -380.000; -388.000
311.985;   11.475;  270.000;   93.000
312.122; -115.825; -932.000; -762.000
312.259; -119.200; -941.000; -994.000
312.396;  -77.175; -508.000; -551.000
312.533;  -68.000; -812.000; -790.000
312.670; -123.650;-1070.000; -898.000
312.807;  -26.050; -352.000; -367.000
312.944;  -76.500; -513.000; -611.000
313.081;  -14.200; -150.000; -415.000
313.218;  -96.750;-1111.000; -867.000
313.355;  -15.700; -531.000; -449.000
313.492;  -18.075; -455.000; -292.000
313.629;  127.000;  815.000;  735.000
313.766; -151.275;-1176.000;-1008.000
313.902;  -12.650; -186.000;   21.000
314.039;  -61.200; -372.000; -289.000
314.176;   20.300;  286.000;  192.000
314.313;  -64.725; -569.000; -473.000
314.450;  -85.150; -788.000; -684.000
314.587;  -51.650; -468.000; -480.000
314.723;   15.200;  -78.000;  130.000
314.860;   33.300;  318.000;  332.000
314.997;   37.575;  223.000;  142.000
315.134;  -37.750; -385.000; -368.000
315.270;  -27.350; -480.000; -496.000
315.407; -127.200;-1094.000; -967.000
315.544;  -54.725; -657.000; -538.000
315.681;  -61.400; -681.000; -565.000
315.817;   30.275; -133.000; -176.000
315.954;   36.950; -613.000; -392.000
316.091; -111.950;-1045.000;-1023.000
316.227;  -29.150;  -71.000; -179.000
316.364;   -5.500;   23.000;    6.000
316.500;  -43.975; -113.000; -300.000
316.637;  -42.750; -181.000; -302.000
316.774;  -73.775; -625.000; -358.000
316.910;  -85.625; -598.000; -629.000
317.047;  -73.950; -487.000; -351.000
317.183;  -59.575; -435.000; -566.000
317.320;   25.025; -367.000; -321.000
317.456;  -30.950; -733.000; -805.000
317.593;  -97.450; -598.000; -641.000
317.729;   -5.975;  168.000;  -67.000
317.866; -192.750;-1434.000;-1285.000
318.002;  -90.825; -708.000; -948.000
318.139; -110.700; -883.000; -867.000
318.275; -114.400;-1003.000; -738.000
318.412;  -73.475; -517.000; -336.000
318.548;  -71.225; -751.000; -720.000
318.685;  -99.700; -985.000; -888.000
318.821;  -75.675; -762.000; -735.000
318.957;  -27.425;   34.000;  -23.000
319.094;   35.950;  297.000;  154.000
319.230;  -86.775; -756.000; -742.000
319.367;    7.450; -471.000; -520.000
319.503;  -22.325; -538.000; -436.000
319.639;  -88.750; -877.000; -793.000
319.775;  -96.275; -750.000; -685.000
319.912;  -69.400; -424.000; -519.000
320.048; -106.550;-1184.000;-1184.000
320.184;   84.950;   59.000;   70.000
320.321;  -55.000; -497.000; -467.000
320.457;   63.300;  475.000;  662.000
320.593;  -68.775; -375.000; -382.000
320.729; -106.800; -732.000; -734.000
320.866;  -76.850; -577.000; -635.000
321.002;  -92.625; -759.000; -809.000
321.138;  -44.275; -135.000; -211.000
321.274;   12.100; -148.000; -115.000
321.410;  -56.500; -585.000; -353.000
321.546;  -88.475;-1011.000; -911.000
321.683;   14.800;  400.000;  185.000
321.819;  -11.800;  -48.000; -117.000
321.955; -119.300; -743.000; -722.000
322.091;  -54.550; -585.000; -540.000
322.227;  -43.200; -382.000; -202.000
322.363;  -40.375; -320.000; -215.000
322.499;  -73.625; -343.000; -331.000
322.635;   99.675;  636.000;  443.000
322.771;  -21.075; -139.000;   12.000
322.907;   33.125;  129.000;  327.000
323.043;  -55.000; -115.000; -206.000
323.179;  -48.375; -394.000; -363.000
323.315;  -50.050; -401.000; -371.000
323.451;   21.850; -328.000; -236.000
323.587;   49.925;  -60.000;  -77.000
323.723;  -54.550; -682.000; -601.000
323.859;  -33.750; -258.000;  -76.000
323.995;  -51.000; -467.000; -409.000
324.131; -130.275; -967.000; -892.000
324.267;  -49.600; -254.000; -276.000
324.402; -148.225; -960.000; -983.000
324.538;  -42.750; -279.000; -104.000
324.674;  -19.300;  164.000;   77.000
324.810;   46.250;  226.000;  308.000
324.946;  -56.125; -810.000; -658.000
325.082;  -68.550; -568.000; -475.000
325.217;  -31.750;  -62.000;   16.000
325.353; -105.425; -764.000; -659.000
325.489;  -96.925; -540.000; -506.000
325.625;  -80.875; -579.000; -525.000
325.760;   73.350;  517.000;  376.000
325.896;   26.200; -515.000; -702.000
326.032;  -56.725; -403.000; -352.000
326.168;  -48.350; -462.000; -369.000
326.303;  -73.225; -352.000; -461.000
326.439;  -16.550; -336.000; -276.000
326.575;  -11.100; -190.000;  -29.000
326.710;  -26.500; -156.000;  -30.000
326.846;  -22.250;  146.000;  103.000
326.982;  -93.275; -530.000; -548.000
327.117;  -67.875; -481.000; -442.000
327.253;  -78.800; -745.000; -742.000
327.388; -139.125;-1137.000;-1153.000
327.524;  -70.375; -811.000; -578.000
327.659;  -36.250;  -58.000;  -22.000
327.795;  -19.475;   69.000;   45.000
327.931;  -74.925; -723.000; -499.000
328.066;  -33.000; -417.000; -276.000
328.202;  -57.350;   12.000; -129.000
328.337;   86.750;  957.000;  713.000
328.473;   21.375;  -12.000;  -74.000
328.608;  -20.325; -256.000; -267.000
328.743; -114.275; -799.000; -664.000
328.879;    3.675;  214.000;  114.000
329.014;  -42.050; -102.000; -122.000
329.150;  -76.700; -358.000; -483.000
329.285;  -82.375; -465.000; -466.000
329.421;  -57.825; -548.000; -246.000
329.556;  -32.950;  -36.000;   85.000
329.691;  -96.575; -633.000; -615.000
329.827;  -89.700; -626.000; -480.000
329.962;  -41.925;  131.000; -301.000
330.097;  -82.025; -673.000; -585.000
330.233;  -46.550; -410.000; -223.000
330.368; -127.450; -839.000; -628.000
330.503;   -8.700;    3.000;   98.000
330.638;  -19.000;  -93.000; -125.000
330.774;  -87.300; -609.000; -530.000
330.909;  -73.050; -434.000; -244.000
331.044;  -92.400; -714.000; -708.000
331.179; -167.425;-1217.000;-1109.000
331.315;    1.275;   77.000;   20.000
331.450;    2.025;  157.000;  285.000
331.585;  -84.475; -805.000; -706.000
331.720;  -93.575; -510.000; -460.000
331.855;   -4.750;  -35.000; -102.000
331.990;  413.975;   62.000;  138.000
332.126;  224.025; -110.000;   71.000
332.261;   11.450; -379.000; -265.000
332.396;   21.025; -135.000; -242.000
332.531;  -61.800;-1074.000;-1031.000
332.666;   99.550; -519.000; -363.000
332.801; -108.825; -726.000; -807.000
332.936;  -38.675; -192.000; -122.000
333.071; -134.050; -870.000; -817.000
333.206;   16.350;  307.000;  379.000
333.341;   18.925;  344.000;  418.000
333.476;  -86.725; -627.000; -623.000
333.611;  -37.050; -251.000; -173.000
333.746;  -45.750; -381.000; -464.000
333.881; -122.250; -973.000; -935.000
334.016; -127.000; -936.000; -917.000
334.151; -112.175; -746.000; -702.000
334.286;   -0.075;  152.000;  186.000
334.421;  -27.975; -125.000; -178.000
334.556;  -73.900; -611.000; -567.000
334.690;  -91.650; -631.000; -577.000
334.825;   42.125;  381.000;   83.000
334.960;  -74.700; -285.000; -413.000
335.095;   -2.050;  135.000;  -91.000
335.230; -101.500; -722.000; -738.000
335.365; -127.900;-1084.000; -990.000
335.499; -140.825;-1108.000;-1037.000
335.634;   23.500;    9.000;  534.000
335.769; -105.000; -755.000; -720.000
335.904;  -42.225; -603.000; -561.000
336.038;  -54.250; -735.000; -657.000
336.173; -110.825;-1206.000;-1194.000
336.308;   -2.300; -116.000; -189.000
336.443;   59.825; -544.000; -634.000
336.577;  -52.300; -936.000; -787.000
336.712;   83.425;   -4.000;  -12.000
336.847;  -37.525; -724.000; -607.000
336.981;   53.650; -272.000; -208.000
337.116;  278.475;  615.000;  501.000
337.250;  120.725; -434.000; -421.000
337.385;  453.975; -297.000; -208.000
337.520;  235.525; -632.000; -603.000
337.654;  -39.025; -215.000; -126.000
337.789; -126.350; -989.000; -933.000
337.923;  -50.350; -104.000; -205.000
338.058; -102.100; -673.000; -738.000
338.192;  -72.875; -611.000; -488.000
338.327;  -20.050;  -18.000; -155.000
338.461;  -57.475; -299.000; -469.000
338.596;  -66.650; -780.000; -638.000
338.730;  -92.100; -767.000; -803.000
338.865;  160.250;  -46.000; -140.000
338.999;    9.700; -846.000; -702.000
339.134;    3.225; -634.000; -536.000
339.268;   28.375; -741.000; -603.000
339.403;  565.725; -740.000; -775.000
339.537;  275.725; -894.000; -820.000
339.671; -105.825; -829.000; -813.000
339.806;  -41.450; -556.000; -512.000
339.940;   51.000; -261.000; -235.000
340.074; -106.850; -685.000; -510.000
340.209;  -43.550; -351.000; -230.000
340.343; -103.825; -517.000; -573.000
340.477;  132.400;  998.000; 1036.000
340.612;    6.500;-1033.000; -900.000
340.746;  250.275; -199.000; -243.000
340.880; -102.825; -924.000; -785.000
341.014;  -26.675;  -45.000; -154.000
341.149; -133.325; -756.000; -718.000
341.283; -112.800; -839.000; -754.000
341.417; -136.625;-1124.000; -938.000
341.551;  -26.275; -768.000; -708.000
341.685;  -64.850; -633.000; -611.000
341.820;  -48.775; -562.000; -493.000
341.954;  -49.650; -218.000; -349.000
342.088; -137.625;-1102.000;-1019.000
342.222;   28.075;  565.000;  618.000
342.356;  -69.775; -395.000; -335.000
342.490; -122.850; -880.000; -841.000
342.624;  -56.700; -339.000; -242.000
342.758;  -56.775; -364.000; -312.000
342.892;  -99.025; -710.000; -585.000
343.026;  -54.975;  -58.000; -116.000
343.160;  -57.450; -426.000; -376.000
343.294;  -98.125; -474.000; -337.000
343.428;  -58.250; -488.000; -448.000
343.562;  -37.200; -172.000;  -23.000
343.696;  -46.100; -385.000; -314.000
343.830;  -51.875; -362.000; -356.000
343.964;  -21.125; -231.000; -168.000
344.098;  278.150;  199.000;   70.000
344.232;  242.575; -266.000; -127.000
344.366;   71.550; -567.000; -453.000
344.500;  -41.750; -665.000; -744.000
344.634;  -51.800; -324.000; -164.000
344.768;  -61.600; -531.000; -341.000
344.902;  -20.575;  278.000;  256.000
345.035;  -67.775; -556.000; -496.000
345.169; -137.850; -933.000; -656.000
345.303;  -53.475; -308.000; -482.000
345.437; -106.075; -826.000; -717.000
345.571;  -63.375; -675.000; -594.000
345.704;  -76.800; -309.000; -532.000
345.838;  -16.575; -331.000; -284.000
345.972;  -72.675; -543.000; -495.000
346.106;  243.225; -179.000; -190.000
346.239;  482.350; -312.000; -243.000
346.373;   -7.575; -343.000; -302.000
346.507; -130.100; -950.000; -962.000
346.640;   23.525;  -30.000;   13.000
346.774;  -97.325; -650.000; -797.000
346.908;  -32.475; -138.000;  -11.000
347.041;  -99.050; -646.000; -593.000
347.175;  -10.800;  259.000;   27.000
347.309; -110.675; -698.000; -628.000
347.442; -118.100; -883.000; -732.000
347.576;  118.825;  670.000;  668.000
347.709;   42.600; -123.000;  -52.000
347.843; -120.125; -933.000; -825.000
347.976;   12.875;  235.000;  294.000
348.110; -178.600;-1268.000;-1186.000
348.243; -117.200; -679.000; -772.000
348.377;    9.650;  -26.000;   60.000
348.510;   53.125;  403.000;  540.000
348.644;  -58.725;  -37.000; -159.000
348.777;  -14.400;  180.000;  191.000
348.911;  -62.200; -142.000; -112.000
349.044;   83.125;  471.000;  448.000
349.178;  -40.175;-1069.000;-1006.000
349.311;  102.450;  141.000;  255.000
349.444;   28.275; -927.000; -813.000
349.578;  -18.025; -347.000; -200.000
349.711; -134.600; -959.000; -862.000
349.845;  -64.675; -661.000; -591.000
349.978; -168.925;-1224.000;-1137.000
350.111;  -91.675; -546.000; -612.000
350.244; -119.800; -596.000; -700.000
350.378;  -61.500; -392.000; -393.000
350.511;  -89.725; -393.000; -426.000
350.644;  -96.775; -808.000; -806.000
350.778;    6.125;  168.000;  104.000
350.911;   10.000;  134.000;  140.000
351.044; -112.500; -685.000; -615.000
351.177;  -38.075; -321.000; -281.000
351.310;  -35.925;    3.000; -131.000
351.444; -104.925; -888.000; -788.000
351.577;   17.525;  140.000;   90.000
351.710;   72.300;  593.000;  417.000
351.843;  -42.575; -165.000;  -77.000
351.976;    2.050;  149.000;  -79.000
352.109; -106.325; -621.000; -612.000
352.242;  -72.450; -464.000; -419.000
352.376;  -94.900; -580.000; -636.000
352.509;   23.700; -437.000; -356.000
352.642;  -99.800; -654.000; -604.000
352.775;   10.350; -141.000;  -98.000
352.908; -127.550; -933.000; -904.000
353.041; -105.175; -814.000; -824.000
353.174;  -75.325; -551.000; -424.000
353.307; -101.325; -753.000; -764.000
353.440;   59.800;  541.000;  453.000
353.573;  -95.725; -957.000;-1008.000
353.706;  -53.425; -384.000; -558.000
353.839;  -39.525; -264.000; -220.000
353.971; -101.025; -657.000; -512.000
354.104; -111.050; -896.000; -835.000
354.237;  -91.625; -627.000; -662.000
354.370; -105.025; -846.000; -879.000
354.503; -180.000;-1231.000;-1308.000
354.636;  -42.675; -529.000; -348.000
354.769; -141.200; -937.000; -860.000
354.902;  -18.725; -230.000; -139.000
355.034;  -26.425; -164.000; -220.000
355.167;  -19.025; -262.000; -162.000
355.300;  -62.650;-1061.000; -880.000
355.433; 1423.725;  -71.000;  -14.000
355.565; 2295.250; -402.000; -384.000
355.698;  600.750; -356.000; -296.000
355.831;  -10.650; -882.000; -801.000
355.964;   17.625; -285.000; -170.000
356.096;  -79.375; -856.000; -843.000
356.229;   -8.425; -523.000; -530.000
356.362;  516.475; -373.000; -266.000
356.494;  932.500; -229.000; -162.000
356.627;  326.800;  269.000;  377.000
356.760;  908.325;  120.000;   53.000
356.892; 1495.350; -286.000; -601.000
357.025;  340.375;  403.000;  389.000
357.157;  210.600; -167.000; -179.000
357.290; 1237.150; -856.000; -713.000
357.423;  370.700; -667.000; -556.000
357.555;   98.400; -217.000; -228.000
357.688;  102.725; -483.000; -364.000
357.820;  161.075; -870.000; -877.000
357.953; 1436.600; -563.000; -589.000
358.085;  225.325; -632.000; -612.000
358.218;   84.525;-1131.000; -932.000
358.350;   43.250;  -58.000;  312.000
358.483; -165.175;-1300.000;-1187.000
358.615; -124.500;-1182.000;-1078.000
358.747; -139.675;-1187.000;-1058.000
358.880;  -47.925; -810.000; -744.000
359.012;  -35.325; -376.000; -202.000
359.145;  -67.225; -480.000; -511.000
359.277;  -70.850; -962.000; -913.000
359.409; 1231.825;  536.000;  231.000
359.542;  253.025; -738.000; -688.000
359.674;   21.300;   46.000;   13.000
359.806;  -73.150; -565.000; -438.000
359.939;  -42.925; -617.000; -516.000
360.071;   27.925; -583.000; -579.000
360.203;  -14.100; -411.000; -364.000
360.335;   17.125;  164.000;  -16.000
360.468;   88.300; -249.000; -307.000
360.600; 1294.175; -547.000; -454.000
360.732; 4306.625; -546.000; -423.000
360.864;  662.450;-1216.000;-1044.000
360.996;   52.800; -516.000; -554.000
361.129;  -40.000; -389.000; -598.000
361.261;  -12.100;  110.000; -113.000
361.393;  -72.600; -252.000; -214.000
361.525;    5.725;   94.000;  244.000
361.657; -123.575; -821.000; -703.000
361.789;  -25.050; -139.000; -155.000
361.921;  -61.875; -642.000; -593.000
362.053;   89.500;  524.000;  541.000
362.185;  -12.625;  288.000;   72.000
362.318; -110.800; -709.000; -705.000
362.450;   29.300;  294.000;  444.000
362.582;  -84.400; -913.000; -870.000
362.714;  -59.175; -353.000; -332.000
362.846;  -84.200; -606.000; -490.000
362.978; -150.625; -941.000; -811.000
363.109;  -29.250; -161.000; -260.000
363.241;  138.700; -739.000; -749.000
363.373;  623.125; -649.000; -564.000
363.505; 1036.275; -186.000;  -91.000
363.637;  243.300; -787.000; -601.000
363.769; -135.250;-1067.000;-1080.000
363.901;  -75.075; -596.000; -654.000
364.033; -145.975;-1103.000;-1062.000
364.165;  -36.150; -283.000; -283.000
364.296;   92.850; -316.000; -177.000
364.428;  206.675;-1344.000;-1220.000
364.560;  -65.575; -679.000; -661.000
364.692;  -80.250; -738.000; -835.000
364.824;  -16.800; -588.000; -456.000
364.955;  529.575; -402.000; -564.000
365.087; 1726.225;-1097.000; -852.000
365.219;  114.575; -686.000; -816.000
365.351;  -75.800; -526.000; -572.000
365.482;   19.125;  300.000;  240.000
365.614;  -70.875; -402.000; -314.000
365.746; -111.550; -729.000; -752.000
365.877; -107.325; -706.000; -672.000
366.009;  446.525;  -35.000;  -62.000
366.141;  -20.650;-1249.000;-1134.000
366.272; -112.950; -803.000; -719.000
366.404; -114.825;-1005.000; -874.000
366.535;  -22.350; -139.000;  -12.000
366.667; -113.425; -644.000; -649.000
366.799;   15.800;  353.000;  203.000
366.930; -128.125; -862.000; -996.000
367.062;  190.400; -639.000; -613.000
367.193;  343.125; -872.000; -842.000
367.325;  -33.900; -580.000; -684.000
367.456;  -17.075; -246.000;   31.000
367.588;  290.050; -371.000; -318.000
367.719;   47.925;  -44.000;  -45.000
367.851;  -41.900; -222.000; -241.000
367.982; -118.775; -875.000; -732.000
368.113;  -16.725; -475.000; -358.000
368.245; -147.625; -960.000; -841.000
368.376;  -46.100; -254.000; -302.000
368.508;  -59.200; -188.000; -263.000
368.639; -159.050;-1166.000;-1034.000
368.770;  -97.450; -670.000; -589.000
368.902; -119.100; -836.000; -926.000
369.033; -131.000; -906.000; -855.000
369.164;  -32.875; -720.000; -653.000
369.296; -104.300; -452.000; -601.000
369.427;  -42.150; -209.000; -144.000
369.558;  -92.475; -593.000; -377.000
369.689;  -80.225; -721.000; -569.000
369.821; -140.225; -951.000; -845.000
369.952;  -33.075;   42.000; -108.000
370.083;  -49.875; -229.000; -108.000
370.214; -104.075; -735.000; -650.000
370.345;  -17.175;   65.000;   81.000
370.477; -118.175; -810.000; -790.000
370.608;   11.975; -328.000; -264.000
370.739; -123.075;-1233.000;-1292.000
370.870; -121.525;-1102.000; -923.000
371.001;  -26.150; -378.000; -467.000
371.132; -107.175; -754.000; -735.000
371.263;  -25.975;  -42.000; -148.000
371.394; -152.375; -841.000; -748.000
371.525;   16.025;  345.000;  225.000
371.657; -133.300; -808.000; -670.000
371.788;   30.050;  103.000;  199.000
371.919;   14.200; -384.000; -304.000
372.050; 1245.375;  -91.000; -156.000
372.181;  379.050; -188.000; -294.000
372.311;  100.550;   42.000; -127.000
372.442;  -51.850; -457.000; -451.000
372.573;  -57.225; -444.000; -340.000
372.704; -154.975;-1008.000; -980.000
372.835;  -25.850; -228.000; -289.000
372.966;  -87.750; -646.000; -554.000
373.097;  -93.600; -575.000; -711.000
373.228;  -95.000; -717.000; -542.000
373.359;  -45.150; -824.000; -536.000
373.490;  147.950; -881.000; -727.000
373.620;  248.850;-1001.000; -803.000
373.751;  487.600; -332.000; -396.000
373.882;  197.675; -663.000; -733.000
374.013;  -36.050; -449.000; -262.000
374.143;  -84.200; -581.000; -659.000
374.274; -129.925; -987.000; -908.000
374.405;   51.200; -388.000; -276.000
374.536;  109.275; -526.000; -387.000
374.666;  260.025; -759.000; -807.000
374.797;  -25.925; -817.000; -868.000
374.928;  172.825; -710.000; -560.000
375.058;  175.300; -535.000; -500.000
375.189;   26.600;  -59.000;  -93.000
375.320; -140.425; -928.000;-1034.000
375.450;  -48.525; -625.000; -616.000
375.581;  -49.975; -526.000; -436.000
375.712;  -57.650; -574.000; -250.000
375.842;    1.425; -438.000; -415.000
375.973;  -10.875; -554.000; -513.000
376.103; -113.950; -665.000; -648.000
376.234;  -97.250; -531.000; -552.000
376.364; -119.300; -944.000; -867.000
376.495;  144.250;  925.000;  529.000
376.625;  -80.500; -472.000; -485.000
376.756;  -60.525; -709.000; -678.000
376.886; -138.350;-1178.000;-1026.000
377.017;  136.700;-1048.000;-1061.000
377.147;  659.900; -786.000; -782.000
377.278;   90.750;  174.000;  228.000
377.408; -128.175; -801.000; -815.000
377.538; -105.500; -707.000; -693.000
377.669;  -95.075; -537.000; -613.000
377.799; -102.700; -645.000; -635.000
377.929;  -96.425; -610.000; -428.000
378.060; -130.775; -781.000; -847.000
378.190;  -49.550; -726.000; -531.000
378.320;  -51.275; -401.000; -406.000
378.451;  -37.025; -131.000;  -22.000
378.581;  -32.625;  -67.000; -110.000
378.711;   71.200; 1035.000;  866.000
378.841;  -69.100; -533.000; -675.000
378.972; -113.550; -871.000; -751.000
379.102;  -73.375; -652.000; -579.000
379.232;  -53.025; -126.000;  -73.000
379.362; -117.500;-1001.000; -885.000
379.492;  -61.150; -373.000; -424.000
379.623;   40.075;    0.000;  111.000
379.753; -125.100;-1107.000; -974.000
379.883;   75.500;   59.000;  156.000
380.013;  -99.675;-1081.000;-1017.000
380.143; -130.700;-1097.000;-1056.000
380.273; -130.425; -985.000; -861.000
380.403;   -2.250; -344.000; -257.000
380.533;  -56.025; -651.000; -664.000
380.663;   22.225;  173.000;  128.000
380.793; -152.125;-1027.000;-1074.000
380.923;  -40.050; -103.000;  -34.000
381.053; -116.650; -613.000; -623.000
381.183;  -47.600; -106.000; -248.000
381.313;  -66.200; -656.000; -470.000
381.443;  -63.275; -692.000; -473.000
381.573;  -36.175; -402.000; -409.000
381.703;  -92.875;-1249.000;-1095.000
381.833; -200.825;-1454.000;-1336.000
381.963;   20.575; -134.000;  -87.000
382.093;  371.175; -925.000; -909.000
382.223;  103.250; -713.000; -602.000
382.353;  -87.975; -801.000; -608.000
382.482;    4.850;-1091.000; -964.000
382.612;  147.900; -872.000; -644.000
382.742;   78.000; -695.000; -622.000
382.872;  -28.000; -565.000; -551.000
383.002;   10.650;  347.000; -132.000
383.131;  -38.775; -226.000; -160.000
383.261;  -33.725; -706.000; -768.000
383.391;  327.075; -552.000; -377.000
383.521; 5117.700;  451.000;  263.000
383.650; 1562.475; -947.000; -904.000
383.780;   36.825; -783.000; -656.000
383.910;   85.675;  880.000;  802.000
384.039;  -91.575; -794.000; -656.000
384.169;  -95.350;-1205.000;-1017.000
384.299;  -87.325; -650.000; -662.000
384.428; -127.575; -764.000; -680.000
384.558;  -62.025; -308.000; -275.000
384.687;  -82.100; -414.000; -334.000
384.817;  -21.800;   75.000;   -2.000
384.947;  -45.200; -234.000; -141.000
385.076;  138.225;  982.000;  912.000
385.206;   30.000;  369.000;  480.000
385.335;  -74.625; -549.000; -417.000
385.465; -130.400; -655.000; -663.000
385.594;   16.225;  -53.000;  -44.000
385.724;   14.350; -868.000; -838.000
385.853;   -8.450; -296.000; -270.000
385.982;  314.975; -743.000; -787.000
386.112;  609.325;-1052.000; -871.000
386.241;   -6.925; -307.000; -312.000
386.371;  -17.375; -174.000;  -87.000
386.500;  -69.550; -825.000; -789.000
386.629;   -1.500; -874.000; -817.000
386.759;   75.525;  -43.000;   68.000
386.888;  -26.900; -170.000; -250.000
387.017; -113.475; -648.000; -620.000
387.147;  -97.600; -771.000; -798.000
387.276;  -75.550; -410.000; -397.000
387.405;  -52.725; -398.000; -342.000
387.535;  -90.375; -452.000; -361.000
387.664;  -76.775; -692.000; -620.000
387.793;  -39.925; -198.000; -113.000
387.922;  138.875;  255.000;  200.000
388.052;  -73.650; -576.000; -423.000
388.181;  -64.825; -342.000; -472.000
388.310; -115.525; -889.000; -710.000
388.439; -105.675; -749.000; -742.000
388.568;   32.475;  365.000;  244.000
388.697;  246.250; -756.000; -653.000
388.826;  -16.250; -768.000; -666.000
388.956;  -35.075; -285.000; -307.000
389.085;  -57.675; -347.000; -287.000
389.214; -108.250; -842.000; -872.000
389.343;  -83.425; -645.000; -413.000
389.472;  554.425;  126.000;  149.000
389.601;  638.000;   91.000;    0.000
389.730;  -25.350; -568.000; -687.000
389.859;    0.225;  226.000;   46.000
389.988;    6.575; -423.000; -408.000
390.117;   21.950; -168.000; -146.000
390.246;  -56.150; -331.000; -320.000
390.375;  -84.025; -673.000; -626.000
390.504;  -94.975; -703.000; -621.000
390.633; -134.200; -672.000; -726.000
390.761; -100.350; -732.000; -645.000
390.890;  -48.425;   -4.000; -130.000
391.019;  -74.750; -421.000; -441.000
391.148; -141.150; -826.000; -855.000
391.277;  -79.425; -576.000; -493.000
391.406; -126.300; -821.000; -805.000
391.534;    9.425;  574.000; -301.000
391.663;  -97.425; -583.000; -645.000
391.792; -101.200; -673.000; -701.000
391.921;  -14.525;   -3.000;   15.000
392.050;  -21.700; -287.000; -228.000
392.178; -152.550;-1206.000;-1061.000
392.307;  -37.900; -758.000; -712.000
392.436;  -57.000; -427.000; -641.000
392.564;   -9.875;  166.000;   -6.000
392.693; -121.250; -860.000; -682.000
392.822;   -9.925; -529.000; -534.000
392.950;  -67.350; -880.000; -714.000
393.079;   41.475; -188.000; -328.000
393.208;  -48.350; -488.000; -511.000
393.336;  -29.525; -170.000; -145.000
393.465;  -63.800; -317.000; -199.000
393.593;  -14.225;   62.000;   79.000
393.722; -169.300;-1121.000; -916.000
393.850;  -38.200; -188.000;  -61.000
393.979; -156.700; -926.000; -805.000
394.107;  -75.450; -517.000; -537.000
394.236;  -62.000; -570.000; -507.000
394.364;   80.025;  383.000;  206.000
394.493;   63.900; -911.000; -767.000
394.621;   -3.450; -955.000; -916.000
394.750; 1153.950; -873.000; -923.000
394.878; 4494.925; -247.000; -149.000
395.007; 6567.000; -721.000; -807.000
395.135;  577.725; -790.000; -721.000
395.263;  -46.600;-1038.000;-1040.000
395.392;   -3.925;  -25.000; -107.000
395.520; -133.100; -818.000; -679.000
395.648; -132.325; -865.000; -915.000
395.777;  -84.275; -366.000; -405.000
395.905;  -74.175; -449.000; -564.000
396.033;  -12.325;  217.000;  172.000
396.162;  102.625; -399.000; -453.000
396.290;   98.025;  -17.000;   -2.000
396.418;  -53.525; -555.000; -514.000
396.546;  -99.525; -571.000; -466.000
396.674; -124.650; -850.000; -878.000
396.803;  -56.175;  -72.000;  -23.000
396.931;  -36.550; -179.000; -199.000
397.059; -124.400;-1026.000; -989.000
397.187; -148.525;-1026.000; -975.000
397.315; -156.350; -884.000; -649.000
397.443;  -97.600; -592.000; -443.000
397.572; -111.425; -578.000; -424.000
397.700;  -97.875; -607.000; -614.000
397.828;  -44.700;  120.000;  -90.000
397.956;  -42.375; -508.000; -478.000
398.084;  -37.175; -767.000; -626.000
398.212;    1.075;  137.000;  124.000
398.340;  -36.675;  -56.000;  159.000
398.468;  -53.525; -390.000; -169.000
398.596; -169.050; -993.000; -953.000
398.724; -124.275; -762.000; -767.000
398.852; -157.900;-1024.000; -976.000
398.980;  -88.250; -560.000; -560.000
399.108; -104.400; -982.000; -735.000
399.236;  -12.450;   13.000;    8.000
399.363;  -21.600;  222.000;  196.000
399.491;  -68.925; -404.000; -398.000
399.619; -120.300; -829.000; -800.000
399.747; -118.425; -859.000; -771.000
399.875;   13.400;  220.000;  234.000
400.003;  -52.750; -359.000; -284.000
400.130; -110.050; -421.000; -341.000
400.258;  -48.250;  -83.000;   38.000
400.386;  -81.850; -352.000; -168.000
400.514;  -88.925; -526.000; -587.000
400.641; -146.600; -928.000; -802.000
400.769; -157.050; -979.000; -888.000
400.897; -131.650; -838.000; -793.000
401.025;  -45.975; -166.000; -152.000
401.152;  -19.300;  220.000;   38.000
401.280;  -88.800; -430.000; -429.000
401.408; -125.025; -712.000; -576.000
401.535; -104.150; -735.000; -758.000
401.663; -207.925;-1134.000;-1054.000
401.790; -104.150; -514.000; -525.000
401.918;   27.325;  436.000;  405.000
402.046;   -9.650;  134.000;  122.000
402.173;  -51.200;  -18.000;    7.000
402.301;  -73.725; -519.000; -397.000
402.428;   24.000;  528.000;  383.000
402.556; -153.925;-1188.000; -913.000
402.683;  -57.275;  -20.000;   -1.000
402.811;  -31.950;  -37.000; -206.000
402.938;  -30.425;   20.000;   27.000
403.066;   -8.400; -574.000; -558.000
403.193;   84.250;  299.000;  239.000
403.321;   54.925; -396.000; -574.000
403.448;  115.600;   83.000;   27.000
403.575;   40.650;  -90.000;  -46.000
403.703; -113.525; -732.000; -557.000
403.830;  -59.975; -531.000; -496.000
403.957; -126.900;-1117.000;-1023.000
404.085;   17.500;  -61.000; -172.000
404.212;  105.000;  -50.000;   63.000
404.339;  427.150; -566.000; -306.000
404.467; 8941.975; -612.000; -524.000
404.594; 5573.725; -287.000; -227.000
404.721;  962.875; -869.000; -764.000
404.848;   99.275; -113.000; -202.000
404.976; -107.300; -856.000; -783.000
405.103;  -12.450;  -14.000;  -82.000
405.230;    1.450;  190.000;  226.000
405.357;   32.775;  117.000;   44.000
405.484;  397.950;  -49.000;    5.000
405.612;  117.300; -548.000; -563.000
405.739;  -64.000; -488.000; -243.000
405.866;   68.875;  669.000;  385.000
405.993;  -57.950; -398.000; -102.000
406.120; -135.650; -801.000; -887.000
406.247;  -79.650; -323.000; -342.000
406.374;  105.000;  540.000;  629.000
406.501;  -83.450; -632.000; -702.000
406.628; -105.275; -621.000; -589.000
406.755; -120.750; -803.000; -620.000
406.882;  -58.175; -228.000; -277.000
407.009; -119.925; -719.000; -628.000
407.136;  -62.700; -480.000; -401.000
407.263;  -82.325; -939.000; -829.000
407.390;  -99.075; -692.000; -614.000
407.517; -186.425;-1139.000;-1187.000
407.644;  -68.450; -332.000; -256.000
407.771; -102.725; -249.000; -287.000
407.898;  -12.325;  168.000;  328.000
408.025; -102.075; -421.000; -313.000
408.151;  -25.475;   82.000;  153.000
408.278;  -76.250; -267.000; -216.000
408.405; -142.000; -931.000; -899.000
408.532;  -92.025; -549.000; -542.000
408.659; -130.575; -677.000; -648.000
408.785; -199.250;-1298.000;-1170.000
408.912;  -70.450; -412.000; -296.000
409.039; -122.475; -610.000; -686.000
409.166; -106.350; -591.000; -555.000
409.292; -111.050; -571.000; -534.000
409.419; -116.725; -665.000; -649.000
409.546;  -98.850; -431.000; -192.000
409.672; -115.725; -713.000; -545.000
409.799;  -39.400;  -36.000;   34.000
409.926;  -60.950; -180.000; -179.000
410.052; -194.050;-1127.000;-1091.000
410.179;  -84.200; -368.000; -392.000
410.305;  -94.925; -375.000; -493.000
410.432;  -47.975; -220.000; -333.000
410.558; -106.250; -305.000; -380.000
410.685; -102.200; -688.000; -431.000
410.812; -118.525; -409.000; -588.000
410.938; -143.000; -964.000; -808.000
411.065; -124.175; -671.000; -645.000
411.191;  -39.975; -189.000; -174.000
411.317; -138.850; -823.000; -742.000
411.444;  -69.575; -317.000; -246.000
411.570;  -79.150; -339.000; -294.000
411.697; -128.575; -758.000; -752.000
411.823; -176.250; -989.000; -999.000
411.949;  -48.900;  -56.000;   17.000
412.076; -124.450; -539.000; -519.000
412.202; -127.750; -758.000; -757.000
412.329; -132.200; -798.000; -752.000
412.455; -119.825; -821.000; -657.000
412.581;  -34.725;  -15.000;  172.000
412.707;  -91.550; -540.000; -457.000
412.834;  -24.425;  156.000;  219.000
412.960; -110.250; -785.000; -784.000
413.086; -119.325; -743.000; -701.000
413.212;  101.025;  604.000;  578.000
413.339; -109.550; -685.000; -701.000
413.465;  -59.675; -364.000; -310.000
413.591; -112.700; -757.000; -474.000
413.717;  -53.400; -358.000; -366.000
413.843; -140.625; -839.000; -861.000
413.969;  -59.950;  -47.000; -292.000
414.096;  -98.750; -679.000; -679.000
414.222;  -13.250;  -33.000;   85.000
414.348;  -91.175; -652.000; -385.000
414.474;  -12.575;   38.000;  -52.000
414.600;  -26.025; -126.000; -144.000
414.726;  -29.500;  -96.000;  -55.000
414.852;  -47.525; -365.000; -342.000
414.978;   38.300;  104.000;  -18.000
415.104;   43.250;   38.000;   80.000
415.230;   38.275; -329.000; -330.000
415.356;   55.825; -409.000; -514.000
415.482;  213.700;   13.000;  -35.000
415.608;  411.900; -247.000; -323.000
415.734; 1331.625;   67.000;   38.000
415.860;27440.525; -875.000; -767.000
415.986;22878.700; -685.000; -607.000
416.111; 2136.450; -798.000; -652.000
416.237;  472.300; -424.000; -571.000
416.363; 1685.475; -765.000; -733.000
416.489; 6780.550; -324.000; -251.000
416.615;  932.600; -707.000; -742.000
416.741;   67.350; -677.000; -784.000
416.866;  -52.600; -673.000; -736.000
416.992;  -89.375; -801.000; -818.000
417.118;  -33.825;  -41.000;  -80.000
417.244;  -85.775; -798.000; -531.000
417.369;  -89.525; -801.000; -612.000
417.495;  -18.925; -325.000; -254.000
417.621;  -79.150;-1015.000; -803.000
417.746;    8.375; -579.000; -572.000
417.872;   58.200; -254.000; -144.000
417.998;  124.550; -515.000; -530.000
418.123; 1523.625;-1073.000; -845.000
418.249; 8616.450; -512.000; -601.000
418.374; 1465.325; -916.000; -824.000
418.500;  233.450; -383.000; -482.000
418.626;  168.675;   70.000;  -59.000
418.751;  155.900; -549.000; -448.000
418.877;  307.275; -637.000; -643.000
419.002; 2526.875; -688.000; -560.000
419.128;19593.775; -930.000; -721.000
419.253; 5642.050; -967.000; -837.000
419.379;  757.350; -391.000; -338.000
419.504;  588.725;  325.000;  415.000
419.629;  837.450; -393.000; -212.000
419.755; 5377.725; -317.000; -254.000
419.880;35097.475;  -98.000;   67.000
420.006;17589.525; -280.000; -221.000
420.131;43777.850; -662.000; -775.000
420.256; 7160.400; -315.000; -316.000
420.382;  971.625; -665.000; -687.000
420.507;  172.250; -649.000; -778.000
420.632;   37.375; -337.000; -339.000
420.758;   41.450; -251.000; -425.000
420.883;  -90.800; -876.000; -672.000
421.008; -108.550; -775.000; -619.000
421.133;  -98.575; -509.000; -467.000
421.259;  -51.075; -325.000; -259.000
421.384; -130.325; -834.000; -693.000
421.509; -124.675;-1052.000; -862.000
421.634;  117.875; -936.000; -820.000
421.759;   81.500; -359.000; -327.000
421.885; -102.275; -717.000; -656.000
422.010;  -96.275; -673.000; -542.000
422.135; -151.025; -695.000; -727.000
422.260;    8.950;  340.000;  280.000
422.385;  -60.900;   12.000;  -98.000
422.510;  -10.375;  151.000;  -26.000
422.635;  -24.750;  -87.000;  -43.000
422.760;  -34.025; -766.000; -791.000
422.885;   23.375;  -57.000;  -80.000
423.010;  -36.825; -112.000; -169.000
423.135;  -98.900; -481.000; -561.000
423.260;  -54.400; -150.000; -245.000
423.385;   -2.525;  476.000;  222.000
423.510;   -8.625;   71.000;  -22.000
423.635;    0.650;  133.000;   45.000
423.760;   33.375;  383.000;  328.000
423.885;    7.475;  336.000;  391.000
424.010;    5.425;  -68.000;  -13.000
424.135;  -23.925;    5.000;  -33.000
424.259;  -69.850; -654.000; -457.000
424.384;  -56.900; -279.000; -272.000
424.509;   -6.275; -260.000; -186.000
424.634;  -92.700; -761.000; -623.000
424.759;  -41.500; -688.000; -544.000
424.883;   -6.425; -506.000; -527.000
425.008;  204.975; -502.000; -410.000
425.133; 2862.675; -679.000; -653.000
425.258; 1585.750; -517.000; -381.000
425.382;  486.350; -867.000; -774.000
425.507; 1098.975; -487.000; -543.000
425.632;  365.800; -802.000; -663.000
425.756;  694.875; -256.000; -146.000
425.881;10117.675; -831.000; -857.000
426.006;31486.725; -604.000; -355.000
426.130; 5210.350; -696.000; -508.000
426.255;  716.025; -611.000; -491.000
426.379;  278.450; -189.000; -577.000
426.504;  502.750;  660.000;  544.000
426.629; 5639.050; -519.000; -466.000
426.753; 4431.875;   64.000;  -46.000
426.878;  559.700; -252.000; -288.000
427.002;  323.075; -651.000; -668.000
427.127; 2046.425;  -35.000; -158.000
427.251;17327.550;  372.000;  401.000
427.375; 5715.350; -191.000; -173.000
427.500; 1272.750; -616.000; -610.000
427.624;  395.950; -234.000; -400.000
427.749;   84.025; -216.000; -225.000
427.873;  -43.325; -499.000; -412.000
427.997;  -36.925; -222.000; -230.000
428.122;   52.825;  795.000;  703.000
428.246;   30.550;  433.000;  434.000
428.371; -149.400; -869.000; -773.000
428.495;  -98.225; -624.000; -646.000
428.619;  -51.800; -186.000; -117.000
428.743;    7.125;   65.000;  132.000
428.868;  -76.825; -732.000; -643.000
428.992;  459.550; -219.000; -326.000
429.116;  155.775; -329.000; -357.000
429.240;  110.600;  419.000;  426.000
429.365;  -44.775; -454.000; -574.000
429.489;  -42.175; -638.000; -647.000
429.613;   20.550; -236.000; -177.000
429.737;   73.575; -563.000; -432.000
429.861;  364.100; -247.000; -133.000
429.985; 7914.950; -425.000; -305.000
430.109;10202.475; -770.000; -908.000
430.234; 1252.225;   76.000;  -50.000
430.358;  144.200; -250.000; -160.000
430.482;  -43.475; -672.000; -564.000
430.606;  -77.925; -655.000; -375.000
430.730;  -57.675; -437.000; -388.000
430.854; -103.850; -909.000; -835.000
430.978;  -97.775; -795.000; -764.000
431.102;  -96.975; -499.000; -422.000
431.226; -115.700; -874.000; -815.000
431.350;   -5.200;  345.000;  422.000
431.474;  -85.375; -661.000; -373.000
431.597; -166.400;-1060.000; -848.000
431.721;  -92.050; -276.000; -267.000
431.845; -125.100; -704.000; -472.000
431.969;  -86.425; -304.000; -349.000
432.093; -100.675; -395.000; -317.000
432.217;  -12.200;   32.000;   82.000
432.341; -100.650; -523.000; -518.000
432.464;  -16.200;   96.000;   40.000
432.588;  -26.375; -401.000; -329.000
432.712;   23.400;  -52.000;  -52.000
432.836;   70.900;  213.000;  263.000
432.959;   20.675; -372.000; -311.000
433.083;  161.500;   11.000;    2.000
433.207;  555.400;  285.000;  930.000
433.330; 7602.050; -391.000; -200.000
433.454;10672.575; -654.000; -638.000
433.578; 5838.075;  583.000;  278.000
433.701; 1271.800; -623.000; -675.000
433.825;  151.800; -292.000; -299.000
433.949;   48.650;   28.000;  -72.000
434.072;  -26.925; -410.000; -323.000
434.196;   -6.850; -309.000; -117.000
434.319; 3472.850;25482.000;25124.000
434.443;  875.200; -656.000; -603.000
434.566; 4099.575;  281.000;   62.000
434.690;  914.225; -637.000; -383.000
434.813;  135.625; -251.000; -173.000
434.937;  -51.450; -569.000; -696.000
435.060;  -75.675; -423.000; -332.000
435.184;  -18.275; -492.000; -217.000
435.307;   -9.925;  159.000;  102.000
435.431;  -39.450;  -40.000;   24.000
435.554;  -83.300; -399.000; -240.000
435.677;  -92.250; -350.000; -258.000
435.801;  -48.700;  -25.000;   49.000
435.924;  -49.750;    1.000;  -67.000
436.048; -147.325;-1019.000; -732.000
436.171;  -79.575; -240.000;  -66.000
436.294;  -19.125; -248.000; -229.000
436.417;  213.400; -963.000; -849.000
436.541;  -50.925; -814.000; -840.000
436.664;  -40.325; -242.000; -316.000
436.787;  -34.925;   13.000;  113.000
436.910; -121.050; -792.000; -422.000
437.034;  -13.350;  142.000;  143.000
437.157;    1.425;  -11.000;    0.000
437.280;  -87.575; -392.000; -292.000
437.403; -155.225; -982.000; -869.000
437.526;  -26.425; -903.000; -865.000
437.649;  429.175; -505.000; -332.000
437.772;  -13.850; -692.000; -540.000
437.896;   58.450;  700.000;  544.000
438.019; -133.425; -758.000; -503.000
438.142;  -96.375; -596.000; -506.000
438.265; -125.175; -639.000; -670.000
438.388;   14.125; -520.000; -410.000
438.511;  -78.350; -597.000; -394.000
438.634;  -81.150; -247.000; -125.000
438.757; -139.125; -693.000; -619.000
438.880;  -58.725;  -34.000;  -57.000
439.003; -116.875; -417.000; -437.000
439.126;  -74.175; -287.000; -167.000
439.248;  -75.000;  -98.000; -139.000
439.371;  -55.050;    9.000;  -53.000
439.494;   -0.625;  510.000;  439.000
439.617;  -49.125;   65.000;  -88.000
439.740; -177.025; -968.000; -816.000
439.863; -146.100; -755.000; -595.000
439.986; -126.275; -476.000; -431.000
440.108;  -31.625; -161.000; -112.000
440.231; -170.000; -950.000; -836.000
440.354;  -64.950;  -64.000; -150.000
440.477; -114.225; -566.000; -542.000
440.599;  -76.375; -200.000; -225.000
440.722; -142.000; -709.000; -586.000
440.845;   59.625;  751.000;  928.000
440.968; -120.925; -415.000; -311.000
441.090;  -67.850; -199.000;  -33.000
441.213; -167.625;-1021.000; -825.000
441.336;  -65.275; -159.000;   -5.000
441.458; -101.900; -549.000; -396.000
441.581; -128.475; -628.000; -629.000
441.703;  -97.375; -152.000;   13.000
441.826; -118.650; -557.000; -400.000
441.948;  -63.425;   56.000;   51.000
442.071;   12.325;  555.000;  424.000
442.193; -137.450; -531.000; -485.000
442.316;    4.425;  152.000;   97.000
442.438;   69.475; -233.000;  -10.000
442.561;   61.725;  272.000;  262.000
442.683;   28.950; -809.000; -522.000
442.806;  235.250;   -8.000;   74.000
442.928; -117.850; -859.000; -604.000
443.051;  -90.475; -577.000; -373.000
443.173; -107.400; -341.000; -339.000
443.295;  -94.175; -263.000; -371.000
443.418;  -83.600; -321.000;  -29.000
443.540;  -45.300; -106.000;   -4.000
443.662; -147.450; -563.000; -465.000
443.785;  -12.150;  335.000;  199.000
443.907; -107.500; -362.000; -208.000
444.029; -128.550; -767.000; -494.000
444.152; -145.600; -644.000; -554.000
444.274;  -51.800;  -18.000;  -24.000
444.396; -125.800; -461.000; -221.000
444.518; -117.950; -691.000; -454.000
444.640; -119.100; -268.000; -111.000
444.763;  -15.850;  388.000;  249.000
444.885; -139.900; -432.000; -392.000
445.007;  -35.300;   35.000;   86.000
445.129; -139.900; -610.000; -515.000
445.251; -111.375; -372.000; -439.000
445.373; -152.975; -537.000; -386.000
445.495;  -24.425;  242.000;  350.000
445.617;   28.375;  853.000;  753.000
445.739;  -72.175; -215.000;  -97.000
445.861;  -71.600; -245.000; -112.000
445.984;  -59.825; -267.000; -101.000
446.105;  -34.725; -418.000; -251.000
446.227;  103.800; -176.000;  -19.000
446.349;  -86.025; -358.000; -249.000
446.471; -116.150; -615.000; -448.000
446.593;  -90.850; -316.000;   19.000
446.715;  -51.550;  -67.000;   41.000
446.837;   24.000;  697.000;  832.000
446.959; -110.150; -457.000; -478.000
447.081; -152.550; -628.000; -518.000
447.203;   37.800;  862.000;  834.000
447.325;  -91.950; -270.000;   42.000
447.446;  -11.350;  286.000;  530.000
447.568; -160.250; -921.000; -803.000
447.690;  -88.300; -236.000; -245.000
447.812; -154.450; -798.000; -519.000
447.933;  -26.775;  155.000;  127.000
448.055;  -82.575; -306.000; -261.000
448.177;   26.325;   31.000;   79.000
448.299; -111.100; -935.000; -727.000
448.420;  -16.050;  -25.000;  159.000
448.542;  -86.475;   -3.000;   33.000
448.664;  -24.100;  109.000;  322.000
448.785;  -52.550;  265.000;   83.000
448.907;  -98.450; -614.000; -353.000
449.028; -111.650; -771.000; -471.000
449.150;   35.125;  492.000;  589.000
449.272; -180.950;-1044.000; -913.000
449.393;   26.625;  612.000;  694.000
449.515; -135.950; -634.000; -581.000
449.636;  -84.200; -264.000; -155.000
449.758;   39.850;  763.000;  622.000
449.879;  -96.950; -498.000; -396.000
450.001;  -90.150; -149.000;  -49.000
450.122;  -46.150;  -95.000;  162.000
450.244;   -7.950;   37.000;  364.000
450.365;  -64.500; -495.000; -301.000
450.486;  -20.650;   80.000;  268.000
450.608;   48.075;  393.000;  326.000
450.729;  100.125;  578.000;  645.000
450.850;   93.875; -574.000; -466.000
450.972; 1213.475; -552.000; -389.000
451.093; 8017.125;  190.000;  588.000
451.214; 4178.750; -516.000; -337.000
451.336;  712.100;  773.000;  579.000
451.457;   96.850;  264.000;  393.000
451.578;  -26.025; -118.000;  -74.000
451.699; -117.050; -546.000; -540.000
451.821;  -44.175; -284.000;  -50.000
451.942;   -8.950;  278.000;  285.000
452.063;   58.025;  228.000;  419.000
452.184;  791.175;  -54.000;  -49.000
452.305; 1745.050;  103.000;  170.000
452.427;  333.175; -549.000; -301.000
452.548;    5.050;   23.000;   79.000
452.669;  -61.750; -257.000;  -89.000
452.790;  -59.450;    3.000;  -18.000
452.911;  -19.200;  195.000;  259.000
453.032;  -69.750; -289.000;  -60.000
453.153;  -65.850;  -29.000;   81.000
453.274;   43.475;  737.000;  868.000
453.395;  -73.725;  -51.000;  175.000
453.516;   94.575; 1317.000; 1388.000
453.637; -116.600; -205.000; -150.000
453.758;  -59.050;   15.000;   69.000
453.879; -113.125; -462.000; -250.000
454.000;   53.375; 1086.000;  948.000
454.121; -140.225; -554.000; -326.000
454.242; -110.075; -599.000; -383.000
454.362;  -60.050;  -99.000;  114.000
454.483;  -15.675; -309.000; -229.000
454.604;   52.625;  512.000;  580.000
454.725; -123.125; -627.000; -555.000
454.846; -119.350; -474.000; -406.000
454.967;  -25.950;  230.000;  539.000
455.087;  -56.100;  179.000;  153.000
455.208;   19.175;  554.000;  856.000
455.329;  -69.150;  -22.000;   82.000
455.450;   67.475;  473.000;  633.000
455.570;  -67.700; -234.000; -211.000
455.691;  -48.600;  201.000;  407.000
455.812; -115.450; -270.000;  -92.000
455.932;  -62.475;  107.000;  -97.000
456.053;  -81.175;   36.000;   24.000
456.173; -116.725; -433.000; -355.000
456.294; -125.875; -476.000; -303.000
456.415;  -59.075;  -73.000;   70.000
456.535;  -48.900;  297.000;  273.000
456.656;  -51.575;  132.000;  240.000
456.776;  -72.575;    3.000;  298.000
456.897;   -1.800;  308.000;  513.000
457.017;  -88.325; -153.000;   -3.000
457.138; -105.950; -402.000; -249.000
457.258;  -48.500;  263.000;  224.000
457.379;   -4.225;  509.000;  521.000
457.499;  -36.725;  443.000;  432.000
457.620; -110.825; -407.000; -231.000
457.740; -108.325; -132.000;  -11.000
457.860;  -60.125;   87.000;   44.000
457.981;  -53.650;  132.000;  124.000
458.101;  -75.175;  -89.000;   40.000
458.221;  -13.875;  336.000;  402.000
458.342;  -54.400;   -4.000;  -37.000
458.462;   37.725;  617.000;  352.000
458.582;   20.225; -302.000; -294.000
458.703;   46.925;  303.000;  154.000
458.823;    9.825;   22.000;  163.000
458.943;   47.550;  341.000;  467.000
459.063;    1.400; 1124.000;  192.000
459.183;  -24.775;  328.000;  313.000
459.304;   12.050;  315.000;  517.000
459.424;  -57.600; -246.000;  -89.000
459.544;  458.850;  388.000;  764.000
459.664; 1325.450;  499.000;  506.000
459.784;  498.775; 1004.000; 1175.000
459.904;   81.950;  867.000;  744.000
460.024;   58.600;  867.000;  684.000
460.144;  -22.575;  449.000;  554.000
460.264;   -9.125;  515.000;  327.000
460.385;  -96.950; -145.000; -119.000
460.505;   26.150;  905.000;  858.000
460.625;  -95.225;  -17.000;  -68.000
460.745;  -24.600;  396.000;  541.000
460.864;  -47.650;  153.000;  469.000
460.984;   39.750;  499.000;  573.000
461.104;  123.500; 1656.000; 1775.000
461.224;   18.500;  657.000;  650.000
461.344;  -41.125;  431.000;  360.000
461.464;  -35.650;  258.000;  513.000
461.584;  -35.225;  283.000;  466.000
461.704;  -55.525;   58.000;  108.000
461.824;  -64.450;  238.000;  259.000
461.943;  -45.650;  191.000;  130.000
462.063;  -85.300;    2.000;  324.000
462.183;   16.375;  639.000;  717.000
462.303;   82.050; 1678.000; 1230.000
462.422;   18.175;  781.000;  840.000
462.542;  -42.500;  271.000;  391.000
462.662;   41.700;  353.000;  380.000
462.782;  321.000;  833.000;  572.000
462.901;  743.125;  545.000;  717.000
463.021;  388.500; 1702.000; 1638.000
463.141;   15.125;  337.000;  770.000
463.260;  -28.200;  614.000;  474.000
463.380;   24.150;  902.000;  884.000
463.499;  -40.100;  342.000;  332.000
463.619;  -38.025;  581.000;  559.000
463.738;  101.650; 1644.000;  903.000
463.858;    4.150;  657.000;  811.000
463.978;  -42.025;  542.000;  396.000
464.097;   60.650;  921.000; 1114.000
464.217;  148.175; 1196.000; 1143.000
464.336;  158.050; 1068.000; 1130.000
464.455;  -24.600;  328.000;  659.000
464.575;   -1.175;  597.000;  602.000
464.694;  124.925; 1204.000; 1179.000
464.814;  149.125; 1190.000; 1138.000
464.933;   86.450; 1095.000; 1027.000
465.052;   92.125; 1412.000; 1054.000
465.172;   65.425;  922.000;  799.000
465.291;  108.250; 1376.000; 1320.000
465.410;   -1.475;  462.000;  735.000
465.530;   79.625; 1355.000; 1310.000
465.649;   53.200; 1209.000; 1273.000
465.768;  131.175; 1673.000; 1508.000
465.888;   53.675;  941.000; 1174.000
466.007;   93.350; 1335.000; 1440.000
466.126;    0.775;  721.000;  641.000
466.245;   28.975; 1176.000; 1187.000
466.364;   13.750;  950.000; 1060.000
466.484;   51.100; 1024.000; 1213.000
466.603;   10.500; 1101.000; 1222.000
466.722;   92.400; 1490.000; 1769.000
466.841;   40.475; 1151.000; 1401.000
466.960;   49.075; 1069.000;  972.000
467.079;  108.150; 1971.000; 1786.000
467.198;   51.750; 1238.000; 1181.000
467.317;   57.275; 1768.000; 1162.000
467.436;   60.725; 1709.000; 1261.000
467.555;  117.375; 1796.000; 1746.000
467.674;   62.900; 1227.000; 1329.000
467.793;   49.000; 1376.000; 1374.000
467.912;   90.100; 1658.000; 1539.000
468.031;  111.250; 2038.000; 1930.000
468.150;  131.900; 1842.000; 1837.000
468.269;  167.500; 2313.000; 2090.000
468.388;  179.600; 2168.000; 2339.000
468.507;  231.700; 2884.000; 2903.000
468.626;  223.850; 2555.000; 2541.000
468.744;  133.800; 2018.000; 2174.000
468.863;  202.650; 2312.000; 2523.000
468.982;   93.800; 1503.000; 1555.000
469.101;  211.575; 2788.000; 2692.000
469.220;  141.625; 2333.000; 2176.000
469.338;  224.200; 2935.000; 3051.000
469.457;  192.425; 2719.000; 2545.000
469.576;  356.425; 3953.000; 3784.000
469.695;  239.850; 2877.000; 3066.000
469.813;  403.275; 4148.000; 4192.000
469.932;  409.800; 4255.000; 4485.000
470.051;  449.675; 4075.000; 4161.000
470.169; 1044.125; 4470.000; 4338.000
470.288; 2033.725; 4700.000; 4809.000
470.406; 1169.275; 5059.000; 5194.000
470.525;  676.575; 6101.000; 5787.000
470.644;  629.100; 6847.000; 6794.000
470.762;  806.850; 8397.000; 7873.000
470.881;  911.750; 8651.000; 8464.000
470.999; 1082.400; 9685.000; 9151.000
471.118; 1110.800;11174.000;10711.000

