
Integration time [ms]: 200.000
Averaging Nr. [scans]: 10
Smoothing Nr. [pixels]: 0
Data measured with spectrometer [name]: 2101012U2
Wave   ;Sample   ;Dark     ;Reference
[nm]   ;[counts] ;[counts] ;[counts] 

197.733;  109.500;  516.000;  404.000
197.879; -178.300; -610.000; -634.000
198.025; -119.900; -475.000; -420.000
198.171; -168.300; -602.000; -612.000
198.317;  -87.600; -401.000; -316.000
198.463;  -99.700; -655.000; -404.000
198.609;   46.000;  181.000; -137.000
198.755; -166.100; -644.000; -410.000
198.901; -108.600; -505.000; -424.000
199.047; -122.300; -615.000; -488.000
199.193; -100.200; -230.000; -468.000
199.339;  -70.400; -222.000; -369.000
199.485;   85.900;  330.000;  271.000
199.631;   48.900;  227.000;  310.000
199.777;  -97.500; -466.000; -398.000
199.923; -125.700; -610.000; -424.000
200.069;  -15.000; -141.000;  -58.000
200.215;  132.600;  128.000;  453.000
200.361;   97.900;  243.000;  477.000
200.507; -118.500; -600.000; -373.000
200.653;  -53.700; -371.000; -194.000
200.798;  -45.900; -215.000; -125.000
200.944;  -23.600; -146.000;  -41.000
201.090;   90.500;   61.000;  222.000
201.236;   27.400; -116.000; -158.000
201.382;  257.800;  874.000;  903.000
201.528;   10.900;  -58.000;  -48.000
201.674;  -50.200; -386.000; -293.000
201.819; -132.300; -540.000; -439.000
201.965; -174.100; -699.000; -447.000
202.111;  -57.900; -273.000; -226.000
202.257;  -82.900; -250.000; -238.000
202.402;   35.300;   13.000;  -36.000
202.548;  -67.800; -169.000; -116.000
202.694;  163.600;  410.000; -183.000
202.840; -129.500; -603.000; -531.000
202.985; -139.500; -681.000; -639.000
203.131; -217.800; -832.000; -666.000
203.277;  -66.100; -199.000; -262.000
203.423;  -89.500; -434.000; -520.000
203.568;  -84.000; -462.000; -237.000
203.714;  -85.900; -535.000; -542.000
203.860; -169.100; -682.000; -641.000
204.005;   55.000;  112.000;  167.000
204.151;  196.700;  561.000;  556.000
204.296;  -88.800; -354.000; -221.000
204.442; -149.900; -600.000; -547.000
204.588; -139.200; -592.000; -579.000
204.733;   47.800;  178.000;  168.000
204.879; -251.400;-1018.000; -822.000
205.025;   44.900;  -99.000;  126.000
205.170;   -8.400;  -17.000;   94.000
205.316;  208.900;  438.000;  661.000
205.461; -171.800; -698.000; -554.000
205.607;  169.800;  609.000;  665.000
205.752; -150.100; -626.000; -551.000
205.898; -100.100; -501.000; -391.000
206.043; -128.600; -578.000; -506.000
206.189;  -68.700; -243.000; -285.000
206.334;  199.200;  554.000;  606.000
206.480;  150.600;  409.000;  239.000
206.625; -156.400; -529.000; -552.000
206.771;  -81.800; -451.000; -373.000
206.916;  -49.800; -210.000; -537.000
207.062; -156.400; -545.000; -591.000
207.207; -115.000; -546.000; -443.000
207.353;   86.800;  185.000;  460.000
207.498;   36.100;  196.000;   85.000
207.643; -104.100; -501.000; -370.000
207.789; -263.700;-1069.000; -910.000
207.934; -185.200; -665.000; -713.000
208.080;  -43.500; -154.000;   66.000
208.225;    1.700;  -22.000;  -57.000
208.370; -165.800; -727.000; -619.000
208.516; -170.900; -741.000; -487.000
208.661;  -72.700; -127.000;  -69.000
208.806;  -38.000; -165.000; -171.000
208.952; -247.800;-1044.000; -731.000
209.097;  182.300;  378.000;  349.000
209.242;  -89.800; -307.000; -382.000
209.387;  128.000;  392.000;  350.000
209.533;  -63.100; -321.000; -350.000
209.678;  208.600;  472.000;  543.000
209.823;  -55.100; -408.000; -310.000
209.969; -218.600; -860.000; -757.000
210.114; -243.200; -907.000; -719.000
210.259; -246.200; -939.000; -889.000
210.404;   12.000; -171.000;  103.000
210.549;   48.400;  108.000;    3.000
210.695;  -30.700;   -3.000;  -95.000
210.840;  100.300;   94.000;   67.000
210.985; -126.500; -484.000; -303.000
211.130;  183.500;  268.000;  406.000
211.275;   46.400;  207.000;  199.000
211.420;  -91.800; -300.000; -289.000
211.566; -137.400; -536.000; -489.000
211.711;   75.600;  218.000;  157.000
211.856; -122.600; -545.000; -519.000
212.001;   29.800;  151.000;   44.000
212.146;   35.500;  153.000;   49.000
212.291;  -37.000; -210.000; -186.000
212.436;  -37.000; -280.000;   -6.000
212.581; -167.400; -685.000; -653.000
212.726; -145.600; -487.000; -538.000
212.871;  -81.800; -552.000; -217.000
213.016; -319.100;-1172.000;-1029.000
213.161;  140.700;  406.000;  291.000
213.306; -149.600; -435.000; -577.000
213.451; -200.100; -778.000; -689.000
213.596;  -62.400; -455.000; -347.000
213.741;  -99.000; -448.000; -538.000
213.886; -166.100; -498.000; -517.000
214.031;  -64.500; -294.000; -124.000
214.176;  -96.700; -408.000; -341.000
214.321;  -37.400; -296.000; -157.000
214.466;  -14.100; -163.000;  -43.000
214.611;  -17.300;  -61.000;  -10.000
214.756; -259.100; -948.000; -858.000
214.901;  -29.200; -388.000; -226.000
215.046; -216.600; -797.000; -825.000
215.191;   74.600;  128.000;   35.000
215.336;  -16.300; -157.000;  -19.000
215.480; -113.200; -684.000; -505.000
215.625;  -27.200; -175.000;  -19.000
215.770; -125.900; -757.000; -662.000
215.915;   28.600;   -5.000;  -97.000
216.060;   -7.200; -113.000;  -21.000
216.205; -216.900; -731.000; -779.000
216.349; -155.300; -470.000; -533.000
216.494; -242.400; -939.000; -867.000
216.639; -239.600; -823.000; -888.000
216.784; -186.700; -577.000; -525.000
216.929;  112.000;  392.000;  281.000
217.073;  -15.800; -244.000;  -31.000
217.218;    0.500;   78.000;  -47.000
217.363; -173.300; -656.000; -618.000
217.507; -184.700; -623.000; -588.000
217.652; -253.000; -845.000; -874.000
217.797; -168.400; -708.000; -659.000
217.942; -215.100; -856.000; -720.000
218.086;  172.900;  608.000;  539.000
218.231;  -44.100; -174.000;  -26.000
218.376;  -56.300; -337.000; -229.000
218.520;   22.500;  -41.000;   96.000
218.665;  -50.600; -338.000; -204.000
218.810;  -58.000; -275.000; -233.000
218.954;   39.600;  201.000;   35.000
219.099; -220.000; -713.000; -963.000
219.243; -135.400; -589.000; -554.000
219.388;  -52.800; -264.000; -136.000
219.532;  -19.900; -116.000; -116.000
219.677; -129.200; -564.000; -521.000
219.822;   23.700;   33.000;   89.000
219.966;   31.800;   17.000;  -99.000
220.111;  -50.000; -328.000;  -40.000
220.255; -188.200; -797.000; -750.000
220.400;  -11.200; -180.000; -146.000
220.544;  -89.700; -516.000; -450.000
220.689; -112.700; -422.000; -451.000
220.833;  -10.700; -123.000;  -58.000
220.978;  -72.100; -393.000; -563.000
221.122;   71.600;  319.000;  307.000
221.267; -243.700; -906.000; -837.000
221.411; -120.300; -478.000; -394.000
221.555;  -22.600; -104.000;  -23.000
221.700;  -92.000; -329.000; -222.000
221.844;   64.900;  255.000;  272.000
221.989;  -62.500; -328.000; -311.000
222.133;  -46.700; -289.000; -307.000
222.277;  -40.400;    5.000;   78.000
222.422;   23.200;  227.000;  113.000
222.566;  -74.000; -381.000; -214.000
222.711; -133.300; -414.000; -479.000
222.855; -154.600; -643.000; -586.000
222.999; -184.100; -642.000; -717.000
223.144;  -69.900; -195.000; -194.000
223.288;  126.000;  423.000;  251.000
223.432;   38.300;  184.000;  230.000
223.576;   45.000;  152.000;  -21.000
223.721;   98.700;  364.000;  273.000
223.865; -119.700; -472.000; -475.000
224.009;  527.700; 1673.000; 1631.000
224.153; -160.200; -660.000; -671.000
224.298; -131.700; -531.000; -489.000
224.442;  -24.600;  -74.000;  -33.000
224.586;  -13.600; -169.000; -106.000
224.730; -206.000; -858.000; -670.000
224.875; -220.500; -739.000; -688.000
225.019;    9.000;  102.000;  188.000
225.163;   99.700;  208.000;  341.000
225.307;   24.500;   97.000;  -91.000
225.451;  116.500;  360.000;  481.000
225.595;   83.300;  264.000;  176.000
225.739;  -44.700; -170.000;  -94.000
225.884;   45.100;   86.000;    5.000
226.028; -198.400; -760.000; -626.000
226.172;  -50.500; -260.000; -273.000
226.316; -228.800; -941.000; -902.000
226.460; -150.800; -645.000; -493.000
226.604;  -81.000; -406.000; -400.000
226.748; -203.100; -836.000; -733.000
226.892;  -86.500; -227.000; -181.000
227.036; -111.800; -537.000; -447.000
227.180;  -88.700; -551.000; -375.000
227.324; -136.700; -561.000; -580.000
227.468; -199.200; -819.000; -717.000
227.612;   19.100;  242.000;  -28.000
227.756; -231.400; -845.000; -698.000
227.900;  112.900;  342.000;  441.000
228.044;  -90.100; -509.000; -290.000
228.188;  165.600;  448.000;  568.000
228.332; -154.300; -546.000; -472.000
228.476;  -51.600; -223.000; -149.000
228.620;  -68.500; -210.000; -150.000
228.764;  143.000;  431.000;  349.000
228.908;  -34.400; -155.000;   30.000
229.052; -131.800; -615.000; -528.000
229.195;  -42.300; -172.000;   13.000
229.339;  -32.600; -235.000; -305.000
229.483;  -24.700;    5.000; -162.000
229.627;    8.000; -156.000;  139.000
229.771;  -88.100; -218.000; -294.000
229.915;   36.100;  230.000;   79.000
230.059; -184.700; -648.000; -663.000
230.202;  -63.400; -370.000; -317.000
230.346;  -21.000; -107.000;  107.000
230.490; -138.600; -489.000; -521.000
230.634; -197.800; -736.000; -553.000
230.777;  175.400;  478.000;  509.000
230.921;  -86.300; -450.000; -359.000
231.065; -113.900; -246.000; -286.000
231.209;   85.000;  261.000;  265.000
231.352;   84.600;   54.000;   40.000
231.496;   62.200;  568.000;  188.000
231.640; -138.100; -693.000; -621.000
231.783;  145.100;  546.000;  525.000
231.927; -109.100; -294.000; -365.000
232.071; -249.600; -962.000; -736.000
232.214; -217.300; -980.000; -764.000
232.358; -170.900; -683.000; -599.000
232.502;   26.200;  -19.000;    7.000
232.645; -291.500;-1090.000; -927.000
232.789;  -31.300; -257.000; -218.000
232.933;  -85.900; -407.000; -224.000
233.076; -271.800;-1038.000; -897.000
233.220; -212.100; -752.000; -777.000
233.363; -148.100; -669.000; -477.000
233.507;  121.500;  371.000;  129.000
233.650; -187.100; -764.000; -834.000
233.794;  107.200;  438.000;  461.000
233.938; -111.400; -530.000; -362.000
234.081;  -10.300;  -93.000;   31.000
234.225; -130.900; -631.000; -539.000
234.368; -218.000; -773.000; -723.000
234.512;  -64.300; -385.000; -299.000
234.655; -173.700; -582.000; -555.000
234.798; -124.500; -493.000; -466.000
234.942; -256.300; -884.000;-1002.000
235.085; -137.500; -651.000; -443.000
235.229; -157.900; -405.000; -410.000
235.372;  -82.000; -247.000; -191.000
235.516; -103.200; -397.000; -321.000
235.659;   25.400;   92.000;  121.000
235.802;  -18.200;  -38.000;  -22.000
235.946;   64.600;  335.000;  215.000
236.089;   57.700;  126.000;  250.000
236.233;  114.100;  275.000;  298.000
236.376;  -61.800; -235.000; -378.000
236.519;  -66.600; -297.000; -319.000
236.663;  -27.700; -215.000; -117.000
236.806; -264.800;-1029.000; -999.000
236.949;  181.900;  543.000;  431.000
237.092;  155.500;  412.000;  391.000
237.236; -142.000; -589.000; -502.000
237.379;  170.100;  352.000;  428.000
237.522; -239.200; -879.000; -768.000
237.666;  -21.600; -271.000;   18.000
237.809; -239.000; -851.000; -823.000
237.952;   84.700;  469.000;  271.000
238.095; -120.200; -447.000; -442.000
238.238;  134.000;  688.000;  700.000
238.382;   30.000;  166.000;  103.000
238.525; -126.700; -598.000; -511.000
238.668; -260.100;-1060.000; -985.000
238.811; -165.300; -638.000; -643.000
238.954; -122.200; -483.000; -334.000
239.097;  230.800;  617.000;  664.000
239.241;   80.300;  394.000;  326.000
239.384;  -41.900; -254.000; -214.000
239.527;  -86.000; -424.000; -224.000
239.670; -304.100; -994.000;-1091.000
239.813; -206.600; -696.000; -658.000
239.956;  209.200;  579.000;  473.000
240.099; -221.700; -778.000; -725.000
240.242;  168.400;  428.000;  432.000
240.385;  118.600;  466.000;  450.000
240.528; -124.000; -706.000; -473.000
240.671;   32.900;  189.000;  134.000
240.814;  -60.200; -441.000; -158.000
240.957; -185.100; -767.000; -578.000
241.100; -172.700; -779.000; -755.000
241.243; -287.600;-1234.000; -893.000
241.386; -133.000; -508.000; -379.000
241.529; -169.300; -735.000; -547.000
241.672; -124.900; -566.000; -495.000
241.815; -242.300; -832.000; -808.000
241.958;  -15.500; -125.000; -182.000
242.101; -152.300; -545.000; -390.000
242.244;  -57.100; -270.000; -325.000
242.387;  -70.000; -304.000; -246.000
242.530;  143.100;  470.000;  134.000
242.673;  -71.800; -381.000; -309.000
242.815; -238.400; -925.000; -899.000
242.958; -130.900; -482.000; -381.000
243.101;   54.800;  132.000;  187.000
243.244; -147.200; -564.000; -521.000
243.387;  -81.400; -313.000; -316.000
243.530; -197.600; -657.000; -674.000
243.672;   31.500;   43.000;  -92.000
243.815; -102.700; -355.000; -283.000
243.958;   15.800;   98.000;  -26.000
244.101;   44.900;   59.000;  -16.000
244.243;   -3.000;  -47.000;  101.000
244.386; -218.800; -761.000; -630.000
244.529;  -46.100; -132.000; -139.000
244.672; -325.600;-1154.000; -951.000
244.814; -195.100; -621.000; -794.000
244.957; -101.900; -380.000; -304.000
245.100; -151.400; -489.000; -489.000
245.242; -117.200; -387.000; -374.000
245.385;   -7.000;  -59.000;  -39.000
245.528; -236.100; -871.000; -705.000
245.670;  205.800;  612.000;  634.000
245.813; -174.100; -599.000; -547.000
245.956;  -33.400; -324.000; -275.000
246.098; -122.400; -508.000; -650.000
246.241;   55.200;  194.000;   48.000
246.383;   10.400; -119.000;  -73.000
246.526; -141.300; -454.000; -525.000
246.669; -217.000; -889.000; -780.000
246.811;   41.100;  172.000;   -1.000
246.954; -118.100; -512.000; -426.000
247.096;  -10.200;  -84.000;   -6.000
247.239; -129.600; -482.000; -445.000
247.381; -121.100; -647.000; -488.000
247.524;  204.600;  645.000;  679.000
247.666;    5.000;   58.000;   11.000
247.809; -242.400; -887.000; -691.000
247.951;  -18.900;  -75.000;  138.000
248.094;   58.400;  432.000;  308.000
248.236; -317.600;-1262.000;-1238.000
248.378;    3.100; -356.000;  -81.000
248.521;  -36.500; -334.000; -337.000
248.663;  -59.300; -236.000; -267.000
248.806;  -56.800; -300.000; -266.000
248.948; -183.100; -886.000; -763.000
249.090;  -60.100; -428.000; -398.000
249.233;  -68.600; -344.000; -381.000
249.375; -139.300; -474.000; -451.000
249.518;  -13.000;  -83.000; -133.000
249.660;  -17.300; -103.000;    3.000
249.802; -336.400;-1303.000;-1189.000
249.945; -144.500; -612.000; -540.000
250.087; -199.400; -834.000; -768.000
250.229;  -91.200; -362.000; -480.000
250.371; -140.900; -494.000; -439.000
250.514;  -82.400; -310.000; -244.000
250.656;    4.200;   69.000;  102.000
250.798; -235.000; -849.000; -800.000
250.940; -120.500; -322.000; -322.000
251.083;   -6.100; -335.000; -111.000
251.225;  120.400;  338.000;  310.000
251.367;  -65.600; -274.000; -373.000
251.509;  -45.400; -265.000; -210.000
251.651; -161.100; -731.000; -671.000
251.794;  131.500;  538.000;  632.000
251.936; -174.700; -821.000; -747.000
252.078; -132.200; -540.000; -461.000
252.220; -157.000; -645.000; -477.000
252.362;  172.800;  344.000;  462.000
252.504; -136.600; -677.000; -584.000
252.646; -224.700; -875.000; -722.000
252.788;   12.500;   14.000; -128.000
252.931;  -71.500; -257.000; -253.000
253.073;  -48.300; -376.000; -317.000
253.215;    0.500;  141.000;  122.000
253.357;  -11.000;   82.000; -153.000
253.499;  -79.000; -374.000; -234.000
253.641; -182.600; -749.000; -594.000
253.783; -192.600; -609.000; -527.000
253.925; -184.100; -586.000; -591.000
254.067; -212.500; -744.000; -667.000
254.209;  -62.500; -391.000; -259.000
254.351; -264.000; -865.000; -883.000
254.493;  -97.300; -441.000; -417.000
254.635; -211.100; -936.000; -818.000
254.777; -160.300; -752.000; -687.000
254.918; -132.100; -512.000; -430.000
255.060; -102.900; -551.000; -395.000
255.202;  -99.100; -473.000; -261.000
255.344; -133.700; -658.000; -455.000
255.486; -132.100; -471.000; -406.000
255.628; -230.600; -780.000; -781.000
255.770; -162.100; -676.000; -536.000
255.912; -118.700; -559.000; -468.000
256.053; -171.500; -730.000; -508.000
256.195;  325.000; 1008.000;  903.000
256.337; -185.600; -861.000; -595.000
256.479;  155.700;  532.000;  416.000
256.621;  -66.100; -394.000; -212.000
256.762; -205.900; -789.000; -742.000
256.904;  140.600;  485.000;  487.000
257.046;  -72.700; -381.000; -271.000
257.188;  -77.100; -351.000; -264.000
257.329; -138.100; -525.000; -464.000
257.471; -232.300; -939.000; -807.000
257.613; -134.200; -584.000; -498.000
257.755; -283.800;-1073.000; -982.000
257.896;   76.300;  286.000;  392.000
258.038; -118.000; -403.000; -352.000
258.180;  -66.400; -354.000; -279.000
258.321; -157.400; -581.000; -457.000
258.463;   -7.800;  -71.000;  133.000
258.605; -172.800; -562.000; -570.000
258.746; -223.700; -886.000; -772.000
258.888; -289.400;-1026.000;-1020.000
259.029;   65.400;  121.000;   -8.000
259.171; -155.700; -614.000; -550.000
259.313;    5.300;  -49.000;  -47.000
259.454; -131.500; -536.000; -414.000
259.596; -107.200; -483.000; -390.000
259.737; -149.900; -590.000; -474.000
259.879;   83.900;  217.000;  311.000
260.020;  194.500;  901.000;  636.000
260.162;  -58.400; -146.000; -253.000
260.303; -222.400; -768.000; -687.000
260.445; -151.900; -609.000; -613.000
260.586;   91.600;  392.000;  157.000
260.728;  -60.100; -360.000; -248.000
260.869; -103.100; -350.000; -343.000
261.011;  189.000;  706.000;  537.000
261.152; -104.200; -479.000; -319.000
261.293; -121.200; -576.000; -595.000
261.435;  -50.500; -219.000; -184.000
261.576;  -95.400; -455.000; -325.000
261.718;  138.000;  420.000;  470.000
261.859; -264.900; -940.000; -949.000
262.000; -279.000; -951.000;-1016.000
262.142;  -34.000;  -52.000;  -60.000
262.283; -219.600; -808.000; -691.000
262.424; -173.700; -666.000; -625.000
262.566; -306.900;-1161.000; -983.000
262.707; -215.300; -840.000; -830.000
262.848; -224.400; -769.000; -726.000
262.990;  -86.200; -362.000; -345.000
263.131;  188.500;  650.000;  681.000
263.272;    9.700;  -61.000;  -41.000
263.413; -186.700; -589.000; -561.000
263.555;  -97.400; -669.000; -143.000
263.696; -129.400; -550.000; -641.000
263.837;  -91.100; -449.000; -551.000
263.978;  -11.600;   -5.000;  -77.000
264.119;  -49.200; -283.000; -264.000
264.261; -215.300; -847.000; -630.000
264.402;   27.100;   33.000;   40.000
264.543; -134.500; -509.000; -524.000
264.684;  -10.400;   61.000;  -50.000
264.825; -148.800; -816.000; -538.000
264.966;   24.400;  -84.000;  -67.000
265.107; -200.600; -646.000; -670.000
265.248; -239.600; -825.000; -812.000
265.390;   12.900;  152.000;   -9.000
265.531;   -7.900; -238.000; -107.000
265.672; -155.500; -557.000; -630.000
265.813;  134.300;  563.000;  439.000
265.954; -302.300; -959.000; -940.000
266.095;  -11.100; -372.000; -322.000
266.236; -174.600; -686.000; -548.000
266.377;  -68.500; -243.000; -297.000
266.518; -141.300; -619.000; -547.000
266.659;   79.500;  170.000;  268.000
266.800;   18.300;   83.000;   85.000
266.941; -149.600; -487.000; -478.000
267.082;   36.800;  354.000;   99.000
267.223; -105.800; -344.000; -273.000
267.364; -202.400; -892.000; -686.000
267.504;   10.500;    3.000;  135.000
267.645;   47.100;  160.000;   67.000
267.786;  -37.100; -147.000;  -86.000
267.927; -132.700; -473.000; -379.000
268.068;   20.900; -186.000;  -61.000
268.209;  -84.400; -175.000; -413.000
268.350;  -99.600; -388.000; -532.000
268.490; -165.100; -648.000; -521.000
268.631;  104.900;  127.000;  225.000
268.772; -186.300; -874.000; -647.000
268.913;  -84.800; -328.000; -476.000
269.054;  -20.000; -117.000;   12.000
269.194;  -97.400; -418.000; -402.000
269.335; -278.900;-1137.000;-1074.000
269.476;  -18.000;   33.000;  -35.000
269.617;  -89.600; -347.000; -392.000
269.757; -156.900; -713.000; -646.000
269.898; -181.400; -856.000; -613.000
270.039;  -89.900; -415.000; -405.000
270.180; -245.300; -952.000; -816.000
270.320;  -47.500; -190.000; -250.000
270.461;  -48.600; -277.000; -249.000
270.602;  -34.700; -186.000; -156.000
270.742; -232.900; -868.000; -943.000
270.883; -102.500; -442.000; -390.000
271.023;  -92.600; -358.000; -357.000
271.164; -121.000; -607.000; -528.000
271.305; -162.900; -666.000; -654.000
271.445; -181.300; -722.000; -683.000
271.586; -129.600; -462.000; -283.000
271.726;  -71.300; -397.000; -322.000
271.867; -117.300; -594.000; -534.000
272.008;  264.500; -473.000; -285.000
272.148;  287.100;  462.000;  468.000
272.289;   54.300; -113.000; -181.000
272.429;   46.700;   19.000;  185.000
272.570; -169.800; -633.000; -737.000
272.710; -185.400; -825.000; -775.000
272.851;  -19.600;  113.000; -130.000
272.991; -307.800;-1173.000;-1077.000
273.131; -122.700; -419.000; -459.000
273.272; -158.200; -683.000; -723.000
273.412;    2.300; -143.000;  -31.000
273.553; -116.500; -488.000; -507.000
273.693;  278.800;  913.000;  858.000
273.834; -195.200; -894.000; -692.000
273.974; -152.900; -664.000; -615.000
274.114; -187.500; -772.000; -560.000
274.255;  152.900;  414.000;  373.000
274.395;   20.400; -180.000; -125.000
274.535;  111.100;  199.000;  350.000
274.676;  102.600;  225.000;   94.000
274.816;   23.800;  110.000;   34.000
274.956; -173.800; -624.000; -690.000
275.097; -125.500;-1014.000; -922.000
275.237; -217.200; -913.000; -803.000
275.377; -192.400; -778.000; -689.000
275.517; -284.400; -878.000; -937.000
275.658; -113.900; -590.000; -555.000
275.798; -140.300; -606.000; -413.000
275.938;   59.500;  215.000;  323.000
276.078; -130.400; -626.000; -395.000
276.218;   46.900;   99.000;  104.000
276.359; -244.600;-1026.000;-1024.000
276.499; -128.500; -605.000; -446.000
276.639;   -9.200; -305.000; -151.000
276.779;  -98.800; -475.000; -357.000
276.919; -184.500; -783.000; -624.000
277.059;  -37.200; -261.000; -212.000
277.199;  -67.900; -357.000; -259.000
277.340;  102.500;  287.000;  175.000
277.480; -181.700; -840.000; -693.000
277.620;   87.200;  192.000;   16.000
277.760; -394.700;-1533.000;-1294.000
277.900;   42.800;  113.000;   33.000
278.040;   53.500;  137.000;  159.000
278.180;   95.300;  270.000;  170.000
278.320;   49.000;   21.000;   56.000
278.460; -144.800; -443.000; -469.000
278.600; -158.900; -708.000; -598.000
278.740;  145.700;  448.000;  224.000
278.880; -137.900; -768.000; -791.000
279.020;   57.500; -194.000; -144.000
279.160; -141.500; -672.000; -595.000
279.300; -229.000; -926.000; -873.000
279.440; -154.500; -709.000; -622.000
279.579;  -67.700;-1014.000; -929.000
279.719;  -90.900; -410.000; -394.000
279.859;  148.000;   -4.000;   41.000
279.999;   34.600; -208.000;  101.000
280.139;  -17.400; -435.000; -387.000
280.279; -123.300; -708.000; -745.000
280.419;  -26.800; -229.000; -147.000
280.559;  -37.500; -259.000; -180.000
280.698; -165.900; -790.000; -639.000
280.838; -155.200; -778.000; -800.000
280.978; -185.900; -846.000; -790.000
281.118; -216.900; -811.000; -704.000
281.257;   34.600;   24.000;    6.000
281.397; -237.000;-1094.000; -960.000
281.537; -185.500; -599.000; -712.000
281.677;   -2.400; -150.000; -101.000
281.816; -146.700; -700.000; -630.000
281.956;  -28.500; -193.000; -257.000
282.096; -112.600; -539.000; -396.000
282.235; -181.200; -672.000; -638.000
282.375;  -13.900; -243.000;  -98.000
282.515; -176.400; -715.000; -707.000
282.654;  102.200;   29.000;  106.000
282.794;   75.500;  388.000;  244.000
282.934;  -95.300; -530.000; -491.000
283.073; -259.300;-1030.000; -857.000
283.213; -109.700; -460.000; -467.000
283.353;  -68.500; -408.000; -349.000
283.492;  -28.400; -264.000; -296.000
283.632;  -59.700; -254.000; -168.000
283.771; -167.200; -859.000; -730.000
283.911;  -95.200; -369.000; -260.000
284.050; -178.400; -794.000; -748.000
284.190; -282.000;-1229.000;-1096.000
284.329; -258.800;-1055.000; -964.000
284.469; -138.500; -516.000; -591.000
284.608; -102.600; -559.000; -598.000
284.748; -121.200; -614.000; -570.000
284.887;    8.700;  -87.000;  -20.000
285.027; -242.200; -844.000; -892.000
285.166;  -55.400; -192.000; -249.000
285.306;   54.900; -116.000;  -33.000
285.445;  -56.000; -229.000; -343.000
285.584; -166.800; -630.000; -494.000
285.724;  -74.200; -282.000; -322.000
285.863; -197.400; -857.000; -507.000
286.002;  -75.900; -366.000; -276.000
286.142; -213.700; -715.000; -622.000
286.281; -109.800; -525.000; -493.000
286.420; -150.000; -554.000; -417.000
286.560;  241.500;  653.000;  623.000
286.699; -260.800; -958.000; -912.000
286.838; -162.700; -590.000; -591.000
286.978; -180.000; -533.000; -537.000
287.117; -258.500;-1085.000; -950.000
287.256;  -60.800; -228.000; -211.000
287.395;  -96.000; -197.000; -378.000
287.535;  -67.500; -370.000; -298.000
287.674; -131.200; -509.000; -484.000
287.813;  147.600;  661.000;  533.000
287.952; -251.400;-1010.000; -871.000
288.091; -269.600;-1049.000; -915.000
288.231;   77.800;   13.000;   15.000
288.370; -340.800;-1217.000;-1200.000
288.509; -182.000; -728.000; -645.000
288.648; -163.400; -770.000; -548.000
288.787;  -62.500; -243.000;  -87.000
288.926; -105.400; -454.000; -475.000
289.065;  260.100;  859.000;  672.000
289.204;  -89.100; -377.000; -217.000
289.344; -178.600; -791.000; -690.000
289.483;   79.900;  416.000;  304.000
289.622;  -41.200; -291.000; -149.000
289.761;   -0.400; -309.000; -166.000
289.900; -195.300; -785.000; -626.000
290.039;    6.700;  -12.000;  -95.000
290.178;  -56.900; -274.000; -180.000
290.317; -135.300; -618.000; -479.000
290.456;  -93.000; -463.000; -451.000
290.595; -271.600; -961.000; -833.000
290.734; -256.600; -904.000; -891.000
290.873; -130.600; -456.000; -420.000
291.011; -202.700; -833.000; -843.000
291.150; -180.400; -770.000; -682.000
291.289;  -46.800; -343.000; -110.000
291.428; -161.600; -599.000; -480.000
291.567;  -73.800; -370.000; -442.000
291.706;   20.400;  109.000;  154.000
291.845; -159.100; -597.000; -505.000
291.984; -315.600;-1234.000;-1061.000
292.122;  152.100;  602.000;  582.000
292.261;  140.000;  620.000;  463.000
292.400;   26.400; -144.000;  211.000
292.539; -219.000; -959.000; -813.000
292.678;  -41.700; -325.000; -300.000
292.816; -294.000;-1136.000; -965.000
292.955; -146.200; -844.000; -684.000
293.094;    7.900; -173.000; -337.000
293.233;  -79.300; -556.000; -400.000
293.371;  -59.400; -225.000;  -84.000
293.510; -192.100; -866.000; -780.000
293.649; -243.700; -959.000; -924.000
293.787; -144.300;-1083.000;-1012.000
293.926;   43.000; -113.000;  -32.000
294.065;  -52.100; -379.000; -290.000
294.203;  101.200;  298.000;  406.000
294.342;   67.800;   74.000;  156.000
294.481;12722.700;51180.000; -836.000
294.619;  -24.000; -425.000; -582.000
294.758; -242.800;-1230.000;-1137.000
294.896;  145.100; -125.000;    5.000
295.035; -252.600;-1040.000;-1006.000
295.174; -226.900;-1082.000; -954.000
295.312;  -40.300; -323.000; -203.000
295.451;    1.200; -307.000; -428.000
295.589;  -73.900; -389.000; -518.000
295.728;   78.700; -292.000; -165.000
295.866;   -1.400;  -36.000;  -51.000
296.005; -125.600; -584.000; -341.000
296.143; -123.600; -558.000; -596.000
296.282; -214.900; -957.000; -881.000
296.420; -117.200; -657.000; -557.000
296.559; -156.000; -892.000; -633.000
296.697;   12.200; -847.000; -665.000
296.835;   72.500;-1141.000;-1002.000
296.974;   97.900;  -23.000;   39.000
297.112;   21.600; -443.000; -504.000
297.251; -145.300; -815.000; -755.000
297.389;  149.600; -576.000; -438.000
297.527;   83.600; -145.000;  -83.000
297.666;  -93.600; -486.000; -438.000
297.804;  -83.000; -404.000; -264.000
297.942;   49.600; -136.000; -161.000
298.081;  -12.200; -183.000;   63.000
298.219;  127.300;  -17.000;  -19.000
298.357;   77.600; -144.000;  -71.000
298.495;   21.000; -810.000; -812.000
298.634;  124.400;  245.000;  219.000
298.772;  104.400; -220.000; -338.000
298.910;  -53.000; -309.000; -182.000
299.048;    9.100; -130.000; -153.000
299.187;  -50.900; -350.000; -250.000
299.325;   91.500;   52.000;  122.000
299.463;   61.200; -389.000; -299.000
299.601;  155.600; -327.000; -271.000
299.739; -205.900; -908.000; -883.000
299.877; -137.700; -791.000; -703.000
300.016; -113.900;-1095.000; -935.000
300.154;  275.400;  -19.000; -161.000
300.292;   60.800; -428.000; -348.000
300.430;   33.900; -408.000; -291.000
300.568; -197.200; -940.000; -874.000
300.706;  -79.300; -366.000; -469.000
300.844; -178.000;-1108.000; -979.000
300.982;  242.800;  246.000;  282.000
301.120; -192.400; -965.000; -866.000
301.258; -133.900; -812.000; -705.000
301.396;   87.800;  104.000;  -41.000
301.534;  120.600; -218.000; -293.000
301.672;   -1.100; -664.000; -521.000
301.810;   46.200; -613.000; -545.000
301.948;  268.600;   53.000;  149.000
302.086;  917.900; -250.000;  -32.000
302.224; 1464.700; -610.000; -585.000
302.362;   55.500; -558.000; -622.000
302.500;  -82.900; -923.000; -893.000
302.638;  148.700;  128.000;  245.000
302.776;   16.800; -352.000; -408.000
302.913;   99.300;  447.000;  236.000
303.051;  -13.100;  -86.000;  -23.000
303.189;  107.700;   90.000;  118.000
303.327;  -42.700; -341.000; -256.000
303.465; -139.200; -832.000; -588.000
303.603; -175.600; -805.000; -604.000
303.740;  209.500;  417.000;  241.000
303.878;   26.900; -800.000; -759.000
304.016; -165.800; -915.000; -790.000
304.154; -241.500;-1123.000;-1152.000
304.291;  -57.900; -505.000; -554.000
304.429;   30.600;  102.000;   74.000
304.567; -220.800; -908.000; -893.000
304.705;  -90.200; -408.000; -515.000
304.842;  105.600; -616.000; -540.000
304.980;  159.600;  215.000;   35.000
305.118;   75.400; -367.000; -365.000
305.255; -153.500; -945.000; -927.000
305.393;  107.300;  178.000;  239.000
305.531; -204.000;-1173.000; -956.000
305.668; -138.600; -663.000; -582.000
305.806;  207.900; -358.000; -439.000
305.943;  166.200; -629.000; -637.000
306.081;  105.600; -378.000; -267.000
306.219; -181.700; -863.000; -748.000
306.356;   40.000;  158.000;   27.000
306.494;  273.100;  981.000;  761.000
306.631;   24.700;  -11.000;  -55.000
306.769;    7.800; -613.000; -485.000
306.906;   -9.100; -284.000; -258.000
307.044;  -86.400; -473.000; -488.000
307.181;  -35.600; -410.000; -332.000
307.319;   61.000;  112.000;   87.000
307.456; -325.400;-1191.000;-1153.000
307.594; -172.500; -980.000; -727.000
307.731;   -6.500; -371.000; -164.000
307.868;   28.000;  -15.000;   20.000
308.006; -224.600; -961.000; -847.000
308.143; -116.000; -618.000; -330.000
308.281;  395.300;  -37.000; -254.000
308.418;   14.300; -748.000; -640.000
308.555; -106.600; -400.000; -250.000
308.693;  -90.100; -577.000; -573.000
308.830; -192.200; -712.000; -657.000
308.967;    3.200; -215.000;  -95.000
309.105;  -24.000; -507.000; -396.000
309.242;   94.200; -468.000; -367.000
309.379;  721.000; -577.000; -655.000
309.517;  -99.300; -936.000; -948.000
309.654; -184.800; -910.000; -734.000
309.791;  -90.800; -662.000; -580.000
309.928; -224.800; -977.000; -914.000
310.065;  353.900;  819.000;  697.000
310.203;  -42.800; -825.000; -850.000
310.340;   -3.700; -465.000; -321.000
310.477; -120.400; -412.000; -516.000
310.614;  -88.500; -383.000; -473.000
310.751;  -94.300; -427.000; -518.000
310.889;   13.200;    1.000;   11.000
311.026; -263.300;-1161.000; -939.000
311.163;  -83.100; -386.000; -380.000
311.300; -119.700; -512.000; -479.000
311.437; -154.300; -658.000; -619.000
311.574; -283.800;-1226.000; -985.000
311.711;  -94.400; -595.000; -433.000
311.848;  -50.300; -380.000; -388.000
311.985;   80.200;  270.000;   93.000
312.122; -219.100; -932.000; -762.000
312.259; -218.600; -941.000; -994.000
312.396; -134.000; -508.000; -551.000
312.533; -146.700; -812.000; -790.000
312.670; -255.200;-1070.000; -898.000
312.807;  -58.800; -352.000; -367.000
312.944; -132.700; -513.000; -611.000
313.081;  -22.900; -150.000; -415.000
313.218; -177.200;-1111.000; -867.000
313.355;   22.500; -531.000; -449.000
313.492;   16.900; -455.000; -292.000
313.629;  261.900;  815.000;  735.000
313.766; -300.800;-1176.000;-1008.000
313.902;   -7.800; -186.000;   21.000
314.039;  -60.000; -372.000; -289.000
314.176;   80.600;  286.000;  192.000
314.313; -132.500; -569.000; -473.000
314.450; -127.000; -788.000; -684.000
314.587;  -95.100; -468.000; -480.000
314.723;   55.500;  -78.000;  130.000
314.860;  100.400;  318.000;  332.000
314.997;  121.000;  223.000;  142.000
315.134;  -30.700; -385.000; -368.000
315.270;  -61.700; -480.000; -496.000
315.407; -231.800;-1094.000; -967.000
315.544; -107.600; -657.000; -538.000
315.681; -102.800; -681.000; -565.000
315.817;   82.200; -133.000; -176.000
315.954;   25.200; -613.000; -392.000
316.091; -219.500;-1045.000;-1023.000
316.227;  -22.200;  -71.000; -179.000
316.364;   44.800;   23.000;    6.000
316.500;  -60.600; -113.000; -300.000
316.637;  -58.900; -181.000; -302.000
316.774; -141.300; -625.000; -358.000
316.910; -154.300; -598.000; -629.000
317.047;  -88.700; -487.000; -351.000
317.183;  -62.000; -435.000; -566.000
317.320;   -1.300; -367.000; -321.000
317.456; -115.800; -733.000; -805.000
317.593; -156.900; -598.000; -641.000
317.729;   52.600;  168.000;  -67.000
317.866; -366.800;-1434.000;-1285.000
318.002; -159.900; -708.000; -948.000
318.139; -193.400; -883.000; -867.000
318.275; -178.900;-1003.000; -738.000
318.412;  -88.800; -517.000; -336.000
318.548;  -84.300; -751.000; -720.000
318.685; -189.700; -985.000; -888.000
318.821; -151.600; -762.000; -735.000
318.957;   -0.400;   34.000;  -23.000
319.094;  103.500;  297.000;  154.000
319.230;  -83.400; -756.000; -742.000
319.367;  216.000; -471.000; -520.000
319.503;  124.900; -538.000; -436.000
319.639; -164.500; -877.000; -793.000
319.775; -101.100; -750.000; -685.000
319.912;  -91.100; -424.000; -519.000
320.048; -162.600;-1184.000;-1184.000
320.184;  177.300;   59.000;   70.000
320.321;  -76.000; -497.000; -467.000
320.457;  171.700;  475.000;  662.000
320.593; -118.300; -375.000; -382.000
320.729; -165.300; -732.000; -734.000
320.866; -104.000; -577.000; -635.000
321.002; -147.000; -759.000; -809.000
321.138;   -1.000; -135.000; -211.000
321.274;  125.900; -148.000; -115.000
321.410;  -30.700; -585.000; -353.000
321.546;  -77.900;-1011.000; -911.000
321.683;  142.800;  400.000;  185.000
321.819;   49.200;  -48.000; -117.000
321.955; -204.300; -743.000; -722.000
322.091;  -75.000; -585.000; -540.000
322.227;  -70.400; -382.000; -202.000
322.363;   -5.800; -320.000; -215.000
322.499;  -77.400; -343.000; -331.000
322.635;  327.300;  636.000;  443.000
322.771;   64.100; -139.000;   12.000
322.907;  187.600;  129.000;  327.000
323.043;  -19.300; -115.000; -206.000
323.179;  -34.400; -394.000; -363.000
323.315;   38.700; -401.000; -371.000
323.451;  142.700; -328.000; -236.000
323.587;  122.200;  -60.000;  -77.000
323.723;   -0.500; -682.000; -601.000
323.859;   -2.300; -258.000;  -76.000
323.995;  -61.700; -467.000; -409.000
324.131; -223.100; -967.000; -892.000
324.267;  -55.300; -254.000; -276.000
324.402; -222.100; -960.000; -983.000
324.538;    3.500; -279.000; -104.000
324.674;   62.700;  164.000;   77.000
324.810;  285.900;  226.000;  308.000
324.946;   56.800; -810.000; -658.000
325.082;  -89.200; -568.000; -475.000
325.217;   23.600;  -62.000;   16.000
325.353; -184.700; -764.000; -659.000
325.489; -150.600; -540.000; -506.000
325.625; -104.300; -579.000; -525.000
325.760;  152.100;  517.000;  376.000
325.896;  -23.600; -515.000; -702.000
326.032;  -82.800; -403.000; -352.000
326.168; -101.100; -462.000; -369.000
326.303; -107.100; -352.000; -461.000
326.439;    5.000; -336.000; -276.000
326.575;   38.200; -190.000;  -29.000
326.710;   14.000; -156.000;  -30.000
326.846;   10.400;  146.000;  103.000
326.982; -165.900; -530.000; -548.000
327.117;  -94.200; -481.000; -442.000
327.253; -148.200; -745.000; -742.000
327.388; -223.200;-1137.000;-1153.000
327.524;  -85.000; -811.000; -578.000
327.659;    3.200;  -58.000;  -22.000
327.795;    7.400;   69.000;   45.000
327.931; -141.500; -723.000; -499.000
328.066;  -12.900; -417.000; -276.000
328.202;    0.900;   12.000; -129.000
328.337;  261.900;  957.000;  713.000
328.473;  -11.600;  -12.000;  -74.000
328.608;   -9.700; -256.000; -267.000
328.743; -162.800; -799.000; -664.000
328.879;   69.000;  214.000;  114.000
329.014;  -76.900; -102.000; -122.000
329.150; -139.400; -358.000; -483.000
329.285; -120.900; -465.000; -466.000
329.421;  -51.600; -548.000; -246.000
329.556;   -8.900;  -36.000;   85.000
329.691; -135.700; -633.000; -615.000
329.827; -128.200; -626.000; -480.000
329.962;  -40.500;  131.000; -301.000
330.097; -138.000; -673.000; -585.000
330.233;  -76.600; -410.000; -223.000
330.368; -181.700; -839.000; -628.000
330.503;   25.600;    3.000;   98.000
330.638;   25.800;  -93.000; -125.000
330.774;  -97.200; -609.000; -530.000
330.909;  -63.500; -434.000; -244.000
331.044; -164.900; -714.000; -708.000
331.179; -322.900;-1217.000;-1109.000
331.315;   60.200;   77.000;   20.000
331.450;   63.900;  157.000;  285.000
331.585; -144.800; -805.000; -706.000
331.720; -140.300; -510.000; -460.000
331.855;   14.200;  -35.000; -102.000
331.990;  458.600;   62.000;  138.000
332.126;  279.600; -110.000;   71.000
332.261;   -9.700; -379.000; -265.000
332.396;   29.900; -135.000; -242.000
332.531; -197.100;-1074.000;-1031.000
332.666;   79.200; -519.000; -363.000
332.801; -183.800; -726.000; -807.000
332.936;   -8.400; -192.000; -122.000
333.071; -269.300; -870.000; -817.000
333.206;   73.000;  307.000;  379.000
333.341;   98.800;  344.000;  418.000
333.476; -142.400; -627.000; -623.000
333.611;  -45.600; -251.000; -173.000
333.746;  -58.300; -381.000; -464.000
333.881; -223.900; -973.000; -935.000
334.016; -213.900; -936.000; -917.000
334.151; -214.100; -746.000; -702.000
334.286;   56.500;  152.000;  186.000
334.421;    7.400; -125.000; -178.000
334.556; -123.100; -611.000; -567.000
334.690; -135.300; -631.000; -577.000
334.825;  139.900;  381.000;   83.000
334.960; -119.800; -285.000; -413.000
335.095;   41.100;  135.000;  -91.000
335.230; -176.900; -722.000; -738.000
335.365; -270.100;-1084.000; -990.000
335.499; -260.500;-1108.000;-1037.000
335.634;   53.100;    9.000;  534.000
335.769; -182.500; -755.000; -720.000
335.904; -117.300; -603.000; -561.000
336.038; -114.300; -735.000; -657.000
336.173; -251.600;-1206.000;-1194.000
336.308;   25.800; -116.000; -189.000
336.443;  -14.500; -544.000; -634.000
336.577; -142.200; -936.000; -787.000
336.712;  147.900;   -4.000;  -12.000
336.847;  -84.700; -724.000; -607.000
336.981;   84.700; -272.000; -208.000
337.116;  471.800;  615.000;  501.000
337.250;  221.000; -434.000; -421.000
337.385;  489.900; -297.000; -208.000
337.520;  171.000; -632.000; -603.000
337.654;  -56.600; -215.000; -126.000
337.789; -238.700; -989.000; -933.000
337.923;  -42.500; -104.000; -205.000
338.058; -137.800; -673.000; -738.000
338.192;  -95.000; -611.000; -488.000
338.327;   30.900;  -18.000; -155.000
338.461; -114.400; -299.000; -469.000
338.596; -141.400; -780.000; -638.000
338.730; -163.400; -767.000; -803.000
338.865;  198.600;  -46.000; -140.000
338.999;  -72.200; -846.000; -702.000
339.134;  -52.900; -634.000; -536.000
339.268;   22.500; -741.000; -603.000
339.403;  640.200; -740.000; -775.000
339.537;  216.600; -894.000; -820.000
339.671; -182.700; -829.000; -813.000
339.806;  -68.200; -556.000; -512.000
339.940;   46.900; -261.000; -235.000
340.074; -148.900; -685.000; -510.000
340.209;  -33.700; -351.000; -230.000
340.343; -129.800; -517.000; -573.000
340.477;  334.600;  998.000; 1036.000
340.612;  -74.400;-1033.000; -900.000
340.746;  274.200; -199.000; -243.000
340.880; -133.900; -924.000; -785.000
341.014;   -6.600;  -45.000; -154.000
341.149; -199.300; -756.000; -718.000
341.283; -157.600; -839.000; -754.000
341.417; -187.800;-1124.000; -938.000
341.551;  160.800; -768.000; -708.000
341.685;  -63.300; -633.000; -611.000
341.820;  -72.800; -562.000; -493.000
341.954;  -67.200; -218.000; -349.000
342.088; -273.700;-1102.000;-1019.000
342.222;  106.500;  565.000;  618.000
342.356;  -84.000; -395.000; -335.000
342.490; -157.700; -880.000; -841.000
342.624;  -63.800; -339.000; -242.000
342.758;   13.200; -364.000; -312.000
342.892; -126.700; -710.000; -585.000
343.026;  -41.200;  -58.000; -116.000
343.160;  -86.300; -426.000; -376.000
343.294; -120.100; -474.000; -337.000
343.428;  -30.700; -488.000; -448.000
343.562;   46.100; -172.000;  -23.000
343.696;  -55.600; -385.000; -314.000
343.830;   -6.900; -362.000; -356.000
343.964;   53.200; -231.000; -168.000
344.098; 1392.100;  199.000;   70.000
344.232; 1206.300; -266.000; -127.000
344.366;  181.200; -567.000; -453.000
344.500;   71.300; -665.000; -744.000
344.634;   97.700; -324.000; -164.000
344.768;  -15.600; -531.000; -341.000
344.902;  117.400;  278.000;  256.000
345.035; -105.600; -556.000; -496.000
345.169; -243.300; -933.000; -656.000
345.303;  -19.400; -308.000; -482.000
345.437; -125.600; -826.000; -717.000
345.571; -148.100; -675.000; -594.000
345.704;  -73.800; -309.000; -532.000
345.838;    5.000; -331.000; -284.000
345.972;  -72.800; -543.000; -495.000
346.106;  328.900; -179.000; -190.000
346.239;  742.600; -312.000; -243.000
346.373;   24.700; -343.000; -302.000
346.507; -243.000; -950.000; -962.000
346.640;  252.900;  -30.000;   13.000
346.774;  -76.400; -650.000; -797.000
346.908;  -13.900; -138.000;  -11.000
347.041; -156.500; -646.000; -593.000
347.175;   43.000;  259.000;   27.000
347.309; -147.200; -698.000; -628.000
347.442; -181.400; -883.000; -732.000
347.576;  520.400;  670.000;  668.000
347.709;  338.200; -123.000;  -52.000
347.843; -169.700; -933.000; -825.000
347.976;  116.700;  235.000;  294.000
348.110; -354.900;-1268.000;-1186.000
348.243; -155.400; -679.000; -772.000
348.377;   41.200;  -26.000;   60.000
348.510;  167.400;  403.000;  540.000
348.644;  -57.600;  -37.000; -159.000
348.777;   13.200;  180.000;  191.000
348.911;  -36.500; -142.000; -112.000
349.044;  306.900;  471.000;  448.000
349.178;  206.000;-1069.000;-1006.000
349.311;  222.500;  141.000;  255.000
349.444;    9.700; -927.000; -813.000
349.578;  -54.300; -347.000; -200.000
349.711; -179.900; -959.000; -862.000
349.845;   -8.100; -661.000; -591.000
349.978; -280.600;-1224.000;-1137.000
350.111; -119.000; -546.000; -612.000
350.244; -148.900; -596.000; -700.000
350.378;   11.500; -392.000; -393.000
350.511;  -97.200; -393.000; -426.000
350.644; -185.800; -808.000; -806.000
350.778;   52.300;  168.000;  104.000
350.911;   39.500;  134.000;  140.000
351.044; -114.700; -685.000; -615.000
351.177;  -40.300; -321.000; -281.000
351.310;    0.700;    3.000; -131.000
351.444; -155.300; -888.000; -788.000
351.577;  226.600;  140.000;   90.000
351.710;  233.000;  593.000;  417.000
351.843;  -25.100; -165.000;  -77.000
351.976;   54.500;  149.000;  -79.000
352.109; -143.000; -621.000; -612.000
352.242;  -23.800; -464.000; -419.000
352.376; -105.200; -580.000; -636.000
352.509;  287.700; -437.000; -356.000
352.642;  -41.600; -654.000; -604.000
352.775;  129.400; -141.000;  -98.000
352.908; -198.900; -933.000; -904.000
353.041; -168.900; -814.000; -824.000
353.174; -114.400; -551.000; -424.000
353.307; -165.500; -753.000; -764.000
353.440;  145.000;  541.000;  453.000
353.573; -212.900; -957.000;-1008.000
353.706;  -46.400; -384.000; -558.000
353.839;  -26.300; -264.000; -220.000
353.971; -139.700; -657.000; -512.000
354.104; -154.400; -896.000; -835.000
354.237;  -88.200; -627.000; -662.000
354.370; -138.400; -846.000; -879.000
354.503; -324.900;-1231.000;-1308.000
354.636;  -39.700; -529.000; -348.000
354.769; -202.600; -937.000; -860.000
354.902;    9.700; -230.000; -139.000
355.034;   26.200; -164.000; -220.000
355.167;   -6.500; -262.000; -162.000
355.300; -157.300;-1061.000; -880.000
355.433; 1779.100;  -71.000;  -14.000
355.565; 2710.400; -402.000; -384.000
355.698;  740.000; -356.000; -296.000
355.831;  -27.400; -882.000; -801.000
355.964;  157.300; -285.000; -170.000
356.096; -162.000; -856.000; -843.000
356.229;    2.000; -523.000; -530.000
356.362;  608.700; -373.000; -266.000
356.494; 1117.700; -229.000; -162.000
356.627;  793.700;  269.000;  377.000
356.760; 1218.700;  120.000;   53.000
356.892; 1700.600; -286.000; -601.000
357.025; 1060.400;  403.000;  389.000
357.157; 1023.500; -167.000; -179.000
357.290; 1223.300; -856.000; -713.000
357.423;  371.700; -667.000; -556.000
357.555;  186.700; -217.000; -228.000
357.688;  184.000; -483.000; -364.000
357.820;  648.200; -870.000; -877.000
357.953; 5851.500; -563.000; -589.000
358.085; 1211.300; -632.000; -612.000
358.218; 1703.200;-1131.000; -932.000
358.350;  328.100;  -58.000;  312.000
358.483; -236.700;-1300.000;-1187.000
358.615;  -73.500;-1182.000;-1078.000
358.747; -144.500;-1187.000;-1058.000
358.880;   11.700; -810.000; -744.000
359.012;   11.000; -376.000; -202.000
359.145;  -44.600; -480.000; -511.000
359.277;   72.800; -962.000; -913.000
359.409; 4842.500;  536.000;  231.000
359.542; 1244.100; -738.000; -688.000
359.674;  159.000;   46.000;   13.000
359.806;  -94.900; -565.000; -438.000
359.939;  -35.700; -617.000; -516.000
360.071;  -21.400; -583.000; -579.000
360.203;  -19.500; -411.000; -364.000
360.335;  147.700;  164.000;  -16.000
360.468;  302.600; -249.000; -307.000
360.600; 3917.100; -547.000; -454.000
360.732; 5028.900; -546.000; -423.000
360.864;  678.000;-1216.000;-1044.000
360.996;  421.300; -516.000; -554.000
361.129;   53.600; -389.000; -598.000
361.261;  103.800;  110.000; -113.000
361.393;  -30.200; -252.000; -214.000
361.525;   86.300;   94.000;  244.000
361.657;  -59.200; -821.000; -703.000
361.789;   59.400; -139.000; -155.000
361.921;  366.500; -642.000; -593.000
362.053;  457.700;  524.000;  541.000
362.185;   99.300;  288.000;   72.000
362.318; -149.700; -709.000; -705.000
362.450;  213.500;  294.000;  444.000
362.582;  111.600; -913.000; -870.000
362.714;  -33.600; -353.000; -332.000
362.846; -126.400; -606.000; -490.000
362.978; -260.400; -941.000; -811.000
363.109;   96.000; -161.000; -260.000
363.241;  707.400; -739.000; -749.000
363.373;  780.800; -649.000; -564.000
363.505; 1185.800; -186.000;  -91.000
363.637;  287.000; -787.000; -601.000
363.769; -234.800;-1067.000;-1080.000
363.901; -123.000; -596.000; -654.000
364.033; -219.700;-1103.000;-1062.000
364.165;    2.800; -283.000; -283.000
364.296;  177.900; -316.000; -177.000
364.428;   93.700;-1344.000;-1220.000
364.560;  -99.200; -679.000; -661.000
364.692;  -94.000; -738.000; -835.000
364.824;  359.200; -588.000; -456.000
364.955;  801.700; -402.000; -564.000
365.087; 1674.500;-1097.000; -852.000
365.219;   75.400; -686.000; -816.000
365.351; -101.800; -526.000; -572.000
365.482;  170.300;  300.000;  240.000
365.614;  -54.100; -402.000; -314.000
365.746; -159.300; -729.000; -752.000
365.877; -152.800; -706.000; -672.000
366.009;  531.000;  -35.000;  -62.000
366.141; -171.800;-1249.000;-1134.000
366.272; -190.000; -803.000; -719.000
366.404; -203.800;-1005.000; -874.000
366.535;   -1.400; -139.000;  -12.000
366.667; -160.600; -644.000; -649.000
366.799;  132.200;  353.000;  203.000
366.930; -219.700; -862.000; -996.000
367.062;  234.200; -639.000; -613.000
367.193;  301.900; -872.000; -842.000
367.325;  -79.200; -580.000; -684.000
367.456;  110.600; -246.000;   31.000
367.588;  337.700; -371.000; -318.000
367.719;   75.100;  -44.000;  -45.000
367.851;  -44.700; -222.000; -241.000
367.982; -112.700; -875.000; -732.000
368.113;  177.800; -475.000; -358.000
368.245; -221.500; -960.000; -841.000
368.376;   -0.600; -254.000; -302.000
368.508;   -9.300; -188.000; -263.000
368.639; -225.100;-1166.000;-1034.000
368.770;  -54.500; -670.000; -589.000
368.902; -122.500; -836.000; -926.000
369.033; -169.900; -906.000; -855.000
369.164;  -49.000; -720.000; -653.000
369.296; -178.400; -452.000; -601.000
369.427;    6.200; -209.000; -144.000
369.558;  -29.400; -593.000; -377.000
369.689; -121.400; -721.000; -569.000
369.821; -207.700; -951.000; -845.000
369.952;   -2.000;   42.000; -108.000
370.083;  -48.100; -229.000; -108.000
370.214; -127.500; -735.000; -650.000
370.345;   35.800;   65.000;   81.000
370.477; -154.000; -810.000; -790.000
370.608;  382.700; -328.000; -264.000
370.739; -125.700;-1233.000;-1292.000
370.870;  -80.200;-1102.000; -923.000
371.001;  156.900; -378.000; -467.000
371.132; -153.800; -754.000; -735.000
371.263;   15.100;  -42.000; -148.000
371.394; -222.700; -841.000; -748.000
371.525;  136.800;  345.000;  225.000
371.657; -162.300; -808.000; -670.000
371.788;  187.800;  103.000;  199.000
371.919;  228.800; -384.000; -304.000
372.050; 5719.500;  -91.000; -156.000
372.181; 1622.500; -188.000; -294.000
372.311;  620.500;   42.000; -127.000
372.442;   58.000; -457.000; -451.000
372.573;  -13.400; -444.000; -340.000
372.704; -191.300;-1008.000; -980.000
372.835;  151.600; -228.000; -289.000
372.966;  -78.100; -646.000; -554.000
373.097; -112.200; -575.000; -711.000
373.228;  -82.200; -717.000; -542.000
373.359;  187.300; -824.000; -536.000
373.490; 1410.400; -881.000; -727.000
373.620; 1717.900;-1001.000; -803.000
373.751; 2735.000; -332.000; -396.000
373.882; 1152.800; -663.000; -733.000
374.013;  141.100; -449.000; -262.000
374.143;  -41.100; -581.000; -659.000
374.274; -180.000; -987.000; -908.000
374.405;  290.200; -388.000; -276.000
374.536;  734.400; -526.000; -387.000
374.666; 1688.700; -759.000; -807.000
374.797;  362.600; -817.000; -868.000
374.928; 1348.800; -710.000; -560.000
375.058; 1353.300; -535.000; -500.000
375.189;  150.900;  -59.000;  -93.000
375.320; -178.700; -928.000;-1034.000
375.450;  -66.700; -625.000; -616.000
375.581;  -23.800; -526.000; -436.000
375.712;  -51.000; -574.000; -250.000
375.842;  465.300; -438.000; -415.000
375.973;  328.100; -554.000; -513.000
376.103;  -58.600; -665.000; -648.000
376.234; -138.000; -531.000; -552.000
376.364;  -84.400; -944.000; -867.000
376.495;  597.700;  925.000;  529.000
376.625;  -15.500; -472.000; -485.000
376.756;  132.000; -709.000; -678.000
376.886; -129.200;-1178.000;-1026.000
377.017;  109.100;-1048.000;-1061.000
377.147;  641.200; -786.000; -782.000
377.278;  160.300;  174.000;  228.000
377.408; -219.300; -801.000; -815.000
377.538; -163.100; -707.000; -693.000
377.669;  -83.400; -537.000; -613.000
377.799; -163.600; -645.000; -635.000
377.929;  -62.400; -610.000; -428.000
378.060; -233.900; -781.000; -847.000
378.190;  -60.700; -726.000; -531.000
378.320;  -38.200; -401.000; -406.000
378.451;   48.100; -131.000;  -22.000
378.581;   43.100;  -67.000; -110.000
378.711;  334.000; 1035.000;  866.000
378.841;  -36.300; -533.000; -675.000
378.972; -155.600; -871.000; -751.000
379.102;  -13.300; -652.000; -579.000
379.232;   -1.300; -126.000;  -73.000
379.362; -194.300;-1001.000; -885.000
379.492;   28.700; -373.000; -424.000
379.623;  202.400;    0.000;  111.000
379.753; -193.100;-1107.000; -974.000
379.883;  434.200;   59.000;  156.000
380.013;  -55.000;-1081.000;-1017.000
380.143; -193.100;-1097.000;-1056.000
380.273; -182.200; -985.000; -861.000
380.403;   27.900; -344.000; -257.000
380.533;  -38.500; -651.000; -664.000
380.663;  171.100;  173.000;  128.000
380.793; -182.900;-1027.000;-1074.000
380.923;  -22.700; -103.000;  -34.000
381.053; -157.100; -613.000; -623.000
381.183;  -26.000; -106.000; -248.000
381.313;   69.800; -656.000; -470.000
381.443;   19.000; -692.000; -473.000
381.573;  350.600; -402.000; -409.000
381.703;  403.200;-1249.000;-1095.000
381.833; -249.300;-1454.000;-1336.000
381.963;  224.700; -134.000;  -87.000
382.093; 2151.000; -925.000; -909.000
382.223;  632.100; -713.000; -602.000
382.353;  -29.400; -801.000; -608.000
382.482;  574.100;-1091.000; -964.000
382.612; 1177.200; -872.000; -644.000
382.742;  676.900; -695.000; -622.000
382.872;  412.200; -565.000; -551.000
383.002;  149.200;  347.000; -132.000
383.131;   32.000; -226.000; -160.000
383.261;  -76.900; -706.000; -768.000
383.391;  542.800; -552.000; -377.000
383.521; 5847.100;  451.000;  263.000
383.650; 1359.000; -947.000; -904.000
383.780;  -20.400; -783.000; -656.000
383.910;  270.600;  880.000;  802.000
384.039;   36.100; -794.000; -656.000
384.169;  273.700;-1205.000;-1017.000
384.299;  -21.700; -650.000; -662.000
384.428; -146.200; -764.000; -680.000
384.558;  -61.600; -308.000; -275.000
384.687;  -49.100; -414.000; -334.000
384.817;   61.300;   75.000;   -2.000
384.947;   57.200; -234.000; -141.000
385.076;  554.200;  982.000;  912.000
385.206;  220.300;  369.000;  480.000
385.335;  -22.300; -549.000; -417.000
385.465; -120.900; -655.000; -663.000
385.594;  266.500;  -53.000;  -44.000
385.724;  627.900; -868.000; -838.000
385.853;  180.400; -296.000; -270.000
385.982; 2170.100; -743.000; -787.000
386.112; 3280.900;-1052.000; -871.000
386.241;  202.600; -307.000; -312.000
386.371;   71.900; -174.000;  -87.000
386.500;    2.100; -825.000; -789.000
386.629;   53.200; -874.000; -817.000
386.759;  173.900;  -43.000;   68.000
386.888;   24.900; -170.000; -250.000
387.017; -133.100; -648.000; -620.000
387.147; -151.100; -771.000; -798.000
387.276;    4.700; -410.000; -397.000
387.405;   41.900; -398.000; -342.000
387.535;  -65.200; -452.000; -361.000
387.664; -107.300; -692.000; -620.000
387.793;  136.000; -198.000; -113.000
387.922;  853.100;  255.000;  200.000
388.052;   38.400; -576.000; -423.000
388.181;   22.300; -342.000; -472.000
388.310;  -36.700; -889.000; -710.000
388.439;  -76.800; -749.000; -742.000
388.568;  373.600;  365.000;  244.000
388.697; 1566.900; -756.000; -653.000
388.826;  272.200; -768.000; -666.000
388.956;  103.000; -285.000; -307.000
389.085;  -24.600; -347.000; -287.000
389.214; -176.600; -842.000; -872.000
389.343;  -86.400; -645.000; -413.000
389.472;  772.200;  126.000;  149.000
389.601;  922.400;   91.000;    0.000
389.730;   23.600; -568.000; -687.000
389.859;  161.700;  226.000;   46.000
389.988;  312.200; -423.000; -408.000
390.117;  242.000; -168.000; -146.000
390.246;   20.000; -331.000; -320.000
390.375;  153.900; -673.000; -626.000
390.504; -118.200; -703.000; -621.000
390.633; -148.100; -672.000; -726.000
390.761; -111.500; -732.000; -645.000
390.890;   94.100;   -4.000; -130.000
391.019;  -19.700; -421.000; -441.000
391.148; -200.400; -826.000; -855.000
391.277; -120.400; -576.000; -493.000
391.406; -151.900; -821.000; -805.000
391.534;   71.600;  574.000; -301.000
391.663; -118.800; -583.000; -645.000
391.792; -174.600; -673.000; -701.000
391.921;  212.900;   -3.000;   15.000
392.050;  295.000; -287.000; -228.000
392.178;  -97.600;-1206.000;-1061.000
392.307;  220.400; -758.000; -712.000
392.436;   71.000; -427.000; -641.000
392.564;  107.800;  166.000;   -6.000
392.693; -116.100; -860.000; -682.000
392.822;  319.600; -529.000; -534.000
392.950;  118.400; -880.000; -714.000
393.079;  566.900; -188.000; -328.000
393.208;   31.500; -488.000; -511.000
393.336;   36.600; -170.000; -145.000
393.465;  -25.300; -317.000; -199.000
393.593;   80.600;   62.000;   79.000
393.722; -231.100;-1121.000; -916.000
393.850;  -12.200; -188.000;  -61.000
393.979; -260.700; -926.000; -805.000
394.107;  -60.100; -517.000; -537.000
394.236;  -25.200; -570.000; -507.000
394.364;  504.000;  383.000;  206.000
394.493;  800.000; -911.000; -767.000
394.621;   20.700; -955.000; -916.000
394.750; 1345.900; -873.000; -923.000
394.878; 5416.800; -247.000; -149.000
395.007; 7111.600; -721.000; -807.000
395.135;  503.300; -790.000; -721.000
395.263; -133.600;-1038.000;-1040.000
395.392;   67.200;  -25.000; -107.000
395.520; -143.100; -818.000; -679.000
395.648; -174.800; -865.000; -915.000
395.777;  -13.000; -366.000; -405.000
395.905;  -49.000; -449.000; -564.000
396.033;  104.700;  217.000;  172.000
396.162; 1335.800; -399.000; -453.000
396.290; 1121.400;  -17.000;   -2.000
396.418;  198.300; -555.000; -514.000
396.546; -109.700; -571.000; -466.000
396.674; -170.900; -850.000; -878.000
396.803;   50.700;  -72.000;  -23.000
396.931;  164.600; -179.000; -199.000
397.059;   52.000;-1026.000; -989.000
397.187; -181.700;-1026.000; -975.000
397.315; -207.500; -884.000; -649.000
397.443; -148.500; -592.000; -443.000
397.572; -139.700; -578.000; -424.000
397.700;    6.000; -607.000; -614.000
397.828;   41.500;  120.000;  -90.000
397.956;  -37.200; -508.000; -478.000
398.084;  -73.000; -767.000; -626.000
398.212;  115.000;  137.000;  124.000
398.340;   61.600;  -56.000;  159.000
398.468;   76.800; -390.000; -169.000
398.596; -252.600; -993.000; -953.000
398.724; -197.500; -762.000; -767.000
398.852; -300.500;-1024.000; -976.000
398.980;  -67.400; -560.000; -560.000
399.108;  -82.400; -982.000; -735.000
399.236;  104.400;   13.000;    8.000
399.363;   71.500;  222.000;  196.000
399.491;  -88.100; -404.000; -398.000
399.619; -190.400; -829.000; -800.000
399.747; -178.700; -859.000; -771.000
399.875;  184.700;  220.000;  234.000
400.003;  -56.800; -359.000; -284.000
400.130; -106.700; -421.000; -341.000
400.258;   21.900;  -83.000;   38.000
400.386;  -70.400; -352.000; -168.000
400.514;  -62.900; -526.000; -587.000
400.641; -164.600; -928.000; -802.000
400.769; -258.100; -979.000; -888.000
400.897; -176.000; -838.000; -793.000
401.025;    0.100; -166.000; -152.000
401.152;   41.600;  220.000;   38.000
401.280;  -89.400; -430.000; -429.000
401.408; -193.600; -712.000; -576.000
401.535; -156.700; -735.000; -758.000
401.663; -340.700;-1134.000;-1054.000
401.790; -118.600; -514.000; -525.000
401.918;  128.900;  436.000;  405.000
402.046;   35.700;  134.000;  122.000
402.173;  -12.100;  -18.000;    7.000
402.301;  -74.900; -519.000; -397.000
402.428;  144.000;  528.000;  383.000
402.556; -251.800;-1188.000; -913.000
402.683;   -8.000;  -20.000;   -1.000
402.811;   14.200;  -37.000; -206.000
402.938;   53.400;   20.000;   27.000
403.066;  317.200; -574.000; -558.000
403.193;  539.800;  299.000;  239.000
403.321;  391.800; -396.000; -574.000
403.448;  552.300;   83.000;   27.000
403.575;  242.700;  -90.000;  -46.000
403.703; -182.700; -732.000; -557.000
403.830;  -78.900; -531.000; -496.000
403.957; -213.300;-1117.000;-1023.000
404.085;   69.200;  -61.000; -172.000
404.212;  235.100;  -50.000;   63.000
404.339;  498.700; -566.000; -306.000
404.467;10781.900; -612.000; -524.000
404.594; 6495.200; -287.000; -227.000
404.721; 1428.800; -869.000; -764.000
404.848;  169.400; -113.000; -202.000
404.976; -142.900; -856.000; -783.000
405.103;   34.600;  -14.000;  -82.000
405.230;   64.500;  190.000;  226.000
405.357;   82.900;  117.000;   44.000
405.484;  557.700;  -49.000;    5.000
405.612;   91.200; -548.000; -563.000
405.739;  -64.400; -488.000; -243.000
405.866;  232.800;  669.000;  385.000
405.993;  -43.200; -398.000; -102.000
406.120; -217.400; -801.000; -887.000
406.247;  -95.900; -323.000; -342.000
406.374;  794.700;  540.000;  629.000
406.501;  113.500; -632.000; -702.000
406.628; -103.400; -621.000; -589.000
406.755; -128.200; -803.000; -620.000
406.882;  -30.700; -228.000; -277.000
407.009; -152.800; -719.000; -628.000
407.136;  124.600; -480.000; -401.000
407.263;  217.500; -939.000; -829.000
407.390; -121.700; -692.000; -614.000
407.517; -297.100;-1139.000;-1187.000
407.644;  -23.900; -332.000; -256.000
407.771;  -84.300; -249.000; -287.000
407.898;   91.600;  168.000;  328.000
408.025;  -77.700; -421.000; -313.000
408.151;   58.000;   82.000;  153.000
408.278;  -74.700; -267.000; -216.000
408.405; -185.700; -931.000; -899.000
408.532;  -75.900; -549.000; -542.000
408.659; -160.100; -677.000; -648.000
408.785; -362.600;-1298.000;-1170.000
408.912;  -73.800; -412.000; -296.000
409.039; -162.300; -610.000; -686.000
409.166; -169.500; -591.000; -555.000
409.292; -153.100; -571.000; -534.000
409.419; -196.500; -665.000; -649.000
409.546;  -90.700; -431.000; -192.000
409.672; -158.800; -713.000; -545.000
409.799;   15.600;  -36.000;   34.000
409.926;  -28.400; -180.000; -179.000
410.052; -282.200;-1127.000;-1091.000
410.179;  -96.700; -368.000; -392.000
410.305; -101.100; -375.000; -493.000
410.432;  -29.800; -220.000; -333.000
410.558; -117.000; -305.000; -380.000
410.685; -135.900; -688.000; -431.000
410.812; -174.400; -409.000; -588.000
410.938; -203.500; -964.000; -808.000
411.065; -128.100; -671.000; -645.000
411.191;   25.800; -189.000; -174.000
411.317; -177.300; -823.000; -742.000
411.444;  -57.200; -317.000; -246.000
411.570;  -98.100; -339.000; -294.000
411.697; -175.100; -758.000; -752.000
411.823; -281.600; -989.000; -999.000
411.949;  -26.700;  -56.000;   17.000
412.076; -165.500; -539.000; -519.000
412.202; -203.800; -758.000; -757.000
412.329; -193.800; -798.000; -752.000
412.455; -191.900; -821.000; -657.000
412.581;   26.100;  -15.000;  172.000
412.707; -100.100; -540.000; -457.000
412.834;   94.400;  156.000;  219.000
412.960; -142.500; -785.000; -784.000
413.086; -145.900; -743.000; -701.000
413.212;  317.600;  604.000;  578.000
413.339;  -87.100; -685.000; -701.000
413.465;  -23.600; -364.000; -310.000
413.591; -137.800; -757.000; -474.000
413.717;  -60.900; -358.000; -366.000
413.843; -227.000; -839.000; -861.000
413.969;  -48.600;  -47.000; -292.000
414.096; -151.600; -679.000; -679.000
414.222;   19.500;  -33.000;   85.000
414.348;  -16.700; -652.000; -385.000
414.474;  208.400;   38.000;  -52.000
414.600;   26.600; -126.000; -144.000
414.726;   13.800;  -96.000;  -55.000
414.852;  -66.600; -365.000; -342.000
414.978;   89.800;  104.000;  -18.000
415.104;  110.100;   38.000;   80.000
415.230;   77.000; -329.000; -330.000
415.356;  121.700; -409.000; -514.000
415.482;  376.900;   13.000;  -35.000
415.608;  525.900; -247.000; -323.000
415.734; 1858.800;   67.000;   38.000
415.860;37404.400; -875.000; -767.000
415.986;24365.000; -685.000; -607.000
416.111; 2051.400; -798.000; -652.000
416.237;  461.300; -424.000; -571.000
416.363; 2242.000; -765.000; -733.000
416.489; 7446.200; -324.000; -251.000
416.615;  757.000; -707.000; -742.000
416.741;  -33.400; -677.000; -784.000
416.866; -167.100; -673.000; -736.000
416.992; -184.100; -801.000; -818.000
417.118;    9.900;  -41.000;  -80.000
417.244; -104.600; -798.000; -531.000
417.369; -119.500; -801.000; -612.000
417.495;   16.100; -325.000; -254.000
417.621; -159.000;-1015.000; -803.000
417.746;   67.600; -579.000; -572.000
417.872;   97.900; -254.000; -144.000
417.998;  121.000; -515.000; -530.000
418.123; 2130.100;-1073.000; -845.000
418.249; 9666.000; -512.000; -601.000
418.374; 1235.900; -916.000; -824.000
418.500;  220.900; -383.000; -482.000
418.626;  277.300;   70.000;  -59.000
418.751;  259.900; -549.000; -448.000
418.877;  363.000; -637.000; -643.000
419.002; 3620.900; -688.000; -560.000
419.128;22967.800; -930.000; -721.000
419.253; 5064.200; -967.000; -837.000
419.379;  714.300; -391.000; -338.000
419.504;  757.600;  325.000;  415.000
419.629;  945.900; -393.000; -212.000
419.755; 7220.900; -317.000; -254.000
419.880;38576.100;  -98.000;   67.000
420.006;21254.300; -280.000; -221.000
420.131;51387.800; -662.000; -775.000
420.256; 6726.000; -315.000; -316.000
420.382;  929.400; -665.000; -687.000
420.507;  162.900; -649.000; -778.000
420.632;  220.000; -337.000; -339.000
420.758;  397.400; -251.000; -425.000
420.883; -109.100; -876.000; -672.000
421.008; -175.100; -775.000; -619.000
421.133; -124.700; -509.000; -467.000
421.259;  -52.800; -325.000; -259.000
421.384; -177.700; -834.000; -693.000
421.509;  -85.600;-1052.000; -862.000
421.634; 1742.500; -936.000; -820.000
421.759;  690.600; -359.000; -327.000
421.885;  -80.900; -717.000; -656.000
422.010; -109.600; -673.000; -542.000
422.135; -241.400; -695.000; -727.000
422.260;  130.800;  340.000;  280.000
422.385;  -10.700;   12.000;  -98.000
422.510;   85.400;  151.000;  -26.000
422.635;   55.100;  -87.000;  -43.000
422.760;  212.600; -766.000; -791.000
422.885;  157.900;  -57.000;  -80.000
423.010;   -4.100; -112.000; -169.000
423.135; -102.900; -481.000; -561.000
423.260;    7.700; -150.000; -245.000
423.385;  179.600;  476.000;  222.000
423.510;   95.400;   71.000;  -22.000
423.635;  195.200;  133.000;   45.000
423.760;  160.700;  383.000;  328.000
423.885;  143.700;  336.000;  391.000
424.010;   63.700;  -68.000;  -13.000
424.135;    5.400;    5.000;  -33.000
424.259; -105.900; -654.000; -457.000
424.384;  -47.100; -279.000; -272.000
424.509;   14.500; -260.000; -186.000
424.634; -146.100; -761.000; -623.000
424.759;  -20.100; -688.000; -544.000
424.883;  -10.400; -506.000; -527.000
425.008;  332.300; -502.000; -410.000
425.133; 3753.500; -679.000; -653.000
425.258; 1563.000; -517.000; -381.000
425.382; 1668.300; -867.000; -774.000
425.507; 3966.900; -487.000; -543.000
425.632;  671.700; -802.000; -663.000
425.756;  899.200; -256.000; -146.000
425.881;13054.300; -831.000; -857.000
426.006;31934.400; -604.000; -355.000
426.130; 4450.300; -696.000; -508.000
426.255;  647.900; -611.000; -491.000
426.379;  338.100; -189.000; -577.000
426.504;  753.700;  660.000;  544.000
426.629; 7617.500; -519.000; -466.000
426.753; 4657.500;   64.000;  -46.000
426.878;  568.300; -252.000; -288.000
427.002;  370.200; -651.000; -668.000
427.127; 3167.000;  -35.000; -158.000
427.251;21027.700;  372.000;  401.000
427.375; 5315.800; -191.000; -173.000
427.500; 3630.400; -616.000; -610.000
427.624; 1099.700; -234.000; -400.000
427.749;  175.800; -216.000; -225.000
427.873;  -45.400; -499.000; -412.000
427.997;    0.200; -222.000; -230.000
428.122;  183.200;  795.000;  703.000
428.246;  193.000;  433.000;  434.000
428.371; -236.700; -869.000; -773.000
428.495; -130.500; -624.000; -646.000
428.619;   -1.800; -186.000; -117.000
428.743;  125.700;   65.000;  132.000
428.868;   39.700; -732.000; -643.000
428.992; 2267.400; -219.000; -326.000
429.116;  853.700; -329.000; -357.000
429.240;  483.800;  419.000;  426.000
429.365;    6.000; -454.000; -574.000
429.489;  -37.600; -638.000; -647.000
429.613;   90.600; -236.000; -177.000
429.737;  135.500; -563.000; -432.000
429.861;  541.100; -247.000; -133.000
429.985;10699.200; -425.000; -305.000
430.109;10603.400; -770.000; -908.000
430.234; 1203.600;   76.000;  -50.000
430.358;  178.400; -250.000; -160.000
430.482;  -79.000; -672.000; -564.000
430.606;  -82.000; -655.000; -375.000
430.730;   59.700; -437.000; -388.000
430.854;  175.000; -909.000; -835.000
430.978; -130.200; -795.000; -764.000
431.102;  -85.900; -499.000; -422.000
431.226; -198.100; -874.000; -815.000
431.350;  109.400;  345.000;  422.000
431.474;  -93.000; -661.000; -373.000
431.597; -259.200;-1060.000; -848.000
431.721;  -74.200; -276.000; -267.000
431.845; -183.800; -704.000; -472.000
431.969; -105.100; -304.000; -349.000
432.093; -133.000; -395.000; -317.000
432.217;   41.500;   32.000;   82.000
432.341; -134.800; -523.000; -518.000
432.464;   34.900;   96.000;   40.000
432.588;  322.500; -401.000; -329.000
432.712;  219.400;  -52.000;  -52.000
432.836;  147.100;  213.000;  263.000
432.959;   23.500; -372.000; -311.000
433.083;  207.800;   11.000;    2.000
433.207;  765.600;  285.000;  930.000
433.330; 9861.200; -391.000; -200.000
433.454;10919.500; -654.000; -638.000
433.578; 6493.200;  583.000;  278.000
433.701; 1090.200; -623.000; -675.000
433.825;  235.000; -292.000; -299.000
433.949;  312.900;   28.000;  -72.000
434.072;   70.000; -410.000; -323.000
434.196;   21.700; -309.000; -117.000
434.319; 7748.100;25482.000;25124.000
434.443; 1404.800; -656.000; -603.000
434.566; 4832.800;  281.000;   62.000
434.690;  745.500; -637.000; -383.000
434.813;  116.800; -251.000; -173.000
434.937;  -85.300; -569.000; -696.000
435.060;  -57.300; -423.000; -332.000
435.184;  484.700; -492.000; -217.000
435.307;  242.000;  159.000;  102.000
435.431;   42.200;  -40.000;   24.000
435.554;  -69.600; -399.000; -240.000
435.677;  -97.400; -350.000; -258.000
435.801;  -10.000;  -25.000;   49.000
435.924;   20.300;    1.000;  -67.000
436.048; -185.300;-1019.000; -732.000
436.171;  -67.500; -240.000;  -66.000
436.294;   12.200; -248.000; -229.000
436.417;  199.800; -963.000; -849.000
436.541; -158.900; -814.000; -840.000
436.664;  -31.700; -242.000; -316.000
436.787;   39.000;   13.000;  113.000
436.910; -179.700; -792.000; -422.000
437.034;   86.400;  142.000;  143.000
437.157;  137.800;  -11.000;    0.000
437.280;  -76.900; -392.000; -292.000
437.403; -181.600; -982.000; -869.000
437.526;  961.200; -903.000; -865.000
437.649; 3190.300; -505.000; -332.000
437.772;  387.000; -692.000; -540.000
437.896;  263.300;  700.000;  544.000
438.019; -103.700; -758.000; -503.000
438.142; -108.700; -596.000; -506.000
438.265;  -35.300; -639.000; -670.000
438.388;  858.200; -520.000; -410.000
438.511;  130.400; -597.000; -394.000
438.634;  -32.500; -247.000; -125.000
438.757; -203.500; -693.000; -619.000
438.880;    1.500;  -34.000;  -57.000
439.003;  -97.700; -417.000; -437.000
439.126;  -72.700; -287.000; -167.000
439.248;  -37.400;  -98.000; -139.000
439.371;  -22.700;    9.000;  -53.000
439.494;  127.600;  510.000;  439.000
439.617;  -31.600;   65.000;  -88.000
439.740; -273.300; -968.000; -816.000
439.863; -244.200; -755.000; -595.000
439.986; -166.800; -476.000; -431.000
440.108;  -15.800; -161.000; -112.000
440.231; -292.400; -950.000; -836.000
440.354;  -42.400;  -64.000; -150.000
440.477;   70.000; -566.000; -542.000
440.599;   53.900; -200.000; -225.000
440.722; -180.400; -709.000; -586.000
440.845;  234.700;  751.000;  928.000
440.968; -136.400; -415.000; -311.000
441.090;  -99.500; -199.000;  -33.000
441.213; -274.500;-1021.000; -825.000
441.336;  -22.200; -159.000;   -5.000
441.458;  -87.100; -549.000; -396.000
441.581; -135.900; -628.000; -629.000
441.703;  -61.600; -152.000;   13.000
441.826; -158.400; -557.000; -400.000
441.948;  -44.900;   56.000;   51.000
442.071;  161.400;  555.000;  424.000
442.193; -182.700; -531.000; -485.000
442.316;   86.200;  152.000;   97.000
442.438;  114.200; -233.000;  -10.000
442.561;  200.800;  272.000;  262.000
442.683;  856.800; -809.000; -522.000
442.806; 1637.100;   -8.000;   74.000
442.928;   -5.200; -859.000; -604.000
443.051;  -91.200; -577.000; -373.000
443.173; -133.600; -341.000; -339.000
443.295; -130.500; -263.000; -371.000
443.418;  -88.000; -321.000;  -29.000
443.540;   70.300; -106.000;   -4.000
443.662; -179.100; -563.000; -465.000
443.785;   71.700;  335.000;  199.000
443.907; -168.600; -362.000; -208.000
444.029; -187.600; -767.000; -494.000
444.152; -200.400; -644.000; -554.000
444.274;   -5.200;  -18.000;  -24.000
444.396; -151.800; -461.000; -221.000
444.518; -181.500; -691.000; -454.000
444.640; -137.600; -268.000; -111.000
444.763;   18.200;  388.000;  249.000
444.885; -198.300; -432.000; -392.000
445.007;    6.500;   35.000;   86.000
445.129; -187.000; -610.000; -515.000
445.251; -145.900; -372.000; -439.000
445.373; -212.400; -537.000; -386.000
445.495;   44.100;  242.000;  350.000
445.617;  190.400;  853.000;  753.000
445.739;  -59.400; -215.000;  -97.000
445.861;    3.700; -245.000; -112.000
445.984;   -6.300; -267.000; -101.000
446.105;  331.400; -418.000; -251.000
446.227;  914.700; -176.000;  -19.000
446.349;  -13.800; -358.000; -249.000
446.471; -166.100; -615.000; -448.000
446.593;  -80.900; -316.000;   19.000
446.715;   37.300;  -67.000;   41.000
446.837;  176.700;  697.000;  832.000
446.959; -161.400; -457.000; -478.000
447.081; -234.600; -628.000; -518.000
447.203;  169.500;  862.000;  834.000
447.325;  -91.800; -270.000;   42.000
447.446;   47.000;  286.000;  530.000
447.568; -262.000; -921.000; -803.000
447.690; -102.700; -236.000; -245.000
447.812; -251.800; -798.000; -519.000
447.933;   11.000;  155.000;  127.000
448.055;  -60.700; -306.000; -261.000
448.177;  325.100;   31.000;   79.000
448.299;   68.100; -935.000; -727.000
448.420;   97.400;  -25.000;  159.000
448.542;  -69.600;   -3.000;   33.000
448.664;   27.500;  109.000;  322.000
448.785;   13.600;  265.000;   83.000
448.907; -124.600; -614.000; -353.000
449.028;  -60.500; -771.000; -471.000
449.150;  205.300;  492.000;  589.000
449.272; -287.400;-1044.000; -913.000
449.393;  121.100;  612.000;  694.000
449.515; -248.200; -634.000; -581.000
449.636;  -57.100; -264.000; -155.000
449.758;  202.900;  763.000;  622.000
449.879; -125.600; -498.000; -396.000
450.001; -104.200; -149.000;  -49.000
450.122;  -14.000;  -95.000;  162.000
450.244;   35.900;   37.000;  364.000
450.365; -109.700; -495.000; -301.000
450.486;   -0.600;   80.000;  268.000
450.608;  106.800;  393.000;  326.000
450.729;  228.800;  578.000;  645.000
450.850;   58.300; -574.000; -466.000
450.972; 1540.500; -552.000; -389.000
451.093; 9411.900;  190.000;  588.000
451.214; 3487.300; -516.000; -337.000
451.336;  704.600;  773.000;  579.000
451.457;  178.200;  264.000;  393.000
451.578;   30.200; -118.000;  -74.000
451.699; -169.600; -546.000; -540.000
451.821;  -37.900; -284.000;  -50.000
451.942;   38.600;  278.000;  285.000
452.063;  157.400;  228.000;  419.000
452.184; 1124.900;  -54.000;  -49.000
452.305; 1969.900;  103.000;  170.000
452.427;  236.400; -549.000; -301.000
452.548;   16.200;   23.000;   79.000
452.669;  -50.700; -257.000;  -89.000
452.790;  -51.700;    3.000;  -18.000
452.911;   38.300;  195.000;  259.000
453.032; -101.100; -289.000;  -60.000
453.153;  -15.800;  -29.000;   81.000
453.274;  180.700;  737.000;  868.000
453.395;  -39.900;  -51.000;  175.000
453.516;  291.500; 1317.000; 1388.000
453.637;  -67.700; -205.000; -150.000
453.758;  -43.500;   15.000;   69.000
453.879; -182.400; -462.000; -250.000
454.000;  255.500; 1086.000;  948.000
454.121; -170.100; -554.000; -326.000
454.242; -174.100; -599.000; -383.000
454.362;  -47.000;  -99.000;  114.000
454.483;  -39.100; -309.000; -229.000
454.604;  183.200;  512.000;  580.000
454.725; -163.200; -627.000; -555.000
454.846; -148.800; -474.000; -406.000
454.967;   39.700;  230.000;  539.000
455.087;  -16.400;  179.000;  153.000
455.208;  120.700;  554.000;  856.000
455.329;  -16.600;  -22.000;   82.000
455.450;  158.900;  473.000;  633.000
455.570;  -91.100; -234.000; -211.000
455.691;   -2.600;  201.000;  407.000
455.812; -159.700; -270.000;  -92.000
455.932;  -57.600;  107.000;  -97.000
456.053;  -61.400;   36.000;   24.000
456.173; -126.100; -433.000; -355.000
456.294; -182.400; -476.000; -303.000
456.415;  -44.000;  -73.000;   70.000
456.535;    6.700;  297.000;  273.000
456.656;    3.200;  132.000;  240.000
456.776;  -58.000;    3.000;  298.000
456.897;   61.500;  308.000;  513.000
457.017;  -85.900; -153.000;   -3.000
457.138; -164.400; -402.000; -249.000
457.258;   -2.900;  263.000;  224.000
457.379;   66.400;  509.000;  521.000
457.499;   29.100;  443.000;  432.000
457.620; -183.900; -407.000; -231.000
457.740; -142.400; -132.000;  -11.000
457.860;  -41.300;   87.000;   44.000
457.981;  -16.700;  132.000;  124.000
458.101; -107.100;  -89.000;   40.000
458.221;   53.600;  336.000;  402.000
458.342;  -55.200;   -4.000;  -37.000
458.462;  139.200;  617.000;  352.000
458.582;   -1.900; -302.000; -294.000
458.703;   84.000;  303.000;  154.000
458.823;   21.400;   22.000;  163.000
458.943;  152.400;  341.000;  467.000
459.063;   64.400; 1124.000;  192.000
459.183;   26.800;  328.000;  313.000
459.304;   38.800;  315.000;  517.000
459.424;  -28.600; -246.000;  -89.000
459.544;  736.400;  388.000;  764.000
459.664; 1596.300;  499.000;  506.000
459.784;  613.600; 1004.000; 1175.000
459.904;  137.000;  867.000;  744.000
460.024;  176.100;  867.000;  684.000
460.144;   67.900;  449.000;  554.000
460.264;   52.000;  515.000;  327.000
460.385; -113.800; -145.000; -119.000
460.505;  140.200;  905.000;  858.000
460.625; -110.800;  -17.000;  -68.000
460.745;   31.700;  396.000;  541.000
460.864;  -12.100;  153.000;  469.000
460.984;   91.900;  499.000;  573.000
461.104;  374.300; 1656.000; 1775.000
461.224;  128.900;  657.000;  650.000
461.344;   27.200;  431.000;  360.000
461.464;   -2.800;  258.000;  513.000
461.584;   52.300;  283.000;  466.000
461.704;  -38.800;   58.000;  108.000
461.824;  -39.600;  238.000;  259.000
461.943;    6.800;  191.000;  130.000
462.063;  -65.000;    2.000;  324.000
462.183;  108.200;  639.000;  717.000
462.303;  310.900; 1678.000; 1230.000
462.422;  143.800;  781.000;  840.000
462.542;  -11.400;  271.000;  391.000
462.662;  154.800;  353.000;  380.000
462.782;  576.300;  833.000;  572.000
462.901;  932.200;  545.000;  717.000
463.021;  599.900; 1702.000; 1638.000
463.141;   62.900;  337.000;  770.000
463.260;   32.400;  614.000;  474.000
463.380;  115.900;  902.000;  884.000
463.499;    3.100;  342.000;  332.000
463.619;   10.700;  581.000;  559.000
463.738;  308.000; 1644.000;  903.000
463.858;   93.200;  657.000;  811.000
463.978;    3.500;  542.000;  396.000
464.097;  187.100;  921.000; 1114.000
464.217;  347.600; 1196.000; 1143.000
464.336;  318.400; 1068.000; 1130.000
464.455;  -17.600;  328.000;  659.000
464.575;  112.100;  597.000;  602.000
464.694;  416.600; 1204.000; 1179.000
464.814;  335.400; 1190.000; 1138.000
464.933;  202.100; 1095.000; 1027.000
465.052;  281.600; 1412.000; 1054.000
465.172;  235.600;  922.000;  799.000
465.291;  307.700; 1376.000; 1320.000
465.410;  126.500;  462.000;  735.000
465.530;  247.200; 1355.000; 1310.000
465.649;  208.700; 1209.000; 1273.000
465.768;  328.200; 1673.000; 1508.000
465.888;  192.800;  941.000; 1174.000
466.007;  254.800; 1335.000; 1440.000
466.126;   81.000;  721.000;  641.000
466.245;  187.100; 1176.000; 1187.000
466.364;  120.500;  950.000; 1060.000
466.484;  180.500; 1024.000; 1213.000
466.603;  145.800; 1101.000; 1222.000
466.722;  282.700; 1490.000; 1769.000
466.841;  206.400; 1151.000; 1401.000
466.960;  146.700; 1069.000;  972.000
467.079;  304.700; 1971.000; 1786.000
467.198;  223.700; 1238.000; 1181.000
467.317;  287.000; 1768.000; 1162.000
467.436;  206.600; 1709.000; 1261.000
467.555;  313.000; 1796.000; 1746.000
467.674;  187.800; 1227.000; 1329.000
467.793;  169.000; 1376.000; 1374.000
467.912;  287.000; 1658.000; 1539.000
468.031;  386.500; 2038.000; 1930.000
468.150;  377.400; 1842.000; 1837.000
468.269;  477.600; 2313.000; 2090.000
468.388;  461.500; 2168.000; 2339.000
468.507;  632.600; 2884.000; 2903.000
468.626;  639.900; 2555.000; 2541.000
468.744;  349.800; 2018.000; 2174.000
468.863;  478.500; 2312.000; 2523.000
468.982;  258.100; 1503.000; 1555.000
469.101;  523.700; 2788.000; 2692.000
469.220;  364.300; 2333.000; 2176.000
469.338;  571.800; 2935.000; 3051.000
469.457;  469.700; 2719.000; 2545.000
469.576;  823.100; 3953.000; 3784.000
469.695;  567.800; 2877.000; 3066.000
469.813;  916.700; 4148.000; 4192.000
469.932;  873.300; 4255.000; 4485.000
470.051;  935.500; 4075.000; 4161.000
470.169; 1828.300; 4470.000; 4338.000
470.288; 2863.000; 4700.000; 4809.000
470.406; 1652.000; 5059.000; 5194.000
470.525; 1299.000; 6101.000; 5787.000
470.644; 1424.500; 6847.000; 6794.000
470.762; 1794.000; 8397.000; 7873.000
470.881; 1890.600; 8651.000; 8464.000
470.999; 2154.400; 9685.000; 9151.000
471.118; 2324.600;11174.000;10711.000

