
Integration time [ms]: 200.000
Averaging Nr. [scans]: 10
Smoothing Nr. [pixels]: 0
Data measured with spectrometer [name]: 2101012U2
Wave   ;Sample   ;Dark     ;Reference
[nm]   ;[counts] ;[counts] ;[counts] 

197.733;  113.400;  516.000;  404.000
197.879; -169.700; -610.000; -634.000
198.025; -128.100; -475.000; -420.000
198.171; -199.200; -602.000; -612.000
198.317;  -43.100; -401.000; -316.000
198.463; -162.800; -655.000; -404.000
198.609;   28.800;  181.000; -137.000
198.755; -165.400; -644.000; -410.000
198.901; -146.000; -505.000; -424.000
199.047; -114.200; -615.000; -488.000
199.193; -108.200; -230.000; -468.000
199.339;  -75.000; -222.000; -369.000
199.485;   58.500;  330.000;  271.000
199.631;   34.800;  227.000;  310.000
199.777; -113.500; -466.000; -398.000
199.923; -137.700; -610.000; -424.000
200.069;   -6.900; -141.000;  -58.000
200.215;  141.100;  128.000;  453.000
200.361;   74.800;  243.000;  477.000
200.507; -138.300; -600.000; -373.000
200.653;  -66.100; -371.000; -194.000
200.798; -101.300; -215.000; -125.000
200.944;   -1.700; -146.000;  -41.000
201.090;   68.300;   61.000;  222.000
201.236;  -35.600; -116.000; -158.000
201.382;  257.300;  874.000;  903.000
201.528;   -6.600;  -58.000;  -48.000
201.674; -126.600; -386.000; -293.000
201.819; -126.600; -540.000; -439.000
201.965; -146.400; -699.000; -447.000
202.111;  -46.800; -273.000; -226.000
202.257;  -71.900; -250.000; -238.000
202.402;   16.400;   13.000;  -36.000
202.548;  -49.900; -169.000; -116.000
202.694;  176.700;  410.000; -183.000
202.840; -187.500; -603.000; -531.000
202.985; -155.100; -681.000; -639.000
203.131; -242.300; -832.000; -666.000
203.277;  -51.500; -199.000; -262.000
203.423; -128.900; -434.000; -520.000
203.568;  -71.700; -462.000; -237.000
203.714; -148.300; -535.000; -542.000
203.860; -179.000; -682.000; -641.000
204.005;   51.200;  112.000;  167.000
204.151;  127.800;  561.000;  556.000
204.296;  -83.100; -354.000; -221.000
204.442; -157.300; -600.000; -547.000
204.588; -179.900; -592.000; -579.000
204.733;   13.100;  178.000;  168.000
204.879; -243.300;-1018.000; -822.000
205.025;   50.500;  -99.000;  126.000
205.170;   27.100;  -17.000;   94.000
205.316;  140.800;  438.000;  661.000
205.461; -175.000; -698.000; -554.000
205.607;  189.600;  609.000;  665.000
205.752; -157.800; -626.000; -551.000
205.898;  -78.400; -501.000; -391.000
206.043; -129.000; -578.000; -506.000
206.189;  -99.800; -243.000; -285.000
206.334;  155.500;  554.000;  606.000
206.480;  194.600;  409.000;  239.000
206.625; -161.500; -529.000; -552.000
206.771;  -97.600; -451.000; -373.000
206.916;  -49.500; -210.000; -537.000
207.062; -151.500; -545.000; -591.000
207.207; -155.000; -546.000; -443.000
207.353;  109.100;  185.000;  460.000
207.498;    4.400;  196.000;   85.000
207.643;  -90.500; -501.000; -370.000
207.789; -261.400;-1069.000; -910.000
207.934; -203.200; -665.000; -713.000
208.080;  -41.300; -154.000;   66.000
208.225;  -18.800;  -22.000;  -57.000
208.370; -180.700; -727.000; -619.000
208.516; -146.700; -741.000; -487.000
208.661;  -18.800; -127.000;  -69.000
208.806;  -58.100; -165.000; -171.000
208.952; -236.900;-1044.000; -731.000
209.097;  160.400;  378.000;  349.000
209.242; -108.500; -307.000; -382.000
209.387;   73.000;  392.000;  350.000
209.533; -117.400; -321.000; -350.000
209.678;  151.800;  472.000;  543.000
209.823; -106.000; -408.000; -310.000
209.969; -199.100; -860.000; -757.000
210.114; -209.400; -907.000; -719.000
210.259; -227.200; -939.000; -889.000
210.404;  -38.300; -171.000;  103.000
210.549;  -27.400;  108.000;    3.000
210.695;  -59.400;   -3.000;  -95.000
210.840;   77.700;   94.000;   67.000
210.985; -100.000; -484.000; -303.000
211.130;  110.000;  268.000;  406.000
211.275;   39.500;  207.000;  199.000
211.420; -112.800; -300.000; -289.000
211.566; -141.200; -536.000; -489.000
211.711;   42.200;  218.000;  157.000
211.856; -128.300; -545.000; -519.000
212.001;   25.400;  151.000;   44.000
212.146;   14.500;  153.000;   49.000
212.291;  -24.200; -210.000; -186.000
212.436;  -42.700; -280.000;   -6.000
212.581; -146.300; -685.000; -653.000
212.726; -137.300; -487.000; -538.000
212.871;  -86.100; -552.000; -217.000
213.016; -330.300;-1172.000;-1029.000
213.161;  105.300;  406.000;  291.000
213.306; -170.500; -435.000; -577.000
213.451; -183.400; -778.000; -689.000
213.596;  -87.500; -455.000; -347.000
213.741;  -97.200; -448.000; -538.000
213.886; -165.300; -498.000; -517.000
214.031;  -66.800; -294.000; -124.000
214.176;  -97.300; -408.000; -341.000
214.321;  -71.200; -296.000; -157.000
214.466;  -62.500; -163.000;  -43.000
214.611;  -25.400;  -61.000;  -10.000
214.756; -249.500; -948.000; -858.000
214.901;  -37.500; -388.000; -226.000
215.046; -227.000; -797.000; -825.000
215.191;   21.400;  128.000;   35.000
215.336;   -1.200; -157.000;  -19.000
215.480; -130.700; -684.000; -505.000
215.625;  -14.600; -175.000;  -19.000
215.770; -172.200; -757.000; -662.000
215.915;  -16.000;   -5.000;  -97.000
216.060;  -14.000; -113.000;  -21.000
216.205; -226.100; -731.000; -779.000
216.349; -136.600; -470.000; -533.000
216.494; -262.300; -939.000; -867.000
216.639; -254.700; -823.000; -888.000
216.784; -170.500; -577.000; -525.000
216.929;  139.900;  392.000;  281.000
217.073;  -42.200; -244.000;  -31.000
217.218;   -8.100;   78.000;  -47.000
217.363; -186.400; -656.000; -618.000
217.507; -185.500; -623.000; -588.000
217.652; -265.600; -845.000; -874.000
217.797; -176.500; -708.000; -659.000
217.942; -214.600; -856.000; -720.000
218.086;  134.600;  608.000;  539.000
218.231;  -40.900; -174.000;  -26.000
218.376;  -82.900; -337.000; -229.000
218.520;    2.200;  -41.000;   96.000
218.665;  -55.900; -338.000; -204.000
218.810;  -82.500; -275.000; -233.000
218.954;   51.000;  201.000;   35.000
219.099; -247.200; -713.000; -963.000
219.243; -157.200; -589.000; -554.000
219.388;  -21.400; -264.000; -136.000
219.532;  -35.600; -116.000; -116.000
219.677; -159.400; -564.000; -521.000
219.822;   30.400;   33.000;   89.000
219.966;    5.600;   17.000;  -99.000
220.111;  -91.200; -328.000;  -40.000
220.255; -193.000; -797.000; -750.000
220.400;  -33.000; -180.000; -146.000
220.544; -126.600; -516.000; -450.000
220.689;  -94.900; -422.000; -451.000
220.833;  -48.200; -123.000;  -58.000
220.978;  -76.900; -393.000; -563.000
221.122;   36.200;  319.000;  307.000
221.267; -232.600; -906.000; -837.000
221.411; -150.300; -478.000; -394.000
221.555;    7.900; -104.000;  -23.000
221.700;  -80.700; -329.000; -222.000
221.844;   64.600;  255.000;  272.000
221.989;  -75.900; -328.000; -311.000
222.133;  -47.200; -289.000; -307.000
222.277;   24.400;    5.000;   78.000
222.422;   45.700;  227.000;  113.000
222.566;  -57.300; -381.000; -214.000
222.711;  -90.000; -414.000; -479.000
222.855; -172.100; -643.000; -586.000
222.999; -200.200; -642.000; -717.000
223.144;  -67.500; -195.000; -194.000
223.288;  145.200;  423.000;  251.000
223.432;   44.500;  184.000;  230.000
223.576;   27.200;  152.000;  -21.000
223.721;   96.100;  364.000;  273.000
223.865;  -94.500; -472.000; -475.000
224.009;  564.900; 1673.000; 1631.000
224.153; -176.500; -660.000; -671.000
224.298; -139.400; -531.000; -489.000
224.442;  -36.200;  -74.000;  -33.000
224.586;  -38.300; -169.000; -106.000
224.730; -228.100; -858.000; -670.000
224.875; -216.800; -739.000; -688.000
225.019;   17.100;  102.000;  188.000
225.163;  136.700;  208.000;  341.000
225.307;   44.900;   97.000;  -91.000
225.451;  101.100;  360.000;  481.000
225.595;   61.000;  264.000;  176.000
225.739;  -20.600; -170.000;  -94.000
225.884;   24.200;   86.000;    5.000
226.028; -179.900; -760.000; -626.000
226.172;  -49.700; -260.000; -273.000
226.316; -280.200; -941.000; -902.000
226.460; -120.100; -645.000; -493.000
226.604;  -94.400; -406.000; -400.000
226.748; -225.700; -836.000; -733.000
226.892;  -59.200; -227.000; -181.000
227.036;  -82.400; -537.000; -447.000
227.180;  -96.800; -551.000; -375.000
227.324; -137.600; -561.000; -580.000
227.468; -251.000; -819.000; -717.000
227.612;   19.300;  242.000;  -28.000
227.756; -194.100; -845.000; -698.000
227.900;  112.700;  342.000;  441.000
228.044; -118.700; -509.000; -290.000
228.188;  130.200;  448.000;  568.000
228.332; -162.100; -546.000; -472.000
228.476;  -27.700; -223.000; -149.000
228.620;  -46.500; -210.000; -150.000
228.764;  143.300;  431.000;  349.000
228.908;  -16.400; -155.000;   30.000
229.052; -125.100; -615.000; -528.000
229.195;  -19.400; -172.000;   13.000
229.339;  -35.100; -235.000; -305.000
229.483;  -49.500;    5.000; -162.000
229.627;    2.000; -156.000;  139.000
229.771;  -81.200; -218.000; -294.000
229.915;   32.300;  230.000;   79.000
230.059; -216.600; -648.000; -663.000
230.202;  -88.000; -370.000; -317.000
230.346;  -16.000; -107.000;  107.000
230.490; -132.200; -489.000; -521.000
230.634; -204.100; -736.000; -553.000
230.777;  176.300;  478.000;  509.000
230.921; -110.600; -450.000; -359.000
231.065;  -82.500; -246.000; -286.000
231.209;   64.700;  261.000;  265.000
231.352;   27.300;   54.000;   40.000
231.496;   66.700;  568.000;  188.000
231.640; -159.600; -693.000; -621.000
231.783;  166.800;  546.000;  525.000
231.927;  -93.800; -294.000; -365.000
232.071; -251.000; -962.000; -736.000
232.214; -215.400; -980.000; -764.000
232.358; -201.600; -683.000; -599.000
232.502;    9.500;  -19.000;    7.000
232.645; -276.100;-1090.000; -927.000
232.789;  -31.800; -257.000; -218.000
232.933;  -79.400; -407.000; -224.000
233.076; -262.200;-1038.000; -897.000
233.220; -228.500; -752.000; -777.000
233.363; -172.600; -669.000; -477.000
233.507;  109.000;  371.000;  129.000
233.650; -194.200; -764.000; -834.000
233.794;  105.200;  438.000;  461.000
233.938; -141.900; -530.000; -362.000
234.081;  -28.500;  -93.000;   31.000
234.225; -137.200; -631.000; -539.000
234.368; -215.100; -773.000; -723.000
234.512;  -89.900; -385.000; -299.000
234.655; -180.900; -582.000; -555.000
234.798; -128.900; -493.000; -466.000
234.942; -260.200; -884.000;-1002.000
235.085; -146.700; -651.000; -443.000
235.229; -142.100; -405.000; -410.000
235.372;  -93.000; -247.000; -191.000
235.516; -115.500; -397.000; -321.000
235.659;   44.500;   92.000;  121.000
235.802;  -25.200;  -38.000;  -22.000
235.946;   50.200;  335.000;  215.000
236.089;   79.200;  126.000;  250.000
236.233;   87.500;  275.000;  298.000
236.376;  -84.800; -235.000; -378.000
236.519;  -91.400; -297.000; -319.000
236.663;  -39.700; -215.000; -117.000
236.806; -262.900;-1029.000; -999.000
236.949;  158.300;  543.000;  431.000
237.092;  137.100;  412.000;  391.000
237.236; -173.600; -589.000; -502.000
237.379;  109.200;  352.000;  428.000
237.522; -257.300; -879.000; -768.000
237.666;    3.200; -271.000;   18.000
237.809; -236.600; -851.000; -823.000
237.952;   54.000;  469.000;  271.000
238.095; -127.800; -447.000; -442.000
238.238;  199.600;  688.000;  700.000
238.382;   35.100;  166.000;  103.000
238.525; -150.200; -598.000; -511.000
238.668; -267.500;-1060.000; -985.000
238.811; -174.600; -638.000; -643.000
238.954;  -98.500; -483.000; -334.000
239.097;  224.100;  617.000;  664.000
239.241;   85.400;  394.000;  326.000
239.384;  -59.900; -254.000; -214.000
239.527; -106.700; -424.000; -224.000
239.670; -291.400; -994.000;-1091.000
239.813; -233.700; -696.000; -658.000
239.956;  202.900;  579.000;  473.000
240.099; -205.200; -778.000; -725.000
240.242;  139.200;  428.000;  432.000
240.385;  111.200;  466.000;  450.000
240.528; -106.500; -706.000; -473.000
240.671;   38.100;  189.000;  134.000
240.814;  -89.600; -441.000; -158.000
240.957; -208.700; -767.000; -578.000
241.100; -215.300; -779.000; -755.000
241.243; -286.700;-1234.000; -893.000
241.386; -141.800; -508.000; -379.000
241.529; -161.800; -735.000; -547.000
241.672; -103.200; -566.000; -495.000
241.815; -241.800; -832.000; -808.000
241.958;  -40.900; -125.000; -182.000
242.101; -133.000; -545.000; -390.000
242.244; -101.600; -270.000; -325.000
242.387;  -77.900; -304.000; -246.000
242.530;  142.800;  470.000;  134.000
242.673;  -80.300; -381.000; -309.000
242.815; -259.600; -925.000; -899.000
242.958; -145.300; -482.000; -381.000
243.101;   -2.800;  132.000;  187.000
243.244; -139.700; -564.000; -521.000
243.387;  -91.700; -313.000; -316.000
243.530; -184.600; -657.000; -674.000
243.672;   30.700;   43.000;  -92.000
243.815; -111.800; -355.000; -283.000
243.958;   -0.800;   98.000;  -26.000
244.101;   24.300;   59.000;  -16.000
244.243;  -42.000;  -47.000;  101.000
244.386; -236.600; -761.000; -630.000
244.529;  -60.700; -132.000; -139.000
244.672; -288.600;-1154.000; -951.000
244.814; -209.500; -621.000; -794.000
244.957;  -99.300; -380.000; -304.000
245.100; -134.100; -489.000; -489.000
245.242; -127.700; -387.000; -374.000
245.385;   13.000;  -59.000;  -39.000
245.528; -245.900; -871.000; -705.000
245.670;  222.200;  612.000;  634.000
245.813; -175.600; -599.000; -547.000
245.956;  -93.100; -324.000; -275.000
246.098; -133.000; -508.000; -650.000
246.241;   37.500;  194.000;   48.000
246.383;   -3.800; -119.000;  -73.000
246.526; -159.000; -454.000; -525.000
246.669; -219.700; -889.000; -780.000
246.811;   46.400;  172.000;   -1.000
246.954; -125.000; -512.000; -426.000
247.096;  -43.600;  -84.000;   -6.000
247.239; -116.100; -482.000; -445.000
247.381; -124.800; -647.000; -488.000
247.524;  173.300;  645.000;  679.000
247.666;  -38.600;   58.000;   11.000
247.809; -233.900; -887.000; -691.000
247.951;   -6.100;  -75.000;  138.000
248.094;   96.300;  432.000;  308.000
248.236; -309.700;-1262.000;-1238.000
248.378;    9.500; -356.000;  -81.000
248.521;  -59.100; -334.000; -337.000
248.663;  -42.100; -236.000; -267.000
248.806;  -65.100; -300.000; -266.000
248.948; -184.500; -886.000; -763.000
249.090; -100.000; -428.000; -398.000
249.233; -115.300; -344.000; -381.000
249.375; -163.100; -474.000; -451.000
249.518;  -52.400;  -83.000; -133.000
249.660;  -18.600; -103.000;    3.000
249.802; -357.500;-1303.000;-1189.000
249.945; -147.800; -612.000; -540.000
250.087; -245.900; -834.000; -768.000
250.229;  -92.700; -362.000; -480.000
250.371; -132.200; -494.000; -439.000
250.514; -104.200; -310.000; -244.000
250.656;    7.800;   69.000;  102.000
250.798; -244.300; -849.000; -800.000
250.940; -136.600; -322.000; -322.000
251.083;  -44.000; -335.000; -111.000
251.225;  141.800;  338.000;  310.000
251.367;  -94.400; -274.000; -373.000
251.509;  -56.900; -265.000; -210.000
251.651; -215.400; -731.000; -671.000
251.794;  137.700;  538.000;  632.000
251.936; -226.400; -821.000; -747.000
252.078; -168.700; -540.000; -461.000
252.220; -161.100; -645.000; -477.000
252.362;  145.700;  344.000;  462.000
252.504; -154.800; -677.000; -584.000
252.646; -220.500; -875.000; -722.000
252.788;  -21.900;   14.000; -128.000
252.931;  -77.700; -257.000; -253.000
253.073;  -64.600; -376.000; -317.000
253.215;   -4.400;  141.000;  122.000
253.357;  -57.600;   82.000; -153.000
253.499; -101.700; -374.000; -234.000
253.641; -160.100; -749.000; -594.000
253.783; -207.800; -609.000; -527.000
253.925; -173.900; -586.000; -591.000
254.067; -199.900; -744.000; -667.000
254.209;  -65.400; -391.000; -259.000
254.351; -285.400; -865.000; -883.000
254.493; -131.800; -441.000; -417.000
254.635; -229.800; -936.000; -818.000
254.777; -208.600; -752.000; -687.000
254.918; -126.400; -512.000; -430.000
255.060;  -86.500; -551.000; -395.000
255.202; -102.400; -473.000; -261.000
255.344; -144.000; -658.000; -455.000
255.486; -158.800; -471.000; -406.000
255.628; -200.100; -780.000; -781.000
255.770; -164.700; -676.000; -536.000
255.912; -125.800; -559.000; -468.000
256.053; -168.200; -730.000; -508.000
256.195;  299.300; 1008.000;  903.000
256.337; -187.600; -861.000; -595.000
256.479;  140.500;  532.000;  416.000
256.621;  -61.400; -394.000; -212.000
256.762; -182.100; -789.000; -742.000
256.904;  137.700;  485.000;  487.000
257.046;  -70.400; -381.000; -271.000
257.188;  -81.300; -351.000; -264.000
257.329; -149.200; -525.000; -464.000
257.471; -227.400; -939.000; -807.000
257.613; -128.900; -584.000; -498.000
257.755; -311.300;-1073.000; -982.000
257.896;   54.400;  286.000;  392.000
258.038; -130.100; -403.000; -352.000
258.180;  -86.500; -354.000; -279.000
258.321; -157.100; -581.000; -457.000
258.463;   -8.800;  -71.000;  133.000
258.605; -171.800; -562.000; -570.000
258.746; -186.300; -886.000; -772.000
258.888; -289.200;-1026.000;-1020.000
259.029;   32.400;  121.000;   -8.000
259.171; -180.000; -614.000; -550.000
259.313;    1.000;  -49.000;  -47.000
259.454; -160.900; -536.000; -414.000
259.596; -112.700; -483.000; -390.000
259.737; -132.000; -590.000; -474.000
259.879;  103.500;  217.000;  311.000
260.020;  227.900;  901.000;  636.000
260.162;  -60.600; -146.000; -253.000
260.303; -223.500; -768.000; -687.000
260.445; -156.900; -609.000; -613.000
260.586;   65.900;  392.000;  157.000
260.728;  -96.200; -360.000; -248.000
260.869; -166.200; -350.000; -343.000
261.011;  187.800;  706.000;  537.000
261.152;  -96.100; -479.000; -319.000
261.293; -166.000; -576.000; -595.000
261.435;  -60.800; -219.000; -184.000
261.576;  -85.500; -455.000; -325.000
261.718;  127.600;  420.000;  470.000
261.859; -249.800; -940.000; -949.000
262.000; -244.500; -951.000;-1016.000
262.142;  -59.200;  -52.000;  -60.000
262.283; -204.200; -808.000; -691.000
262.424; -180.400; -666.000; -625.000
262.566; -330.800;-1161.000; -983.000
262.707; -239.100; -840.000; -830.000
262.848; -212.500; -769.000; -726.000
262.990;  -94.000; -362.000; -345.000
263.131;  188.500;  650.000;  681.000
263.272;   -1.400;  -61.000;  -41.000
263.413; -159.100; -589.000; -561.000
263.555; -140.400; -669.000; -143.000
263.696; -150.600; -550.000; -641.000
263.837; -123.100; -449.000; -551.000
263.978;   13.400;   -5.000;  -77.000
264.119;  -85.700; -283.000; -264.000
264.261; -216.000; -847.000; -630.000
264.402;   34.000;   33.000;   40.000
264.543; -114.900; -509.000; -524.000
264.684;  -25.000;   61.000;  -50.000
264.825; -140.900; -816.000; -538.000
264.966;   16.400;  -84.000;  -67.000
265.107; -223.700; -646.000; -670.000
265.248; -249.000; -825.000; -812.000
265.390;   -9.100;  152.000;   -9.000
265.531;  -46.100; -238.000; -107.000
265.672; -143.100; -557.000; -630.000
265.813;  145.700;  563.000;  439.000
265.954; -310.800; -959.000; -940.000
266.095;    2.600; -372.000; -322.000
266.236; -202.700; -686.000; -548.000
266.377;  -92.500; -243.000; -297.000
266.518; -127.200; -619.000; -547.000
266.659;   50.500;  170.000;  268.000
266.800;   33.900;   83.000;   85.000
266.941; -139.600; -487.000; -478.000
267.082;   49.300;  354.000;   99.000
267.223;  -82.700; -344.000; -273.000
267.364; -233.600; -892.000; -686.000
267.504;   -7.200;    3.000;  135.000
267.645;   25.300;  160.000;   67.000
267.786;  -67.600; -147.000;  -86.000
267.927; -129.800; -473.000; -379.000
268.068;   -9.100; -186.000;  -61.000
268.209; -105.000; -175.000; -413.000
268.350;  -96.700; -388.000; -532.000
268.490; -183.200; -648.000; -521.000
268.631;   67.200;  127.000;  225.000
268.772; -209.000; -874.000; -647.000
268.913;  -95.800; -328.000; -476.000
269.054;  -31.400; -117.000;   12.000
269.194; -107.100; -418.000; -402.000
269.335; -324.700;-1137.000;-1074.000
269.476;  -31.700;   33.000;  -35.000
269.617;  -88.300; -347.000; -392.000
269.757; -162.600; -713.000; -646.000
269.898; -199.100; -856.000; -613.000
270.039; -103.200; -415.000; -405.000
270.180; -264.100; -952.000; -816.000
270.320;  -48.000; -190.000; -250.000
270.461;  -56.500; -277.000; -249.000
270.602;  -57.100; -186.000; -156.000
270.742; -227.500; -868.000; -943.000
270.883;  -92.600; -442.000; -390.000
271.023; -125.700; -358.000; -357.000
271.164; -168.400; -607.000; -528.000
271.305; -190.700; -666.000; -654.000
271.445; -177.300; -722.000; -683.000
271.586; -131.000; -462.000; -283.000
271.726;  -93.200; -397.000; -322.000
271.867; -148.200; -594.000; -534.000
272.008;  222.800; -473.000; -285.000
272.148;  225.900;  462.000;  468.000
272.289;  -10.500; -113.000; -181.000
272.429;    5.200;   19.000;  185.000
272.570; -195.700; -633.000; -737.000
272.710; -214.100; -825.000; -775.000
272.851;  -51.500;  113.000; -130.000
272.991; -319.300;-1173.000;-1077.000
273.131; -160.300; -419.000; -459.000
273.272; -186.000; -683.000; -723.000
273.412;   -7.500; -143.000;  -31.000
273.553; -136.600; -488.000; -507.000
273.693;  251.000;  913.000;  858.000
273.834; -195.000; -894.000; -692.000
273.974; -128.100; -664.000; -615.000
274.114; -185.900; -772.000; -560.000
274.255;  126.100;  414.000;  373.000
274.395;   16.400; -180.000; -125.000
274.535;   87.000;  199.000;  350.000
274.676;   38.900;  225.000;   94.000
274.816;   -7.700;  110.000;   34.000
274.956; -164.200; -624.000; -690.000
275.097; -197.600;-1014.000; -922.000
275.237; -224.200; -913.000; -803.000
275.377; -195.500; -778.000; -689.000
275.517; -289.500; -878.000; -937.000
275.658; -124.400; -590.000; -555.000
275.798; -153.700; -606.000; -413.000
275.938;   73.100;  215.000;  323.000
276.078; -184.500; -626.000; -395.000
276.218;  -16.400;   99.000;  104.000
276.359; -243.800;-1026.000;-1024.000
276.499; -130.800; -605.000; -446.000
276.639;  -69.600; -305.000; -151.000
276.779;  -97.800; -475.000; -357.000
276.919; -201.600; -783.000; -624.000
277.059;  -23.700; -261.000; -212.000
277.199;  -68.200; -357.000; -259.000
277.340;  118.300;  287.000;  175.000
277.480; -196.200; -840.000; -693.000
277.620;   85.700;  192.000;   16.000
277.760; -381.500;-1533.000;-1294.000
277.900;   43.300;  113.000;   33.000
278.040;   39.500;  137.000;  159.000
278.180;   84.700;  270.000;  170.000
278.320;   -4.800;   21.000;   56.000
278.460; -116.700; -443.000; -469.000
278.600; -154.800; -708.000; -598.000
278.740;  136.000;  448.000;  224.000
278.880; -144.700; -768.000; -791.000
279.020;   22.600; -194.000; -144.000
279.160; -186.400; -672.000; -595.000
279.300; -230.300; -926.000; -873.000
279.440; -177.200; -709.000; -622.000
279.579; -136.100;-1014.000; -929.000
279.719; -103.300; -410.000; -394.000
279.859;  117.200;   -4.000;   41.000
279.999;   16.700; -208.000;  101.000
280.139;  -56.100; -435.000; -387.000
280.279; -174.100; -708.000; -745.000
280.419;    5.700; -229.000; -147.000
280.559;  -60.800; -259.000; -180.000
280.698; -156.900; -790.000; -639.000
280.838; -165.700; -778.000; -800.000
280.978; -201.900; -846.000; -790.000
281.118; -244.300; -811.000; -704.000
281.257;   53.000;   24.000;    6.000
281.397; -252.600;-1094.000; -960.000
281.537; -172.400; -599.000; -712.000
281.677;  -44.800; -150.000; -101.000
281.816; -180.400; -700.000; -630.000
281.956;  -44.500; -193.000; -257.000
282.096; -115.400; -539.000; -396.000
282.235; -196.100; -672.000; -638.000
282.375;  -45.200; -243.000;  -98.000
282.515; -211.500; -715.000; -707.000
282.654;   77.100;   29.000;  106.000
282.794;   61.100;  388.000;  244.000
282.934; -106.200; -530.000; -491.000
283.073; -229.700;-1030.000; -857.000
283.213; -100.800; -460.000; -467.000
283.353;  -66.400; -408.000; -349.000
283.492;  -51.600; -264.000; -296.000
283.632;  -82.600; -254.000; -168.000
283.771; -211.200; -859.000; -730.000
283.911; -109.500; -369.000; -260.000
284.050; -194.700; -794.000; -748.000
284.190; -289.100;-1229.000;-1096.000
284.329; -260.100;-1055.000; -964.000
284.469; -135.800; -516.000; -591.000
284.608;  -96.700; -559.000; -598.000
284.748; -172.300; -614.000; -570.000
284.887;   -1.000;  -87.000;  -20.000
285.027; -229.400; -844.000; -892.000
285.166;  -28.800; -192.000; -249.000
285.306;   13.400; -116.000;  -33.000
285.445;  -62.900; -229.000; -343.000
285.584; -178.200; -630.000; -494.000
285.724;  -95.600; -282.000; -322.000
285.863; -223.400; -857.000; -507.000
286.002; -106.100; -366.000; -276.000
286.142; -221.900; -715.000; -622.000
286.281; -160.100; -525.000; -493.000
286.420; -140.900; -554.000; -417.000
286.560;  208.900;  653.000;  623.000
286.699; -266.300; -958.000; -912.000
286.838; -178.800; -590.000; -591.000
286.978; -183.000; -533.000; -537.000
287.117; -263.700;-1085.000; -950.000
287.256;  -69.400; -228.000; -211.000
287.395;  -80.400; -197.000; -378.000
287.535;  -96.200; -370.000; -298.000
287.674; -159.200; -509.000; -484.000
287.813;  161.100;  661.000;  533.000
287.952; -266.400;-1010.000; -871.000
288.091; -310.400;-1049.000; -915.000
288.231;   79.300;   13.000;   15.000
288.370; -333.700;-1217.000;-1200.000
288.509; -177.900; -728.000; -645.000
288.648; -172.500; -770.000; -548.000
288.787;  -80.400; -243.000;  -87.000
288.926; -130.600; -454.000; -475.000
289.065;  291.500;  859.000;  672.000
289.204; -106.400; -377.000; -217.000
289.344; -190.100; -791.000; -690.000
289.483;   75.500;  416.000;  304.000
289.622;  -32.800; -291.000; -149.000
289.761;   -8.100; -309.000; -166.000
289.900; -228.100; -785.000; -626.000
290.039;   -8.000;  -12.000;  -95.000
290.178;  -81.000; -274.000; -180.000
290.317; -169.100; -618.000; -479.000
290.456; -110.000; -463.000; -451.000
290.595; -252.800; -961.000; -833.000
290.734; -272.000; -904.000; -891.000
290.873; -123.800; -456.000; -420.000
291.011; -194.200; -833.000; -843.000
291.150; -195.300; -770.000; -682.000
291.289;  -32.000; -343.000; -110.000
291.428; -159.200; -599.000; -480.000
291.567;  -89.300; -370.000; -442.000
291.706;   -7.300;  109.000;  154.000
291.845; -176.500; -597.000; -505.000
291.984; -295.600;-1234.000;-1061.000
292.122;  139.600;  602.000;  582.000
292.261;  137.700;  620.000;  463.000
292.400;   18.500; -144.000;  211.000
292.539; -260.700; -959.000; -813.000
292.678;  -53.000; -325.000; -300.000
292.816; -281.300;-1136.000; -965.000
292.955; -181.800; -844.000; -684.000
293.094;  -58.100; -173.000; -337.000
293.233; -103.500; -556.000; -400.000
293.371;  -63.500; -225.000;  -84.000
293.510; -206.600; -866.000; -780.000
293.649; -238.700; -959.000; -924.000
293.787; -173.500;-1083.000;-1012.000
293.926;  -37.100; -113.000;  -32.000
294.065;  -82.800; -379.000; -290.000
294.203;  107.000;  298.000;  406.000
294.342;   16.200;   74.000;  156.000
294.481;12332.500;51180.000; -836.000
294.619;  -50.600; -425.000; -582.000
294.758; -300.200;-1230.000;-1137.000
294.896;   79.300; -125.000;    5.000
295.035; -285.800;-1040.000;-1006.000
295.174; -238.700;-1082.000; -954.000
295.312;  -71.700; -323.000; -203.000
295.451;  -26.500; -307.000; -428.000
295.589; -103.800; -389.000; -518.000
295.728;   31.900; -292.000; -165.000
295.866;   11.300;  -36.000;  -51.000
296.005; -128.300; -584.000; -341.000
296.143; -148.200; -558.000; -596.000
296.282; -215.000; -957.000; -881.000
296.420; -142.400; -657.000; -557.000
296.559; -149.300; -892.000; -633.000
296.697;  -38.500; -847.000; -665.000
296.835;  -54.000;-1141.000;-1002.000
296.974;   90.400;  -23.000;   39.000
297.112;   -2.500; -443.000; -504.000
297.251; -169.400; -815.000; -755.000
297.389;   47.900; -576.000; -438.000
297.527;   29.600; -145.000;  -83.000
297.666; -103.400; -486.000; -438.000
297.804;  -95.900; -404.000; -264.000
297.942;    4.800; -136.000; -161.000
298.081;  -29.700; -183.000;   63.000
298.219;   63.900;  -17.000;  -19.000
298.357;   28.500; -144.000;  -71.000
298.495;  -81.300; -810.000; -812.000
298.634;   83.400;  245.000;  219.000
298.772;   15.600; -220.000; -338.000
298.910; -112.100; -309.000; -182.000
299.048;  -31.900; -130.000; -153.000
299.187;  -47.600; -350.000; -250.000
299.325;   42.100;   52.000;  122.000
299.463;   11.200; -389.000; -299.000
299.601;   93.700; -327.000; -271.000
299.739; -233.800; -908.000; -883.000
299.877; -148.800; -791.000; -703.000
300.016; -161.400;-1095.000; -935.000
300.154;  188.800;  -19.000; -161.000
300.292;  -13.500; -428.000; -348.000
300.430;   23.500; -408.000; -291.000
300.568; -233.800; -940.000; -874.000
300.706; -119.200; -366.000; -469.000
300.844; -192.500;-1108.000; -979.000
300.982;  210.400;  246.000;  282.000
301.120; -220.000; -965.000; -866.000
301.258; -157.400; -812.000; -705.000
301.396;   74.000;  104.000;  -41.000
301.534;   82.200; -218.000; -293.000
301.672;  -37.800; -664.000; -521.000
301.810;  -51.900; -613.000; -545.000
301.948;  202.700;   53.000;  149.000
302.086;  681.900; -250.000;  -32.000
302.224; 1133.100; -610.000; -585.000
302.362;    2.800; -558.000; -622.000
302.500; -105.200; -923.000; -893.000
302.638;  177.900;  128.000;  245.000
302.776;  -34.800; -352.000; -408.000
302.913;   96.200;  447.000;  236.000
303.051;   29.200;  -86.000;  -23.000
303.189;  108.400;   90.000;  118.000
303.327;  -43.600; -341.000; -256.000
303.465; -158.100; -832.000; -588.000
303.603; -173.100; -805.000; -604.000
303.740;  180.300;  417.000;  241.000
303.878;  -45.300; -800.000; -759.000
304.016; -183.200; -915.000; -790.000
304.154; -282.700;-1123.000;-1152.000
304.291; -102.300; -505.000; -554.000
304.429;   28.300;  102.000;   74.000
304.567; -262.000; -908.000; -893.000
304.705;  -83.500; -408.000; -515.000
304.842;   62.900; -616.000; -540.000
304.980;  114.200;  215.000;   35.000
305.118;   23.300; -367.000; -365.000
305.255; -169.700; -945.000; -927.000
305.393;  107.700;  178.000;  239.000
305.531; -242.600;-1173.000; -956.000
305.668; -158.000; -663.000; -582.000
305.806;   94.100; -358.000; -439.000
305.943;   42.800; -629.000; -637.000
306.081;   64.600; -378.000; -267.000
306.219; -200.000; -863.000; -748.000
306.356;   42.900;  158.000;   27.000
306.494;  262.500;  981.000;  761.000
306.631;   -0.800;  -11.000;  -55.000
306.769;   -1.900; -613.000; -485.000
306.906;  -30.500; -284.000; -258.000
307.044;  -93.300; -473.000; -488.000
307.181; -110.100; -410.000; -332.000
307.319;   32.800;  112.000;   87.000
307.456; -335.600;-1191.000;-1153.000
307.594; -207.300; -980.000; -727.000
307.731;    5.300; -371.000; -164.000
307.868;   15.000;  -15.000;   20.000
308.006; -222.900; -961.000; -847.000
308.143;  -95.400; -618.000; -330.000
308.281;  297.700;  -37.000; -254.000
308.418;  -26.900; -748.000; -640.000
308.555; -127.800; -400.000; -250.000
308.693; -120.100; -577.000; -573.000
308.830; -185.500; -712.000; -657.000
308.967;  -23.800; -215.000;  -95.000
309.105;  -54.900; -507.000; -396.000
309.242;   34.100; -468.000; -367.000
309.379;  530.600; -577.000; -655.000
309.517; -110.300; -936.000; -948.000
309.654; -181.900; -910.000; -734.000
309.791; -121.200; -662.000; -580.000
309.928; -236.900; -977.000; -914.000
310.065;  280.300;  819.000;  697.000
310.203;  -85.700; -825.000; -850.000
310.340;  -22.100; -465.000; -321.000
310.477; -137.600; -412.000; -516.000
310.614; -103.600; -383.000; -473.000
310.751; -121.000; -427.000; -518.000
310.889;  -16.600;    1.000;   11.000
311.026; -323.500;-1161.000; -939.000
311.163;  -99.500; -386.000; -380.000
311.300; -133.000; -512.000; -479.000
311.437; -146.200; -658.000; -619.000
311.574; -293.700;-1226.000; -985.000
311.711; -121.600; -595.000; -433.000
311.848;  -63.500; -380.000; -388.000
311.985;   32.800;  270.000;   93.000
312.122; -207.900; -932.000; -762.000
312.259; -209.400; -941.000; -994.000
312.396;  -89.900; -508.000; -551.000
312.533; -162.800; -812.000; -790.000
312.670; -273.300;-1070.000; -898.000
312.807;  -71.400; -352.000; -367.000
312.944; -147.300; -513.000; -611.000
313.081;  -74.200; -150.000; -415.000
313.218; -227.000;-1111.000; -867.000
313.355;   -8.800; -531.000; -449.000
313.492;  -19.000; -455.000; -292.000
313.629;  253.700;  815.000;  735.000
313.766; -317.600;-1176.000;-1008.000
313.902;  -26.800; -186.000;   21.000
314.039;  -75.200; -372.000; -289.000
314.176;   78.300;  286.000;  192.000
314.313; -125.500; -569.000; -473.000
314.450; -152.700; -788.000; -684.000
314.587;  -96.700; -468.000; -480.000
314.723;   16.600;  -78.000;  130.000
314.860;   71.000;  318.000;  332.000
314.997;   58.300;  223.000;  142.000
315.134;  -79.400; -385.000; -368.000
315.270;  -86.100; -480.000; -496.000
315.407; -240.200;-1094.000; -967.000
315.544; -120.100; -657.000; -538.000
315.681; -146.800; -681.000; -565.000
315.817;   52.500; -133.000; -176.000
315.954;  -50.800; -613.000; -392.000
316.091; -277.700;-1045.000;-1023.000
316.227;  -16.900;  -71.000; -179.000
316.364;   24.700;   23.000;    6.000
316.500;  -89.100; -113.000; -300.000
316.637;  -90.100; -181.000; -302.000
316.774; -129.100; -625.000; -358.000
316.910; -187.200; -598.000; -629.000
317.047; -124.200; -487.000; -351.000
317.183;  -82.100; -435.000; -566.000
317.320;  -44.600; -367.000; -321.000
317.456; -157.100; -733.000; -805.000
317.593; -185.100; -598.000; -641.000
317.729;   21.300;  168.000;  -67.000
317.866; -376.800;-1434.000;-1285.000
318.002; -171.200; -708.000; -948.000
318.139; -198.700; -883.000; -867.000
318.275; -213.300;-1003.000; -738.000
318.412; -117.200; -517.000; -336.000
318.548;  -92.300; -751.000; -720.000
318.685; -179.800; -985.000; -888.000
318.821; -192.300; -762.000; -735.000
318.957;    3.400;   34.000;  -23.000
319.094;   82.100;  297.000;  154.000
319.230; -132.100; -756.000; -742.000
319.367;  154.500; -471.000; -520.000
319.503;   95.500; -538.000; -436.000
319.639; -187.800; -877.000; -793.000
319.775; -124.300; -750.000; -685.000
319.912; -106.700; -424.000; -519.000
320.048; -195.800;-1184.000;-1184.000
320.184;  123.000;   59.000;   70.000
320.321; -127.300; -497.000; -467.000
320.457;  138.300;  475.000;  662.000
320.593; -100.900; -375.000; -382.000
320.729; -229.300; -732.000; -734.000
320.866; -159.000; -577.000; -635.000
321.002; -173.500; -759.000; -809.000
321.138;  -13.700; -135.000; -211.000
321.274;  103.100; -148.000; -115.000
321.410;  -83.900; -585.000; -353.000
321.546; -117.200;-1011.000; -911.000
321.683;  125.800;  400.000;  185.000
321.819;   11.700;  -48.000; -117.000
321.955; -208.000; -743.000; -722.000
322.091; -100.500; -585.000; -540.000
322.227;  -45.300; -382.000; -202.000
322.363;  -21.900; -320.000; -215.000
322.499;  -88.700; -343.000; -331.000
322.635;  249.900;  636.000;  443.000
322.771;  -11.900; -139.000;   12.000
322.907;  164.200;  129.000;  327.000
323.043;  -25.100; -115.000; -206.000
323.179;  -84.500; -394.000; -363.000
323.315;  -13.900; -401.000; -371.000
323.451;   92.500; -328.000; -236.000
323.587;   58.200;  -60.000;  -77.000
323.723;   -7.600; -682.000; -601.000
323.859;  -53.000; -258.000;  -76.000
323.995;  -54.600; -467.000; -409.000
324.131; -214.500; -967.000; -892.000
324.267;  -58.900; -254.000; -276.000
324.402; -230.900; -960.000; -983.000
324.538;  -30.700; -279.000; -104.000
324.674;   24.400;  164.000;   77.000
324.810;  238.000;  226.000;  308.000
324.946;   -2.700; -810.000; -658.000
325.082; -147.500; -568.000; -475.000
325.217;  -23.900;  -62.000;   16.000
325.353; -182.900; -764.000; -659.000
325.489; -184.100; -540.000; -506.000
325.625; -132.200; -579.000; -525.000
325.760;  152.500;  517.000;  376.000
325.896;  -98.500; -515.000; -702.000
326.032; -109.900; -403.000; -352.000
326.168; -105.200; -462.000; -369.000
326.303; -103.000; -352.000; -461.000
326.439;  -41.000; -336.000; -276.000
326.575;   36.400; -190.000;  -29.000
326.710;    1.300; -156.000;  -30.000
326.846;   14.400;  146.000;  103.000
326.982; -172.600; -530.000; -548.000
327.117; -148.200; -481.000; -442.000
327.253; -165.300; -745.000; -742.000
327.388; -269.800;-1137.000;-1153.000
327.524; -114.800; -811.000; -578.000
327.659;  -29.400;  -58.000;  -22.000
327.795;  -17.500;   69.000;   45.000
327.931; -165.100; -723.000; -499.000
328.066;  -41.500; -417.000; -276.000
328.202;   -5.200;   12.000; -129.000
328.337;  241.000;  957.000;  713.000
328.473;   -8.300;  -12.000;  -74.000
328.608;  -39.700; -256.000; -267.000
328.743; -174.900; -799.000; -664.000
328.879;   61.600;  214.000;  114.000
329.014; -114.400; -102.000; -122.000
329.150; -183.700; -358.000; -483.000
329.285; -152.000; -465.000; -466.000
329.421;  -91.300; -548.000; -246.000
329.556;    5.900;  -36.000;   85.000
329.691; -187.500; -633.000; -615.000
329.827; -145.300; -626.000; -480.000
329.962;  -62.800;  131.000; -301.000
330.097; -174.000; -673.000; -585.000
330.233;  -95.900; -410.000; -223.000
330.368; -245.300; -839.000; -628.000
330.503;  -26.800;    3.000;   98.000
330.638;   13.000;  -93.000; -125.000
330.774; -129.500; -609.000; -530.000
330.909;  -82.000; -434.000; -244.000
331.044; -180.500; -714.000; -708.000
331.179; -333.800;-1217.000;-1109.000
331.315;   18.900;   77.000;   20.000
331.450;   47.300;  157.000;  285.000
331.585; -179.500; -805.000; -706.000
331.720; -146.400; -510.000; -460.000
331.855;  -12.500;  -35.000; -102.000
331.990;  250.400;   62.000;  138.000
332.126;  147.200; -110.000;   71.000
332.261;  -59.700; -379.000; -265.000
332.396;  -35.900; -135.000; -242.000
332.531; -249.100;-1074.000;-1031.000
332.666;   -2.700; -519.000; -363.000
332.801; -226.500; -726.000; -807.000
332.936;  -39.700; -192.000; -122.000
333.071; -276.000; -870.000; -817.000
333.206;   70.400;  307.000;  379.000
333.341;  105.800;  344.000;  418.000
333.476; -147.400; -627.000; -623.000
333.611;  -55.800; -251.000; -173.000
333.746;  -71.000; -381.000; -464.000
333.881; -217.700; -973.000; -935.000
334.016; -235.500; -936.000; -917.000
334.151; -246.200; -746.000; -702.000
334.286;   60.700;  152.000;  186.000
334.421;  -69.900; -125.000; -178.000
334.556; -194.900; -611.000; -567.000
334.690; -178.400; -631.000; -577.000
334.825;  135.800;  381.000;   83.000
334.960; -121.600; -285.000; -413.000
335.095;   34.600;  135.000;  -91.000
335.230; -214.700; -722.000; -738.000
335.365; -263.900;-1084.000; -990.000
335.499; -299.000;-1108.000;-1037.000
335.634;   68.000;    9.000;  534.000
335.769; -221.900; -755.000; -720.000
335.904; -138.600; -603.000; -561.000
336.038; -123.200; -735.000; -657.000
336.173; -280.500;-1206.000;-1194.000
336.308;  -30.200; -116.000; -189.000
336.443;   -2.800; -544.000; -634.000
336.577; -192.700; -936.000; -787.000
336.712;   54.000;   -4.000;  -12.000
336.847; -134.400; -724.000; -607.000
336.981;   46.700; -272.000; -208.000
337.116;  339.700;  615.000;  501.000
337.250;  129.200; -434.000; -421.000
337.385;  251.100; -297.000; -208.000
337.520;   31.700; -632.000; -603.000
337.654;  -81.000; -215.000; -126.000
337.789; -262.900; -989.000; -933.000
337.923;  -62.400; -104.000; -205.000
338.058; -164.200; -673.000; -738.000
338.192;  -95.200; -611.000; -488.000
338.327;   17.300;  -18.000; -155.000
338.461; -110.900; -299.000; -469.000
338.596; -177.300; -780.000; -638.000
338.730; -181.300; -767.000; -803.000
338.865;   92.400;  -46.000; -140.000
338.999; -188.100; -846.000; -702.000
339.134; -106.600; -634.000; -536.000
339.268;  -35.300; -741.000; -603.000
339.403;  252.200; -740.000; -775.000
339.537;   -4.100; -894.000; -820.000
339.671; -217.200; -829.000; -813.000
339.806; -115.900; -556.000; -512.000
339.940;   15.200; -261.000; -235.000
340.074; -191.200; -685.000; -510.000
340.209;  -83.600; -351.000; -230.000
340.343; -159.100; -517.000; -573.000
340.477;  303.400;  998.000; 1036.000
340.612; -181.100;-1033.000; -900.000
340.746;  154.600; -199.000; -243.000
340.880; -164.200; -924.000; -785.000
341.014;   -2.400;  -45.000; -154.000
341.149; -213.200; -756.000; -718.000
341.283; -222.900; -839.000; -754.000
341.417; -210.400;-1124.000; -938.000
341.551;   75.100; -768.000; -708.000
341.685;  -99.900; -633.000; -611.000
341.820; -115.900; -562.000; -493.000
341.954;  -99.700; -218.000; -349.000
342.088; -263.900;-1102.000;-1019.000
342.222;  102.800;  565.000;  618.000
342.356; -134.100; -395.000; -335.000
342.490; -199.200; -880.000; -841.000
342.624;  -73.900; -339.000; -242.000
342.758;  -17.400; -364.000; -312.000
342.892; -153.700; -710.000; -585.000
343.026;  -52.300;  -58.000; -116.000
343.160;  -99.700; -426.000; -376.000
343.294; -122.200; -474.000; -337.000
343.428;  -79.200; -488.000; -448.000
343.562;   -1.000; -172.000;  -23.000
343.696;  -65.900; -385.000; -314.000
343.830;  -64.300; -362.000; -356.000
343.964;   17.700; -231.000; -168.000
344.098; 1218.900;  199.000;   70.000
344.232;  981.300; -266.000; -127.000
344.366;   79.300; -567.000; -453.000
344.500;   19.100; -665.000; -744.000
344.634;   47.100; -324.000; -164.000
344.768;  -62.300; -531.000; -341.000
344.902;   46.100;  278.000;  256.000
345.035; -142.600; -556.000; -496.000
345.169; -274.600; -933.000; -656.000
345.303;  -56.200; -308.000; -482.000
345.437; -148.800; -826.000; -717.000
345.571; -154.700; -675.000; -594.000
345.704; -117.600; -309.000; -532.000
345.838;  -33.500; -331.000; -284.000
345.972;  -58.100; -543.000; -495.000
346.106;  177.500; -179.000; -190.000
346.239;  455.200; -312.000; -243.000
346.373;  -16.300; -343.000; -302.000
346.507; -284.600; -950.000; -962.000
346.640;  201.300;  -30.000;   13.000
346.774;  -93.800; -650.000; -797.000
346.908;  -19.900; -138.000;  -11.000
347.041; -178.100; -646.000; -593.000
347.175;   69.200;  259.000;   27.000
347.309; -154.900; -698.000; -628.000
347.442; -209.800; -883.000; -732.000
347.576;  476.500;  670.000;  668.000
347.709;  255.600; -123.000;  -52.000
347.843; -209.500; -933.000; -825.000
347.976;   69.300;  235.000;  294.000
348.110; -357.200;-1268.000;-1186.000
348.243; -177.700; -679.000; -772.000
348.377;   20.100;  -26.000;   60.000
348.510;  130.500;  403.000;  540.000
348.644;  -28.100;  -37.000; -159.000
348.777;   46.300;  180.000;  191.000
348.911;  -81.100; -142.000; -112.000
349.044;  270.500;  471.000;  448.000
349.178;  103.600;-1069.000;-1006.000
349.311;  167.600;  141.000;  255.000
349.444; -111.000; -927.000; -813.000
349.578;  -16.500; -347.000; -200.000
349.711; -208.600; -959.000; -862.000
349.845;  -68.100; -661.000; -591.000
349.978; -303.100;-1224.000;-1137.000
350.111; -166.400; -546.000; -612.000
350.244; -120.500; -596.000; -700.000
350.378;    0.100; -392.000; -393.000
350.511;  -97.200; -393.000; -426.000
350.644; -200.300; -808.000; -806.000
350.778;   51.600;  168.000;  104.000
350.911;   35.800;  134.000;  140.000
351.044; -172.300; -685.000; -615.000
351.177;  -51.400; -321.000; -281.000
351.310;    0.100;    3.000; -131.000
351.444; -195.300; -888.000; -788.000
351.577;  168.100;  140.000;   90.000
351.710;  192.000;  593.000;  417.000
351.843;  -77.100; -165.000;  -77.000
351.976;   15.400;  149.000;  -79.000
352.109; -140.400; -621.000; -612.000
352.242;  -90.500; -464.000; -419.000
352.376; -118.600; -580.000; -636.000
352.509;  162.500; -437.000; -356.000
352.642;  -74.100; -654.000; -604.000
352.775;   96.900; -141.000;  -98.000
352.908; -220.500; -933.000; -904.000
353.041; -234.200; -814.000; -824.000
353.174; -140.900; -551.000; -424.000
353.307; -196.200; -753.000; -764.000
353.440;  148.100;  541.000;  453.000
353.573; -221.200; -957.000;-1008.000
353.706;  -73.400; -384.000; -558.000
353.839;  -47.000; -264.000; -220.000
353.971; -138.100; -657.000; -512.000
354.104; -211.200; -896.000; -835.000
354.237; -110.400; -627.000; -662.000
354.370; -182.200; -846.000; -879.000
354.503; -365.000;-1231.000;-1308.000
354.636;  -82.500; -529.000; -348.000
354.769; -260.100; -937.000; -860.000
354.902;  -13.700; -230.000; -139.000
355.034;  -78.700; -164.000; -220.000
355.167;  -38.400; -262.000; -162.000
355.300; -228.300;-1061.000; -880.000
355.433;  914.900;  -71.000;  -14.000
355.565; 1473.700; -402.000; -384.000
355.698;  363.300; -356.000; -296.000
355.831; -128.700; -882.000; -801.000
355.964;   81.900; -285.000; -170.000
356.096; -192.300; -856.000; -843.000
356.229;  -49.100; -523.000; -530.000
356.362;  241.800; -373.000; -266.000
356.494;  579.500; -229.000; -162.000
356.627;  615.100;  269.000;  377.000
356.760;  697.700;  120.000;   53.000
356.892;  870.000; -286.000; -601.000
357.025;  826.400;  403.000;  389.000
357.157;  742.300; -167.000; -179.000
357.290;  613.100; -856.000; -713.000
357.423;  130.900; -667.000; -556.000
357.555;  108.700; -217.000; -228.000
357.688;   73.000; -483.000; -364.000
357.820;  456.900; -870.000; -877.000
357.953; 4602.100; -563.000; -589.000
358.085;  898.500; -632.000; -612.000
358.218; 1302.500;-1131.000; -932.000
358.350;  245.600;  -58.000;  312.000
358.483; -294.000;-1300.000;-1187.000
358.615; -125.200;-1182.000;-1078.000
358.747; -196.100;-1187.000;-1058.000
358.880;  -39.600; -810.000; -744.000
359.012;   -8.100; -376.000; -202.000
359.145;  -89.800; -480.000; -511.000
359.277;   -9.200; -962.000; -913.000
359.409; 3907.600;  536.000;  231.000
359.542;  930.300; -738.000; -688.000
359.674;  116.500;   46.000;   13.000
359.806; -111.800; -565.000; -438.000
359.939;  -86.700; -617.000; -516.000
360.071;  -83.900; -583.000; -579.000
360.203;  -61.300; -411.000; -364.000
360.335;   76.000;  164.000;  -16.000
360.468;  216.600; -249.000; -307.000
360.600; 2995.000; -547.000; -454.000
360.732; 2818.400; -546.000; -423.000
360.864;  223.500;-1216.000;-1044.000
360.996;  326.100; -516.000; -554.000
361.129;   21.500; -389.000; -598.000
361.261;    5.700;  110.000; -113.000
361.393;  -43.200; -252.000; -214.000
361.525;   81.100;   94.000;  244.000
361.657; -102.000; -821.000; -703.000
361.789;  -10.000; -139.000; -155.000
361.921;  236.800; -642.000; -593.000
362.053;  378.300;  524.000;  541.000
362.185;   70.300;  288.000;   72.000
362.318; -150.900; -709.000; -705.000
362.450;  237.800;  294.000;  444.000
362.582;   61.700; -913.000; -870.000
362.714;  -54.100; -353.000; -332.000
362.846; -157.800; -606.000; -490.000
362.978; -300.700; -941.000; -811.000
363.109;   54.900; -161.000; -260.000
363.241;  450.400; -739.000; -749.000
363.373;  333.300; -649.000; -564.000
363.505;  664.600; -186.000;  -91.000
363.637;  107.200; -787.000; -601.000
363.769; -251.600;-1067.000;-1080.000
363.901; -116.900; -596.000; -654.000
364.033; -261.400;-1103.000;-1062.000
364.165;  -10.200; -283.000; -283.000
364.296;   62.200; -316.000; -177.000
364.428;  -95.400;-1344.000;-1220.000
364.560; -151.600; -679.000; -661.000
364.692; -144.200; -738.000; -835.000
364.824;  290.400; -588.000; -456.000
364.955;  429.700; -402.000; -564.000
365.087;  731.600;-1097.000; -852.000
365.219;  -81.900; -686.000; -816.000
365.351; -142.400; -526.000; -572.000
365.482;  123.400;  300.000;  240.000
365.614;  -54.500; -402.000; -314.000
365.746; -225.400; -729.000; -752.000
365.877; -175.300; -706.000; -672.000
366.009;  272.200;  -35.000;  -62.000
366.141; -244.300;-1249.000;-1134.000
366.272; -222.200; -803.000; -719.000
366.404; -203.200;-1005.000; -874.000
366.535;    7.800; -139.000;  -12.000
366.667; -162.600; -644.000; -649.000
366.799;   86.300;  353.000;  203.000
366.930; -211.300; -862.000; -996.000
367.062;   69.400; -639.000; -613.000
367.193;   27.200; -872.000; -842.000
367.325; -132.400; -580.000; -684.000
367.456;   64.300; -246.000;   31.000
367.588;  120.800; -371.000; -318.000
367.719;   -6.300;  -44.000;  -45.000
367.851;  -19.300; -222.000; -241.000
367.982; -119.900; -875.000; -732.000
368.113;  118.300; -475.000; -358.000
368.245; -229.800; -960.000; -841.000
368.376;  -53.600; -254.000; -302.000
368.508;  -62.500; -188.000; -263.000
368.639; -291.600;-1166.000;-1034.000
368.770;  -69.600; -670.000; -589.000
368.902; -153.900; -836.000; -926.000
369.033; -212.800; -906.000; -855.000
369.164; -142.900; -720.000; -653.000
369.296; -193.300; -452.000; -601.000
369.427;  -14.100; -209.000; -144.000
369.558; -104.300; -593.000; -377.000
369.689; -156.500; -721.000; -569.000
369.821; -231.400; -951.000; -845.000
369.952;   22.200;   42.000; -108.000
370.083;  -77.200; -229.000; -108.000
370.214; -151.700; -735.000; -650.000
370.345;    6.400;   65.000;   81.000
370.477; -180.600; -810.000; -790.000
370.608;  311.000; -328.000; -264.000
370.739; -183.200;-1233.000;-1292.000
370.870; -133.200;-1102.000; -923.000
371.001;   78.600; -378.000; -467.000
371.132; -148.600; -754.000; -735.000
371.263;  -17.700;  -42.000; -148.000
371.394; -238.100; -841.000; -748.000
371.525;   77.000;  345.000;  225.000
371.657; -213.100; -808.000; -670.000
371.788;  125.000;  103.000;  199.000
371.919;  171.500; -384.000; -304.000
372.050; 4902.900;  -91.000; -156.000
372.181; 1384.500; -188.000; -294.000
372.311;  508.500;   42.000; -127.000
372.442;   23.700; -457.000; -451.000
372.573;  -43.800; -444.000; -340.000
372.704; -248.000;-1008.000; -980.000
372.835;   98.100; -228.000; -289.000
372.966; -132.400; -646.000; -554.000
373.097; -116.700; -575.000; -711.000
373.228; -111.900; -717.000; -542.000
373.359;  131.800; -824.000; -536.000
373.490; 1123.200; -881.000; -727.000
373.620; 1313.400;-1001.000; -803.000
373.751; 2338.300; -332.000; -396.000
373.882;  983.800; -663.000; -733.000
374.013;   35.900; -449.000; -262.000
374.143;  -98.100; -581.000; -659.000
374.274; -214.000; -987.000; -908.000
374.405;  193.600; -388.000; -276.000
374.536;  506.900; -526.000; -387.000
374.666; 1441.900; -759.000; -807.000
374.797;  185.800; -817.000; -868.000
374.928; 1022.800; -710.000; -560.000
375.058; 1035.400; -535.000; -500.000
375.189;   78.200;  -59.000;  -93.000
375.320; -223.300; -928.000;-1034.000
375.450;  -85.500; -625.000; -616.000
375.581; -110.800; -526.000; -436.000
375.712;  -84.600; -574.000; -250.000
375.842;  331.700; -438.000; -415.000
375.973;  210.100; -554.000; -513.000
376.103; -119.100; -665.000; -648.000
376.234; -143.000; -531.000; -552.000
376.364; -109.600; -944.000; -867.000
376.495;  495.900;  925.000;  529.000
376.625;  -32.400; -472.000; -485.000
376.756;   19.400; -709.000; -678.000
376.886; -195.200;-1178.000;-1026.000
377.017;  -79.600;-1048.000;-1061.000
377.147;  238.500; -786.000; -782.000
377.278;  156.900;  174.000;  228.000
377.408; -222.500; -801.000; -815.000
377.538; -203.500; -707.000; -693.000
377.669; -137.100; -537.000; -613.000
377.799; -174.700; -645.000; -635.000
377.929; -113.400; -610.000; -428.000
378.060; -261.800; -781.000; -847.000
378.190; -137.200; -726.000; -531.000
378.320; -105.500; -401.000; -406.000
378.451;   21.100; -131.000;  -22.000
378.581;    6.700;  -67.000; -110.000
378.711;  278.100; 1035.000;  866.000
378.841;  -64.100; -533.000; -675.000
378.972; -199.200; -871.000; -751.000
379.102;  -45.900; -652.000; -579.000
379.232;  -18.600; -126.000;  -73.000
379.362; -225.800;-1001.000; -885.000
379.492;  -24.300; -373.000; -424.000
379.623;  141.200;    0.000;  111.000
379.753; -194.600;-1107.000; -974.000
379.883;  344.400;   59.000;  156.000
380.013;  -86.200;-1081.000;-1017.000
380.143; -221.300;-1097.000;-1056.000
380.273; -212.600; -985.000; -861.000
380.403;  -35.600; -344.000; -257.000
380.533;  -95.700; -651.000; -664.000
380.663;  114.000;  173.000;  128.000
380.793; -222.000;-1027.000;-1074.000
380.923;   -3.900; -103.000;  -34.000
381.053; -186.800; -613.000; -623.000
381.183;  -39.500; -106.000; -248.000
381.313;    7.800; -656.000; -470.000
381.443;   33.300; -692.000; -473.000
381.573;  222.700; -402.000; -409.000
381.703;  213.200;-1249.000;-1095.000
381.833; -247.800;-1454.000;-1336.000
381.963;  132.800; -134.000;  -87.000
382.093; 1681.400; -925.000; -909.000
382.223;  451.200; -713.000; -602.000
382.353; -111.300; -801.000; -608.000
382.482;  443.400;-1091.000; -964.000
382.612;  904.300; -872.000; -644.000
382.742;  474.900; -695.000; -622.000
382.872;  266.300; -565.000; -551.000
383.002;  101.500;  347.000; -132.000
383.131;  -16.700; -226.000; -160.000
383.261; -149.200; -706.000; -768.000
383.391;  248.100; -552.000; -377.000
383.521; 3279.200;  451.000;  263.000
383.650;  537.500; -947.000; -904.000
383.780; -116.600; -783.000; -656.000
383.910;  230.500;  880.000;  802.000
384.039;  -54.300; -794.000; -656.000
384.169;  142.800;-1205.000;-1017.000
384.299;  -91.500; -650.000; -662.000
384.428; -197.500; -764.000; -680.000
384.558;  -58.200; -308.000; -275.000
384.687;  -63.600; -414.000; -334.000
384.817;   41.500;   75.000;   -2.000
384.947;    6.300; -234.000; -141.000
385.076;  436.800;  982.000;  912.000
385.206;  215.200;  369.000;  480.000
385.335;  -61.200; -549.000; -417.000
385.465; -178.600; -655.000; -663.000
385.594;  209.800;  -53.000;  -44.000
385.724;  486.800; -868.000; -838.000
385.853;  139.600; -296.000; -270.000
385.982; 1858.500; -743.000; -787.000
386.112; 2734.100;-1052.000; -871.000
386.241;  165.700; -307.000; -312.000
386.371;   24.100; -174.000;  -87.000
386.500;  -35.400; -825.000; -789.000
386.629;  -37.900; -874.000; -817.000
386.759;   65.800;  -43.000;   68.000
386.888;    2.800; -170.000; -250.000
387.017; -137.100; -648.000; -620.000
387.147; -177.200; -771.000; -798.000
387.276;  -40.300; -410.000; -397.000
387.405;   -2.400; -398.000; -342.000
387.535;  -92.200; -452.000; -361.000
387.664; -132.800; -692.000; -620.000
387.793;   77.600; -198.000; -113.000
387.922;  695.200;  255.000;  200.000
388.052;    5.400; -576.000; -423.000
388.181;   24.300; -342.000; -472.000
388.310;  -51.500; -889.000; -710.000
388.439; -133.200; -749.000; -742.000
388.568;  311.700;  365.000;  244.000
388.697; 1360.800; -756.000; -653.000
388.826;  195.200; -768.000; -666.000
388.956;   87.300; -285.000; -307.000
389.085;  -71.200; -347.000; -287.000
389.214; -208.000; -842.000; -872.000
389.343; -133.800; -645.000; -413.000
389.472;  489.800;  126.000;  149.000
389.601;  603.800;   91.000;    0.000
389.730;   15.200; -568.000; -687.000
389.859;  138.300;  226.000;   46.000
389.988;  245.600; -423.000; -408.000
390.117;  160.400; -168.000; -146.000
390.246;  -41.100; -331.000; -320.000
390.375;  113.900; -673.000; -626.000
390.504; -120.300; -703.000; -621.000
390.633; -173.300; -672.000; -726.000
390.761; -152.600; -732.000; -645.000
390.890;   22.100;   -4.000; -130.000
391.019;  -63.900; -421.000; -441.000
391.148; -195.800; -826.000; -855.000
391.277; -132.200; -576.000; -493.000
391.406; -167.300; -821.000; -805.000
391.534;   43.500;  574.000; -301.000
391.663;  -95.900; -583.000; -645.000
391.792; -158.800; -673.000; -701.000
391.921;  141.100;   -3.000;   15.000
392.050;  219.200; -287.000; -228.000
392.178; -149.600;-1206.000;-1061.000
392.307;  212.600; -758.000; -712.000
392.436;   30.500; -427.000; -641.000
392.564;   52.800;  166.000;   -6.000
392.693; -183.200; -860.000; -682.000
392.822;  255.800; -529.000; -534.000
392.950;   85.900; -880.000; -714.000
393.079;  472.200; -188.000; -328.000
393.208;    2.200; -488.000; -511.000
393.336;    7.500; -170.000; -145.000
393.465;  -41.100; -317.000; -199.000
393.593;   15.900;   62.000;   79.000
393.722; -252.500;-1121.000; -916.000
393.850;  -58.800; -188.000;  -61.000
393.979; -288.700; -926.000; -805.000
394.107; -135.500; -517.000; -537.000
394.236;  -70.300; -570.000; -507.000
394.364;  397.300;  383.000;  206.000
394.493;  602.200; -911.000; -767.000
394.621;  -98.900; -955.000; -916.000
394.750;  588.900; -873.000; -923.000
394.878; 2904.100; -247.000; -149.000
395.007; 3600.900; -721.000; -807.000
395.135;  209.300; -790.000; -721.000
395.263; -199.600;-1038.000;-1040.000
395.392;   25.000;  -25.000; -107.000
395.520; -190.900; -818.000; -679.000
395.648; -183.300; -865.000; -915.000
395.777;  -29.200; -366.000; -405.000
395.905;  -89.000; -449.000; -564.000
396.033;   84.900;  217.000;  172.000
396.162; 1055.400; -399.000; -453.000
396.290;  946.000;  -17.000;   -2.000
396.418;  113.100; -555.000; -514.000
396.546; -159.100; -571.000; -466.000
396.674; -204.700; -850.000; -878.000
396.803;   35.500;  -72.000;  -23.000
396.931;   94.600; -179.000; -199.000
397.059;  -71.600;-1026.000; -989.000
397.187; -230.000;-1026.000; -975.000
397.315; -262.200; -884.000; -649.000
397.443; -138.000; -592.000; -443.000
397.572; -142.700; -578.000; -424.000
397.700;  -70.300; -607.000; -614.000
397.828;   76.100;  120.000;  -90.000
397.956;  -87.600; -508.000; -478.000
398.084; -162.600; -767.000; -626.000
398.212;   57.900;  137.000;  124.000
398.340;   51.300;  -56.000;  159.000
398.468;   20.900; -390.000; -169.000
398.596; -278.700; -993.000; -953.000
398.724; -228.500; -762.000; -767.000
398.852; -299.100;-1024.000; -976.000
398.980; -115.200; -560.000; -560.000
399.108; -108.300; -982.000; -735.000
399.236;   31.000;   13.000;    8.000
399.363;   24.000;  222.000;  196.000
399.491;  -94.900; -404.000; -398.000
399.619; -266.300; -829.000; -800.000
399.747; -185.700; -859.000; -771.000
399.875;  134.400;  220.000;  234.000
400.003;  -91.700; -359.000; -284.000
400.130; -139.700; -421.000; -341.000
400.258;  -45.800;  -83.000;   38.000
400.386;  -40.200; -352.000; -168.000
400.514; -122.300; -526.000; -587.000
400.641; -199.600; -928.000; -802.000
400.769; -260.500; -979.000; -888.000
400.897; -186.600; -838.000; -793.000
401.025;  -14.400; -166.000; -152.000
401.152;   27.200;  220.000;   38.000
401.280; -132.100; -430.000; -429.000
401.408; -218.100; -712.000; -576.000
401.535; -184.800; -735.000; -758.000
401.663; -354.100;-1134.000;-1054.000
401.790; -140.100; -514.000; -525.000
401.918;  118.500;  436.000;  405.000
402.046;  -31.700;  134.000;  122.000
402.173;  -22.100;  -18.000;    7.000
402.301; -106.400; -519.000; -397.000
402.428;  100.600;  528.000;  383.000
402.556; -309.900;-1188.000; -913.000
402.683;  -19.000;  -20.000;   -1.000
402.811;   22.800;  -37.000; -206.000
402.938;   20.100;   20.000;   27.000
403.066;  223.000; -574.000; -558.000
403.193;  443.000;  299.000;  239.000
403.321;  282.400; -396.000; -574.000
403.448;  466.300;   83.000;   27.000
403.575;  188.700;  -90.000;  -46.000
403.703; -172.400; -732.000; -557.000
403.830; -104.400; -531.000; -496.000
403.957; -269.400;-1117.000;-1023.000
404.085;    1.700;  -61.000; -172.000
404.212;  139.800;  -50.000;   63.000
404.339;  234.200; -566.000; -306.000
404.467; 5603.300; -612.000; -524.000
404.594; 3697.200; -287.000; -227.000
404.721;  821.800; -869.000; -764.000
404.848;   89.200; -113.000; -202.000
404.976; -193.500; -856.000; -783.000
405.103;   18.700;  -14.000;  -82.000
405.230;   51.400;  190.000;  226.000
405.357;   52.600;  117.000;   44.000
405.484;  255.100;  -49.000;    5.000
405.612;  -38.600; -548.000; -563.000
405.739;  -95.300; -488.000; -243.000
405.866;  183.600;  669.000;  385.000
405.993;  -67.700; -398.000; -102.000
406.120; -224.700; -801.000; -887.000
406.247;  -79.600; -323.000; -342.000
406.374;  640.500;  540.000;  629.000
406.501;   64.500; -632.000; -702.000
406.628; -152.700; -621.000; -589.000
406.755; -137.600; -803.000; -620.000
406.882;  -71.900; -228.000; -277.000
407.009; -172.300; -719.000; -628.000
407.136;   85.400; -480.000; -401.000
407.263;   74.900; -939.000; -829.000
407.390; -111.800; -692.000; -614.000
407.517; -316.900;-1139.000;-1187.000
407.644; -111.300; -332.000; -256.000
407.771;  -66.400; -249.000; -287.000
407.898;   72.100;  168.000;  328.000
408.025; -114.900; -421.000; -313.000
408.151;   13.500;   82.000;  153.000
408.278; -109.700; -267.000; -216.000
408.405; -179.600; -931.000; -899.000
408.532; -135.800; -549.000; -542.000
408.659; -206.300; -677.000; -648.000
408.785; -337.600;-1298.000;-1170.000
408.912; -105.600; -412.000; -296.000
409.039; -172.100; -610.000; -686.000
409.166; -154.000; -591.000; -555.000
409.292; -155.700; -571.000; -534.000
409.419; -199.900; -665.000; -649.000
409.546; -116.800; -431.000; -192.000
409.672; -190.800; -713.000; -545.000
409.799;  -22.700;  -36.000;   34.000
409.926;  -89.200; -180.000; -179.000
410.052; -338.500;-1127.000;-1091.000
410.179;  -56.500; -368.000; -392.000
410.305; -117.000; -375.000; -493.000
410.432;  -66.600; -220.000; -333.000
410.558; -113.900; -305.000; -380.000
410.685; -199.000; -688.000; -431.000
410.812; -156.500; -409.000; -588.000
410.938; -230.700; -964.000; -808.000
411.065; -176.900; -671.000; -645.000
411.191;  -10.700; -189.000; -174.000
411.317; -229.600; -823.000; -742.000
411.444;  -96.000; -317.000; -246.000
411.570;  -89.300; -339.000; -294.000
411.697; -224.400; -758.000; -752.000
411.823; -316.300; -989.000; -999.000
411.949;   -9.600;  -56.000;   17.000
412.076; -188.800; -539.000; -519.000
412.202; -201.600; -758.000; -757.000
412.329; -232.700; -798.000; -752.000
412.455; -193.500; -821.000; -657.000
412.581;   -6.900;  -15.000;  172.000
412.707; -110.000; -540.000; -457.000
412.834;   33.800;  156.000;  219.000
412.960; -168.400; -785.000; -784.000
413.086; -197.900; -743.000; -701.000
413.212;  236.500;  604.000;  578.000
413.339; -130.500; -685.000; -701.000
413.465;  -13.400; -364.000; -310.000
413.591; -195.000; -757.000; -474.000
413.717;  -78.600; -358.000; -366.000
413.843; -277.600; -839.000; -861.000
413.969;  -73.200;  -47.000; -292.000
414.096; -182.200; -679.000; -679.000
414.222;  -20.700;  -33.000;   85.000
414.348;  -61.100; -652.000; -385.000
414.474;   96.600;   38.000;  -52.000
414.600;    7.600; -126.000; -144.000
414.726;  -16.700;  -96.000;  -55.000
414.852;  -95.900; -365.000; -342.000
414.978;   58.100;  104.000;  -18.000
415.104;   83.000;   38.000;   80.000
415.230;   21.500; -329.000; -330.000
415.356;   -2.800; -409.000; -514.000
415.482;  217.300;   13.000;  -35.000
415.608;  226.800; -247.000; -323.000
415.734; 1046.300;   67.000;   38.000
415.860;20755.000; -875.000; -767.000
415.986;13643.100; -685.000; -607.000
416.111; 1059.800; -798.000; -652.000
416.237;  155.300; -424.000; -571.000
416.363; 1101.600; -765.000; -733.000
416.489; 4077.900; -324.000; -251.000
416.615;  299.500; -707.000; -742.000
416.741; -133.000; -677.000; -784.000
416.866; -205.700; -673.000; -736.000
416.992; -262.100; -801.000; -818.000
417.118;  -39.800;  -41.000;  -80.000
417.244; -159.000; -798.000; -531.000
417.369; -176.400; -801.000; -612.000
417.495;  -52.200; -325.000; -254.000
417.621; -203.200;-1015.000; -803.000
417.746;  -69.500; -579.000; -572.000
417.872;   45.800; -254.000; -144.000
417.998;  -33.400; -515.000; -530.000
418.123;  980.800;-1073.000; -845.000
418.249; 5097.700; -512.000; -601.000
418.374;  538.800; -916.000; -824.000
418.500;   37.500; -383.000; -482.000
418.626;  130.200;   70.000;  -59.000
418.751;   78.300; -549.000; -448.000
418.877;  121.000; -637.000; -643.000
419.002; 1862.300; -688.000; -560.000
419.128;12099.400; -930.000; -721.000
419.253; 2596.900; -967.000; -837.000
419.379;  314.700; -391.000; -338.000
419.504;  442.000;  325.000;  415.000
419.629;  478.100; -393.000; -212.000
419.755; 3691.000; -317.000; -254.000
419.880;20169.700;  -98.000;   67.000
420.006;11627.500; -280.000; -221.000
420.131;28932.800; -662.000; -775.000
420.256; 3859.600; -315.000; -316.000
420.382;  451.500; -665.000; -687.000
420.507;   -1.300; -649.000; -778.000
420.632;  166.500; -337.000; -339.000
420.758;  329.000; -251.000; -425.000
420.883; -164.000; -876.000; -672.000
421.008; -179.300; -775.000; -619.000
421.133; -116.700; -509.000; -467.000
421.259;  -58.700; -325.000; -259.000
421.384; -199.800; -834.000; -693.000
421.509; -122.300;-1052.000; -862.000
421.634; 1705.000; -936.000; -820.000
421.759;  634.900; -359.000; -327.000
421.885; -100.800; -717.000; -656.000
422.010; -126.300; -673.000; -542.000
422.135; -264.900; -695.000; -727.000
422.260;   88.200;  340.000;  280.000
422.385;  -43.900;   12.000;  -98.000
422.510;   50.700;  151.000;  -26.000
422.635;   65.000;  -87.000;  -43.000
422.760;   65.800; -766.000; -791.000
422.885;   93.100;  -57.000;  -80.000
423.010;  -55.300; -112.000; -169.000
423.135; -147.700; -481.000; -561.000
423.260;  -29.700; -150.000; -245.000
423.385;  161.200;  476.000;  222.000
423.510;   62.300;   71.000;  -22.000
423.635;  108.600;  133.000;   45.000
423.760;  114.800;  383.000;  328.000
423.885;  129.400;  336.000;  391.000
424.010;   27.900;  -68.000;  -13.000
424.135;   15.400;    5.000;  -33.000
424.259; -147.600; -654.000; -457.000
424.384;  -82.400; -279.000; -272.000
424.509;  -50.500; -260.000; -186.000
424.634; -173.400; -761.000; -623.000
424.759;  -82.500; -688.000; -544.000
424.883;  -66.500; -506.000; -527.000
425.008;  162.800; -502.000; -410.000
425.133; 1982.700; -679.000; -653.000
425.258;  801.000; -517.000; -381.000
425.382; 1316.100; -867.000; -774.000
425.507; 3342.700; -487.000; -543.000
425.632;  386.700; -802.000; -663.000
425.756;  439.900; -256.000; -146.000
425.881; 6553.400; -831.000; -857.000
426.006;16107.200; -604.000; -355.000
426.130; 2333.400; -696.000; -508.000
426.255;  245.600; -611.000; -491.000
426.379;  159.200; -189.000; -577.000
426.504;  496.000;  660.000;  544.000
426.629; 4129.600; -519.000; -466.000
426.753; 2614.300;   64.000;  -46.000
426.878;  290.900; -252.000; -288.000
427.002;   49.200; -651.000; -668.000
427.127; 1708.600;  -35.000; -158.000
427.251;11600.500;  372.000;  401.000
427.375; 2948.900; -191.000; -173.000
427.500; 2829.500; -616.000; -610.000
427.624;  870.300; -234.000; -400.000
427.749;  100.800; -216.000; -225.000
427.873;  -86.700; -499.000; -412.000
427.997;  -66.300; -222.000; -230.000
428.122;  160.600;  795.000;  703.000
428.246;  132.000;  433.000;  434.000
428.371; -231.800; -869.000; -773.000
428.495; -163.000; -624.000; -646.000
428.619;  -38.200; -186.000; -117.000
428.743;   71.700;   65.000;  132.000
428.868;  -19.200; -732.000; -643.000
428.992; 1809.800; -219.000; -326.000
429.116;  694.900; -329.000; -357.000
429.240;  419.600;  419.000;  426.000
429.365;  -44.100; -454.000; -574.000
429.489; -113.100; -638.000; -647.000
429.613;   24.800; -236.000; -177.000
429.737;  -30.600; -563.000; -432.000
429.861;  294.800; -247.000; -133.000
429.985; 5694.000; -425.000; -305.000
430.109; 5666.800; -770.000; -908.000
430.234;  682.100;   76.000;  -50.000
430.358;   22.300; -250.000; -160.000
430.482; -158.700; -672.000; -564.000
430.606; -110.700; -655.000; -375.000
430.730;   -3.200; -437.000; -388.000
430.854;   60.300; -909.000; -835.000
430.978; -152.500; -795.000; -764.000
431.102; -117.200; -499.000; -422.000
431.226; -202.600; -874.000; -815.000
431.350;  135.100;  345.000;  422.000
431.474; -116.500; -661.000; -373.000
431.597; -272.900;-1060.000; -848.000
431.721; -101.400; -276.000; -267.000
431.845; -211.500; -704.000; -472.000
431.969; -120.400; -304.000; -349.000
432.093; -140.000; -395.000; -317.000
432.217;   -5.400;   32.000;   82.000
432.341; -156.100; -523.000; -518.000
432.464;   29.900;   96.000;   40.000
432.588;  237.600; -401.000; -329.000
432.712;  111.600;  -52.000;  -52.000
432.836;  116.500;  213.000;  263.000
432.959;  -31.100; -372.000; -311.000
433.083;  110.400;   11.000;    2.000
433.207;  408.900;  285.000;  930.000
433.330; 5123.700; -391.000; -200.000
433.454; 5678.700; -654.000; -638.000
433.578; 3500.500;  583.000;  278.000
433.701;  508.800; -623.000; -675.000
433.825;  106.900; -292.000; -299.000
433.949;  250.900;   28.000;  -72.000
434.072;   51.700; -410.000; -323.000
434.196;  -13.900; -309.000; -117.000
434.319; 7643.800;25482.000;25124.000
434.443;  780.100; -656.000; -603.000
434.566; 2575.500;  281.000;   62.000
434.690;  266.100; -637.000; -383.000
434.813;   21.700; -251.000; -173.000
434.937; -142.500; -569.000; -696.000
435.060;  -64.800; -423.000; -332.000
435.184;  405.100; -492.000; -217.000
435.307;  231.900;  159.000;  102.000
435.431;   16.300;  -40.000;   24.000
435.554; -106.100; -399.000; -240.000
435.677; -122.700; -350.000; -258.000
435.801;  -17.300;  -25.000;   49.000
435.924;  -10.200;    1.000;  -67.000
436.048; -206.900;-1019.000; -732.000
436.171; -114.700; -240.000;  -66.000
436.294;  -33.700; -248.000; -229.000
436.417;  -23.300; -963.000; -849.000
436.541; -192.500; -814.000; -840.000
436.664;  -67.400; -242.000; -316.000
436.787;   -2.800;   13.000;  113.000
436.910; -199.000; -792.000; -422.000
437.034;   65.000;  142.000;  143.000
437.157;  101.200;  -11.000;    0.000
437.280;  -73.300; -392.000; -292.000
437.403; -164.100; -982.000; -869.000
437.526;  894.500; -903.000; -865.000
437.649; 3055.800; -505.000; -332.000
437.772;  392.800; -692.000; -540.000
437.896;  244.000;  700.000;  544.000
438.019; -166.300; -758.000; -503.000
438.142; -125.900; -596.000; -506.000
438.265;  -80.700; -639.000; -670.000
438.388;  691.400; -520.000; -410.000
438.511;   62.500; -597.000; -394.000
438.634;  -86.700; -247.000; -125.000
438.757; -235.300; -693.000; -619.000
438.880;   -0.600;  -34.000;  -57.000
439.003; -119.000; -417.000; -437.000
439.126;  -86.200; -287.000; -167.000
439.248;  -79.500;  -98.000; -139.000
439.371;  -42.900;    9.000;  -53.000
439.494;  100.800;  510.000;  439.000
439.617;  -54.300;   65.000;  -88.000
439.740; -305.300; -968.000; -816.000
439.863; -231.400; -755.000; -595.000
439.986; -176.400; -476.000; -431.000
440.108;  -78.700; -161.000; -112.000
440.231; -282.400; -950.000; -836.000
440.354;  -44.300;  -64.000; -150.000
440.477;    3.800; -566.000; -542.000
440.599;  -11.700; -200.000; -225.000
440.722; -221.800; -709.000; -586.000
440.845;  189.300;  751.000;  928.000
440.968; -127.200; -415.000; -311.000
441.090;  -87.900; -199.000;  -33.000
441.213; -278.900;-1021.000; -825.000
441.336;  -44.000; -159.000;   -5.000
441.458;  -98.800; -549.000; -396.000
441.581; -186.700; -628.000; -629.000
441.703;  -55.600; -152.000;   13.000
441.826; -146.300; -557.000; -400.000
441.948;  -45.200;   56.000;   51.000
442.071;  128.300;  555.000;  424.000
442.193; -200.500; -531.000; -485.000
442.316;   49.200;  152.000;   97.000
442.438;   31.100; -233.000;  -10.000
442.561;  111.800;  272.000;  262.000
442.683;  751.600; -809.000; -522.000
442.806; 1562.400;   -8.000;   74.000
442.928;  -47.900; -859.000; -604.000
443.051; -109.900; -577.000; -373.000
443.173; -119.600; -341.000; -339.000
443.295; -127.100; -263.000; -371.000
443.418;  -64.200; -321.000;  -29.000
443.540;   31.900; -106.000;   -4.000
443.662; -192.400; -563.000; -465.000
443.785;   21.100;  335.000;  199.000
443.907; -172.500; -362.000; -208.000
444.029; -210.800; -767.000; -494.000
444.152; -231.000; -644.000; -554.000
444.274;    1.200;  -18.000;  -24.000
444.396; -179.900; -461.000; -221.000
444.518; -204.500; -691.000; -454.000
444.640; -117.200; -268.000; -111.000
444.763;   14.100;  388.000;  249.000
444.885; -185.100; -432.000; -392.000
445.007;  -57.400;   35.000;   86.000
445.129; -179.900; -610.000; -515.000
445.251; -177.900; -372.000; -439.000
445.373; -203.100; -537.000; -386.000
445.495;   46.900;  242.000;  350.000
445.617;  178.600;  853.000;  753.000
445.739; -112.900; -215.000;  -97.000
445.861;  -15.100; -245.000; -112.000
445.984;  -83.000; -267.000; -101.000
446.105;  283.600; -418.000; -251.000
446.227;  837.700; -176.000;  -19.000
446.349;  -31.000; -358.000; -249.000
446.471; -167.100; -615.000; -448.000
446.593; -119.100; -316.000;   19.000
446.715;   39.200;  -67.000;   41.000
446.837;  222.200;  697.000;  832.000
446.959; -165.700; -457.000; -478.000
447.081; -216.400; -628.000; -518.000
447.203;  184.700;  862.000;  834.000
447.325; -113.900; -270.000;   42.000
447.446;   37.800;  286.000;  530.000
447.568; -265.700; -921.000; -803.000
447.690; -103.400; -236.000; -245.000
447.812; -267.100; -798.000; -519.000
447.933;  -10.200;  155.000;  127.000
448.055;  -98.600; -306.000; -261.000
448.177;  286.600;   31.000;   79.000
448.299;   43.000; -935.000; -727.000
448.420;   57.800;  -25.000;  159.000
448.542;  -60.300;   -3.000;   33.000
448.664;   42.000;  109.000;  322.000
448.785;  -17.000;  265.000;   83.000
448.907; -133.400; -614.000; -353.000
449.028; -106.900; -771.000; -471.000
449.150;  164.300;  492.000;  589.000
449.272; -329.300;-1044.000; -913.000
449.393;  105.200;  612.000;  694.000
449.515; -246.200; -634.000; -581.000
449.636;  -89.800; -264.000; -155.000
449.758;  178.700;  763.000;  622.000
449.879; -149.700; -498.000; -396.000
450.001; -104.500; -149.000;  -49.000
450.122;    4.400;  -95.000;  162.000
450.244;   -8.100;   37.000;  364.000
450.365; -152.900; -495.000; -301.000
450.486;  -39.200;   80.000;  268.000
450.608;   65.100;  393.000;  326.000
450.729;  165.500;  578.000;  645.000
450.850; -106.100; -574.000; -466.000
450.972;  739.700; -552.000; -389.000
451.093; 4873.000;  190.000;  588.000
451.214; 1721.800; -516.000; -337.000
451.336;  493.400;  773.000;  579.000
451.457;   99.300;  264.000;  393.000
451.578;  -63.500; -118.000;  -74.000
451.699; -220.000; -546.000; -540.000
451.821;  -83.300; -284.000;  -50.000
451.942;   21.200;  278.000;  285.000
452.063;  106.300;  228.000;  419.000
452.184;  576.800;  -54.000;  -49.000
452.305; 1061.300;  103.000;  170.000
452.427;   36.200; -549.000; -301.000
452.548;   -6.900;   23.000;   79.000
452.669;  -72.200; -257.000;  -89.000
452.790;  -50.900;    3.000;  -18.000
452.911;   47.900;  195.000;  259.000
453.032;  -52.600; -289.000;  -60.000
453.153;  -11.900;  -29.000;   81.000
453.274;  204.400;  737.000;  868.000
453.395;  -52.500;  -51.000;  175.000
453.516;  338.100; 1317.000; 1388.000
453.637;  -96.100; -205.000; -150.000
453.758;  -71.700;   15.000;   69.000
453.879; -160.400; -462.000; -250.000
454.000;  200.300; 1086.000;  948.000
454.121; -180.600; -554.000; -326.000
454.242; -188.500; -599.000; -383.000
454.362;  -73.900;  -99.000;  114.000
454.483;  -60.400; -309.000; -229.000
454.604;  133.000;  512.000;  580.000
454.725; -203.700; -627.000; -555.000
454.846; -203.400; -474.000; -406.000
454.967;   42.100;  230.000;  539.000
455.087;   -6.800;  179.000;  153.000
455.208;  112.700;  554.000;  856.000
455.329;  -73.000;  -22.000;   82.000
455.450;   78.500;  473.000;  633.000
455.570; -105.100; -234.000; -211.000
455.691;  -49.800;  201.000;  407.000
455.812; -143.700; -270.000;  -92.000
455.932;  -52.700;  107.000;  -97.000
456.053;  -87.800;   36.000;   24.000
456.173; -182.400; -433.000; -355.000
456.294; -207.600; -476.000; -303.000
456.415;  -83.800;  -73.000;   70.000
456.535;  -17.000;  297.000;  273.000
456.656;  -35.400;  132.000;  240.000
456.776;  -56.600;    3.000;  298.000
456.897;   33.100;  308.000;  513.000
457.017; -110.300; -153.000;   -3.000
457.138; -176.000; -402.000; -249.000
457.258;  -37.200;  263.000;  224.000
457.379;   32.800;  509.000;  521.000
457.499;    1.700;  443.000;  432.000
457.620; -200.100; -407.000; -231.000
457.740; -120.800; -132.000;  -11.000
457.860;  -51.700;   87.000;   44.000
457.981;  -26.600;  132.000;  124.000
458.101; -100.100;  -89.000;   40.000
458.221;   49.100;  336.000;  402.000
458.342;  -73.800;   -4.000;  -37.000
458.462;  107.300;  617.000;  352.000
458.582;  -80.800; -302.000; -294.000
458.703;    7.700;  303.000;  154.000
458.823;  -28.700;   22.000;  163.000
458.943;   40.400;  341.000;  467.000
459.063;  -17.000; 1124.000;  192.000
459.183;   -5.100;  328.000;  313.000
459.304;   49.400;  315.000;  517.000
459.424;  -78.300; -246.000;  -89.000
459.544;  427.500;  388.000;  764.000
459.664;  903.400;  499.000;  506.000
459.784;  391.600; 1004.000; 1175.000
459.904;  132.600;  867.000;  744.000
460.024;  215.100;  867.000;  684.000
460.144;   90.200;  449.000;  554.000
460.264;   50.300;  515.000;  327.000
460.385; -112.700; -145.000; -119.000
460.505;  132.800;  905.000;  858.000
460.625; -121.600;  -17.000;  -68.000
460.745;   21.700;  396.000;  541.000
460.864;  -60.900;  153.000;  469.000
460.984;   68.200;  499.000;  573.000
461.104;  297.900; 1656.000; 1775.000
461.224;   96.700;  657.000;  650.000
461.344;    5.000;  431.000;  360.000
461.464;   -8.200;  258.000;  513.000
461.584;   40.300;  283.000;  466.000
461.704;  -28.900;   58.000;  108.000
461.824;  -97.900;  238.000;  259.000
461.943;  -56.200;  191.000;  130.000
462.063;  -97.400;    2.000;  324.000
462.183;  103.800;  639.000;  717.000
462.303;  286.300; 1678.000; 1230.000
462.422;  133.100;  781.000;  840.000
462.542;    4.200;  271.000;  391.000
462.662;  104.100;  353.000;  380.000
462.782;  330.300;  833.000;  572.000
462.901;  535.700;  545.000;  717.000
463.021;  440.700; 1702.000; 1638.000
463.141;   17.800;  337.000;  770.000
463.260;   45.600;  614.000;  474.000
463.380;  123.000;  902.000;  884.000
463.499;  -24.800;  342.000;  332.000
463.619;  -20.200;  581.000;  559.000
463.738;  298.100; 1644.000;  903.000
463.858;   81.200;  657.000;  811.000
463.978;    9.100;  542.000;  396.000
464.097;  190.300;  921.000; 1114.000
464.217;  255.500; 1196.000; 1143.000
464.336;  264.100; 1068.000; 1130.000
464.455;   -6.600;  328.000;  659.000
464.575;  140.100;  597.000;  602.000
464.694;  314.800; 1204.000; 1179.000
464.814;  244.900; 1190.000; 1138.000
464.933;  183.400; 1095.000; 1027.000
465.052;  246.300; 1412.000; 1054.000
465.172;  165.500;  922.000;  799.000
465.291;  301.800; 1376.000; 1320.000
465.410;  104.700;  462.000;  735.000
465.530;  242.300; 1355.000; 1310.000
465.649;  181.700; 1209.000; 1273.000
465.768;  284.900; 1673.000; 1508.000
465.888;  137.800;  941.000; 1174.000
466.007;  289.300; 1335.000; 1440.000
466.126;   84.700;  721.000;  641.000
466.245;  175.600; 1176.000; 1187.000
466.364;  114.400;  950.000; 1060.000
466.484;  185.600; 1024.000; 1213.000
466.603;  154.200; 1101.000; 1222.000
466.722;  303.800; 1490.000; 1769.000
466.841;  222.000; 1151.000; 1401.000
466.960;  158.000; 1069.000;  972.000
467.079;  363.800; 1971.000; 1786.000
467.198;  194.200; 1238.000; 1181.000
467.317;  265.600; 1768.000; 1162.000
467.436;  213.700; 1709.000; 1261.000
467.555;  342.600; 1796.000; 1746.000
467.674;  217.500; 1227.000; 1329.000
467.793;  184.700; 1376.000; 1374.000
467.912;  219.000; 1658.000; 1539.000
468.031;  349.900; 2038.000; 1930.000
468.150;  355.400; 1842.000; 1837.000
468.269;  494.800; 2313.000; 2090.000
468.388;  458.600; 2168.000; 2339.000
468.507;  599.000; 2884.000; 2903.000
468.626;  648.200; 2555.000; 2541.000
468.744;  366.100; 2018.000; 2174.000
468.863;  481.200; 2312.000; 2523.000
468.982;  259.200; 1503.000; 1555.000
469.101;  537.300; 2788.000; 2692.000
469.220;  349.100; 2333.000; 2176.000
469.338;  578.800; 2935.000; 3051.000
469.457;  460.100; 2719.000; 2545.000
469.576;  745.400; 3953.000; 3784.000
469.695;  539.900; 2877.000; 3066.000
469.813;  972.400; 4148.000; 4192.000
469.932;  865.300; 4255.000; 4485.000
470.051;  835.300; 4075.000; 4161.000
470.169; 1376.100; 4470.000; 4338.000
470.288; 1929.900; 4700.000; 4809.000
470.406; 1373.900; 5059.000; 5194.000
470.525; 1290.800; 6101.000; 5787.000
470.644; 1385.300; 6847.000; 6794.000
470.762; 1708.500; 8397.000; 7873.000
470.881; 1835.900; 8651.000; 8464.000
470.999; 2049.300; 9685.000; 9151.000
471.118; 2294.300;11174.000;10711.000

