
Integration time [ms]: 100.000
Averaging Nr. [scans]: 40
Smoothing Nr. [pixels]: 0
Data measured with spectrometer [name]: 2101012U2
Wave   ;Sample   ;Dark     ;Reference
[nm]   ;[counts] ;[counts] ;[counts] 

197.733;   63.175;  516.000;  404.000
197.879;  -65.425; -610.000; -634.000
198.025;  -45.900; -475.000; -420.000
198.171;  -71.925; -602.000; -612.000
198.317;  -29.125; -401.000; -316.000
198.463;  -58.750; -655.000; -404.000
198.609;   27.775;  181.000; -137.000
198.755;  -62.500; -644.000; -410.000
198.901;  -70.425; -505.000; -424.000
199.047;  -54.325; -615.000; -488.000
199.193;  -40.825; -230.000; -468.000
199.339;  -44.475; -222.000; -369.000
199.485;   40.775;  330.000;  271.000
199.631;   19.325;  227.000;  310.000
199.777;  -37.800; -466.000; -398.000
199.923;  -58.150; -610.000; -424.000
200.069;   -0.600; -141.000;  -58.000
200.215;   53.125;  128.000;  453.000
200.361;   40.950;  243.000;  477.000
200.507;  -51.625; -600.000; -373.000
200.653;  -15.925; -371.000; -194.000
200.798;  -30.625; -215.000; -125.000
200.944;   -9.925; -146.000;  -41.000
201.090;   35.875;   61.000;  222.000
201.236;   -2.575; -116.000; -158.000
201.382;  112.675;  874.000;  903.000
201.528;   -1.075;  -58.000;  -48.000
201.674;  -50.775; -386.000; -293.000
201.819;  -49.125; -540.000; -439.000
201.965;  -86.750; -699.000; -447.000
202.111;  -10.300; -273.000; -226.000
202.257;  -35.575; -250.000; -238.000
202.402;   21.050;   13.000;  -36.000
202.548;  -28.675; -169.000; -116.000
202.694;   62.975;  410.000; -183.000
202.840;  -74.775; -603.000; -531.000
202.985;  -79.300; -681.000; -639.000
203.131;  -80.950; -832.000; -666.000
203.277;  -18.950; -199.000; -262.000
203.423;  -55.500; -434.000; -520.000
203.568;  -46.975; -462.000; -237.000
203.714;  -52.450; -535.000; -542.000
203.860;  -64.475; -682.000; -641.000
204.005;    7.750;  112.000;  167.000
204.151;   71.275;  561.000;  556.000
204.296;  -43.125; -354.000; -221.000
204.442;  -79.275; -600.000; -547.000
204.588;  -72.925; -592.000; -579.000
204.733;   23.875;  178.000;  168.000
204.879; -124.525;-1018.000; -822.000
205.025;    8.625;  -99.000;  126.000
205.170;    3.300;  -17.000;   94.000
205.316;   77.550;  438.000;  661.000
205.461;  -79.325; -698.000; -554.000
205.607;   68.975;  609.000;  665.000
205.752;  -73.800; -626.000; -551.000
205.898;  -63.525; -501.000; -391.000
206.043;  -58.300; -578.000; -506.000
206.189;  -38.600; -243.000; -285.000
206.334;   71.000;  554.000;  606.000
206.480;   83.400;  409.000;  239.000
206.625;  -71.275; -529.000; -552.000
206.771;  -32.300; -451.000; -373.000
206.916;  -27.725; -210.000; -537.000
207.062;  -66.600; -545.000; -591.000
207.207;  -62.700; -546.000; -443.000
207.353;   52.050;  185.000;  460.000
207.498;   11.275;  196.000;   85.000
207.643;  -48.700; -501.000; -370.000
207.789; -122.025;-1069.000; -910.000
207.934;  -91.475; -665.000; -713.000
208.080;  -26.875; -154.000;   66.000
208.225;    3.625;  -22.000;  -57.000
208.370;  -91.500; -727.000; -619.000
208.516;  -63.850; -741.000; -487.000
208.661;  -34.975; -127.000;  -69.000
208.806;  -20.800; -165.000; -171.000
208.952; -113.075;-1044.000; -731.000
209.097;   87.075;  378.000;  349.000
209.242;  -50.550; -307.000; -382.000
209.387;   89.225;  392.000;  350.000
209.533;  -61.300; -321.000; -350.000
209.678;   80.275;  472.000;  543.000
209.823;  -59.100; -408.000; -310.000
209.969;  -97.875; -860.000; -757.000
210.114; -111.500; -907.000; -719.000
210.259; -106.850; -939.000; -889.000
210.404;   -7.175; -171.000;  103.000
210.549;    7.300;  108.000;    3.000
210.695;  -18.300;   -3.000;  -95.000
210.840;   39.025;   94.000;   67.000
210.985;  -68.100; -484.000; -303.000
211.130;   70.225;  268.000;  406.000
211.275;   19.100;  207.000;  199.000
211.420;  -38.725; -300.000; -289.000
211.566;  -72.950; -536.000; -489.000
211.711;   20.100;  218.000;  157.000
211.856;  -60.825; -545.000; -519.000
212.001;    7.075;  151.000;   44.000
212.146;   14.500;  153.000;   49.000
212.291;  -19.425; -210.000; -186.000
212.436;  -38.175; -280.000;   -6.000
212.581;  -76.175; -685.000; -653.000
212.726;  -63.800; -487.000; -538.000
212.871;  -30.050; -552.000; -217.000
213.016; -135.300;-1172.000;-1029.000
213.161;   73.650;  406.000;  291.000
213.306;  -70.400; -435.000; -577.000
213.451;  -95.625; -778.000; -689.000
213.596;  -42.725; -455.000; -347.000
213.741;  -50.975; -448.000; -538.000
213.886;  -89.275; -498.000; -517.000
214.031;  -27.475; -294.000; -124.000
214.176;  -48.175; -408.000; -341.000
214.321;  -11.300; -296.000; -157.000
214.466;  -22.800; -163.000;  -43.000
214.611;   -7.600;  -61.000;  -10.000
214.756; -105.500; -948.000; -858.000
214.901;  -27.025; -388.000; -226.000
215.046; -114.775; -797.000; -825.000
215.191;   21.650;  128.000;   35.000
215.336;  -16.925; -157.000;  -19.000
215.480;  -59.975; -684.000; -505.000
215.625;   -4.825; -175.000;  -19.000
215.770;  -61.200; -757.000; -662.000
215.915;   -2.950;   -5.000;  -97.000
216.060;   -1.750; -113.000;  -21.000
216.205;  -93.500; -731.000; -779.000
216.349;  -64.675; -470.000; -533.000
216.494; -131.325; -939.000; -867.000
216.639; -100.400; -823.000; -888.000
216.784;  -75.100; -577.000; -525.000
216.929;   48.450;  392.000;  281.000
217.073;  -14.875; -244.000;  -31.000
217.218;   -8.375;   78.000;  -47.000
217.363;  -71.775; -656.000; -618.000
217.507;  -77.450; -623.000; -588.000
217.652; -113.900; -845.000; -874.000
217.797;  -90.050; -708.000; -659.000
217.942; -100.725; -856.000; -720.000
218.086;   73.900;  608.000;  539.000
218.231;  -16.500; -174.000;  -26.000
218.376;  -21.975; -337.000; -229.000
218.520;    8.625;  -41.000;   96.000
218.665;  -21.125; -338.000; -204.000
218.810;  -46.200; -275.000; -233.000
218.954;   21.150;  201.000;   35.000
219.099; -113.350; -713.000; -963.000
219.243;  -62.850; -589.000; -554.000
219.388;  -30.325; -264.000; -136.000
219.532;  -17.450; -116.000; -116.000
219.677;  -70.400; -564.000; -521.000
219.822;    7.025;   33.000;   89.000
219.966;   12.150;   17.000;  -99.000
220.111;  -45.600; -328.000;  -40.000
220.255; -102.700; -797.000; -750.000
220.400;  -17.250; -180.000; -146.000
220.544;  -60.450; -516.000; -450.000
220.689;  -51.550; -422.000; -451.000
220.833;  -19.900; -123.000;  -58.000
220.978;  -59.550; -393.000; -563.000
221.122;    9.400;  319.000;  307.000
221.267; -118.675; -906.000; -837.000
221.411;  -70.375; -478.000; -394.000
221.555;   -9.675; -104.000;  -23.000
221.700;  -42.900; -329.000; -222.000
221.844;   23.050;  255.000;  272.000
221.989;  -58.000; -328.000; -311.000
222.133;  -27.400; -289.000; -307.000
222.277;  -10.650;    5.000;   78.000
222.422;   13.025;  227.000;  113.000
222.566;  -35.050; -381.000; -214.000
222.711;  -44.425; -414.000; -479.000
222.855;  -63.425; -643.000; -586.000
222.999;  -81.275; -642.000; -717.000
223.144;  -18.525; -195.000; -194.000
223.288;   44.325;  423.000;  251.000
223.432;   25.100;  184.000;  230.000
223.576;   13.275;  152.000;  -21.000
223.721;   37.025;  364.000;  273.000
223.865;  -58.925; -472.000; -475.000
224.009;  216.825; 1673.000; 1631.000
224.153;  -79.625; -660.000; -671.000
224.298;  -73.675; -531.000; -489.000
224.442;   -9.900;  -74.000;  -33.000
224.586;  -18.350; -169.000; -106.000
224.730;  -99.300; -858.000; -670.000
224.875; -102.450; -739.000; -688.000
225.019;   19.500;  102.000;  188.000
225.163;   55.850;  208.000;  341.000
225.307;   15.375;   97.000;  -91.000
225.451;   48.775;  360.000;  481.000
225.595;   33.800;  264.000;  176.000
225.739;  -28.975; -170.000;  -94.000
225.884;    7.950;   86.000;    5.000
226.028; -100.325; -760.000; -626.000
226.172;  -32.700; -260.000; -273.000
226.316; -128.175; -941.000; -902.000
226.460;  -69.625; -645.000; -493.000
226.604;  -48.750; -406.000; -400.000
226.748;  -94.625; -836.000; -733.000
226.892;  -35.475; -227.000; -181.000
227.036;  -40.550; -537.000; -447.000
227.180;  -60.925; -551.000; -375.000
227.324;  -67.075; -561.000; -580.000
227.468; -108.675; -819.000; -717.000
227.612;    7.200;  242.000;  -28.000
227.756;  -88.500; -845.000; -698.000
227.900;   36.250;  342.000;  441.000
228.044;  -69.125; -509.000; -290.000
228.188;   54.225;  448.000;  568.000
228.332;  -76.125; -546.000; -472.000
228.476;  -26.950; -223.000; -149.000
228.620;  -29.250; -210.000; -150.000
228.764;   86.175;  431.000;  349.000
228.908;  -11.175; -155.000;   30.000
229.052;  -64.050; -615.000; -528.000
229.195;  -15.250; -172.000;   13.000
229.339;  -22.950; -235.000; -305.000
229.483;  -19.450;    5.000; -162.000
229.627;    1.175; -156.000;  139.000
229.771;  -53.625; -218.000; -294.000
229.915;    5.275;  230.000;   79.000
230.059;  -86.125; -648.000; -663.000
230.202;  -29.975; -370.000; -317.000
230.346;  -28.875; -107.000;  107.000
230.490;  -66.475; -489.000; -521.000
230.634;  -96.350; -736.000; -553.000
230.777;   67.650;  478.000;  509.000
230.921;  -60.150; -450.000; -359.000
231.065;  -26.050; -246.000; -286.000
231.209;   23.950;  261.000;  265.000
231.352;   10.000;   54.000;   40.000
231.496;   20.550;  568.000;  188.000
231.640;  -79.450; -693.000; -621.000
231.783;   70.050;  546.000;  525.000
231.927;  -35.225; -294.000; -365.000
232.071; -108.550; -962.000; -736.000
232.214;  -97.475; -980.000; -764.000
232.358; -100.600; -683.000; -599.000
232.502;    4.850;  -19.000;    7.000
232.645; -124.825;-1090.000; -927.000
232.789;   -5.550; -257.000; -218.000
232.933;  -46.150; -407.000; -224.000
233.076; -116.550;-1038.000; -897.000
233.220;  -95.025; -752.000; -777.000
233.363;  -70.975; -669.000; -477.000
233.507;   52.225;  371.000;  129.000
233.650;  -98.425; -764.000; -834.000
233.794;   37.600;  438.000;  461.000
233.938;  -56.250; -530.000; -362.000
234.081;  -27.100;  -93.000;   31.000
234.225;  -61.125; -631.000; -539.000
234.368; -112.125; -773.000; -723.000
234.512;  -44.925; -385.000; -299.000
234.655;  -95.325; -582.000; -555.000
234.798;  -69.375; -493.000; -466.000
234.942; -118.225; -884.000;-1002.000
235.085;  -79.350; -651.000; -443.000
235.229;  -69.725; -405.000; -410.000
235.372;  -47.300; -247.000; -191.000
235.516;  -67.300; -397.000; -321.000
235.659;   14.075;   92.000;  121.000
235.802;  -27.975;  -38.000;  -22.000
235.946;   19.625;  335.000;  215.000
236.089;   45.325;  126.000;  250.000
236.233;   37.950;  275.000;  298.000
236.376;  -52.650; -235.000; -378.000
236.519;  -49.550; -297.000; -319.000
236.663;  -25.350; -215.000; -117.000
236.806; -130.525;-1029.000; -999.000
236.949;   39.250;  543.000;  431.000
237.092;   57.300;  412.000;  391.000
237.236;  -83.850; -589.000; -502.000
237.379;   76.950;  352.000;  428.000
237.522; -111.400; -879.000; -768.000
237.666;  -13.350; -271.000;   18.000
237.809; -117.675; -851.000; -823.000
237.952;   31.025;  469.000;  271.000
238.095;  -58.825; -447.000; -442.000
238.238;   81.650;  688.000;  700.000
238.382;    0.675;  166.000;  103.000
238.525;  -71.500; -598.000; -511.000
238.668; -129.175;-1060.000; -985.000
238.811;  -71.725; -638.000; -643.000
238.954;  -56.550; -483.000; -334.000
239.097;   75.700;  617.000;  664.000
239.241;   25.025;  394.000;  326.000
239.384;  -32.300; -254.000; -214.000
239.527;  -56.500; -424.000; -224.000
239.670; -126.300; -994.000;-1091.000
239.813; -109.575; -696.000; -658.000
239.956;   65.800;  579.000;  473.000
240.099; -103.275; -778.000; -725.000
240.242;   61.125;  428.000;  432.000
240.385;   43.900;  466.000;  450.000
240.528;  -69.775; -706.000; -473.000
240.671;   26.275;  189.000;  134.000
240.814;  -37.575; -441.000; -158.000
240.957;  -86.350; -767.000; -578.000
241.100;  -85.100; -779.000; -755.000
241.243; -129.900;-1234.000; -893.000
241.386;  -67.100; -508.000; -379.000
241.529;  -91.325; -735.000; -547.000
241.672;  -59.350; -566.000; -495.000
241.815; -114.100; -832.000; -808.000
241.958;  -26.875; -125.000; -182.000
242.101;  -76.675; -545.000; -390.000
242.244;  -33.800; -270.000; -325.000
242.387;  -39.975; -304.000; -246.000
242.530;   56.175;  470.000;  134.000
242.673;  -43.725; -381.000; -309.000
242.815; -100.500; -925.000; -899.000
242.958;  -63.750; -482.000; -381.000
243.101;   10.275;  132.000;  187.000
243.244;  -89.950; -564.000; -521.000
243.387;  -37.225; -313.000; -316.000
243.530;  -85.525; -657.000; -674.000
243.672;   -4.125;   43.000;  -92.000
243.815;  -48.025; -355.000; -283.000
243.958;    6.600;   98.000;  -26.000
244.101;  -13.550;   59.000;  -16.000
244.243;  -10.900;  -47.000;  101.000
244.386; -101.350; -761.000; -630.000
244.529;  -21.475; -132.000; -139.000
244.672; -150.100;-1154.000; -951.000
244.814;  -91.425; -621.000; -794.000
244.957;  -46.175; -380.000; -304.000
245.100;  -67.875; -489.000; -489.000
245.242;  -62.900; -387.000; -374.000
245.385;   -9.425;  -59.000;  -39.000
245.528; -119.275; -871.000; -705.000
245.670;   83.825;  612.000;  634.000
245.813;  -83.950; -599.000; -547.000
245.956;  -30.950; -324.000; -275.000
246.098;  -69.300; -508.000; -650.000
246.241;    0.325;  194.000;   48.000
246.383;  -36.575; -119.000;  -73.000
246.526;  -71.400; -454.000; -525.000
246.669; -120.725; -889.000; -780.000
246.811;   16.800;  172.000;   -1.000
246.954;  -68.325; -512.000; -426.000
247.096;  -22.600;  -84.000;   -6.000
247.239;  -78.750; -482.000; -445.000
247.381;  -70.950; -647.000; -488.000
247.524;   68.025;  645.000;  679.000
247.666;  -10.250;   58.000;   11.000
247.809; -111.125; -887.000; -691.000
247.951;  -11.900;  -75.000;  138.000
248.094;   33.075;  432.000;  308.000
248.236; -152.800;-1262.000;-1238.000
248.378;  -10.950; -356.000;  -81.000
248.521;  -22.125; -334.000; -337.000
248.663;  -53.925; -236.000; -267.000
248.806;  -34.750; -300.000; -266.000
248.948; -107.450; -886.000; -763.000
249.090;  -37.400; -428.000; -398.000
249.233;  -61.250; -344.000; -381.000
249.375;  -63.400; -474.000; -451.000
249.518;  -34.200;  -83.000; -133.000
249.660;  -10.625; -103.000;    3.000
249.802; -148.375;-1303.000;-1189.000
249.945;  -72.300; -612.000; -540.000
250.087; -113.200; -834.000; -768.000
250.229;  -48.950; -362.000; -480.000
250.371;  -72.725; -494.000; -439.000
250.514;  -54.600; -310.000; -244.000
250.656;   -1.500;   69.000;  102.000
250.798; -116.075; -849.000; -800.000
250.940;  -65.350; -322.000; -322.000
251.083;  -27.000; -335.000; -111.000
251.225;   50.100;  338.000;  310.000
251.367;  -42.650; -274.000; -373.000
251.509;  -27.575; -265.000; -210.000
251.651;  -84.325; -731.000; -671.000
251.794;   34.850;  538.000;  632.000
251.936;  -97.625; -821.000; -747.000
252.078;  -72.650; -540.000; -461.000
252.220;  -72.600; -645.000; -477.000
252.362;   49.225;  344.000;  462.000
252.504;  -66.275; -677.000; -584.000
252.646; -114.775; -875.000; -722.000
252.788;  -11.250;   14.000; -128.000
252.931;  -38.900; -257.000; -253.000
253.073;  -48.425; -376.000; -317.000
253.215;   -9.700;  141.000;  122.000
253.357;  -13.100;   82.000; -153.000
253.499;  -50.050; -374.000; -234.000
253.641;  -89.625; -749.000; -594.000
253.783;  -78.825; -609.000; -527.000
253.925;  -90.325; -586.000; -591.000
254.067; -116.275; -744.000; -667.000
254.209;  -31.275; -391.000; -259.000
254.351; -133.100; -865.000; -883.000
254.493;  -49.875; -441.000; -417.000
254.635; -128.200; -936.000; -818.000
254.777;  -93.100; -752.000; -687.000
254.918;  -66.675; -512.000; -430.000
255.060;  -67.075; -551.000; -395.000
255.202;  -58.000; -473.000; -261.000
255.344;  -81.525; -658.000; -455.000
255.486;  -65.075; -471.000; -406.000
255.628; -106.800; -780.000; -781.000
255.770;  -95.250; -676.000; -536.000
255.912;  -75.550; -559.000; -468.000
256.053;  -81.150; -730.000; -508.000
256.195;  157.075; 1008.000;  903.000
256.337;  -95.175; -861.000; -595.000
256.479;   59.075;  532.000;  416.000
256.621;  -52.000; -394.000; -212.000
256.762;  -92.600; -789.000; -742.000
256.904;   40.750;  485.000;  487.000
257.046;  -29.150; -381.000; -271.000
257.188;  -42.275; -351.000; -264.000
257.329;  -77.625; -525.000; -464.000
257.471; -110.150; -939.000; -807.000
257.613;  -68.425; -584.000; -498.000
257.755; -140.700;-1073.000; -982.000
257.896;   31.975;  286.000;  392.000
258.038;  -67.675; -403.000; -352.000
258.180;  -27.800; -354.000; -279.000
258.321;  -88.275; -581.000; -457.000
258.463;  -11.425;  -71.000;  133.000
258.605;  -90.025; -562.000; -570.000
258.746;  -94.575; -886.000; -772.000
258.888; -130.000;-1026.000;-1020.000
259.029;   15.900;  121.000;   -8.000
259.171;  -86.975; -614.000; -550.000
259.313;  -18.200;  -49.000;  -47.000
259.454;  -69.600; -536.000; -414.000
259.596;  -54.750; -483.000; -390.000
259.737;  -71.300; -590.000; -474.000
259.879;   27.600;  217.000;  311.000
260.020;   68.000;  901.000;  636.000
260.162;  -37.775; -146.000; -253.000
260.303; -107.950; -768.000; -687.000
260.445;  -81.500; -609.000; -613.000
260.586;   20.875;  392.000;  157.000
260.728;  -33.175; -360.000; -248.000
260.869;  -68.800; -350.000; -343.000
261.011;   74.500;  706.000;  537.000
261.152;  -64.675; -479.000; -319.000
261.293;  -86.925; -576.000; -595.000
261.435;  -36.725; -219.000; -184.000
261.576;  -49.125; -455.000; -325.000
261.718;   51.500;  420.000;  470.000
261.859; -130.375; -940.000; -949.000
262.000; -134.850; -951.000;-1016.000
262.142;  -15.900;  -52.000;  -60.000
262.283; -114.275; -808.000; -691.000
262.424;  -82.025; -666.000; -625.000
262.566; -152.925;-1161.000; -983.000
262.707; -104.400; -840.000; -830.000
262.848; -118.775; -769.000; -726.000
262.990;  -48.125; -362.000; -345.000
263.131;   69.525;  650.000;  681.000
263.272;  -12.150;  -61.000;  -41.000
263.413;  -83.825; -589.000; -561.000
263.555;  -65.875; -669.000; -143.000
263.696;  -76.475; -550.000; -641.000
263.837;  -64.250; -449.000; -551.000
263.978;   -1.225;   -5.000;  -77.000
264.119;  -40.050; -283.000; -264.000
264.261; -110.175; -847.000; -630.000
264.402;  -14.300;   33.000;   40.000
264.543;  -79.250; -509.000; -524.000
264.684;  -14.025;   61.000;  -50.000
264.825;  -66.350; -816.000; -538.000
264.966;   -6.875;  -84.000;  -67.000
265.107; -126.150; -646.000; -670.000
265.248; -103.975; -825.000; -812.000
265.390;  -23.425;  152.000;   -9.000
265.531;  -15.350; -238.000; -107.000
265.672;  -88.600; -557.000; -630.000
265.813;   54.850;  563.000;  439.000
265.954; -139.525; -959.000; -940.000
266.095;   -8.875; -372.000; -322.000
266.236;  -92.750; -686.000; -548.000
266.377;  -40.350; -243.000; -297.000
266.518;  -71.525; -619.000; -547.000
266.659;   36.375;  170.000;  268.000
266.800;   -5.150;   83.000;   85.000
266.941;  -82.750; -487.000; -478.000
267.082;    5.475;  354.000;   99.000
267.223;  -50.650; -344.000; -273.000
267.364; -121.700; -892.000; -686.000
267.504;  -23.200;    3.000;  135.000
267.645;   -6.125;  160.000;   67.000
267.786;  -33.375; -147.000;  -86.000
267.927;  -76.525; -473.000; -379.000
268.068;  -16.850; -186.000;  -61.000
268.209;  -57.900; -175.000; -413.000
268.350;  -51.550; -388.000; -532.000
268.490;  -90.075; -648.000; -521.000
268.631;   20.425;  127.000;  225.000
268.772; -105.350; -874.000; -647.000
268.913;  -41.800; -328.000; -476.000
269.054;  -24.500; -117.000;   12.000
269.194;  -57.900; -418.000; -402.000
269.335; -154.725;-1137.000;-1074.000
269.476;  -17.600;   33.000;  -35.000
269.617;  -57.225; -347.000; -392.000
269.757;  -90.200; -713.000; -646.000
269.898;  -94.925; -856.000; -613.000
270.039;  -65.500; -415.000; -405.000
270.180; -138.925; -952.000; -816.000
270.320;  -25.025; -190.000; -250.000
270.461;  -48.325; -277.000; -249.000
270.602;  -17.000; -186.000; -156.000
270.742; -126.700; -868.000; -943.000
270.883;  -60.250; -442.000; -390.000
271.023;  -55.250; -358.000; -357.000
271.164;  -79.100; -607.000; -528.000
271.305; -103.950; -666.000; -654.000
271.445;  -85.700; -722.000; -683.000
271.586;  -71.400; -462.000; -283.000
271.726;  -47.450; -397.000; -322.000
271.867;  -73.675; -594.000; -534.000
272.008;   62.950; -473.000; -285.000
272.148;   71.650;  462.000;  468.000
272.289;   -6.125; -113.000; -181.000
272.429;   14.250;   19.000;  185.000
272.570;  -87.775; -633.000; -737.000
272.710; -101.600; -825.000; -775.000
272.851;  -12.550;  113.000; -130.000
272.991; -161.700;-1173.000;-1077.000
273.131;  -70.450; -419.000; -459.000
273.272;  -99.700; -683.000; -723.000
273.412;  -17.275; -143.000;  -31.000
273.553;  -65.750; -488.000; -507.000
273.693;  112.600;  913.000;  858.000
273.834; -114.100; -894.000; -692.000
273.974;  -74.850; -664.000; -615.000
274.114;  -98.975; -772.000; -560.000
274.255;   60.525;  414.000;  373.000
274.395;  -15.975; -180.000; -125.000
274.535;   32.625;  199.000;  350.000
274.676;   21.675;  225.000;   94.000
274.816;   -2.575;  110.000;   34.000
274.956; -101.000; -624.000; -690.000
275.097;  -86.125;-1014.000; -922.000
275.237; -119.025; -913.000; -803.000
275.377; -104.775; -778.000; -689.000
275.517; -142.375; -878.000; -937.000
275.658;  -67.000; -590.000; -555.000
275.798;  -89.300; -606.000; -413.000
275.938;   23.725;  215.000;  323.000
276.078;  -76.500; -626.000; -395.000
276.218;    9.375;   99.000;  104.000
276.359; -126.975;-1026.000;-1024.000
276.499;  -70.850; -605.000; -446.000
276.639;  -32.775; -305.000; -151.000
276.779;  -56.025; -475.000; -357.000
276.919;  -98.800; -783.000; -624.000
277.059;  -31.625; -261.000; -212.000
277.199;  -42.050; -357.000; -259.000
277.340;   31.650;  287.000;  175.000
277.480; -109.650; -840.000; -693.000
277.620;   10.575;  192.000;   16.000
277.760; -194.175;-1533.000;-1294.000
277.900;    0.925;  113.000;   33.000
278.040;    1.000;  137.000;  159.000
278.180;   19.225;  270.000;  170.000
278.320;  -15.975;   21.000;   56.000
278.460;  -61.100; -443.000; -469.000
278.600;  -96.225; -708.000; -598.000
278.740;   47.100;  448.000;  224.000
278.880; -108.050; -768.000; -791.000
279.020;  -27.075; -194.000; -144.000
279.160; -101.375; -672.000; -595.000
279.300; -113.900; -926.000; -873.000
279.440;  -95.975; -709.000; -622.000
279.579;  -72.275;-1014.000; -929.000
279.719;  -69.825; -410.000; -394.000
279.859;   41.025;   -4.000;   41.000
279.999;  -16.325; -208.000;  101.000
280.139;  -31.325; -435.000; -387.000
280.279;  -82.400; -708.000; -745.000
280.419;  -19.725; -229.000; -147.000
280.559;  -40.250; -259.000; -180.000
280.698;  -89.700; -790.000; -639.000
280.838;  -99.900; -778.000; -800.000
280.978; -103.600; -846.000; -790.000
281.118; -108.650; -811.000; -704.000
281.257;    1.225;   24.000;    6.000
281.397; -140.125;-1094.000; -960.000
281.537;  -89.825; -599.000; -712.000
281.677;  -28.525; -150.000; -101.000
281.816;  -89.350; -700.000; -630.000
281.956;  -39.725; -193.000; -257.000
282.096;  -55.675; -539.000; -396.000
282.235; -110.000; -672.000; -638.000
282.375;  -24.975; -243.000;  -98.000
282.515;  -99.775; -715.000; -707.000
282.654;    7.625;   29.000;  106.000
282.794;   31.300;  388.000;  244.000
282.934;  -52.725; -530.000; -491.000
283.073; -130.775;-1030.000; -857.000
283.213;  -54.825; -460.000; -467.000
283.353;  -41.050; -408.000; -349.000
283.492;  -34.725; -264.000; -296.000
283.632;  -61.750; -254.000; -168.000
283.771;  -96.275; -859.000; -730.000
283.911;  -61.500; -369.000; -260.000
284.050; -113.875; -794.000; -748.000
284.190; -152.725;-1229.000;-1096.000
284.329; -134.450;-1055.000; -964.000
284.469;  -84.900; -516.000; -591.000
284.608;  -67.500; -559.000; -598.000
284.748;  -84.475; -614.000; -570.000
284.887;   -5.450;  -87.000;  -20.000
285.027; -116.025; -844.000; -892.000
285.166;  -33.225; -192.000; -249.000
285.306;  -17.775; -116.000;  -33.000
285.445;  -34.475; -229.000; -343.000
285.584;  -99.275; -630.000; -494.000
285.724;  -36.550; -282.000; -322.000
285.863; -104.300; -857.000; -507.000
286.002;  -57.625; -366.000; -276.000
286.142;  -95.075; -715.000; -622.000
286.281;  -71.350; -525.000; -493.000
286.420;  -83.600; -554.000; -417.000
286.560;   75.325;  653.000;  623.000
286.699; -136.400; -958.000; -912.000
286.838;  -77.450; -590.000; -591.000
286.978;  -90.900; -533.000; -537.000
287.117; -135.450;-1085.000; -950.000
287.256;  -46.525; -228.000; -211.000
287.395;  -55.925; -197.000; -378.000
287.535;  -52.000; -370.000; -298.000
287.674;  -82.000; -509.000; -484.000
287.813;   52.450;  661.000;  533.000
287.952; -131.075;-1010.000; -871.000
288.091; -151.450;-1049.000; -915.000
288.231;   13.325;   13.000;   15.000
288.370; -169.350;-1217.000;-1200.000
288.509;  -82.875; -728.000; -645.000
288.648;  -81.375; -770.000; -548.000
288.787;  -48.200; -243.000;  -87.000
288.926;  -65.300; -454.000; -475.000
289.065;  116.825;  859.000;  672.000
289.204;  -43.200; -377.000; -217.000
289.344; -105.775; -791.000; -690.000
289.483;    0.900;  416.000;  304.000
289.622;  -39.025; -291.000; -149.000
289.761;  -23.025; -309.000; -166.000
289.900; -110.975; -785.000; -626.000
290.039;  -19.900;  -12.000;  -95.000
290.178;  -37.625; -274.000; -180.000
290.317;  -82.700; -618.000; -479.000
290.456;  -63.550; -463.000; -451.000
290.595; -121.625; -961.000; -833.000
290.734; -117.850; -904.000; -891.000
290.873;  -74.500; -456.000; -420.000
291.011; -104.950; -833.000; -843.000
291.150; -115.975; -770.000; -682.000
291.289;  -27.000; -343.000; -110.000
291.428;  -93.800; -599.000; -480.000
291.567;  -56.400; -370.000; -442.000
291.706;  -11.725;  109.000;  154.000
291.845;  -78.375; -597.000; -505.000
291.984; -159.450;-1234.000;-1061.000
292.122;   50.925;  602.000;  582.000
292.261;   40.775;  620.000;  463.000
292.400;    5.800; -144.000;  211.000
292.539; -138.600; -959.000; -813.000
292.678;  -34.600; -325.000; -300.000
292.816; -162.525;-1136.000; -965.000
292.955; -103.400; -844.000; -684.000
293.094;  -37.600; -173.000; -337.000
293.233;  -61.775; -556.000; -400.000
293.371;  -41.550; -225.000;  -84.000
293.510; -114.525; -866.000; -780.000
293.649; -133.075; -959.000; -924.000
293.787; -112.175;-1083.000;-1012.000
293.926;  -27.375; -113.000;  -32.000
294.065;  -58.450; -379.000; -290.000
294.203;   20.350;  298.000;  406.000
294.342;   26.875;   74.000;  156.000
294.481; 5930.325;51180.000; -836.000
294.619;  -37.650; -425.000; -582.000
294.758; -146.050;-1230.000;-1137.000
294.896;   17.550; -125.000;    5.000
295.035; -145.525;-1040.000;-1006.000
295.174; -123.475;-1082.000; -954.000
295.312;  -53.025; -323.000; -203.000
295.451;  -36.525; -307.000; -428.000
295.589;  -60.950; -389.000; -518.000
295.728;    6.000; -292.000; -165.000
295.866;  -18.550;  -36.000;  -51.000
296.005;  -72.225; -584.000; -341.000
296.143;  -81.725; -558.000; -596.000
296.282;  -97.175; -957.000; -881.000
296.420;  -95.975; -657.000; -557.000
296.559;  -78.950; -892.000; -633.000
296.697;  -61.225; -847.000; -665.000
296.835;  -88.600;-1141.000;-1002.000
296.974;    7.325;  -23.000;   39.000
297.112;  -41.250; -443.000; -504.000
297.251;  -91.600; -815.000; -755.000
297.389;  -19.825; -576.000; -438.000
297.527;   -1.500; -145.000;  -83.000
297.666;  -48.375; -486.000; -438.000
297.804;  -64.500; -404.000; -264.000
297.942;    4.150; -136.000; -161.000
298.081;   -0.850; -183.000;   63.000
298.219;   14.750;  -17.000;  -19.000
298.357;   -3.650; -144.000;  -71.000
298.495;  -55.675; -810.000; -812.000
298.634;   11.800;  245.000;  219.000
298.772;  -27.050; -220.000; -338.000
298.910;  -53.250; -309.000; -182.000
299.048;  -11.400; -130.000; -153.000
299.187;  -51.000; -350.000; -250.000
299.325;    1.950;   52.000;  122.000
299.463;  -18.675; -389.000; -299.000
299.601;   11.450; -327.000; -271.000
299.739; -118.325; -908.000; -883.000
299.877;  -84.050; -791.000; -703.000
300.016;  -92.600;-1095.000; -935.000
300.154;   45.550;  -19.000; -161.000
300.292;  -39.025; -428.000; -348.000
300.430;  -19.725; -408.000; -291.000
300.568; -122.225; -940.000; -874.000
300.706;  -65.050; -366.000; -469.000
300.844; -128.550;-1108.000; -979.000
300.982;   53.625;  246.000;  282.000
301.120; -131.550; -965.000; -866.000
301.258;  -93.025; -812.000; -705.000
301.396;   -9.275;  104.000;  -41.000
301.534;  -11.250; -218.000; -293.000
301.672;  -73.575; -664.000; -521.000
301.810;  -46.225; -613.000; -545.000
301.948;   20.250;   53.000;  149.000
302.086;  227.075; -250.000;  -32.000
302.224;  265.225; -610.000; -585.000
302.362;  -47.175; -558.000; -622.000
302.500; -101.400; -923.000; -893.000
302.638;   35.475;  128.000;  245.000
302.776;  -17.500; -352.000; -408.000
302.913;   41.750;  447.000;  236.000
303.051;  -32.375;  -86.000;  -23.000
303.189;    6.450;   90.000;  118.000
303.327;  -59.450; -341.000; -256.000
303.465;  -82.500; -832.000; -588.000
303.603;  -95.150; -805.000; -604.000
303.740;   54.450;  417.000;  241.000
303.878;  -68.700; -800.000; -759.000
304.016;  -94.575; -915.000; -790.000
304.154; -161.025;-1123.000;-1152.000
304.291;  -52.000; -505.000; -554.000
304.429;    2.825;  102.000;   74.000
304.567; -120.325; -908.000; -893.000
304.705;  -55.175; -408.000; -515.000
304.842;  -32.575; -616.000; -540.000
304.980;   17.725;  215.000;   35.000
305.118;   -9.075; -367.000; -365.000
305.255; -115.025; -945.000; -927.000
305.393;   35.250;  178.000;  239.000
305.531; -128.250;-1173.000; -956.000
305.668;  -80.975; -663.000; -582.000
305.806;   15.950; -358.000; -439.000
305.943;   -5.225; -629.000; -637.000
306.081;  -19.875; -378.000; -267.000
306.219;  -99.075; -863.000; -748.000
306.356;   11.675;  158.000;   27.000
306.494;  104.750;  981.000;  761.000
306.631;    2.125;  -11.000;  -55.000
306.769;  -32.875; -613.000; -485.000
306.906;  -36.425; -284.000; -258.000
307.044;  -59.300; -473.000; -488.000
307.181;  -59.050; -410.000; -332.000
307.319;    1.675;  112.000;   87.000
307.456; -165.475;-1191.000;-1153.000
307.594; -111.225; -980.000; -727.000
307.731;  -27.300; -371.000; -164.000
307.868;   -4.025;  -15.000;   20.000
308.006; -140.325; -961.000; -847.000
308.143;  -71.925; -618.000; -330.000
308.281;   40.325;  -37.000; -254.000
308.418;  -60.750; -748.000; -640.000
308.555;  -57.300; -400.000; -250.000
308.693;  -64.425; -577.000; -573.000
308.830;  -83.025; -712.000; -657.000
308.967;  -26.550; -215.000;  -95.000
309.105;  -45.475; -507.000; -396.000
309.242;   -0.300; -468.000; -367.000
309.379;   63.575; -577.000; -655.000
309.517;  -96.350; -936.000; -948.000
309.654;  -89.825; -910.000; -734.000
309.791;  -79.125; -662.000; -580.000
309.928; -104.900; -977.000; -914.000
310.065;  131.050;  819.000;  697.000
310.203;  -75.850; -825.000; -850.000
310.340;  -34.375; -465.000; -321.000
310.477;  -64.150; -412.000; -516.000
310.614;  -54.350; -383.000; -473.000
310.751;  -66.350; -427.000; -518.000
310.889;  -25.275;    1.000;   11.000
311.026; -134.225;-1161.000; -939.000
311.163;  -51.150; -386.000; -380.000
311.300;  -62.025; -512.000; -479.000
311.437;  -66.800; -658.000; -619.000
311.574; -149.600;-1226.000; -985.000
311.711;  -53.775; -595.000; -433.000
311.848;  -35.950; -380.000; -388.000
311.985;   11.425;  270.000;   93.000
312.122; -115.575; -932.000; -762.000
312.259; -116.250; -941.000; -994.000
312.396;  -75.500; -508.000; -551.000
312.533;  -77.550; -812.000; -790.000
312.670; -134.600;-1070.000; -898.000
312.807;  -42.175; -352.000; -367.000
312.944;  -62.825; -513.000; -611.000
313.081;  -27.350; -150.000; -415.000
313.218;  -89.850;-1111.000; -867.000
313.355;   -4.000; -531.000; -449.000
313.492;   -2.525; -455.000; -292.000
313.629;  126.475;  815.000;  735.000
313.766; -150.100;-1176.000;-1008.000
313.902;   -7.550; -186.000;   21.000
314.039;  -31.850; -372.000; -289.000
314.176;   26.175;  286.000;  192.000
314.313;  -72.825; -569.000; -473.000
314.450;  -83.800; -788.000; -684.000
314.587;  -68.275; -468.000; -480.000
314.723;    5.375;  -78.000;  130.000
314.860;   40.275;  318.000;  332.000
314.997;   46.350;  223.000;  142.000
315.134;  -31.125; -385.000; -368.000
315.270;  -19.325; -480.000; -496.000
315.407; -109.850;-1094.000; -967.000
315.544;  -42.000; -657.000; -538.000
315.681;  -65.475; -681.000; -565.000
315.817;   39.650; -133.000; -176.000
315.954;   51.100; -613.000; -392.000
316.091; -105.075;-1045.000;-1023.000
316.227;  -30.750;  -71.000; -179.000
316.364;    5.100;   23.000;    6.000
316.500;  -47.450; -113.000; -300.000
316.637;  -47.800; -181.000; -302.000
316.774;  -73.775; -625.000; -358.000
316.910;  -97.600; -598.000; -629.000
317.047;  -80.450; -487.000; -351.000
317.183;  -59.550; -435.000; -566.000
317.320;   30.100; -367.000; -321.000
317.456;  -42.375; -733.000; -805.000
317.593; -104.425; -598.000; -641.000
317.729;   -3.575;  168.000;  -67.000
317.866; -186.250;-1434.000;-1285.000
318.002;  -84.950; -708.000; -948.000
318.139; -115.525; -883.000; -867.000
318.275; -111.675;-1003.000; -738.000
318.412;  -63.725; -517.000; -336.000
318.548;  -66.900; -751.000; -720.000
318.685;  -96.375; -985.000; -888.000
318.821;  -87.475; -762.000; -735.000
318.957;  -31.325;   34.000;  -23.000
319.094;   28.375;  297.000;  154.000
319.230;  -88.775; -756.000; -742.000
319.367;   -4.325; -471.000; -520.000
319.503;  -19.900; -538.000; -436.000
319.639;  -90.675; -877.000; -793.000
319.775;  -90.950; -750.000; -685.000
319.912;  -51.075; -424.000; -519.000
320.048; -101.425;-1184.000;-1184.000
320.184;   81.300;   59.000;   70.000
320.321;  -65.075; -497.000; -467.000
320.457;   78.900;  475.000;  662.000
320.593;  -66.650; -375.000; -382.000
320.729;  -95.800; -732.000; -734.000
320.866;  -69.900; -577.000; -635.000
321.002;  -94.550; -759.000; -809.000
321.138;  -37.175; -135.000; -211.000
321.274;   24.450; -148.000; -115.000
321.410;  -64.300; -585.000; -353.000
321.546; -104.650;-1011.000; -911.000
321.683;   38.925;  400.000;  185.000
321.819;  -13.425;  -48.000; -117.000
321.955; -110.850; -743.000; -722.000
322.091;  -67.075; -585.000; -540.000
322.227;  -37.125; -382.000; -202.000
322.363;  -53.025; -320.000; -215.000
322.499;  -47.500; -343.000; -331.000
322.635;  101.175;  636.000;  443.000
322.771;  -17.500; -139.000;   12.000
322.907;   50.350;  129.000;  327.000
323.043;  -50.475; -115.000; -206.000
323.179;  -45.525; -394.000; -363.000
323.315;  -48.075; -401.000; -371.000
323.451;   12.350; -328.000; -236.000
323.587;   53.325;  -60.000;  -77.000
323.723;  -57.800; -682.000; -601.000
323.859;  -32.175; -258.000;  -76.000
323.995;  -49.375; -467.000; -409.000
324.131; -132.850; -967.000; -892.000
324.267;  -53.125; -254.000; -276.000
324.402; -130.325; -960.000; -983.000
324.538;  -33.050; -279.000; -104.000
324.674;   -1.450;  164.000;   77.000
324.810;   53.500;  226.000;  308.000
324.946;  -52.325; -810.000; -658.000
325.082;  -64.775; -568.000; -475.000
325.217;  -15.025;  -62.000;   16.000
325.353;  -89.100; -764.000; -659.000
325.489;  -90.300; -540.000; -506.000
325.625;  -82.475; -579.000; -525.000
325.760;   78.200;  517.000;  376.000
325.896;   15.025; -515.000; -702.000
326.032;  -68.825; -403.000; -352.000
326.168;  -67.550; -462.000; -369.000
326.303;  -65.800; -352.000; -461.000
326.439;  -15.850; -336.000; -276.000
326.575;   -7.575; -190.000;  -29.000
326.710;  -17.450; -156.000;  -30.000
326.846;  -24.150;  146.000;  103.000
326.982;  -96.025; -530.000; -548.000
327.117;  -63.175; -481.000; -442.000
327.253;  -66.075; -745.000; -742.000
327.388; -131.875;-1137.000;-1153.000
327.524;  -88.575; -811.000; -578.000
327.659;  -27.250;  -58.000;  -22.000
327.795;  -17.150;   69.000;   45.000
327.931;  -69.150; -723.000; -499.000
328.066;  -26.350; -417.000; -276.000
328.202;  -26.500;   12.000; -129.000
328.337;   77.600;  957.000;  713.000
328.473;   24.100;  -12.000;  -74.000
328.608;  -21.575; -256.000; -267.000
328.743;  -98.025; -799.000; -664.000
328.879;    1.950;  214.000;  114.000
329.014;  -36.775; -102.000; -122.000
329.150;  -81.975; -358.000; -483.000
329.285;  -71.600; -465.000; -466.000
329.421;  -57.700; -548.000; -246.000
329.556;  -36.500;  -36.000;   85.000
329.691;  -95.475; -633.000; -615.000
329.827;  -84.725; -626.000; -480.000
329.962;  -52.175;  131.000; -301.000
330.097;  -84.350; -673.000; -585.000
330.233;  -52.250; -410.000; -223.000
330.368; -127.625; -839.000; -628.000
330.503;  -13.275;    3.000;   98.000
330.638;  -16.750;  -93.000; -125.000
330.774;  -75.250; -609.000; -530.000
330.909;  -44.900; -434.000; -244.000
331.044;  -93.475; -714.000; -708.000
331.179; -181.375;-1217.000;-1109.000
331.315;    7.325;   77.000;   20.000
331.450;    6.275;  157.000;  285.000
331.585;  -97.900; -805.000; -706.000
331.720;  -81.450; -510.000; -460.000
331.855;   -5.075;  -35.000; -102.000
331.990;  411.275;   62.000;  138.000
332.126;  201.875; -110.000;   71.000
332.261;   -4.475; -379.000; -265.000
332.396;   -0.550; -135.000; -242.000
332.531;  -63.050;-1074.000;-1031.000
332.666;   86.450; -519.000; -363.000
332.801; -104.100; -726.000; -807.000
332.936;  -33.100; -192.000; -122.000
333.071; -125.850; -870.000; -817.000
333.206;   26.100;  307.000;  379.000
333.341;   15.925;  344.000;  418.000
333.476;  -83.000; -627.000; -623.000
333.611;  -38.925; -251.000; -173.000
333.746;  -46.350; -381.000; -464.000
333.881; -121.800; -973.000; -935.000
334.016; -127.050; -936.000; -917.000
334.151; -118.550; -746.000; -702.000
334.286;   -5.000;  152.000;  186.000
334.421;  -21.075; -125.000; -178.000
334.556;  -75.050; -611.000; -567.000
334.690;  -83.150; -631.000; -577.000
334.825;   51.125;  381.000;   83.000
334.960;  -63.750; -285.000; -413.000
335.095;   15.450;  135.000;  -91.000
335.230;  -87.825; -722.000; -738.000
335.365; -128.650;-1084.000; -990.000
335.499; -133.050;-1108.000;-1037.000
335.634;   22.700;    9.000;  534.000
335.769;  -94.625; -755.000; -720.000
335.904;  -43.175; -603.000; -561.000
336.038;  -29.625; -735.000; -657.000
336.173;  -98.325;-1206.000;-1194.000
336.308;   19.150; -116.000; -189.000
336.443;   87.975; -544.000; -634.000
336.577;  -25.950; -936.000; -787.000
336.712;   88.150;   -4.000;  -12.000
336.847;  -16.425; -724.000; -607.000
336.981;   83.250; -272.000; -208.000
337.116;  328.625;  615.000;  501.000
337.250;  162.725; -434.000; -421.000
337.385;  459.800; -297.000; -208.000
337.520;  211.175; -632.000; -603.000
337.654;  -28.925; -215.000; -126.000
337.789; -134.125; -989.000; -933.000
337.923;  -48.425; -104.000; -205.000
338.058; -100.925; -673.000; -738.000
338.192;  -63.575; -611.000; -488.000
338.327;   -9.075;  -18.000; -155.000
338.461;  -75.875; -299.000; -469.000
338.596;  -86.150; -780.000; -638.000
338.730;  -86.250; -767.000; -803.000
338.865;  163.550;  -46.000; -140.000
338.999;    0.000; -846.000; -702.000
339.134;   -5.975; -634.000; -536.000
339.268;   35.400; -741.000; -603.000
339.403;  568.475; -740.000; -775.000
339.537;  256.300; -894.000; -820.000
339.671; -100.775; -829.000; -813.000
339.806;  -26.675; -556.000; -512.000
339.940;   37.875; -261.000; -235.000
340.074; -104.100; -685.000; -510.000
340.209;  -47.525; -351.000; -230.000
340.343;  -98.325; -517.000; -573.000
340.477;  141.925;  998.000; 1036.000
340.612;   -3.325;-1033.000; -900.000
340.746;  230.400; -199.000; -243.000
340.880; -110.125; -924.000; -785.000
341.014;  -35.275;  -45.000; -154.000
341.149; -117.675; -756.000; -718.000
341.283; -119.625; -839.000; -754.000
341.417; -140.125;-1124.000; -938.000
341.551;  -39.000; -768.000; -708.000
341.685;  -68.200; -633.000; -611.000
341.820;  -54.250; -562.000; -493.000
341.954;  -60.775; -218.000; -349.000
342.088; -151.550;-1102.000;-1019.000
342.222;   38.975;  565.000;  618.000
342.356;  -88.250; -395.000; -335.000
342.490; -120.350; -880.000; -841.000
342.624;  -56.400; -339.000; -242.000
342.758;  -58.225; -364.000; -312.000
342.892;  -83.300; -710.000; -585.000
343.026;  -47.650;  -58.000; -116.000
343.160;  -55.675; -426.000; -376.000
343.294;  -81.525; -474.000; -337.000
343.428;  -65.200; -488.000; -448.000
343.562;  -30.825; -172.000;  -23.000
343.696;  -37.800; -385.000; -314.000
343.830;  -64.825; -362.000; -356.000
343.964;   -9.275; -231.000; -168.000
344.098;  327.450;  199.000;   70.000
344.232;  276.425; -266.000; -127.000
344.366;   68.175; -567.000; -453.000
344.500;  -37.750; -665.000; -744.000
344.634;  -34.250; -324.000; -164.000
344.768;  -64.150; -531.000; -341.000
344.902;   -7.400;  278.000;  256.000
345.035;  -75.425; -556.000; -496.000
345.169; -139.400; -933.000; -656.000
345.303;  -44.900; -308.000; -482.000
345.437;  -93.275; -826.000; -717.000
345.571;  -66.350; -675.000; -594.000
345.704;  -61.000; -309.000; -532.000
345.838;  -18.125; -331.000; -284.000
345.972;  -64.425; -543.000; -495.000
346.106;  252.325; -179.000; -190.000
346.239;  483.750; -312.000; -243.000
346.373;   -0.775; -343.000; -302.000
346.507; -127.975; -950.000; -962.000
346.640;   34.150;  -30.000;   13.000
346.774;  -80.950; -650.000; -797.000
346.908;  -34.625; -138.000;  -11.000
347.041;  -99.775; -646.000; -593.000
347.175;   -1.625;  259.000;   27.000
347.309; -102.425; -698.000; -628.000
347.442; -108.475; -883.000; -732.000
347.576;  138.800;  670.000;  668.000
347.709;   42.850; -123.000;  -52.000
347.843; -128.525; -933.000; -825.000
347.976;   19.600;  235.000;  294.000
348.110; -177.725;-1268.000;-1186.000
348.243; -106.375; -679.000; -772.000
348.377;  -10.775;  -26.000;   60.000
348.510;   40.325;  403.000;  540.000
348.644;  -52.875;  -37.000; -159.000
348.777;    0.325;  180.000;  191.000
348.911;  -44.250; -142.000; -112.000
349.044;   87.200;  471.000;  448.000
349.178;  -18.450;-1069.000;-1006.000
349.311;  118.375;  141.000;  255.000
349.444;   36.375; -927.000; -813.000
349.578;  -31.075; -347.000; -200.000
349.711; -124.400; -959.000; -862.000
349.845;  -51.925; -661.000; -591.000
349.978; -156.800;-1224.000;-1137.000
350.111;  -83.150; -546.000; -612.000
350.244; -108.725; -596.000; -700.000
350.378;  -45.575; -392.000; -393.000
350.511;  -80.500; -393.000; -426.000
350.644;  -98.200; -808.000; -806.000
350.778;    9.525;  168.000;  104.000
350.911;   -6.275;  134.000;  140.000
351.044; -107.100; -685.000; -615.000
351.177;  -49.375; -321.000; -281.000
351.310;  -24.450;    3.000; -131.000
351.444; -103.475; -888.000; -788.000
351.577;   30.175;  140.000;   90.000
351.710;   71.375;  593.000;  417.000
351.843;  -37.150; -165.000;  -77.000
351.976;  -10.450;  149.000;  -79.000
352.109;  -95.950; -621.000; -612.000
352.242;  -63.050; -464.000; -419.000
352.376;  -78.050; -580.000; -636.000
352.509;   29.250; -437.000; -356.000
352.642;  -79.700; -654.000; -604.000
352.775;   -0.225; -141.000;  -98.000
352.908; -131.850; -933.000; -904.000
353.041; -108.425; -814.000; -824.000
353.174;  -64.475; -551.000; -424.000
353.307;  -81.000; -753.000; -764.000
353.440;   57.075;  541.000;  453.000
353.573;  -98.100; -957.000;-1008.000
353.706;  -42.125; -384.000; -558.000
353.839;  -22.550; -264.000; -220.000
353.971;  -85.125; -657.000; -512.000
354.104; -102.225; -896.000; -835.000
354.237;  -70.050; -627.000; -662.000
354.370;  -93.200; -846.000; -879.000
354.503; -177.725;-1231.000;-1308.000
354.636;  -27.750; -529.000; -348.000
354.769; -134.350; -937.000; -860.000
354.902;  -31.400; -230.000; -139.000
355.034;  -10.500; -164.000; -220.000
355.167;  -10.925; -262.000; -162.000
355.300;  -60.375;-1061.000; -880.000
355.433; 1459.275;  -71.000;  -14.000
355.565; 2284.475; -402.000; -384.000
355.698;  596.350; -356.000; -296.000
355.831;    2.875; -882.000; -801.000
355.964;   39.850; -285.000; -170.000
356.096;  -76.875; -856.000; -843.000
356.229;   10.275; -523.000; -530.000
356.362;  520.975; -373.000; -266.000
356.494;  936.800; -229.000; -162.000
356.627;  345.200;  269.000;  377.000
356.760;  893.400;  120.000;   53.000
356.892; 1501.550; -286.000; -601.000
357.025;  368.875;  403.000;  389.000
357.157;  262.775; -167.000; -179.000
357.290; 1175.450; -856.000; -713.000
357.423;  357.475; -667.000; -556.000
357.555;  113.075; -217.000; -228.000
357.688;  156.675; -483.000; -364.000
357.820;  201.550; -870.000; -877.000
357.953; 1726.625; -563.000; -589.000
358.085;  287.400; -632.000; -612.000
358.218;  166.500;-1131.000; -932.000
358.350;   51.650;  -58.000;  312.000
358.483; -173.675;-1300.000;-1187.000
358.615; -110.000;-1182.000;-1078.000
358.747; -140.825;-1187.000;-1058.000
358.880;  -46.200; -810.000; -744.000
359.012;  -43.600; -376.000; -202.000
359.145;  -52.775; -480.000; -511.000
359.277;  -57.850; -962.000; -913.000
359.409; 1446.700;  536.000;  231.000
359.542;  324.550; -738.000; -688.000
359.674;   28.750;   46.000;   13.000
359.806;  -82.975; -565.000; -438.000
359.939;  -42.850; -617.000; -516.000
360.071;   29.200; -583.000; -579.000
360.203;  -23.075; -411.000; -364.000
360.335;   11.275;  164.000;  -16.000
360.468;  108.025; -249.000; -307.000
360.600; 1450.900; -547.000; -454.000
360.732; 4169.750; -546.000; -423.000
360.864;  636.825;-1216.000;-1044.000
360.996;   88.750; -516.000; -554.000
361.129;  -50.725; -389.000; -598.000
361.261;   -0.850;  110.000; -113.000
361.393;  -50.850; -252.000; -214.000
361.525;    2.475;   94.000;  244.000
361.657; -104.400; -821.000; -703.000
361.789;  -23.400; -139.000; -155.000
361.921;  -36.525; -642.000; -593.000
362.053;  105.175;  524.000;  541.000
362.185;    4.825;  288.000;   72.000
362.318; -115.475; -709.000; -705.000
362.450;   42.400;  294.000;  444.000
362.582;  -58.225; -913.000; -870.000
362.714;  -67.100; -353.000; -332.000
362.846;  -93.925; -606.000; -490.000
362.978; -130.825; -941.000; -811.000
363.109;    0.375; -161.000; -260.000
363.241;  156.950; -739.000; -749.000
363.373;  624.600; -649.000; -564.000
363.505; 1041.400; -186.000;  -91.000
363.637;  241.700; -787.000; -601.000
363.769; -139.125;-1067.000;-1080.000
363.901;  -88.275; -596.000; -654.000
364.033; -146.150;-1103.000;-1062.000
364.165;  -22.500; -283.000; -283.000
364.296;  101.325; -316.000; -177.000
364.428;  201.175;-1344.000;-1220.000
364.560;  -55.525; -679.000; -661.000
364.692;  -70.125; -738.000; -835.000
364.824;   -1.125; -588.000; -456.000
364.955;  502.050; -402.000; -564.000
365.087; 1672.300;-1097.000; -852.000
365.219;  101.825; -686.000; -816.000
365.351;  -80.950; -526.000; -572.000
365.482;   37.675;  300.000;  240.000
365.614;  -64.000; -402.000; -314.000
365.746;  -99.650; -729.000; -752.000
365.877;  -92.075; -706.000; -672.000
366.009;  412.750;  -35.000;  -62.000
366.141;  -39.300;-1249.000;-1134.000
366.272;  -94.950; -803.000; -719.000
366.404; -120.750;-1005.000; -874.000
366.535;   -9.375; -139.000;  -12.000
366.667; -108.350; -644.000; -649.000
366.799;   19.600;  353.000;  203.000
366.930; -123.725; -862.000; -996.000
367.062;  178.850; -639.000; -613.000
367.193;  346.725; -872.000; -842.000
367.325;  -57.500; -580.000; -684.000
367.456;   10.150; -246.000;   31.000
367.588;  264.075; -371.000; -318.000
367.719;   37.625;  -44.000;  -45.000
367.851;  -44.000; -222.000; -241.000
367.982; -119.500; -875.000; -732.000
368.113;  -18.175; -475.000; -358.000
368.245; -137.725; -960.000; -841.000
368.376;  -49.600; -254.000; -302.000
368.508;  -48.250; -188.000; -263.000
368.639; -155.275;-1166.000;-1034.000
368.770;  -94.175; -670.000; -589.000
368.902; -117.225; -836.000; -926.000
369.033; -124.375; -906.000; -855.000
369.164;  -44.000; -720.000; -653.000
369.296; -101.725; -452.000; -601.000
369.427;  -30.050; -209.000; -144.000
369.558;  -92.425; -593.000; -377.000
369.689;  -83.575; -721.000; -569.000
369.821; -133.425; -951.000; -845.000
369.952;  -33.225;   42.000; -108.000
370.083;  -50.950; -229.000; -108.000
370.214;  -95.400; -735.000; -650.000
370.345;  -23.475;   65.000;   81.000
370.477; -113.625; -810.000; -790.000
370.608;   44.400; -328.000; -264.000
370.739; -139.025;-1233.000;-1292.000
370.870; -113.100;-1102.000; -923.000
371.001;  -18.375; -378.000; -467.000
371.132;  -92.700; -754.000; -735.000
371.263;  -30.825;  -42.000; -148.000
371.394; -151.350; -841.000; -748.000
371.525;   15.825;  345.000;  225.000
371.657; -113.250; -808.000; -670.000
371.788;   24.400;  103.000;  199.000
371.919;   36.075; -384.000; -304.000
372.050; 1451.500;  -91.000; -156.000
372.181;  442.425; -188.000; -294.000
372.311;  116.250;   42.000; -127.000
372.442;  -41.350; -457.000; -451.000
372.573;  -57.075; -444.000; -340.000
372.704; -155.100;-1008.000; -980.000
372.835;  -10.975; -228.000; -289.000
372.966;  -81.350; -646.000; -554.000
373.097; -105.700; -575.000; -711.000
373.228; -104.575; -717.000; -542.000
373.359;  -38.700; -824.000; -536.000
373.490;  216.125; -881.000; -727.000
373.620;  315.275;-1001.000; -803.000
373.751;  638.550; -332.000; -396.000
373.882;  260.100; -663.000; -733.000
374.013;  -29.550; -449.000; -262.000
374.143;  -69.850; -581.000; -659.000
374.274; -129.600; -987.000; -908.000
374.405;   58.000; -388.000; -276.000
374.536;  138.300; -526.000; -387.000
374.666;  338.075; -759.000; -807.000
374.797;   15.475; -817.000; -868.000
374.928;  215.125; -710.000; -560.000
375.058;  234.150; -535.000; -500.000
375.189;   13.000;  -59.000;  -93.000
375.320; -130.225; -928.000;-1034.000
375.450;  -47.575; -625.000; -616.000
375.581;  -55.275; -526.000; -436.000
375.712;  -60.850; -574.000; -250.000
375.842;   23.450; -438.000; -415.000
375.973;    2.025; -554.000; -513.000
376.103; -103.275; -665.000; -648.000
376.234; -101.325; -531.000; -552.000
376.364; -119.950; -944.000; -867.000
376.495;  151.075;  925.000;  529.000
376.625;  -67.825; -472.000; -485.000
376.756;  -50.600; -709.000; -678.000
376.886; -123.500;-1178.000;-1026.000
377.017;  156.525;-1048.000;-1061.000
377.147;  651.475; -786.000; -782.000
377.278;   88.725;  174.000;  228.000
377.408; -135.275; -801.000; -815.000
377.538; -100.100; -707.000; -693.000
377.669;  -80.650; -537.000; -613.000
377.799; -104.700; -645.000; -635.000
377.929;  -84.000; -610.000; -428.000
378.060; -131.250; -781.000; -847.000
378.190;  -41.175; -726.000; -531.000
378.320;  -55.600; -401.000; -406.000
378.451;  -34.200; -131.000;  -22.000
378.581;  -25.600;  -67.000; -110.000
378.711;   95.050; 1035.000;  866.000
378.841;  -74.925; -533.000; -675.000
378.972; -116.300; -871.000; -751.000
379.102;  -57.750; -652.000; -579.000
379.232;  -44.450; -126.000;  -73.000
379.362; -121.125;-1001.000; -885.000
379.492;  -62.325; -373.000; -424.000
379.623;   47.125;    0.000;  111.000
379.753; -122.250;-1107.000; -974.000
379.883;   87.075;   59.000;  156.000
380.013;  -89.800;-1081.000;-1017.000
380.143; -113.350;-1097.000;-1056.000
380.273; -107.475; -985.000; -861.000
380.403;    1.550; -344.000; -257.000
380.533;  -40.500; -651.000; -664.000
380.663;   19.650;  173.000;  128.000
380.793; -151.375;-1027.000;-1074.000
380.923;  -47.225; -103.000;  -34.000
381.053; -109.400; -613.000; -623.000
381.183;  -59.575; -106.000; -248.000
381.313;  -65.875; -656.000; -470.000
381.443;  -48.100; -692.000; -473.000
381.573;  -24.175; -402.000; -409.000
381.703;  -71.250;-1249.000;-1095.000
381.833; -180.375;-1454.000;-1336.000
381.963;   31.775; -134.000;  -87.000
382.093;  462.850; -925.000; -909.000
382.223;  112.100; -713.000; -602.000
382.353;  -96.100; -801.000; -608.000
382.482;   37.800;-1091.000; -964.000
382.612;  210.050; -872.000; -644.000
382.742;  105.925; -695.000; -622.000
382.872;  -15.900; -565.000; -551.000
383.002;   19.375;  347.000; -132.000
383.131;  -33.775; -226.000; -160.000
383.261;  -51.225; -706.000; -768.000
383.391;  307.675; -552.000; -377.000
383.521; 5015.450;  451.000;  263.000
383.650; 1495.550; -947.000; -904.000
383.780;   37.550; -783.000; -656.000
383.910;   95.225;  880.000;  802.000
384.039;  -89.675; -794.000; -656.000
384.169;  -74.075;-1205.000;-1017.000
384.299;  -88.775; -650.000; -662.000
384.428; -121.625; -764.000; -680.000
384.558;  -61.450; -308.000; -275.000
384.687;  -67.850; -414.000; -334.000
384.817;  -15.275;   75.000;   -2.000
384.947;  -35.525; -234.000; -141.000
385.076;  152.800;  982.000;  912.000
385.206;   57.300;  369.000;  480.000
385.335;  -74.625; -549.000; -417.000
385.465; -117.475; -655.000; -663.000
385.594;   20.200;  -53.000;  -44.000
385.724;   35.975; -868.000; -838.000
385.853;   -2.050; -296.000; -270.000
385.982;  430.925; -743.000; -787.000
386.112;  747.150;-1052.000; -871.000
386.241;   13.275; -307.000; -312.000
386.371;  -20.700; -174.000;  -87.000
386.500;  -60.000; -825.000; -789.000
386.629;   -5.550; -874.000; -817.000
386.759;   57.650;  -43.000;   68.000
386.888;  -28.750; -170.000; -250.000
387.017; -102.900; -648.000; -620.000
387.147; -114.225; -771.000; -798.000
387.276;  -64.275; -410.000; -397.000
387.405;  -58.700; -398.000; -342.000
387.535;  -76.300; -452.000; -361.000
387.664;  -62.175; -692.000; -620.000
387.793;  -20.450; -198.000; -113.000
387.922;  174.725;  255.000;  200.000
388.052;  -63.250; -576.000; -423.000
388.181;  -54.825; -342.000; -472.000
388.310; -106.050; -889.000; -710.000
388.439; -101.975; -749.000; -742.000
388.568;   46.525;  365.000;  244.000
388.697;  313.350; -756.000; -653.000
388.826;    7.750; -768.000; -666.000
388.956;  -44.700; -285.000; -307.000
389.085;  -54.600; -347.000; -287.000
389.214; -113.250; -842.000; -872.000
389.343;  -81.525; -645.000; -413.000
389.472;  538.500;  126.000;  149.000
389.601;  624.125;   91.000;    0.000
389.730;  -20.225; -568.000; -687.000
389.859;   21.075;  226.000;   46.000
389.988;   39.200; -423.000; -408.000
390.117;   45.650; -168.000; -146.000
390.246;  -53.025; -331.000; -320.000
390.375;  -58.350; -673.000; -626.000
390.504;  -88.375; -703.000; -621.000
390.633; -121.675; -672.000; -726.000
390.761; -103.050; -732.000; -645.000
390.890;  -34.000;   -4.000; -130.000
391.019;  -78.350; -421.000; -441.000
391.148; -140.250; -826.000; -855.000
391.277;  -86.250; -576.000; -493.000
391.406; -126.825; -821.000; -805.000
391.534;   -1.425;  574.000; -301.000
391.663;  -89.350; -583.000; -645.000
391.792; -108.600; -673.000; -701.000
391.921;  -11.925;   -3.000;   15.000
392.050;    4.825; -287.000; -228.000
392.178; -133.900;-1206.000;-1061.000
392.307;  -34.575; -758.000; -712.000
392.436;  -49.800; -427.000; -641.000
392.564;   -6.025;  166.000;   -6.000
392.693; -111.100; -860.000; -682.000
392.822;   12.800; -529.000; -534.000
392.950;  -43.100; -880.000; -714.000
393.079;   77.325; -188.000; -328.000
393.208;  -46.625; -488.000; -511.000
393.336;  -28.150; -170.000; -145.000
393.465;  -58.475; -317.000; -199.000
393.593;  -11.375;   62.000;   79.000
393.722; -160.450;-1121.000; -916.000
393.850;  -29.800; -188.000;  -61.000
393.979; -166.675; -926.000; -805.000
394.107;  -75.025; -517.000; -537.000
394.236;  -59.100; -570.000; -507.000
394.364;  105.500;  383.000;  206.000
394.493;   83.125; -911.000; -767.000
394.621;   -5.550; -955.000; -916.000
394.750; 1137.775; -873.000; -923.000
394.878; 4428.850; -247.000; -149.000
395.007; 6486.975; -721.000; -807.000
395.135;  564.525; -790.000; -721.000
395.263;  -50.750;-1038.000;-1040.000
395.392;   -3.900;  -25.000; -107.000
395.520; -126.650; -818.000; -679.000
395.648; -120.175; -865.000; -915.000
395.777;  -68.050; -366.000; -405.000
395.905;  -89.750; -449.000; -564.000
396.033;  -18.400;  217.000;  172.000
396.162;  147.325; -399.000; -453.000
396.290;  153.525;  -17.000;   -2.000
396.418;  -37.775; -555.000; -514.000
396.546;  -99.125; -571.000; -466.000
396.674; -128.500; -850.000; -878.000
396.803;  -35.025;  -72.000;  -23.000
396.931;  -22.950; -179.000; -199.000
397.059; -125.325;-1026.000; -989.000
397.187; -147.950;-1026.000; -975.000
397.315; -140.325; -884.000; -649.000
397.443; -104.625; -592.000; -443.000
397.572;  -98.300; -578.000; -424.000
397.700;  -97.400; -607.000; -614.000
397.828;  -32.250;  120.000;  -90.000
397.956;  -33.875; -508.000; -478.000
398.084;  -29.625; -767.000; -626.000
398.212;    1.250;  137.000;  124.000
398.340;  -34.200;  -56.000;  159.000
398.468;  -48.750; -390.000; -169.000
398.596; -155.975; -993.000; -953.000
398.724; -121.975; -762.000; -767.000
398.852; -166.650;-1024.000; -976.000
398.980;  -86.500; -560.000; -560.000
399.108;  -86.800; -982.000; -735.000
399.236;  -12.500;   13.000;    8.000
399.363;    1.675;  222.000;  196.000
399.491;  -72.700; -404.000; -398.000
399.619; -119.325; -829.000; -800.000
399.747; -120.400; -859.000; -771.000
399.875;   24.100;  220.000;  234.000
400.003;  -67.900; -359.000; -284.000
400.130; -102.250; -421.000; -341.000
400.258;  -38.375;  -83.000;   38.000
400.386;  -76.375; -352.000; -168.000
400.514;  -70.600; -526.000; -587.000
400.641; -162.700; -928.000; -802.000
400.769; -144.550; -979.000; -888.000
400.897; -124.400; -838.000; -793.000
401.025;  -36.075; -166.000; -152.000
401.152;  -12.550;  220.000;   38.000
401.280;  -81.650; -430.000; -429.000
401.408; -128.150; -712.000; -576.000
401.535; -118.250; -735.000; -758.000
401.663; -191.625;-1134.000;-1054.000
401.790;  -92.700; -514.000; -525.000
401.918;   18.750;  436.000;  405.000
402.046;  -40.825;  134.000;  122.000
402.173;  -44.350;  -18.000;    7.000
402.301;  -90.075; -519.000; -397.000
402.428;   29.200;  528.000;  383.000
402.556; -158.000;-1188.000; -913.000
402.683;  -45.525;  -20.000;   -1.000
402.811;  -30.450;  -37.000; -206.000
402.938;  -28.775;   20.000;   27.000
403.066;    6.100; -574.000; -558.000
403.193;  107.550;  299.000;  239.000
403.321;   71.425; -396.000; -574.000
403.448;  126.800;   83.000;   27.000
403.575;   40.050;  -90.000;  -46.000
403.703; -112.525; -732.000; -557.000
403.830;  -58.950; -531.000; -496.000
403.957; -136.275;-1117.000;-1023.000
404.085;   17.225;  -61.000; -172.000
404.212;  104.350;  -50.000;   63.000
404.339;  441.375; -566.000; -306.000
404.467; 8943.050; -612.000; -524.000
404.594; 5501.025; -287.000; -227.000
404.721;  947.675; -869.000; -764.000
404.848;  114.975; -113.000; -202.000
404.976; -100.825; -856.000; -783.000
405.103;  -11.750;  -14.000;  -82.000
405.230;   -1.100;  190.000;  226.000
405.357;   39.425;  117.000;   44.000
405.484;  417.525;  -49.000;    5.000
405.612;  112.425; -548.000; -563.000
405.739;  -55.550; -488.000; -243.000
405.866;   73.250;  669.000;  385.000
405.993;  -71.525; -398.000; -102.000
406.120; -136.775; -801.000; -887.000
406.247;  -72.625; -323.000; -342.000
406.374;  121.925;  540.000;  629.000
406.501;  -79.625; -632.000; -702.000
406.628; -107.175; -621.000; -589.000
406.755; -127.800; -803.000; -620.000
406.882;  -69.075; -228.000; -277.000
407.009; -114.975; -719.000; -628.000
407.136;  -54.675; -480.000; -401.000
407.263;  -66.200; -939.000; -829.000
407.390; -108.650; -692.000; -614.000
407.517; -189.775;-1139.000;-1187.000
407.644;  -74.950; -332.000; -256.000
407.771;  -93.875; -249.000; -287.000
407.898;   -9.450;  168.000;  328.000
408.025; -101.400; -421.000; -313.000
408.151;   -8.825;   82.000;  153.000
408.278;  -62.400; -267.000; -216.000
408.405; -138.250; -931.000; -899.000
408.532; -101.050; -549.000; -542.000
408.659; -123.900; -677.000; -648.000
408.785; -197.275;-1298.000;-1170.000
408.912;  -70.300; -412.000; -296.000
409.039; -104.500; -610.000; -686.000
409.166; -108.875; -591.000; -555.000
409.292; -115.175; -571.000; -534.000
409.419; -127.425; -665.000; -649.000
409.546;  -93.900; -431.000; -192.000
409.672; -114.275; -713.000; -545.000
409.799;  -42.275;  -36.000;   34.000
409.926;  -54.550; -180.000; -179.000
410.052; -187.300;-1127.000;-1091.000
410.179;  -70.400; -368.000; -392.000
410.305;  -83.025; -375.000; -493.000
410.432;  -32.175; -220.000; -333.000
410.558;  -86.050; -305.000; -380.000
410.685; -105.950; -688.000; -431.000
410.812; -116.175; -409.000; -588.000
410.938; -132.225; -964.000; -808.000
411.065; -103.225; -671.000; -645.000
411.191;  -50.075; -189.000; -174.000
411.317; -132.750; -823.000; -742.000
411.444;  -74.475; -317.000; -246.000
411.570;  -79.800; -339.000; -294.000
411.697; -129.125; -758.000; -752.000
411.823; -174.975; -989.000; -999.000
411.949;  -50.725;  -56.000;   17.000
412.076; -111.800; -539.000; -519.000
412.202; -123.700; -758.000; -757.000
412.329; -143.750; -798.000; -752.000
412.455; -114.575; -821.000; -657.000
412.581;  -22.525;  -15.000;  172.000
412.707;  -92.025; -540.000; -457.000
412.834;  -13.000;  156.000;  219.000
412.960; -108.900; -785.000; -784.000
413.086; -118.250; -743.000; -701.000
413.212;  104.350;  604.000;  578.000
413.339; -107.275; -685.000; -701.000
413.465;  -53.600; -364.000; -310.000
413.591; -107.025; -757.000; -474.000
413.717;  -59.500; -358.000; -366.000
413.843; -139.950; -839.000; -861.000
413.969;  -63.475;  -47.000; -292.000
414.096;  -95.450; -679.000; -679.000
414.222;  -13.975;  -33.000;   85.000
414.348;  -70.950; -652.000; -385.000
414.474;   11.850;   38.000;  -52.000
414.600;  -30.175; -126.000; -144.000
414.726;  -14.900;  -96.000;  -55.000
414.852;  -46.600; -365.000; -342.000
414.978;   38.100;  104.000;  -18.000
415.104;   58.750;   38.000;   80.000
415.230;   40.100; -329.000; -330.000
415.356;   69.400; -409.000; -514.000
415.482;  218.400;   13.000;  -35.000
415.608;  405.300; -247.000; -323.000
415.734; 1332.650;   67.000;   38.000
415.860;27663.850; -875.000; -767.000
415.986;22612.925; -685.000; -607.000
416.111; 2111.700; -798.000; -652.000
416.237;  468.225; -424.000; -571.000
416.363; 1656.750; -765.000; -733.000
416.489; 6639.350; -324.000; -251.000
416.615;  908.975; -707.000; -742.000
416.741;   60.175; -677.000; -784.000
416.866;  -64.475; -673.000; -736.000
416.992; -103.150; -801.000; -818.000
417.118;  -24.250;  -41.000;  -80.000
417.244;  -83.325; -798.000; -531.000
417.369;  -84.125; -801.000; -612.000
417.495;  -14.775; -325.000; -254.000
417.621;  -83.125;-1015.000; -803.000
417.746;    6.150; -579.000; -572.000
417.872;   56.975; -254.000; -144.000
417.998;  125.275; -515.000; -530.000
418.123; 1536.925;-1073.000; -845.000
418.249; 8458.675; -512.000; -601.000
418.374; 1421.875; -916.000; -824.000
418.500;  224.775; -383.000; -482.000
418.626;  169.975;   70.000;  -59.000
418.751;  158.700; -549.000; -448.000
418.877;  305.725; -637.000; -643.000
419.002; 2565.200; -688.000; -560.000
419.128;19414.150; -930.000; -721.000
419.253; 5413.325; -967.000; -837.000
419.379;  756.175; -391.000; -338.000
419.504;  581.200;  325.000;  415.000
419.629;  824.700; -393.000; -212.000
419.755; 5324.000; -317.000; -254.000
419.880;34468.750;  -98.000;   67.000
420.006;17307.075; -280.000; -221.000
420.131;43196.100; -662.000; -775.000
420.256; 6976.550; -315.000; -316.000
420.382;  941.775; -665.000; -687.000
420.507;  173.250; -649.000; -778.000
420.632;   48.425; -337.000; -339.000
420.758;   58.775; -251.000; -425.000
420.883; -106.900; -876.000; -672.000
421.008; -118.525; -775.000; -619.000
421.133;  -98.825; -509.000; -467.000
421.259;  -57.025; -325.000; -259.000
421.384; -138.175; -834.000; -693.000
421.509; -113.500;-1052.000; -862.000
421.634;  239.775; -936.000; -820.000
421.759;  107.200; -359.000; -327.000
421.885; -109.575; -717.000; -656.000
422.010;  -95.325; -673.000; -542.000
422.135; -154.100; -695.000; -727.000
422.260;   18.125;  340.000;  280.000
422.385;  -45.900;   12.000;  -98.000
422.510;   -8.550;  151.000;  -26.000
422.635;  -18.475;  -87.000;  -43.000
422.760;  -14.050; -766.000; -791.000
422.885;   30.275;  -57.000;  -80.000
423.010;  -42.875; -112.000; -169.000
423.135; -103.975; -481.000; -561.000
423.260;  -50.425; -150.000; -245.000
423.385;   11.650;  476.000;  222.000
423.510;   11.275;   71.000;  -22.000
423.635;   15.775;  133.000;   45.000
423.760;   43.175;  383.000;  328.000
423.885;   43.425;  336.000;  391.000
424.010;    2.300;  -68.000;  -13.000
424.135;  -40.225;    5.000;  -33.000
424.259;  -77.500; -654.000; -457.000
424.384;  -62.275; -279.000; -272.000
424.509;  -32.900; -260.000; -186.000
424.634;  -77.850; -761.000; -623.000
424.759;  -49.075; -688.000; -544.000
424.883;   -6.175; -506.000; -527.000
425.008;  192.425; -502.000; -410.000
425.133; 2871.500; -679.000; -653.000
425.258; 1546.825; -517.000; -381.000
425.382;  554.675; -867.000; -774.000
425.507; 1324.575; -487.000; -543.000
425.632;  391.800; -802.000; -663.000
425.756;  689.675; -256.000; -146.000
425.881; 9940.500; -831.000; -857.000
426.006;30598.175; -604.000; -355.000
426.130; 5043.650; -696.000; -508.000
426.255;  693.625; -611.000; -491.000
426.379;  265.525; -189.000; -577.000
426.504;  499.750;  660.000;  544.000
426.629; 5700.625; -519.000; -466.000
426.753; 4429.450;   64.000;  -46.000
426.878;  563.075; -252.000; -288.000
427.002;  307.750; -651.000; -668.000
427.127; 2096.750;  -35.000; -158.000
427.251;17294.500;  372.000;  401.000
427.375; 5551.475; -191.000; -173.000
427.500; 1427.675; -616.000; -610.000
427.624;  467.550; -234.000; -400.000
427.749;   75.100; -216.000; -225.000
427.873;  -23.500; -499.000; -412.000
427.997;  -56.275; -222.000; -230.000
428.122;   53.275;  795.000;  703.000
428.246;   45.100;  433.000;  434.000
428.371; -147.850; -869.000; -773.000
428.495; -106.325; -624.000; -646.000
428.619;  -52.950; -186.000; -117.000
428.743;    2.250;   65.000;  132.000
428.868;  -75.100; -732.000; -643.000
428.992;  569.950; -219.000; -326.000
429.116;  213.725; -329.000; -357.000
429.240;  117.125;  419.000;  426.000
429.365;  -46.075; -454.000; -574.000
429.489;  -50.600; -638.000; -647.000
429.613;   30.300; -236.000; -177.000
429.737;   75.450; -563.000; -432.000
429.861;  367.375; -247.000; -133.000
429.985; 7940.250; -425.000; -305.000
430.109; 9977.900; -770.000; -908.000
430.234; 1222.700;   76.000;  -50.000
430.358;  147.125; -250.000; -160.000
430.482;  -43.750; -672.000; -564.000
430.606;  -76.200; -655.000; -375.000
430.730;  -50.750; -437.000; -388.000
430.854;  -74.000; -909.000; -835.000
430.978; -111.075; -795.000; -764.000
431.102;  -88.900; -499.000; -422.000
431.226; -126.025; -874.000; -815.000
431.350;   -0.725;  345.000;  422.000
431.474;  -93.225; -661.000; -373.000
431.597; -160.950;-1060.000; -848.000
431.721;  -77.225; -276.000; -267.000
431.845; -128.450; -704.000; -472.000
431.969;  -83.050; -304.000; -349.000
432.093;  -93.450; -395.000; -317.000
432.217;  -19.900;   32.000;   82.000
432.341;  -84.450; -523.000; -518.000
432.464;    2.550;   96.000;   40.000
432.588;  -16.550; -401.000; -329.000
432.712;   21.775;  -52.000;  -52.000
432.836;   53.075;  213.000;  263.000
432.959;   16.950; -372.000; -311.000
433.083;  156.700;   11.000;    2.000
433.207;  569.525;  285.000;  930.000
433.330; 7595.825; -391.000; -200.000
433.454;10504.350; -654.000; -638.000
433.578; 5764.125;  583.000;  278.000
433.701; 1230.400; -623.000; -675.000
433.825;  156.725; -292.000; -299.000
433.949;   57.650;   28.000;  -72.000
434.072;  -25.325; -410.000; -323.000
434.196;  -22.900; -309.000; -117.000
434.319; 3487.750;25482.000;25124.000
434.443;  868.875; -656.000; -603.000
434.566; 4090.350;  281.000;   62.000
434.690;  893.325; -637.000; -383.000
434.813;  126.100; -251.000; -173.000
434.937;  -60.325; -569.000; -696.000
435.060;  -84.125; -423.000; -332.000
435.184;    0.575; -492.000; -217.000
435.307;    9.525;  159.000;  102.000
435.431;  -40.000;  -40.000;   24.000
435.554;  -97.850; -399.000; -240.000
435.677;  -91.325; -350.000; -258.000
435.801;  -42.700;  -25.000;   49.000
435.924;  -36.125;    1.000;  -67.000
436.048; -146.800;-1019.000; -732.000
436.171;  -67.975; -240.000;  -66.000
436.294;  -33.525; -248.000; -229.000
436.417;  214.350; -963.000; -849.000
436.541;  -36.400; -814.000; -840.000
436.664;  -45.300; -242.000; -316.000
436.787;  -32.050;   13.000;  113.000
436.910; -110.250; -792.000; -422.000
437.034;  -25.975;  142.000;  143.000
437.157;  -10.825;  -11.000;    0.000
437.280;  -81.525; -392.000; -292.000
437.403; -133.300; -982.000; -869.000
437.526;   28.950; -903.000; -865.000
437.649;  577.850; -505.000; -332.000
437.772;   23.225; -692.000; -540.000
437.896;   74.700;  700.000;  544.000
438.019; -114.425; -758.000; -503.000
438.142;  -95.050; -596.000; -506.000
438.265; -104.100; -639.000; -670.000
438.388;   26.025; -520.000; -410.000
438.511;  -75.725; -597.000; -394.000
438.634;  -88.550; -247.000; -125.000
438.757; -145.000; -693.000; -619.000
438.880;  -41.950;  -34.000;  -57.000
439.003; -111.925; -417.000; -437.000
439.126;  -71.675; -287.000; -167.000
439.248;  -66.650;  -98.000; -139.000
439.371;  -57.100;    9.000;  -53.000
439.494;   11.825;  510.000;  439.000
439.617;  -53.525;   65.000;  -88.000
439.740; -184.850; -968.000; -816.000
439.863; -143.700; -755.000; -595.000
439.986; -123.750; -476.000; -431.000
440.108;  -44.000; -161.000; -112.000
440.231; -159.800; -950.000; -836.000
440.354;  -63.600;  -64.000; -150.000
440.477; -103.550; -566.000; -542.000
440.599;  -72.025; -200.000; -225.000
440.722; -138.050; -709.000; -586.000
440.845;   59.550;  751.000;  928.000
440.968; -121.775; -415.000; -311.000
441.090;  -75.525; -199.000;  -33.000
441.213; -170.400;-1021.000; -825.000
441.336;  -54.225; -159.000;   -5.000
441.458; -106.050; -549.000; -396.000
441.581; -124.900; -628.000; -629.000
441.703;  -78.500; -152.000;   13.000
441.826; -119.400; -557.000; -400.000
441.948;  -67.275;   56.000;   51.000
442.071;   13.600;  555.000;  424.000
442.193; -119.725; -531.000; -485.000
442.316;   -8.600;  152.000;   97.000
442.438;   67.425; -233.000;  -10.000
442.561;   55.300;  272.000;  262.000
442.683;   82.850; -809.000; -522.000
442.806;  323.175;   -8.000;   74.000
442.928;  -99.225; -859.000; -604.000
443.051;  -88.075; -577.000; -373.000
443.173;  -91.975; -341.000; -339.000
443.295;  -91.650; -263.000; -371.000
443.418;  -77.075; -321.000;  -29.000
443.540;  -25.225; -106.000;   -4.000
443.662; -152.925; -563.000; -465.000
443.785;  -20.500;  335.000;  199.000
443.907; -105.275; -362.000; -208.000
444.029; -132.125; -767.000; -494.000
444.152; -148.000; -644.000; -554.000
444.274;  -55.575;  -18.000;  -24.000
444.396; -116.700; -461.000; -221.000
444.518; -132.125; -691.000; -454.000
444.640; -115.350; -268.000; -111.000
444.763;  -23.575;  388.000;  249.000
444.885; -123.400; -432.000; -392.000
445.007;  -32.600;   35.000;   86.000
445.129; -127.300; -610.000; -515.000
445.251; -106.650; -372.000; -439.000
445.373; -143.075; -537.000; -386.000
445.495;  -15.275;  242.000;  350.000
445.617;   41.650;  853.000;  753.000
445.739;  -79.900; -215.000;  -97.000
445.861;  -77.425; -245.000; -112.000
445.984;  -61.500; -267.000; -101.000
446.105;   -7.575; -418.000; -251.000
446.227;  139.025; -176.000;  -19.000
446.349;  -72.600; -358.000; -249.000
446.471; -126.550; -615.000; -448.000
446.593;  -97.075; -316.000;   19.000
446.715;  -48.575;  -67.000;   41.000
446.837;   43.875;  697.000;  832.000
446.959; -113.775; -457.000; -478.000
447.081; -134.150; -628.000; -518.000
447.203;   49.250;  862.000;  834.000
447.325;  -96.750; -270.000;   42.000
447.446;  -21.900;  286.000;  530.000
447.568; -167.650; -921.000; -803.000
447.690;  -95.125; -236.000; -245.000
447.812; -145.750; -798.000; -519.000
447.933;  -22.925;  155.000;  127.000
448.055;  -71.400; -306.000; -261.000
448.177;   33.750;   31.000;   79.000
448.299; -102.075; -935.000; -727.000
448.420;  -16.350;  -25.000;  159.000
448.542;  -64.125;   -3.000;   33.000
448.664;  -26.725;  109.000;  322.000
448.785;  -34.100;  265.000;   83.000
448.907; -101.575; -614.000; -353.000
449.028; -112.275; -771.000; -471.000
449.150;   35.800;  492.000;  589.000
449.272; -173.725;-1044.000; -913.000
449.393;   22.250;  612.000;  694.000
449.515; -144.800; -634.000; -581.000
449.636;  -76.825; -264.000; -155.000
449.758;   41.400;  763.000;  622.000
449.879;  -91.100; -498.000; -396.000
450.001;  -79.700; -149.000;  -49.000
450.122;  -41.475;  -95.000;  162.000
450.244;  -24.025;   37.000;  364.000
450.365;  -82.650; -495.000; -301.000
450.486;  -14.875;   80.000;  268.000
450.608;   47.450;  393.000;  326.000
450.729;  105.650;  578.000;  645.000
450.850;   97.975; -574.000; -466.000
450.972; 1187.775; -552.000; -389.000
451.093; 7856.825;  190.000;  588.000
451.214; 4065.650; -516.000; -337.000
451.336;  656.175;  773.000;  579.000
451.457;  112.475;  264.000;  393.000
451.578;  -13.625; -118.000;  -74.000
451.699; -112.775; -546.000; -540.000
451.821;  -48.875; -284.000;  -50.000
451.942;   11.725;  278.000;  285.000
452.063;   50.800;  228.000;  419.000
452.184;  820.725;  -54.000;  -49.000
452.305; 1733.125;  103.000;  170.000
452.427;  325.575; -549.000; -301.000
452.548;    5.025;   23.000;   79.000
452.669;  -79.750; -257.000;  -89.000
452.790;  -58.050;    3.000;  -18.000
452.911;  -23.750;  195.000;  259.000
453.032;  -73.725; -289.000;  -60.000
453.153;  -66.775;  -29.000;   81.000
453.274;   47.200;  737.000;  868.000
453.395;  -62.625;  -51.000;  175.000
453.516;   92.075; 1317.000; 1388.000
453.637;  -99.750; -205.000; -150.000
453.758;  -60.450;   15.000;   69.000
453.879; -125.400; -462.000; -250.000
454.000;   61.975; 1086.000;  948.000
454.121; -137.275; -554.000; -326.000
454.242; -117.600; -599.000; -383.000
454.362;  -55.425;  -99.000;  114.000
454.483;  -15.075; -309.000; -229.000
454.604;   40.625;  512.000;  580.000
454.725; -132.900; -627.000; -555.000
454.846; -132.825; -474.000; -406.000
454.967;  -12.725;  230.000;  539.000
455.087;  -49.850;  179.000;  153.000
455.208;   16.325;  554.000;  856.000
455.329;  -63.750;  -22.000;   82.000
455.450;   49.150;  473.000;  633.000
455.570;  -49.450; -234.000; -211.000
455.691;  -47.400;  201.000;  407.000
455.812; -109.400; -270.000;  -92.000
455.932;  -61.775;  107.000;  -97.000
456.053;  -86.675;   36.000;   24.000
456.173; -112.375; -433.000; -355.000
456.294; -124.775; -476.000; -303.000
456.415;  -68.900;  -73.000;   70.000
456.535;  -41.850;  297.000;  273.000
456.656;  -48.550;  132.000;  240.000
456.776;  -72.100;    3.000;  298.000
456.897;  -10.875;  308.000;  513.000
457.017;  -75.325; -153.000;   -3.000
457.138; -106.375; -402.000; -249.000
457.258;  -44.350;  263.000;  224.000
457.379;  -11.950;  509.000;  521.000
457.499;  -32.975;  443.000;  432.000
457.620; -113.475; -407.000; -231.000
457.740; -105.375; -132.000;  -11.000
457.860;  -61.125;   87.000;   44.000
457.981;  -54.350;  132.000;  124.000
458.101;  -77.525;  -89.000;   40.000
458.221;  -29.050;  336.000;  402.000
458.342;  -46.775;   -4.000;  -37.000
458.462;   38.425;  617.000;  352.000
458.582;   32.850; -302.000; -294.000
458.703;   67.600;  303.000;  154.000
458.823;    2.850;   22.000;  163.000
458.943;   57.525;  341.000;  467.000
459.063;   12.300; 1124.000;  192.000
459.183;  -21.850;  328.000;  313.000
459.304;   -4.700;  315.000;  517.000
459.424;  -39.125; -246.000;  -89.000
459.544;  455.300;  388.000;  764.000
459.664; 1276.200;  499.000;  506.000
459.784;  495.400; 1004.000; 1175.000
459.904;   97.400;  867.000;  744.000
460.024;   53.850;  867.000;  684.000
460.144;   -6.675;  449.000;  554.000
460.264;  -17.900;  515.000;  327.000
460.385; -103.550; -145.000; -119.000
460.505;   20.025;  905.000;  858.000
460.625;  -93.350;  -17.000;  -68.000
460.745;  -29.275;  396.000;  541.000
460.864;  -41.500;  153.000;  469.000
460.984;   35.100;  499.000;  573.000
461.104;  145.875; 1656.000; 1775.000
461.224;    7.975;  657.000;  650.000
461.344;  -33.700;  431.000;  360.000
461.464;  -41.000;  258.000;  513.000
461.584;  -26.300;  283.000;  466.000
461.704;  -72.625;   58.000;  108.000
461.824;  -69.925;  238.000;  259.000
461.943;  -47.150;  191.000;  130.000
462.063;  -76.000;    2.000;  324.000
462.183;   25.975;  639.000;  717.000
462.303;   86.575; 1678.000; 1230.000
462.422;   15.950;  781.000;  840.000
462.542;  -50.975;  271.000;  391.000
462.662;   46.425;  353.000;  380.000
462.782;  334.300;  833.000;  572.000
462.901;  737.725;  545.000;  717.000
463.021;  403.175; 1702.000; 1638.000
463.141;   18.625;  337.000;  770.000
463.260;  -17.125;  614.000;  474.000
463.380;   28.000;  902.000;  884.000
463.499;  -45.100;  342.000;  332.000
463.619;  -31.875;  581.000;  559.000
463.738;  106.025; 1644.000;  903.000
463.858;   10.300;  657.000;  811.000
463.978;  -41.775;  542.000;  396.000
464.097;   43.150;  921.000; 1114.000
464.217;  145.700; 1196.000; 1143.000
464.336;  166.500; 1068.000; 1130.000
464.455;  -22.950;  328.000;  659.000
464.575;   23.925;  597.000;  602.000
464.694;  133.000; 1204.000; 1179.000
464.814;  170.925; 1190.000; 1138.000
464.933;   99.050; 1095.000; 1027.000
465.052;   98.425; 1412.000; 1054.000
465.172;   75.525;  922.000;  799.000
465.291;  115.475; 1376.000; 1320.000
465.410;    6.275;  462.000;  735.000
465.530;   75.625; 1355.000; 1310.000
465.649;   47.225; 1209.000; 1273.000
465.768;  133.400; 1673.000; 1508.000
465.888;   45.975;  941.000; 1174.000
466.007;   84.750; 1335.000; 1440.000
466.126;  -22.550;  721.000;  641.000
466.245;   40.375; 1176.000; 1187.000
466.364;   16.600;  950.000; 1060.000
466.484;   44.675; 1024.000; 1213.000
466.603;   36.025; 1101.000; 1222.000
466.722;  100.950; 1490.000; 1769.000
466.841;   65.725; 1151.000; 1401.000
466.960;   39.900; 1069.000;  972.000
467.079;  103.325; 1971.000; 1786.000
467.198;   49.150; 1238.000; 1181.000
467.317;   82.125; 1768.000; 1162.000
467.436;   73.500; 1709.000; 1261.000
467.555;  120.750; 1796.000; 1746.000
467.674;   49.000; 1227.000; 1329.000
467.793;   47.675; 1376.000; 1374.000
467.912;   70.050; 1658.000; 1539.000
468.031;  130.025; 2038.000; 1930.000
468.150;  139.825; 1842.000; 1837.000
468.269;  172.325; 2313.000; 2090.000
468.388;  159.900; 2168.000; 2339.000
468.507;  245.425; 2884.000; 2903.000
468.626;  258.700; 2555.000; 2541.000
468.744;  139.725; 2018.000; 2174.000
468.863;  191.625; 2312.000; 2523.000
468.982;   87.275; 1503.000; 1555.000
469.101;  199.650; 2788.000; 2692.000
469.220;  153.175; 2333.000; 2176.000
469.338;  249.875; 2935.000; 3051.000
469.457;  201.575; 2719.000; 2545.000
469.576;  356.600; 3953.000; 3784.000
469.695;  233.450; 2877.000; 3066.000
469.813;  403.850; 4148.000; 4192.000
469.932;  416.500; 4255.000; 4485.000
470.051;  458.900; 4075.000; 4161.000
470.169; 1020.625; 4470.000; 4338.000
470.288; 2014.200; 4700.000; 4809.000
470.406; 1160.600; 5059.000; 5194.000
470.525;  684.175; 6101.000; 5787.000
470.644;  648.750; 6847.000; 6794.000
470.762;  786.925; 8397.000; 7873.000
470.881;  894.050; 8651.000; 8464.000
470.999; 1083.500; 9685.000; 9151.000
471.118; 1102.275;11174.000;10711.000

