
Integration time [ms]: 100.000
Averaging Nr. [scans]: 40
Smoothing Nr. [pixels]: 0
Data measured with spectrometer [name]: 2101012U2
Wave   ;Sample   ;Dark     ;Reference
[nm]   ;[counts] ;[counts] ;[counts] 

197.733;   61.500;  516.000;  404.000
197.879;  -71.200; -610.000; -634.000
198.025;  -46.175; -475.000; -420.000
198.171;  -59.825; -602.000; -612.000
198.317;  -32.925; -401.000; -316.000
198.463;  -53.900; -655.000; -404.000
198.609;   41.700;  181.000; -137.000
198.755;  -63.675; -644.000; -410.000
198.901;  -49.925; -505.000; -424.000
199.047;  -62.625; -615.000; -488.000
199.193;  -30.775; -230.000; -468.000
199.339;  -24.850; -222.000; -369.000
199.485;   41.775;  330.000;  271.000
199.631;   22.075;  227.000;  310.000
199.777;  -48.350; -466.000; -398.000
199.923;  -59.400; -610.000; -424.000
200.069;   -9.500; -141.000;  -58.000
200.215;   62.900;  128.000;  453.000
200.361;   44.175;  243.000;  477.000
200.507;  -57.025; -600.000; -373.000
200.653;  -25.125; -371.000; -194.000
200.798;  -29.450; -215.000; -125.000
200.944;    4.275; -146.000;  -41.000
201.090;   40.350;   61.000;  222.000
201.236;  -11.025; -116.000; -158.000
201.382;  139.425;  874.000;  903.000
201.528;   12.900;  -58.000;  -48.000
201.674;  -29.275; -386.000; -293.000
201.819;  -68.650; -540.000; -439.000
201.965;  -77.950; -699.000; -447.000
202.111;  -29.350; -273.000; -226.000
202.257;  -32.375; -250.000; -238.000
202.402;   17.125;   13.000;  -36.000
202.548;  -32.075; -169.000; -116.000
202.694;   85.125;  410.000; -183.000
202.840;  -67.700; -603.000; -531.000
202.985;  -72.425; -681.000; -639.000
203.131;  -98.875; -832.000; -666.000
203.277;  -23.100; -199.000; -262.000
203.423;  -49.100; -434.000; -520.000
203.568;  -21.600; -462.000; -237.000
203.714;  -64.675; -535.000; -542.000
203.860;  -78.150; -682.000; -641.000
204.005;   10.075;  112.000;  167.000
204.151;   92.625;  561.000;  556.000
204.296;  -49.275; -354.000; -221.000
204.442;  -62.350; -600.000; -547.000
204.588;  -73.100; -592.000; -579.000
204.733;   11.425;  178.000;  168.000
204.879; -123.450;-1018.000; -822.000
205.025;   15.500;  -99.000;  126.000
205.170;   -7.950;  -17.000;   94.000
205.316;   82.500;  438.000;  661.000
205.461;  -70.825; -698.000; -554.000
205.607;   83.600;  609.000;  665.000
205.752;  -73.425; -626.000; -551.000
205.898;  -44.325; -501.000; -391.000
206.043;  -52.225; -578.000; -506.000
206.189;  -43.575; -243.000; -285.000
206.334;   93.050;  554.000;  606.000
206.480;   82.525;  409.000;  239.000
206.625;  -79.375; -529.000; -552.000
206.771;  -53.300; -451.000; -373.000
206.916;  -30.075; -210.000; -537.000
207.062;  -80.325; -545.000; -591.000
207.207;  -54.725; -546.000; -443.000
207.353;   44.725;  185.000;  460.000
207.498;    8.875;  196.000;   85.000
207.643;  -49.100; -501.000; -370.000
207.789; -117.025;-1069.000; -910.000
207.934;  -86.875; -665.000; -713.000
208.080;  -23.800; -154.000;   66.000
208.225;    1.825;  -22.000;  -57.000
208.370;  -79.575; -727.000; -619.000
208.516;  -76.375; -741.000; -487.000
208.661;  -18.825; -127.000;  -69.000
208.806;  -18.975; -165.000; -171.000
208.952; -128.575;-1044.000; -731.000
209.097;   64.225;  378.000;  349.000
209.242;  -33.875; -307.000; -382.000
209.387;   67.275;  392.000;  350.000
209.533;  -49.125; -321.000; -350.000
209.678;   82.425;  472.000;  543.000
209.823;  -54.350; -408.000; -310.000
209.969;  -99.125; -860.000; -757.000
210.114; -102.650; -907.000; -719.000
210.259; -100.525; -939.000; -889.000
210.404;    0.225; -171.000;  103.000
210.549;   14.925;  108.000;    3.000
210.695;  -11.200;   -3.000;  -95.000
210.840;   23.850;   94.000;   67.000
210.985;  -58.350; -484.000; -303.000
211.130;   80.125;  268.000;  406.000
211.275;   36.200;  207.000;  199.000
211.420;  -53.325; -300.000; -289.000
211.566;  -59.350; -536.000; -489.000
211.711;   27.100;  218.000;  157.000
211.856;  -66.000; -545.000; -519.000
212.001;   12.875;  151.000;   44.000
212.146;   27.350;  153.000;   49.000
212.291;  -17.675; -210.000; -186.000
212.436;  -23.750; -280.000;   -6.000
212.581;  -75.325; -685.000; -653.000
212.726;  -61.600; -487.000; -538.000
212.871;  -43.775; -552.000; -217.000
213.016; -138.625;-1172.000;-1029.000
213.161;   65.675;  406.000;  291.000
213.306;  -55.775; -435.000; -577.000
213.451;  -91.050; -778.000; -689.000
213.596;  -44.550; -455.000; -347.000
213.741;  -54.850; -448.000; -538.000
213.886;  -67.725; -498.000; -517.000
214.031;  -28.250; -294.000; -124.000
214.176;  -46.775; -408.000; -341.000
214.321;   -8.400; -296.000; -157.000
214.466;  -14.100; -163.000;  -43.000
214.611;   -1.450;  -61.000;  -10.000
214.756; -105.175; -948.000; -858.000
214.901;  -16.025; -388.000; -226.000
215.046; -114.825; -797.000; -825.000
215.191;   15.800;  128.000;   35.000
215.336;  -16.350; -157.000;  -19.000
215.480;  -62.550; -684.000; -505.000
215.625;  -13.725; -175.000;  -19.000
215.770;  -82.700; -757.000; -662.000
215.915;   -6.725;   -5.000;  -97.000
216.060;  -13.950; -113.000;  -21.000
216.205; -104.200; -731.000; -779.000
216.349;  -67.800; -470.000; -533.000
216.494; -128.800; -939.000; -867.000
216.639; -116.350; -823.000; -888.000
216.784;  -71.125; -577.000; -525.000
216.929;   56.400;  392.000;  281.000
217.073;  -10.725; -244.000;  -31.000
217.218;    7.925;   78.000;  -47.000
217.363;  -89.075; -656.000; -618.000
217.507;  -72.050; -623.000; -588.000
217.652; -116.100; -845.000; -874.000
217.797;  -81.400; -708.000; -659.000
217.942; -107.075; -856.000; -720.000
218.086;   78.850;  608.000;  539.000
218.231;  -25.325; -174.000;  -26.000
218.376;  -25.600; -337.000; -229.000
218.520;    5.275;  -41.000;   96.000
218.665;  -33.100; -338.000; -204.000
218.810;  -35.025; -275.000; -233.000
218.954;   24.725;  201.000;   35.000
219.099; -105.425; -713.000; -963.000
219.243;  -73.750; -589.000; -554.000
219.388;  -29.800; -264.000; -136.000
219.532;    7.150; -116.000; -116.000
219.677;  -83.950; -564.000; -521.000
219.822;   10.325;   33.000;   89.000
219.966;    7.075;   17.000;  -99.000
220.111;  -25.025; -328.000;  -40.000
220.255;  -85.075; -797.000; -750.000
220.400;  -18.375; -180.000; -146.000
220.544;  -66.275; -516.000; -450.000
220.689;  -52.750; -422.000; -451.000
220.833;  -12.975; -123.000;  -58.000
220.978;  -54.750; -393.000; -563.000
221.122;   24.825;  319.000;  307.000
221.267; -122.875; -906.000; -837.000
221.411;  -55.625; -478.000; -394.000
221.555;  -19.600; -104.000;  -23.000
221.700;  -32.325; -329.000; -222.000
221.844;   33.050;  255.000;  272.000
221.989;  -32.625; -328.000; -311.000
222.133;  -32.925; -289.000; -307.000
222.277;   -9.875;    5.000;   78.000
222.422;   21.250;  227.000;  113.000
222.566;  -32.225; -381.000; -214.000
222.711;  -53.300; -414.000; -479.000
222.855;  -64.300; -643.000; -586.000
222.999;  -75.500; -642.000; -717.000
223.144;   -8.275; -195.000; -194.000
223.288;   45.100;  423.000;  251.000
223.432;   37.350;  184.000;  230.000
223.576;   12.925;  152.000;  -21.000
223.721;   37.350;  364.000;  273.000
223.865;  -53.250; -472.000; -475.000
224.009;  273.900; 1673.000; 1631.000
224.153;  -74.800; -660.000; -671.000
224.298;  -57.375; -531.000; -489.000
224.442;  -24.475;  -74.000;  -33.000
224.586;   -9.475; -169.000; -106.000
224.730;  -96.100; -858.000; -670.000
224.875; -101.050; -739.000; -688.000
225.019;    4.350;  102.000;  188.000
225.163;   60.075;  208.000;  341.000
225.307;   24.325;   97.000;  -91.000
225.451;   56.975;  360.000;  481.000
225.595;   43.700;  264.000;  176.000
225.739;  -23.550; -170.000;  -94.000
225.884;   17.050;   86.000;    5.000
226.028;  -99.300; -760.000; -626.000
226.172;  -36.950; -260.000; -273.000
226.316; -115.675; -941.000; -902.000
226.460;  -55.375; -645.000; -493.000
226.604;  -45.450; -406.000; -400.000
226.748;  -99.625; -836.000; -733.000
226.892;  -30.650; -227.000; -181.000
227.036;  -47.625; -537.000; -447.000
227.180;  -45.525; -551.000; -375.000
227.324;  -65.075; -561.000; -580.000
227.468; -103.825; -819.000; -717.000
227.612;   17.450;  242.000;  -28.000
227.756;  -93.975; -845.000; -698.000
227.900;   47.650;  342.000;  441.000
228.044;  -49.275; -509.000; -290.000
228.188;   57.700;  448.000;  568.000
228.332;  -88.525; -546.000; -472.000
228.476;  -21.500; -223.000; -149.000
228.620;  -23.575; -210.000; -150.000
228.764;   87.500;  431.000;  349.000
228.908;   -3.425; -155.000;   30.000
229.052;  -64.250; -615.000; -528.000
229.195;   -9.650; -172.000;   13.000
229.339;  -17.375; -235.000; -305.000
229.483;  -28.875;    5.000; -162.000
229.627;   -3.900; -156.000;  139.000
229.771;  -43.900; -218.000; -294.000
229.915;   15.375;  230.000;   79.000
230.059;  -72.675; -648.000; -663.000
230.202;  -38.400; -370.000; -317.000
230.346;   -7.400; -107.000;  107.000
230.490;  -56.450; -489.000; -521.000
230.634; -102.250; -736.000; -553.000
230.777;   69.200;  478.000;  509.000
230.921;  -55.400; -450.000; -359.000
231.065;  -40.650; -246.000; -286.000
231.209;   36.825;  261.000;  265.000
231.352;   14.250;   54.000;   40.000
231.496;   15.075;  568.000;  188.000
231.640;  -70.250; -693.000; -621.000
231.783;   70.875;  546.000;  525.000
231.927;  -39.300; -294.000; -365.000
232.071;  -99.575; -962.000; -736.000
232.214;  -97.600; -980.000; -764.000
232.358;  -98.050; -683.000; -599.000
232.502;   -7.375;  -19.000;    7.000
232.645; -132.575;-1090.000; -927.000
232.789;  -20.225; -257.000; -218.000
232.933;  -36.775; -407.000; -224.000
233.076; -123.375;-1038.000; -897.000
233.220; -102.175; -752.000; -777.000
233.363;  -70.775; -669.000; -477.000
233.507;   63.225;  371.000;  129.000
233.650;  -89.100; -764.000; -834.000
233.794;   39.550;  438.000;  461.000
233.938;  -51.075; -530.000; -362.000
234.081;  -17.200;  -93.000;   31.000
234.225;  -66.825; -631.000; -539.000
234.368;  -88.025; -773.000; -723.000
234.512;  -38.875; -385.000; -299.000
234.655;  -79.975; -582.000; -555.000
234.798;  -65.850; -493.000; -466.000
234.942; -119.075; -884.000;-1002.000
235.085;  -82.150; -651.000; -443.000
235.229;  -76.425; -405.000; -410.000
235.372;  -46.200; -247.000; -191.000
235.516;  -60.900; -397.000; -321.000
235.659;   21.675;   92.000;  121.000
235.802;    0.875;  -38.000;  -22.000
235.946;   27.100;  335.000;  215.000
236.089;   29.100;  126.000;  250.000
236.233;   53.975;  275.000;  298.000
236.376;  -42.350; -235.000; -378.000
236.519;  -44.175; -297.000; -319.000
236.663;  -16.850; -215.000; -117.000
236.806; -131.400;-1029.000; -999.000
236.949;   67.825;  543.000;  431.000
237.092;   55.825;  412.000;  391.000
237.236;  -80.250; -589.000; -502.000
237.379;   49.250;  352.000;  428.000
237.522; -123.400; -879.000; -768.000
237.666;  -20.150; -271.000;   18.000
237.809; -119.150; -851.000; -823.000
237.952;   33.500;  469.000;  271.000
238.095;  -68.400; -447.000; -442.000
238.238;   94.400;  688.000;  700.000
238.382;    6.375;  166.000;  103.000
238.525;  -78.000; -598.000; -511.000
238.668; -137.550;-1060.000; -985.000
238.811;  -76.675; -638.000; -643.000
238.954;  -42.775; -483.000; -334.000
239.097;   93.975;  617.000;  664.000
239.241;   48.275;  394.000;  326.000
239.384;  -37.225; -254.000; -214.000
239.527;  -56.250; -424.000; -224.000
239.670; -137.650; -994.000;-1091.000
239.813; -105.725; -696.000; -658.000
239.956;   66.625;  579.000;  473.000
240.099; -106.400; -778.000; -725.000
240.242;   54.850;  428.000;  432.000
240.385;   44.700;  466.000;  450.000
240.528;  -70.000; -706.000; -473.000
240.671;   22.375;  189.000;  134.000
240.814;  -43.675; -441.000; -158.000
240.957;  -96.800; -767.000; -578.000
241.100;  -90.025; -779.000; -755.000
241.243; -142.300;-1234.000; -893.000
241.386;  -58.625; -508.000; -379.000
241.529;  -92.925; -735.000; -547.000
241.672;  -65.275; -566.000; -495.000
241.815; -120.250; -832.000; -808.000
241.958;  -24.075; -125.000; -182.000
242.101;  -77.775; -545.000; -390.000
242.244;  -31.250; -270.000; -325.000
242.387;  -34.800; -304.000; -246.000
242.530;   54.125;  470.000;  134.000
242.673;  -39.925; -381.000; -309.000
242.815; -118.100; -925.000; -899.000
242.958;  -54.550; -482.000; -381.000
243.101;   12.400;  132.000;  187.000
243.244;  -71.400; -564.000; -521.000
243.387;  -48.550; -313.000; -316.000
243.530;  -98.175; -657.000; -674.000
243.672;   -6.275;   43.000;  -92.000
243.815;  -42.625; -355.000; -283.000
243.958;   -7.750;   98.000;  -26.000
244.101;   -3.350;   59.000;  -16.000
244.243;  -22.325;  -47.000;  101.000
244.386; -108.975; -761.000; -630.000
244.529;  -24.400; -132.000; -139.000
244.672; -144.650;-1154.000; -951.000
244.814; -101.600; -621.000; -794.000
244.957;  -43.025; -380.000; -304.000
245.100;  -78.725; -489.000; -489.000
245.242;  -53.250; -387.000; -374.000
245.385;  -15.275;  -59.000;  -39.000
245.528; -120.775; -871.000; -705.000
245.670;   86.725;  612.000;  634.000
245.813;  -84.625; -599.000; -547.000
245.956;  -41.775; -324.000; -275.000
246.098;  -63.325; -508.000; -650.000
246.241;   18.500;  194.000;   48.000
246.383;  -17.200; -119.000;  -73.000
246.526;  -59.825; -454.000; -525.000
246.669; -114.225; -889.000; -780.000
246.811;   17.750;  172.000;   -1.000
246.954;  -45.775; -512.000; -426.000
247.096;  -19.750;  -84.000;   -6.000
247.239;  -66.225; -482.000; -445.000
247.381;  -64.325; -647.000; -488.000
247.524;   84.875;  645.000;  679.000
247.666;   -2.275;   58.000;   11.000
247.809; -106.625; -887.000; -691.000
247.951;   -5.650;  -75.000;  138.000
248.094;   24.925;  432.000;  308.000
248.236; -162.700;-1262.000;-1238.000
248.378;    7.550; -356.000;  -81.000
248.521;  -12.275; -334.000; -337.000
248.663;  -52.300; -236.000; -267.000
248.806;  -25.300; -300.000; -266.000
248.948;  -75.200; -886.000; -763.000
249.090;  -37.925; -428.000; -398.000
249.233;  -30.400; -344.000; -381.000
249.375;  -65.650; -474.000; -451.000
249.518;  -19.875;  -83.000; -133.000
249.660;   -5.575; -103.000;    3.000
249.802; -152.425;-1303.000;-1189.000
249.945;  -79.175; -612.000; -540.000
250.087; -109.800; -834.000; -768.000
250.229;  -35.650; -362.000; -480.000
250.371;  -72.325; -494.000; -439.000
250.514;  -58.125; -310.000; -244.000
250.656;  -59.925;   69.000;  102.000
250.798; -118.625; -849.000; -800.000
250.940;  -60.250; -322.000; -322.000
251.083;  -17.300; -335.000; -111.000
251.225;   65.400;  338.000;  310.000
251.367;  -38.500; -274.000; -373.000
251.509;  -30.650; -265.000; -210.000
251.651; -101.025; -731.000; -671.000
251.794;   50.800;  538.000;  632.000
251.936; -106.725; -821.000; -747.000
252.078;  -68.575; -540.000; -461.000
252.220;  -66.000; -645.000; -477.000
252.362;   91.950;  344.000;  462.000
252.504;  -56.275; -677.000; -584.000
252.646; -112.400; -875.000; -722.000
252.788;    5.450;   14.000; -128.000
252.931;  -21.375; -257.000; -253.000
253.073;  -48.375; -376.000; -317.000
253.215;   -0.475;  141.000;  122.000
253.357;   -9.700;   82.000; -153.000
253.499;  -48.950; -374.000; -234.000
253.641;  -83.400; -749.000; -594.000
253.783;  -75.875; -609.000; -527.000
253.925;  -94.825; -586.000; -591.000
254.067; -104.425; -744.000; -667.000
254.209;  -25.300; -391.000; -259.000
254.351; -124.025; -865.000; -883.000
254.493;  -59.425; -441.000; -417.000
254.635; -114.550; -936.000; -818.000
254.777;  -80.700; -752.000; -687.000
254.918;  -56.650; -512.000; -430.000
255.060;  -48.200; -551.000; -395.000
255.202;  -57.700; -473.000; -261.000
255.344;  -64.975; -658.000; -455.000
255.486;  -74.725; -471.000; -406.000
255.628; -111.525; -780.000; -781.000
255.770;  -94.750; -676.000; -536.000
255.912;  -57.875; -559.000; -468.000
256.053;  -78.350; -730.000; -508.000
256.195;  154.300; 1008.000;  903.000
256.337; -101.025; -861.000; -595.000
256.479;   67.350;  532.000;  416.000
256.621;  -48.175; -394.000; -212.000
256.762;  -87.600; -789.000; -742.000
256.904;   63.425;  485.000;  487.000
257.046;  -40.750; -381.000; -271.000
257.188;  -43.875; -351.000; -264.000
257.329;  -58.850; -525.000; -464.000
257.471; -117.350; -939.000; -807.000
257.613;  -62.925; -584.000; -498.000
257.755; -143.050;-1073.000; -982.000
257.896;   34.600;  286.000;  392.000
258.038;  -64.325; -403.000; -352.000
258.180;  -37.025; -354.000; -279.000
258.321;  -71.000; -581.000; -457.000
258.463;   -1.400;  -71.000;  133.000
258.605;  -73.925; -562.000; -570.000
258.746;  -94.800; -886.000; -772.000
258.888; -140.575;-1026.000;-1020.000
259.029;   15.875;  121.000;   -8.000
259.171;  -80.375; -614.000; -550.000
259.313;    0.375;  -49.000;  -47.000
259.454;  -72.100; -536.000; -414.000
259.596;  -50.825; -483.000; -390.000
259.737;  -75.625; -590.000; -474.000
259.879;   34.300;  217.000;  311.000
260.020;  103.225;  901.000;  636.000
260.162;  -25.600; -146.000; -253.000
260.303; -114.675; -768.000; -687.000
260.445;  -85.100; -609.000; -613.000
260.586;   37.050;  392.000;  157.000
260.728;  -40.825; -360.000; -248.000
260.869; -107.050; -350.000; -343.000
261.011;   74.325;  706.000;  537.000
261.152;  -53.800; -479.000; -319.000
261.293;  -71.900; -576.000; -595.000
261.435;  -30.500; -219.000; -184.000
261.576;  -52.400; -455.000; -325.000
261.718;   61.850;  420.000;  470.000
261.859; -125.475; -940.000; -949.000
262.000; -130.225; -951.000;-1016.000
262.142;  -17.725;  -52.000;  -60.000
262.283; -113.075; -808.000; -691.000
262.424;  -86.575; -666.000; -625.000
262.566; -147.275;-1161.000; -983.000
262.707; -112.625; -840.000; -830.000
262.848; -113.300; -769.000; -726.000
262.990;  -44.825; -362.000; -345.000
263.131;   82.100;  650.000;  681.000
263.272;   -3.000;  -61.000;  -41.000
263.413;  -87.875; -589.000; -561.000
263.555;  -52.900; -669.000; -143.000
263.696;  -77.950; -550.000; -641.000
263.837;  -39.825; -449.000; -551.000
263.978;  -11.000;   -5.000;  -77.000
264.119;  -35.150; -283.000; -264.000
264.261; -109.025; -847.000; -630.000
264.402;    4.075;   33.000;   40.000
264.543;  -75.775; -509.000; -524.000
264.684;   -8.925;   61.000;  -50.000
264.825;  -60.350; -816.000; -538.000
264.966;    3.300;  -84.000;  -67.000
265.107; -109.675; -646.000; -670.000
265.248; -110.300; -825.000; -812.000
265.390;   -8.700;  152.000;   -9.000
265.531;  -16.375; -238.000; -107.000
265.672;  -91.400; -557.000; -630.000
265.813;   68.375;  563.000;  439.000
265.954; -129.675; -959.000; -940.000
266.095;   -9.525; -372.000; -322.000
266.236;  -85.325; -686.000; -548.000
266.377;  -53.025; -243.000; -297.000
266.518;  -75.250; -619.000; -547.000
266.659;   30.075;  170.000;  268.000
266.800;    9.100;   83.000;   85.000
266.941;  -78.575; -487.000; -478.000
267.082;    7.850;  354.000;   99.000
267.223;  -55.125; -344.000; -273.000
267.364; -119.150; -892.000; -686.000
267.504;   -0.950;    3.000;  135.000
267.645;    6.075;  160.000;   67.000
267.786;  -29.075; -147.000;  -86.000
267.927;  -60.075; -473.000; -379.000
268.068;   -9.300; -186.000;  -61.000
268.209;  -49.400; -175.000; -413.000
268.350;  -54.275; -388.000; -532.000
268.490;  -92.400; -648.000; -521.000
268.631;   28.375;  127.000;  225.000
268.772; -115.900; -874.000; -647.000
268.913;  -49.900; -328.000; -476.000
269.054;   -0.450; -117.000;   12.000
269.194;  -46.000; -418.000; -402.000
269.335; -148.400;-1137.000;-1074.000
269.476;  -26.525;   33.000;  -35.000
269.617;  -38.225; -347.000; -392.000
269.757;  -87.375; -713.000; -646.000
269.898;  -88.175; -856.000; -613.000
270.039;  -59.950; -415.000; -405.000
270.180; -124.625; -952.000; -816.000
270.320;  -15.750; -190.000; -250.000
270.461;  -33.275; -277.000; -249.000
270.602;  -18.825; -186.000; -156.000
270.742; -122.850; -868.000; -943.000
270.883;  -58.200; -442.000; -390.000
271.023;  -55.375; -358.000; -357.000
271.164;  -68.050; -607.000; -528.000
271.305;  -90.375; -666.000; -654.000
271.445;  -88.925; -722.000; -683.000
271.586;  -56.800; -462.000; -283.000
271.726;  -44.950; -397.000; -322.000
271.867;  -39.725; -594.000; -534.000
272.008;  235.075; -473.000; -285.000
272.148;  153.425;  462.000;  468.000
272.289;   18.575; -113.000; -181.000
272.429;   33.700;   19.000;  185.000
272.570;  -89.800; -633.000; -737.000
272.710;  -97.325; -825.000; -775.000
272.851;  -13.250;  113.000; -130.000
272.991; -149.250;-1173.000;-1077.000
273.131;  -61.000; -419.000; -459.000
273.272;  -96.600; -683.000; -723.000
273.412;   25.600; -143.000;  -31.000
273.553;  -36.825; -488.000; -507.000
273.693;  141.925;  913.000;  858.000
273.834;  -79.750; -894.000; -692.000
273.974;  -61.850; -664.000; -615.000
274.114;  -84.200; -772.000; -560.000
274.255;   92.475;  414.000;  373.000
274.395;   34.225; -180.000; -125.000
274.535;   47.275;  199.000;  350.000
274.676;   34.000;  225.000;   94.000
274.816;   -1.150;  110.000;   34.000
274.956;  -71.550; -624.000; -690.000
275.097;  -47.950;-1014.000; -922.000
275.237; -105.375; -913.000; -803.000
275.377;  -94.175; -778.000; -689.000
275.517; -149.725; -878.000; -937.000
275.658;  -51.600; -590.000; -555.000
275.798;  -50.350; -606.000; -413.000
275.938;   19.025;  215.000;  323.000
276.078;  -96.150; -626.000; -395.000
276.218;   16.400;   99.000;  104.000
276.359; -107.300;-1026.000;-1024.000
276.499;  -69.725; -605.000; -446.000
276.639;  -37.225; -305.000; -151.000
276.779;  -41.950; -475.000; -357.000
276.919;  -97.550; -783.000; -624.000
277.059;   -9.800; -261.000; -212.000
277.199;  -37.075; -357.000; -259.000
277.340;   48.650;  287.000;  175.000
277.480;  -99.025; -840.000; -693.000
277.620;   25.950;  192.000;   16.000
277.760; -186.675;-1533.000;-1294.000
277.900;   24.300;  113.000;   33.000
278.040;   24.475;  137.000;  159.000
278.180;   45.175;  270.000;  170.000
278.320;   -6.325;   21.000;   56.000
278.460;  -67.800; -443.000; -469.000
278.600;  -93.375; -708.000; -598.000
278.740;   47.550;  448.000;  224.000
278.880;  -21.375; -768.000; -791.000
279.020;    5.975; -194.000; -144.000
279.160;  -73.000; -672.000; -595.000
279.300; -107.275; -926.000; -873.000
279.440;  -85.025; -709.000; -622.000
279.579;   17.000;-1014.000; -929.000
279.719;  -46.775; -410.000; -394.000
279.859;   91.925;   -4.000;   41.000
279.999;   43.275; -208.000;  101.000
280.139;  -15.050; -435.000; -387.000
280.279;  -43.775; -708.000; -745.000
280.419;  -13.175; -229.000; -147.000
280.559;  -38.525; -259.000; -180.000
280.698;  -83.350; -790.000; -639.000
280.838;  -61.025; -778.000; -800.000
280.978; -110.950; -846.000; -790.000
281.118; -117.825; -811.000; -704.000
281.257;    3.275;   24.000;    6.000
281.397;  -82.325;-1094.000; -960.000
281.537;  -71.000; -599.000; -712.000
281.677;  -11.500; -150.000; -101.000
281.816;  -87.900; -700.000; -630.000
281.956;  -42.525; -193.000; -257.000
282.096;  -65.225; -539.000; -396.000
282.235; -103.900; -672.000; -638.000
282.375;  -14.025; -243.000;  -98.000
282.515;  -91.600; -715.000; -707.000
282.654;   35.925;   29.000;  106.000
282.794;   31.550;  388.000;  244.000
282.934;  -33.475; -530.000; -491.000
283.073; -118.475;-1030.000; -857.000
283.213;  -47.500; -460.000; -467.000
283.353;  -18.000; -408.000; -349.000
283.492;  -17.775; -264.000; -296.000
283.632;  -11.175; -254.000; -168.000
283.771; -101.250; -859.000; -730.000
283.911;  -34.200; -369.000; -260.000
284.050; -110.850; -794.000; -748.000
284.190; -157.675;-1229.000;-1096.000
284.329; -135.475;-1055.000; -964.000
284.469;  -44.175; -516.000; -591.000
284.608;  -55.300; -559.000; -598.000
284.748;  -76.925; -614.000; -570.000
284.887;   -5.600;  -87.000;  -20.000
285.027; -115.375; -844.000; -892.000
285.166;  -12.250; -192.000; -249.000
285.306;   18.150; -116.000;  -33.000
285.445;  -36.625; -229.000; -343.000
285.584;  -86.475; -630.000; -494.000
285.724;  -47.250; -282.000; -322.000
285.863; -105.525; -857.000; -507.000
286.002;  -46.800; -366.000; -276.000
286.142; -108.700; -715.000; -622.000
286.281;  -58.725; -525.000; -493.000
286.420;  -76.425; -554.000; -417.000
286.560;   99.375;  653.000;  623.000
286.699; -123.475; -958.000; -912.000
286.838;  -71.125; -590.000; -591.000
286.978;  -85.325; -533.000; -537.000
287.117; -131.600;-1085.000; -950.000
287.256;  -25.625; -228.000; -211.000
287.395;  -49.350; -197.000; -378.000
287.535;  -38.875; -370.000; -298.000
287.674;  -62.850; -509.000; -484.000
287.813;   65.400;  661.000;  533.000
287.952; -134.400;-1010.000; -871.000
288.091; -137.675;-1049.000; -915.000
288.231;   28.350;   13.000;   15.000
288.370; -165.550;-1217.000;-1200.000
288.509;  -78.325; -728.000; -645.000
288.648;  -89.675; -770.000; -548.000
288.787;  -27.375; -243.000;  -87.000
288.926;  -50.300; -454.000; -475.000
289.065;  131.750;  859.000;  672.000
289.204;  -38.450; -377.000; -217.000
289.344;  -80.925; -791.000; -690.000
289.483;   22.075;  416.000;  304.000
289.622;  -16.800; -291.000; -149.000
289.761;  -10.450; -309.000; -166.000
289.900;  -99.475; -785.000; -626.000
290.039;   -7.050;  -12.000;  -95.000
290.178;  -41.700; -274.000; -180.000
290.317;  -60.850; -618.000; -479.000
290.456;  -56.850; -463.000; -451.000
290.595; -136.275; -961.000; -833.000
290.734; -136.650; -904.000; -891.000
290.873;  -77.800; -456.000; -420.000
291.011;  -96.350; -833.000; -843.000
291.150;  -89.325; -770.000; -682.000
291.289;  -19.725; -343.000; -110.000
291.428;  -81.550; -599.000; -480.000
291.567;  -47.975; -370.000; -442.000
291.706;   -5.825;  109.000;  154.000
291.845;  -78.650; -597.000; -505.000
291.984; -154.025;-1234.000;-1061.000
292.122;   94.150;  602.000;  582.000
292.261;   55.175;  620.000;  463.000
292.400;   13.700; -144.000;  211.000
292.539; -120.275; -959.000; -813.000
292.678;  -36.425; -325.000; -300.000
292.816; -154.175;-1136.000; -965.000
292.955;  -73.625; -844.000; -684.000
293.094;   -2.900; -173.000; -337.000
293.233;  -54.525; -556.000; -400.000
293.371;  -33.425; -225.000;  -84.000
293.510; -105.975; -866.000; -780.000
293.649; -104.775; -959.000; -924.000
293.787;  -31.825;-1083.000;-1012.000
293.926;   10.250; -113.000;  -32.000
294.065;  -32.850; -379.000; -290.000
294.203;   58.825;  298.000;  406.000
294.342;   32.550;   74.000;  156.000
294.481; 6182.000;51180.000; -836.000
294.619;  -31.825; -425.000; -582.000
294.758; -125.600;-1230.000;-1137.000
294.896;   99.825; -125.000;    5.000
295.035; -107.300;-1040.000;-1006.000
295.174; -106.300;-1082.000; -954.000
295.312;  -34.575; -323.000; -203.000
295.451;   10.550; -307.000; -428.000
295.589;  -39.875; -389.000; -518.000
295.728;   19.675; -292.000; -165.000
295.866;   21.925;  -36.000;  -51.000
296.005;  -54.525; -584.000; -341.000
296.143;  -47.225; -558.000; -596.000
296.282;  -95.525; -957.000; -881.000
296.420;  -69.600; -657.000; -557.000
296.559;  -77.400; -892.000; -633.000
296.697;   70.250; -847.000; -665.000
296.835;  143.175;-1141.000;-1002.000
296.974;   75.675;  -23.000;   39.000
297.112;   49.400; -443.000; -504.000
297.251;  -65.000; -815.000; -755.000
297.389;  154.525; -576.000; -438.000
297.527;   59.700; -145.000;  -83.000
297.666;  -39.175; -486.000; -438.000
297.804;  -40.400; -404.000; -264.000
297.942;    8.800; -136.000; -161.000
298.081;    5.475; -183.000;   63.000
298.219;  103.625;  -17.000;  -19.000
298.357;   86.050; -144.000;  -71.000
298.495;   84.325; -810.000; -812.000
298.634;  124.925;  245.000;  219.000
298.772;  102.725; -220.000; -338.000
298.910;  -14.175; -309.000; -182.000
299.048;   -8.325; -130.000; -153.000
299.187;  -17.150; -350.000; -250.000
299.325;   34.175;   52.000;  122.000
299.463;  106.725; -389.000; -299.000
299.601;  161.600; -327.000; -271.000
299.739;  -76.075; -908.000; -883.000
299.877;  -71.950; -791.000; -703.000
300.016;    5.525;-1095.000; -935.000
300.154;  213.225;  -19.000; -161.000
300.292;  112.475; -428.000; -348.000
300.430;   73.875; -408.000; -291.000
300.568;  -84.150; -940.000; -874.000
300.706;  -30.500; -366.000; -469.000
300.844;  -23.875;-1108.000; -979.000
300.982;  145.075;  246.000;  282.000
301.120; -103.150; -965.000; -866.000
301.258;  -38.100; -812.000; -705.000
301.396;   58.500;  104.000;  -41.000
301.534;  148.575; -218.000; -293.000
301.672;   39.950; -664.000; -521.000
301.810;   97.450; -613.000; -545.000
301.948;  174.950;   53.000;  149.000
302.086;  830.825; -250.000;  -32.000
302.224; 1282.825; -610.000; -585.000
302.362;   89.425; -558.000; -622.000
302.500;   44.200; -923.000; -893.000
302.638;  144.675;  128.000;  245.000
302.776;   19.350; -352.000; -408.000
302.913;   49.500;  447.000;  236.000
303.051;   29.425;  -86.000;  -23.000
303.189;   67.175;   90.000;  118.000
303.327;  -36.375; -341.000; -256.000
303.465;  -72.425; -832.000; -588.000
303.603;  -83.775; -805.000; -604.000
303.740;  116.800;  417.000;  241.000
303.878;   78.450; -800.000; -759.000
304.016;  -85.150; -915.000; -790.000
304.154; -102.850;-1123.000;-1152.000
304.291;  -27.300; -505.000; -554.000
304.429;   28.125;  102.000;   74.000
304.567; -113.400; -908.000; -893.000
304.705;  -40.850; -408.000; -515.000
304.842;  165.775; -616.000; -540.000
304.980;   83.925;  215.000;   35.000
305.118;   94.500; -367.000; -365.000
305.255;  -30.425; -945.000; -927.000
305.393;   54.750;  178.000;  239.000
305.531;  -87.725;-1173.000; -956.000
305.668;  -60.925; -663.000; -582.000
305.806;  155.225; -358.000; -439.000
305.943;  152.125; -629.000; -637.000
306.081;   88.050; -378.000; -267.000
306.219;  -90.350; -863.000; -748.000
306.356;    6.925;  158.000;   27.000
306.494;   97.675;  981.000;  761.000
306.631;   20.300;  -11.000;  -55.000
306.769;   21.400; -613.000; -485.000
306.906;   -6.525; -284.000; -258.000
307.044;  -51.350; -473.000; -488.000
307.181;  -62.000; -410.000; -332.000
307.319;   20.875;  112.000;   87.000
307.456; -151.375;-1191.000;-1153.000
307.594;  -76.675; -980.000; -727.000
307.731;    5.500; -371.000; -164.000
307.868;    2.925;  -15.000;   20.000
308.006; -120.675; -961.000; -847.000
308.143;  -42.875; -618.000; -330.000
308.281;  236.100;  -37.000; -254.000
308.418;   21.950; -748.000; -640.000
308.555;  -54.125; -400.000; -250.000
308.693;  -65.425; -577.000; -573.000
308.830;  -86.225; -712.000; -657.000
308.967;   -8.475; -215.000;  -95.000
309.105;  -38.575; -507.000; -396.000
309.242;   66.100; -468.000; -367.000
309.379;  453.700; -577.000; -655.000
309.517;  -28.600; -936.000; -948.000
309.654;  -87.800; -910.000; -734.000
309.791;  -54.100; -662.000; -580.000
309.928; -102.800; -977.000; -914.000
310.065;  220.825;  819.000;  697.000
310.203;   37.350; -825.000; -850.000
310.340;   10.075; -465.000; -321.000
310.477;  -69.275; -412.000; -516.000
310.614;  -56.800; -383.000; -473.000
310.751;  -75.825; -427.000; -518.000
310.889;  -15.475;    1.000;   11.000
311.026; -146.900;-1161.000; -939.000
311.163;  -38.000; -386.000; -380.000
311.300;  -55.225; -512.000; -479.000
311.437;  -70.150; -658.000; -619.000
311.574; -143.750;-1226.000; -985.000
311.711;  -47.950; -595.000; -433.000
311.848;  -26.825; -380.000; -388.000
311.985;   21.875;  270.000;   93.000
312.122; -107.750; -932.000; -762.000
312.259; -122.400; -941.000; -994.000
312.396;  -74.725; -508.000; -551.000
312.533;  -72.100; -812.000; -790.000
312.670; -110.050;-1070.000; -898.000
312.807;  -25.625; -352.000; -367.000
312.944;  -63.800; -513.000; -611.000
313.081;  -29.600; -150.000; -415.000
313.218;  -93.450;-1111.000; -867.000
313.355;   26.950; -531.000; -449.000
313.492;   38.950; -455.000; -292.000
313.629;  146.575;  815.000;  735.000
313.766; -155.200;-1176.000;-1008.000
313.902;   -4.475; -186.000;   21.000
314.039;  -34.850; -372.000; -289.000
314.176;   39.250;  286.000;  192.000
314.313;  -63.600; -569.000; -473.000
314.450;  -58.325; -788.000; -684.000
314.587;  -46.750; -468.000; -480.000
314.723;    5.850;  -78.000;  130.000
314.860;   36.525;  318.000;  332.000
314.997;   50.750;  223.000;  142.000
315.134;  -40.000; -385.000; -368.000
315.270;  -15.600; -480.000; -496.000
315.407; -110.350;-1094.000; -967.000
315.544;  -30.675; -657.000; -538.000
315.681;  -53.150; -681.000; -565.000
315.817;   60.075; -133.000; -176.000
315.954;   45.900; -613.000; -392.000
316.091; -115.175;-1045.000;-1023.000
316.227;  -15.275;  -71.000; -179.000
316.364;    9.275;   23.000;    6.000
316.500;  -37.550; -113.000; -300.000
316.637;  -37.550; -181.000; -302.000
316.774;  -85.500; -625.000; -358.000
316.910;  -90.550; -598.000; -629.000
317.047;  -65.025; -487.000; -351.000
317.183;  -47.275; -435.000; -566.000
317.320;  -18.375; -367.000; -321.000
317.456;  -77.150; -733.000; -805.000
317.593;  -78.450; -598.000; -641.000
317.729;    2.375;  168.000;  -67.000
317.866; -181.800;-1434.000;-1285.000
318.002;  -90.475; -708.000; -948.000
318.139;  -63.250; -883.000; -867.000
318.275;  -91.100;-1003.000; -738.000
318.412;  -58.100; -517.000; -336.000
318.548;    7.750; -751.000; -720.000
318.685;  -81.150; -985.000; -888.000
318.821;  -94.750; -762.000; -735.000
318.957;   -4.175;   34.000;  -23.000
319.094;   53.650;  297.000;  154.000
319.230;  -28.250; -756.000; -742.000
319.367;  195.300; -471.000; -520.000
319.503;   96.275; -538.000; -436.000
319.639;  -93.250; -877.000; -793.000
319.775;  -46.525; -750.000; -685.000
319.912;  -45.325; -424.000; -519.000
320.048;  -65.775;-1184.000;-1184.000
320.184;   75.450;   59.000;   70.000
320.321;  -43.925; -497.000; -467.000
320.457;   61.000;  475.000;  662.000
320.593;  -56.275; -375.000; -382.000
320.729;  -99.125; -732.000; -734.000
320.866;  -64.300; -577.000; -635.000
321.002;  -66.050; -759.000; -809.000
321.138;    9.825; -135.000; -211.000
321.274;   99.675; -148.000; -115.000
321.410;   -6.875; -585.000; -353.000
321.546;   10.375;-1011.000; -911.000
321.683;   76.850;  400.000;  185.000
321.819;   19.375;  -48.000; -117.000
321.955;  -82.975; -743.000; -722.000
322.091;  -35.925; -585.000; -540.000
322.227;   -2.000; -382.000; -202.000
322.363;    5.350; -320.000; -215.000
322.499;  -23.975; -343.000; -331.000
322.635;  198.925;  636.000;  443.000
322.771;   42.525; -139.000;   12.000
322.907;  114.725;  129.000;  327.000
323.043;    4.625; -115.000; -206.000
323.179;  -19.250; -394.000; -363.000
323.315;   69.600; -401.000; -371.000
323.451;  151.900; -328.000; -236.000
323.587;   65.475;  -60.000;  -77.000
323.723;   50.425; -682.000; -601.000
323.859;   -8.100; -258.000;  -76.000
323.995;  -26.100; -467.000; -409.000
324.131; -114.300; -967.000; -892.000
324.267;  -31.500; -254.000; -276.000
324.402; -118.475; -960.000; -983.000
324.538;   -2.525; -279.000; -104.000
324.674;   46.225;  164.000;   77.000
324.810;  175.075;  226.000;  308.000
324.946;   36.150; -810.000; -658.000
325.082;  -55.300; -568.000; -475.000
325.217;   -6.225;  -62.000;   16.000
325.353;  -95.200; -764.000; -659.000
325.489;  -75.350; -540.000; -506.000
325.625;  -68.500; -579.000; -525.000
325.760;   61.925;  517.000;  376.000
325.896;  -30.225; -515.000; -702.000
326.032;  -42.000; -403.000; -352.000
326.168;  -51.550; -462.000; -369.000
326.303;  -58.575; -352.000; -461.000
326.439;  -16.000; -336.000; -276.000
326.575;   19.575; -190.000;  -29.000
326.710;    4.550; -156.000;  -30.000
326.846;  -15.550;  146.000;  103.000
326.982;  -94.600; -530.000; -548.000
327.117;  -58.575; -481.000; -442.000
327.253;  -86.925; -745.000; -742.000
327.388; -105.075;-1137.000;-1153.000
327.524;  -27.750; -811.000; -578.000
327.659;  -13.175;  -58.000;  -22.000
327.795;   -5.275;   69.000;   45.000
327.931;  -80.675; -723.000; -499.000
328.066;   -9.300; -417.000; -276.000
328.202;   -9.850;   12.000; -129.000
328.337;   97.625;  957.000;  713.000
328.473;   45.750;  -12.000;  -74.000
328.608;  -15.250; -256.000; -267.000
328.743;  -61.925; -799.000; -664.000
328.879;   32.100;  214.000;  114.000
329.014;  -31.400; -102.000; -122.000
329.150;  -83.800; -358.000; -483.000
329.285;  -60.650; -465.000; -466.000
329.421;  -57.025; -548.000; -246.000
329.556;  -12.375;  -36.000;   85.000
329.691;  -85.050; -633.000; -615.000
329.827;  -86.800; -626.000; -480.000
329.962;  -43.100;  131.000; -301.000
330.097;  -80.925; -673.000; -585.000
330.233;  -59.750; -410.000; -223.000
330.368; -118.875; -839.000; -628.000
330.503;  -14.900;    3.000;   98.000
330.638;   30.350;  -93.000; -125.000
330.774;  -34.925; -609.000; -530.000
330.909;  -37.725; -434.000; -244.000
331.044;  -76.400; -714.000; -708.000
331.179; -156.475;-1217.000;-1109.000
331.315;    5.625;   77.000;   20.000
331.450;   18.800;  157.000;  285.000
331.585;  -71.425; -805.000; -706.000
331.720;  -67.250; -510.000; -460.000
331.855;    7.125;  -35.000; -102.000
331.990;  207.000;   62.000;  138.000
332.126;  102.050; -110.000;   71.000
332.261;   -7.450; -379.000; -265.000
332.396;   -7.650; -135.000; -242.000
332.531; -103.025;-1074.000;-1031.000
332.666;   23.075; -519.000; -363.000
332.801;  -83.275; -726.000; -807.000
332.936;   -2.800; -192.000; -122.000
333.071; -143.525; -870.000; -817.000
333.206;   24.925;  307.000;  379.000
333.341;   36.575;  344.000;  418.000
333.476;  -76.650; -627.000; -623.000
333.611;  -29.450; -251.000; -173.000
333.746;  -31.975; -381.000; -464.000
333.881; -103.825; -973.000; -935.000
334.016; -110.075; -936.000; -917.000
334.151; -112.200; -746.000; -702.000
334.286;   42.275;  152.000;  186.000
334.421;    5.500; -125.000; -178.000
334.556;  -56.375; -611.000; -567.000
334.690;  -56.325; -631.000; -577.000
334.825;   64.050;  381.000;   83.000
334.960;  -38.825; -285.000; -413.000
335.095;   13.325;  135.000;  -91.000
335.230;  -92.075; -722.000; -738.000
335.365; -118.425;-1084.000; -990.000
335.499; -111.925;-1108.000;-1037.000
335.634;   48.500;    9.000;  534.000
335.769;  -78.975; -755.000; -720.000
335.904;  -49.800; -603.000; -561.000
336.038;  -35.750; -735.000; -657.000
336.173;  -90.725;-1206.000;-1194.000
336.308;   23.675; -116.000; -189.000
336.443;   22.600; -544.000; -634.000
336.577;  -46.675; -936.000; -787.000
336.712;   85.575;   -4.000;  -12.000
336.847;  -11.575; -724.000; -607.000
336.981;  125.150; -272.000; -208.000
337.116;  357.425;  615.000;  501.000
337.250;  218.725; -434.000; -421.000
337.385;  217.225; -297.000; -208.000
337.520;   54.950; -632.000; -603.000
337.654;  -32.750; -215.000; -126.000
337.789; -116.725; -989.000; -933.000
337.923;  -16.050; -104.000; -205.000
338.058;  -60.975; -673.000; -738.000
338.192;   -7.925; -611.000; -488.000
338.327;    0.725;  -18.000; -155.000
338.461;  -55.400; -299.000; -469.000
338.596;  -80.200; -780.000; -638.000
338.730;  -91.100; -767.000; -803.000
338.865;   80.150;  -46.000; -140.000
338.999;  -59.300; -846.000; -702.000
339.134;  -28.125; -634.000; -536.000
339.268;   26.625; -741.000; -603.000
339.403;  336.525; -740.000; -775.000
339.537;  105.650; -894.000; -820.000
339.671; -104.325; -829.000; -813.000
339.806;  -61.175; -556.000; -512.000
339.940;   17.200; -261.000; -235.000
340.074;  -84.100; -685.000; -510.000
340.209;  -49.075; -351.000; -230.000
340.343;  -75.775; -517.000; -573.000
340.477;  152.700;  998.000; 1036.000
340.612;  -48.975;-1033.000; -900.000
340.746;  113.225; -199.000; -243.000
340.880;  -36.550; -924.000; -785.000
341.014;   -2.000;  -45.000; -154.000
341.149; -108.150; -756.000; -718.000
341.283; -100.000; -839.000; -754.000
341.417;  -79.825;-1124.000; -938.000
341.551;  234.600; -768.000; -708.000
341.685;  -11.375; -633.000; -611.000
341.820;  -47.725; -562.000; -493.000
341.954;  -50.750; -218.000; -349.000
342.088; -150.200;-1102.000;-1019.000
342.222;   70.575;  565.000;  618.000
342.356;  -49.050; -395.000; -335.000
342.490;  -64.125; -880.000; -841.000
342.624;  -26.225; -339.000; -242.000
342.758;   45.200; -364.000; -312.000
342.892;  -29.375; -710.000; -585.000
343.026;  -38.925;  -58.000; -116.000
343.160;  -36.025; -426.000; -376.000
343.294;  -71.875; -474.000; -337.000
343.428;    1.375; -488.000; -448.000
343.562;   14.250; -172.000;  -23.000
343.696;  -16.925; -385.000; -314.000
343.830;    2.600; -362.000; -356.000
343.964;   53.200; -231.000; -168.000
344.098; 1228.275;  199.000;   70.000
344.232; 1053.875; -266.000; -127.000
344.366;  134.525; -567.000; -453.000
344.500;  117.875; -665.000; -744.000
344.634;   63.725; -324.000; -164.000
344.768;   11.425; -531.000; -341.000
344.902;   31.700;  278.000;  256.000
345.035;  -72.300; -556.000; -496.000
345.169; -125.250; -933.000; -656.000
345.303;   -6.025; -308.000; -482.000
345.437;  -64.025; -826.000; -717.000
345.571;  -64.925; -675.000; -594.000
345.704;  -55.950; -309.000; -532.000
345.838;  -11.225; -331.000; -284.000
345.972;  -13.950; -543.000; -495.000
346.106;  150.950; -179.000; -190.000
346.239;  447.950; -312.000; -243.000
346.373;   34.525; -343.000; -302.000
346.507; -120.975; -950.000; -962.000
346.640;  223.075;  -30.000;   13.000
346.774;   -8.625; -650.000; -797.000
346.908;  -14.075; -138.000;  -11.000
347.041;  -91.100; -646.000; -593.000
347.175;   11.300;  259.000;   27.000
347.309;  -41.725; -698.000; -628.000
347.442;  -93.025; -883.000; -732.000
347.576;  360.900;  670.000;  668.000
347.709;  293.475; -123.000;  -52.000
347.843;  -64.425; -933.000; -825.000
347.976;   37.800;  235.000;  294.000
348.110; -165.075;-1268.000;-1186.000
348.243;  -94.250; -679.000; -772.000
348.377;   31.175;  -26.000;   60.000
348.510;   54.450;  403.000;  540.000
348.644;  -17.225;  -37.000; -159.000
348.777;    1.975;  180.000;  191.000
348.911;  -38.425; -142.000; -112.000
349.044;  227.225;  471.000;  448.000
349.178;  269.875;-1069.000;-1006.000
349.311;  136.400;  141.000;  255.000
349.444;    2.675; -927.000; -813.000
349.578;   -4.350; -347.000; -200.000
349.711;  -74.850; -959.000; -862.000
349.845;   37.675; -661.000; -591.000
349.978; -129.325;-1224.000;-1137.000
350.111;  -81.800; -546.000; -612.000
350.244;  -50.850; -596.000; -700.000
350.378;   22.800; -392.000; -393.000
350.511;  -61.550; -393.000; -426.000
350.644; -110.075; -808.000; -806.000
350.778;   10.600;  168.000;  104.000
350.911;    5.675;  134.000;  140.000
351.044;  -87.400; -685.000; -615.000
351.177;  -23.600; -321.000; -281.000
351.310;  -12.675;    3.000; -131.000
351.444;  -47.550; -888.000; -788.000
351.577;  147.975;  140.000;   90.000
351.710;  111.225;  593.000;  417.000
351.843;  -22.625; -165.000;  -77.000
351.976;    6.275;  149.000;  -79.000
352.109;  -67.050; -621.000; -612.000
352.242;    5.500; -464.000; -419.000
352.376;  -31.350; -580.000; -636.000
352.509;  273.400; -437.000; -356.000
352.642;   77.400; -654.000; -604.000
352.775;   94.075; -141.000;  -98.000
352.908;  -97.075; -933.000; -904.000
353.041;  -91.875; -814.000; -824.000
353.174;  -36.625; -551.000; -424.000
353.307;  -80.050; -753.000; -764.000
353.440;   79.850;  541.000;  453.000
353.573;  -95.300; -957.000;-1008.000
353.706;  -26.750; -384.000; -558.000
353.839;  -13.500; -264.000; -220.000
353.971;  -71.225; -657.000; -512.000
354.104;  -61.825; -896.000; -835.000
354.237;    9.700; -627.000; -662.000
354.370;  -68.975; -846.000; -879.000
354.503; -160.575;-1231.000;-1308.000
354.636;  -25.475; -529.000; -348.000
354.769;  -97.575; -937.000; -860.000
354.902;   11.175; -230.000; -139.000
355.034;  -15.475; -164.000; -220.000
355.167;   -4.150; -262.000; -162.000
355.300;  -84.525;-1061.000; -880.000
355.433;  874.875;  -71.000;  -14.000
355.565; 1358.200; -402.000; -384.000
355.698;  346.750; -356.000; -296.000
355.831;   29.125; -882.000; -801.000
355.964;  136.100; -285.000; -170.000
356.096;  -51.400; -856.000; -843.000
356.229;   38.700; -523.000; -530.000
356.362;  277.875; -373.000; -266.000
356.494;  563.150; -229.000; -162.000
356.627;  613.150;  269.000;  377.000
356.760;  660.325;  120.000;   53.000
356.892;  866.875; -286.000; -601.000
357.025;  839.300;  403.000;  389.000
357.157;  815.250; -167.000; -179.000
357.290;  590.925; -856.000; -713.000
357.423;  204.450; -667.000; -556.000
357.555;  160.300; -217.000; -228.000
357.688;  177.550; -483.000; -364.000
357.820;  614.125; -870.000; -877.000
357.953; 4667.050; -563.000; -589.000
358.085; 1075.200; -632.000; -612.000
358.218; 1709.450;-1131.000; -932.000
358.350;  309.975;  -58.000;  312.000
358.483;  -81.050;-1300.000;-1187.000
358.615;   38.900;-1182.000;-1078.000
358.747;   -0.350;-1187.000;-1058.000
358.880;   88.675; -810.000; -744.000
359.012;   21.450; -376.000; -202.000
359.145;  -20.800; -480.000; -511.000
359.277;  132.525; -962.000; -913.000
359.409; 3881.225;  536.000;  231.000
359.542; 1099.800; -738.000; -688.000
359.674;  102.875;   46.000;   13.000
359.806;  -46.475; -565.000; -438.000
359.939;  -39.625; -617.000; -516.000
360.071;  -14.275; -583.000; -579.000
360.203;  -24.875; -411.000; -364.000
360.335;   78.550;  164.000;  -16.000
360.468;  248.925; -249.000; -307.000
360.600; 2986.825; -547.000; -454.000
360.732; 2581.250; -546.000; -423.000
360.864;  378.100;-1216.000;-1044.000
360.996;  427.675; -516.000; -554.000
361.129;   95.025; -389.000; -598.000
361.261;   43.050;  110.000; -113.000
361.393;  -18.900; -252.000; -214.000
361.525;   46.525;   94.000;  244.000
361.657;   -6.775; -821.000; -703.000
361.789;   28.850; -139.000; -155.000
361.921;  389.650; -642.000; -593.000
362.053;  358.275;  524.000;  541.000
362.185;   78.750;  288.000;   72.000
362.318;  -56.000; -709.000; -705.000
362.450;  168.750;  294.000;  444.000
362.582;  263.775; -913.000; -870.000
362.714;  -11.100; -353.000; -332.000
362.846;  -68.250; -606.000; -490.000
362.978; -118.700; -941.000; -811.000
363.109;  100.825; -161.000; -260.000
363.241;  627.775; -739.000; -749.000
363.373;  420.275; -649.000; -564.000
363.505;  558.750; -186.000;  -91.000
363.637;  164.175; -787.000; -601.000
363.769; -102.275;-1067.000;-1080.000
363.901;  -47.475; -596.000; -654.000
364.033;  -91.525;-1103.000;-1062.000
364.165;   29.725; -283.000; -283.000
364.296;   93.825; -316.000; -177.000
364.428;   71.725;-1344.000;-1220.000
364.560;  -61.275; -679.000; -661.000
364.692;  -39.525; -738.000; -835.000
364.824;  416.175; -588.000; -456.000
364.955;  472.025; -402.000; -564.000
365.087;  737.800;-1097.000; -852.000
365.219;   24.625; -686.000; -816.000
365.351;  -59.075; -526.000; -572.000
365.482;   66.250;  300.000;  240.000
365.614;  -37.750; -402.000; -314.000
365.746;  -93.725; -729.000; -752.000
365.877;  -91.475; -706.000; -672.000
366.009;  233.650;  -35.000;  -62.000
366.141;  -84.675;-1249.000;-1134.000
366.272; -101.350; -803.000; -719.000
366.404;  -91.075;-1005.000; -874.000
366.535;  -17.925; -139.000;  -12.000
366.667;  -78.300; -644.000; -649.000
366.799;   39.200;  353.000;  203.000
366.930;  -92.300; -862.000; -996.000
367.062;  139.925; -639.000; -613.000
367.193;  117.700; -872.000; -842.000
367.325;  -62.825; -580.000; -684.000
367.456;  123.950; -246.000;   31.000
367.588;  156.275; -371.000; -318.000
367.719;   21.050;  -44.000;  -45.000
367.851;    0.975; -222.000; -241.000
367.982;  -10.525; -875.000; -732.000
368.113;  174.725; -475.000; -358.000
368.245;  -86.750; -960.000; -841.000
368.376;  -12.675; -254.000; -302.000
368.508;  -15.725; -188.000; -263.000
368.639; -119.825;-1166.000;-1034.000
368.770;   36.325; -670.000; -589.000
368.902;  -33.725; -836.000; -926.000
369.033;  -83.750; -906.000; -855.000
369.164;  -42.450; -720.000; -653.000
369.296; -110.925; -452.000; -601.000
369.427;   31.425; -209.000; -144.000
369.558;  -11.750; -593.000; -377.000
369.689;  -82.950; -721.000; -569.000
369.821; -114.125; -951.000; -845.000
369.952;   -8.950;   42.000; -108.000
370.083;  -61.150; -229.000; -108.000
370.214;  -90.000; -735.000; -650.000
370.345;   -5.575;   65.000;   81.000
370.477;  -62.550; -810.000; -790.000
370.608;  343.075; -328.000; -264.000
370.739;    4.950;-1233.000;-1292.000
370.870;    6.600;-1102.000; -923.000
371.001;  172.300; -378.000; -467.000
371.132;  -61.275; -754.000; -735.000
371.263;  -23.275;  -42.000; -148.000
371.394; -121.700; -841.000; -748.000
371.525;   52.100;  345.000;  225.000
371.657;  -72.000; -808.000; -670.000
371.788;   99.325;  103.000;  199.000
371.919;  254.875; -384.000; -304.000
372.050; 4741.100;  -91.000; -156.000
372.181; 1476.900; -188.000; -294.000
372.311;  519.100;   42.000; -127.000
372.442;  108.750; -457.000; -451.000
372.573;  -14.400; -444.000; -340.000
372.704;  -94.500;-1008.000; -980.000
372.835;  139.875; -228.000; -289.000
372.966;  -27.700; -646.000; -554.000
373.097;  -43.750; -575.000; -711.000
373.228;  -16.875; -717.000; -542.000
373.359;  242.125; -824.000; -536.000
373.490; 1325.275; -881.000; -727.000
373.620; 1653.850;-1001.000; -803.000
373.751; 2460.450; -332.000; -396.000
373.882; 1149.700; -663.000; -733.000
374.013;  132.225; -449.000; -262.000
374.143;   -9.450; -581.000; -659.000
374.274;  -71.850; -987.000; -908.000
374.405;  256.750; -388.000; -276.000
374.536;  631.025; -526.000; -387.000
374.666; 1624.300; -759.000; -807.000
374.797;  391.125; -817.000; -868.000
374.928; 1244.675; -710.000; -560.000
375.058; 1275.275; -535.000; -500.000
375.189;  130.050;  -59.000;  -93.000
375.320;  -83.250; -928.000;-1034.000
375.450;  -21.175; -625.000; -616.000
375.581;  -33.150; -526.000; -436.000
375.712;  -17.250; -574.000; -250.000
375.842;  459.000; -438.000; -415.000
375.973;  364.275; -554.000; -513.000
376.103;   13.400; -665.000; -648.000
376.234;  -74.900; -531.000; -552.000
376.364;   17.325; -944.000; -867.000
376.495;  417.800;  925.000;  529.000
376.625;   54.275; -472.000; -485.000
376.756;  131.600; -709.000; -678.000
376.886;  -23.525;-1178.000;-1026.000
377.017;   34.525;-1048.000;-1061.000
377.147;  281.350; -786.000; -782.000
377.278;   73.250;  174.000;  228.000
377.408; -119.025; -801.000; -815.000
377.538;  -91.175; -707.000; -693.000
377.669;  -66.625; -537.000; -613.000
377.799;  -68.025; -645.000; -635.000
377.929;  -27.575; -610.000; -428.000
378.060; -119.300; -781.000; -847.000
378.190;  -59.375; -726.000; -531.000
378.320;  -43.625; -401.000; -406.000
378.451;   14.350; -131.000;  -22.000
378.581;   10.825;  -67.000; -110.000
378.711;  171.175; 1035.000;  866.000
378.841;   24.000; -533.000; -675.000
378.972;  -31.900; -871.000; -751.000
379.102;   41.425; -652.000; -579.000
379.232;   15.900; -126.000;  -73.000
379.362;  -90.075;-1001.000; -885.000
379.492;   71.575; -373.000; -424.000
379.623;  152.950;    0.000;  111.000
379.753;  -63.125;-1107.000; -974.000
379.883;  277.225;   59.000;  156.000
380.013;   82.200;-1081.000;-1017.000
380.143;  -63.550;-1097.000;-1056.000
380.273;  -71.350; -985.000; -861.000
380.403;   17.950; -344.000; -257.000
380.533;    9.575; -651.000; -664.000
380.663;  106.175;  173.000;  128.000
380.793;  -60.200;-1027.000;-1074.000
380.923;  -13.700; -103.000;  -34.000
381.053;  -78.400; -613.000; -623.000
381.183;  -25.625; -106.000; -248.000
381.313;   83.350; -656.000; -470.000
381.443;   95.475; -692.000; -473.000
381.573;  313.200; -402.000; -409.000
381.703;  484.125;-1249.000;-1095.000
381.833;  -72.425;-1454.000;-1336.000
381.963;  152.425; -134.000;  -87.000
382.093; 1823.400; -925.000; -909.000
382.223;  609.450; -713.000; -602.000
382.353;   32.000; -801.000; -608.000
382.482;  583.675;-1091.000; -964.000
382.612; 1060.700; -872.000; -644.000
382.742;  618.425; -695.000; -622.000
382.872;  427.900; -565.000; -551.000
383.002;   89.750;  347.000; -132.000
383.131;   -0.725; -226.000; -160.000
383.261;  -16.025; -706.000; -768.000
383.391;  306.625; -552.000; -377.000
383.521; 2778.200;  451.000;  263.000
383.650;  637.650; -947.000; -904.000
383.780;  -10.000; -783.000; -656.000
383.910;  125.625;  880.000;  802.000
384.039;   78.650; -794.000; -656.000
384.169;  379.300;-1205.000;-1017.000
384.299;   20.600; -650.000; -662.000
384.428;  -62.075; -764.000; -680.000
384.558;  -34.900; -308.000; -275.000
384.687;  -16.550; -414.000; -334.000
384.817;   22.400;   75.000;   -2.000
384.947;   51.275; -234.000; -141.000
385.076;  362.650;  982.000;  912.000
385.206;  135.825;  369.000;  480.000
385.335;  -15.300; -549.000; -417.000
385.465;  -53.850; -655.000; -663.000
385.594;  196.000;  -53.000;  -44.000
385.724;  644.275; -868.000; -838.000
385.853;  192.525; -296.000; -270.000
385.982; 1892.750; -743.000; -787.000
386.112; 2988.800;-1052.000; -871.000
386.241;  229.425; -307.000; -312.000
386.371;   38.400; -174.000;  -87.000
386.500;   49.625; -825.000; -789.000
386.629;   56.950; -874.000; -817.000
386.759;   86.775;  -43.000;   68.000
386.888;    8.825; -170.000; -250.000
387.017;  -62.700; -648.000; -620.000
387.147;  -74.750; -771.000; -798.000
387.276;   22.075; -410.000; -397.000
387.405;   48.975; -398.000; -342.000
387.535;  -30.550; -452.000; -361.000
387.664;  -55.650; -692.000; -620.000
387.793;   98.425; -198.000; -113.000
387.922;  716.025;  255.000;  200.000
388.052;   76.625; -576.000; -423.000
388.181;   52.100; -342.000; -472.000
388.310;   71.700; -889.000; -710.000
388.439;   -1.550; -749.000; -742.000
388.568;  258.325;  365.000;  244.000
388.697; 1480.350; -756.000; -653.000
388.826;  345.150; -768.000; -666.000
388.956;  107.200; -285.000; -307.000
389.085;  -13.600; -347.000; -287.000
389.214;  -91.825; -842.000; -872.000
389.343;  -55.925; -645.000; -413.000
389.472;  383.400;  126.000;  149.000
389.601;  554.625;   91.000;    0.000
389.730;   56.775; -568.000; -687.000
389.859;   82.450;  226.000;   46.000
389.988;  272.800; -423.000; -408.000
390.117;  213.900; -168.000; -146.000
390.246;   26.350; -331.000; -320.000
390.375;  197.550; -673.000; -626.000
390.504;  -28.250; -703.000; -621.000
390.633;  -74.950; -672.000; -726.000
390.761;  -26.500; -732.000; -645.000
390.890;   62.225;   -4.000; -130.000
391.019;    1.700; -421.000; -441.000
391.148; -100.625; -826.000; -855.000
391.277;  -50.250; -576.000; -493.000
391.406;  -47.325; -821.000; -805.000
391.534;   39.375;  574.000; -301.000
391.663;  -40.900; -583.000; -645.000
391.792;  -59.500; -673.000; -701.000
391.921;  190.400;   -3.000;   15.000
392.050;  314.850; -287.000; -228.000
392.178;   27.575;-1206.000;-1061.000
392.307;  243.775; -758.000; -712.000
392.436;  141.900; -427.000; -641.000
392.564;   28.675;  166.000;   -6.000
392.693;  -67.600; -860.000; -682.000
392.822;  322.900; -529.000; -534.000
392.950;  202.025; -880.000; -714.000
393.079;  477.825; -188.000; -328.000
393.208;   71.650; -488.000; -511.000
393.336;   -3.025; -170.000; -145.000
393.465;  -52.650; -317.000; -199.000
393.593;   17.625;   62.000;   79.000
393.722; -138.925;-1121.000; -916.000
393.850;  -24.675; -188.000;  -61.000
393.979; -148.375; -926.000; -805.000
394.107;  -62.750; -517.000; -537.000
394.236;    1.175; -570.000; -507.000
394.364;  249.275;  383.000;  206.000
394.493;  486.750; -911.000; -767.000
394.621;    0.750; -955.000; -916.000
394.750;  615.625; -873.000; -923.000
394.878; 2597.575; -247.000; -149.000
395.007; 3627.025; -721.000; -807.000
395.135;  289.900; -790.000; -721.000
395.263;  -76.300;-1038.000;-1040.000
395.392;   19.175;  -25.000; -107.000
395.520; -130.575; -818.000; -679.000
395.648;  -59.575; -865.000; -915.000
395.777;   39.150; -366.000; -405.000
395.905;  -32.600; -449.000; -564.000
396.033;   21.200;  217.000;  172.000
396.162;  791.625; -399.000; -453.000
396.290;  705.675;  -17.000;   -2.000
396.418;  182.700; -555.000; -514.000
396.546;  -38.450; -571.000; -466.000
396.674;  -76.050; -850.000; -878.000
396.803;   28.600;  -72.000;  -23.000
396.931;  166.000; -179.000; -199.000
397.059;  154.100;-1026.000; -989.000
397.187;  -89.525;-1026.000; -975.000
397.315; -125.650; -884.000; -649.000
397.443;  -97.100; -592.000; -443.000
397.572;  -76.900; -578.000; -424.000
397.700;   39.400; -607.000; -614.000
397.828;   32.775;  120.000;  -90.000
397.956;  -33.850; -508.000; -478.000
398.084;  -54.675; -767.000; -626.000
398.212;   60.525;  137.000;  124.000
398.340;   34.925;  -56.000;  159.000
398.468;   71.100; -390.000; -169.000
398.596; -119.475; -993.000; -953.000
398.724; -102.200; -762.000; -767.000
398.852; -150.775;-1024.000; -976.000
398.980;  -51.300; -560.000; -560.000
399.108;  -19.425; -982.000; -735.000
399.236;   64.575;   13.000;    8.000
399.363;   16.975;  222.000;  196.000
399.491;  -52.050; -404.000; -398.000
399.619; -122.600; -829.000; -800.000
399.747;  -90.275; -859.000; -771.000
399.875;   94.600;  220.000;  234.000
400.003;  -43.050; -359.000; -284.000
400.130;  -83.700; -421.000; -341.000
400.258;  -24.725;  -83.000;   38.000
400.386;  -58.825; -352.000; -168.000
400.514;   -6.225; -526.000; -587.000
400.641;  -40.525; -928.000; -802.000
400.769; -135.625; -979.000; -888.000
400.897;  -87.325; -838.000; -793.000
401.025;  -10.475; -166.000; -152.000
401.152;    0.025;  220.000;   38.000
401.280;  -72.050; -430.000; -429.000
401.408; -119.250; -712.000; -576.000
401.535;  -91.000; -735.000; -758.000
401.663; -175.675;-1134.000;-1054.000
401.790;  -86.350; -514.000; -525.000
401.918;   50.275;  436.000;  405.000
402.046;  -16.425;  134.000;  122.000
402.173;  -35.875;  -18.000;    7.000
402.301;  -63.400; -519.000; -397.000
402.428;   48.575;  528.000;  383.000
402.556; -132.975;-1188.000; -913.000
402.683;   -8.200;  -20.000;   -1.000
402.811;  -16.475;  -37.000; -206.000
402.938;   -5.875;   20.000;   27.000
403.066;  279.050; -574.000; -558.000
403.193;  463.175;  299.000;  239.000
403.321;  383.150; -396.000; -574.000
403.448;  450.250;   83.000;   27.000
403.575;  211.175;  -90.000;  -46.000
403.703;  -78.900; -732.000; -557.000
403.830;  -60.375; -531.000; -496.000
403.957; -125.450;-1117.000;-1023.000
404.085;   22.450;  -61.000; -172.000
404.212;  131.325;  -50.000;   63.000
404.339;  240.400; -566.000; -306.000
404.467; 5101.375; -612.000; -524.000
404.594; 3898.425; -287.000; -227.000
404.721; 1104.975; -869.000; -764.000
404.848;  109.725; -113.000; -202.000
404.976;  -95.775; -856.000; -783.000
405.103;  -11.900;  -14.000;  -82.000
405.230;   -6.950;  190.000;  226.000
405.357;   27.675;  117.000;   44.000
405.484;  226.650;  -49.000;    5.000
405.612;   61.925; -548.000; -563.000
405.739;  -56.500; -488.000; -243.000
405.866;  111.025;  669.000;  385.000
405.993;  -20.350; -398.000; -102.000
406.120; -128.700; -801.000; -887.000
406.247;  -40.600; -323.000; -342.000
406.374;  598.425;  540.000;  629.000
406.501;  223.100; -632.000; -702.000
406.628;  -64.350; -621.000; -589.000
406.755;  -71.425; -803.000; -620.000
406.882;  -21.875; -228.000; -277.000
407.009; -100.050; -719.000; -628.000
407.136;   94.825; -480.000; -401.000
407.263;  265.275; -939.000; -829.000
407.390;  -53.825; -692.000; -614.000
407.517; -145.925;-1139.000;-1187.000
407.644;  -42.925; -332.000; -256.000
407.771;  -49.950; -249.000; -287.000
407.898;   18.750;  168.000;  328.000
408.025;  -57.725; -421.000; -313.000
408.151;   -2.775;   82.000;  153.000
408.278;  -61.450; -267.000; -216.000
408.405;  -95.900; -931.000; -899.000
408.532;  -69.925; -549.000; -542.000
408.659; -114.300; -677.000; -648.000
408.785; -194.875;-1298.000;-1170.000
408.912;  -63.475; -412.000; -296.000
409.039; -102.975; -610.000; -686.000
409.166; -106.800; -591.000; -555.000
409.292; -109.350; -571.000; -534.000
409.419; -118.675; -665.000; -649.000
409.546;  -85.650; -431.000; -192.000
409.672; -112.200; -713.000; -545.000
409.799;  -11.600;  -36.000;   34.000
409.926;  -19.275; -180.000; -179.000
410.052; -152.700;-1127.000;-1091.000
410.179;  -35.100; -368.000; -392.000
410.305;  -80.600; -375.000; -493.000
410.432;  -52.575; -220.000; -333.000
410.558;  -79.675; -305.000; -380.000
410.685;  -87.250; -688.000; -431.000
410.812;  -92.200; -409.000; -588.000
410.938; -133.750; -964.000; -808.000
411.065;  -92.500; -671.000; -645.000
411.191;  -13.400; -189.000; -174.000
411.317; -102.000; -823.000; -742.000
411.444;  -47.675; -317.000; -246.000
411.570;  -82.225; -339.000; -294.000
411.697; -132.075; -758.000; -752.000
411.823; -159.675; -989.000; -999.000
411.949;  -23.800;  -56.000;   17.000
412.076; -102.875; -539.000; -519.000
412.202; -116.125; -758.000; -757.000
412.329; -118.050; -798.000; -752.000
412.455; -105.425; -821.000; -657.000
412.581;  -17.625;  -15.000;  172.000
412.707;  -52.500; -540.000; -457.000
412.834;   29.100;  156.000;  219.000
412.960;  -60.225; -785.000; -784.000
413.086;  -93.825; -743.000; -701.000
413.212;  173.350;  604.000;  578.000
413.339;  -42.975; -685.000; -701.000
413.465;   28.075; -364.000; -310.000
413.591;  -65.675; -757.000; -474.000
413.717;  -47.350; -358.000; -366.000
413.843; -137.250; -839.000; -861.000
413.969;  -43.625;  -47.000; -292.000
414.096;  -89.550; -679.000; -679.000
414.222;  -18.300;  -33.000;   85.000
414.348;   11.275; -652.000; -385.000
414.474;  148.850;   38.000;  -52.000
414.600;    0.050; -126.000; -144.000
414.726;   -1.650;  -96.000;  -55.000
414.852;  -69.350; -365.000; -342.000
414.978;   49.075;  104.000;  -18.000
415.104;   37.450;   38.000;   80.000
415.230;   37.425; -329.000; -330.000
415.356;   52.800; -409.000; -514.000
415.482;  211.325;   13.000;  -35.000
415.608;  254.475; -247.000; -323.000
415.734;  892.575;   67.000;   38.000
415.860;18330.925; -875.000; -767.000
415.986;13998.925; -685.000; -607.000
416.111; 1197.850; -798.000; -652.000
416.237;  259.125; -424.000; -571.000
416.363;  957.575; -765.000; -733.000
416.489; 3775.850; -324.000; -251.000
416.615;  410.725; -707.000; -742.000
416.741;  -29.575; -677.000; -784.000
416.866;  -90.100; -673.000; -736.000
416.992; -114.375; -801.000; -818.000
417.118;  -17.400;  -41.000;  -80.000
417.244;  -60.225; -798.000; -531.000
417.369;  -74.200; -801.000; -612.000
417.495;   -5.250; -325.000; -254.000
417.621;  -55.800;-1015.000; -803.000
417.746;   24.500; -579.000; -572.000
417.872;   57.150; -254.000; -144.000
417.998;   45.500; -515.000; -530.000
418.123;  869.575;-1073.000; -845.000
418.249; 4887.100; -512.000; -601.000
418.374;  715.550; -916.000; -824.000
418.500;  114.450; -383.000; -482.000
418.626;  117.150;   70.000;  -59.000
418.751;  126.375; -549.000; -448.000
418.877;  196.275; -637.000; -643.000
419.002; 1540.925; -688.000; -560.000
419.128;11211.150; -930.000; -721.000
419.253; 2860.425; -967.000; -837.000
419.379;  358.650; -391.000; -338.000
419.504;  386.075;  325.000;  415.000
419.629;  433.600; -393.000; -212.000
419.755; 2947.625; -317.000; -254.000
419.880;18327.725;  -98.000;   67.000
420.006;10205.000; -280.000; -221.000
420.131;27259.625; -662.000; -775.000
420.256; 4172.025; -315.000; -316.000
420.382;  561.075; -665.000; -687.000
420.507;   79.275; -649.000; -778.000
420.632;  201.900; -337.000; -339.000
420.758;  408.025; -251.000; -425.000
420.883;  -54.825; -876.000; -672.000
421.008;  -88.725; -775.000; -619.000
421.133;  -75.450; -509.000; -467.000
421.259;  -45.200; -325.000; -259.000
421.384;  -97.100; -834.000; -693.000
421.509;    1.400;-1052.000; -862.000
421.634; 1732.025; -936.000; -820.000
421.759;  796.000; -359.000; -327.000
421.885;  -19.975; -717.000; -656.000
422.010;  -53.325; -673.000; -542.000
422.135; -128.475; -695.000; -727.000
422.260;   34.650;  340.000;  280.000
422.385;  -64.475;   12.000;  -98.000
422.510;    3.200;  151.000;  -26.000
422.635;   44.000;  -87.000;  -43.000
422.760;  165.275; -766.000; -791.000
422.885;  103.700;  -57.000;  -80.000
423.010;  -26.875; -112.000; -169.000
423.135;  -85.075; -481.000; -561.000
423.260;   -8.275; -150.000; -245.000
423.385;   78.825;  476.000;  222.000
423.510;   37.425;   71.000;  -22.000
423.635;  125.600;  133.000;   45.000
423.760;   64.100;  383.000;  328.000
423.885;   53.075;  336.000;  391.000
424.010;   29.700;  -68.000;  -13.000
424.135;   -1.325;    5.000;  -33.000
424.259;  -81.825; -654.000; -457.000
424.384;  -56.625; -279.000; -272.000
424.509;   -6.875; -260.000; -186.000
424.634; -102.275; -761.000; -623.000
424.759;  -19.075; -688.000; -544.000
424.883;  -12.375; -506.000; -527.000
425.008;  172.600; -502.000; -410.000
425.133; 1818.500; -679.000; -653.000
425.258;  910.000; -517.000; -381.000
425.382; 1318.100; -867.000; -774.000
425.507; 3525.725; -487.000; -543.000
425.632;  566.600; -802.000; -663.000
425.756;  427.050; -256.000; -146.000
425.881; 5297.350; -831.000; -857.000
426.006;14963.650; -604.000; -355.000
426.130; 2603.050; -696.000; -508.000
426.255;  310.275; -611.000; -491.000
426.379;  155.875; -189.000; -577.000
426.504;  334.600;  660.000;  544.000
426.629; 3722.200; -519.000; -466.000
426.753; 2710.925;   64.000;  -46.000
426.878;  330.525; -252.000; -288.000
427.002;  146.775; -651.000; -668.000
427.127; 1447.775;  -35.000; -158.000
427.251;10235.125;  372.000;  401.000
427.375; 3173.300; -191.000; -173.000
427.500; 2936.725; -616.000; -610.000
427.624; 1069.200; -234.000; -400.000
427.749;  130.250; -216.000; -225.000
427.873;  -20.125; -499.000; -412.000
427.997;  -22.450; -222.000; -230.000
428.122;  101.700;  795.000;  703.000
428.246;   79.300;  433.000;  434.000
428.371;  -95.350; -869.000; -773.000
428.495;  -82.025; -624.000; -646.000
428.619;  -19.925; -186.000; -117.000
428.743;   44.275;   65.000;  132.000
428.868;   53.100; -732.000; -643.000
428.992; 1858.750; -219.000; -326.000
429.116;  841.675; -329.000; -357.000
429.240;  390.375;  419.000;  426.000
429.365;    2.225; -454.000; -574.000
429.489;  -22.425; -638.000; -647.000
429.613;   13.975; -236.000; -177.000
429.737;   43.250; -563.000; -432.000
429.861;  248.600; -247.000; -133.000
429.985; 4953.775; -425.000; -305.000
430.109; 5729.125; -770.000; -908.000
430.234;  682.675;   76.000;  -50.000
430.358;   84.975; -250.000; -160.000
430.482;  -58.425; -672.000; -564.000
430.606;  -48.200; -655.000; -375.000
430.730;   59.375; -437.000; -388.000
430.854;  239.500; -909.000; -835.000
430.978;  -38.700; -795.000; -764.000
431.102;  -62.950; -499.000; -422.000
431.226; -105.750; -874.000; -815.000
431.350;   30.875;  345.000;  422.000
431.474;  -66.100; -661.000; -373.000
431.597; -130.875;-1060.000; -848.000
431.721;  -67.800; -276.000; -267.000
431.845; -122.100; -704.000; -472.000
431.969;  -81.000; -304.000; -349.000
432.093;  -95.875; -395.000; -317.000
432.217;   -7.725;   32.000;   82.000
432.341;  -90.550; -523.000; -518.000
432.464;   12.650;   96.000;   40.000
432.588;  305.625; -401.000; -329.000
432.712;  167.225;  -52.000;  -52.000
432.836;   47.975;  213.000;  263.000
432.959;  -37.750; -372.000; -311.000
433.083;   72.950;   11.000;    2.000
433.207;  341.575;  285.000;  930.000
433.330; 4359.725; -391.000; -200.000
433.454; 5634.075; -654.000; -638.000
433.578; 3279.125;  583.000;  278.000
433.701;  671.125; -623.000; -675.000
433.825;  228.325; -292.000; -299.000
433.949;  281.125;   28.000;  -72.000
434.072;  136.225; -410.000; -323.000
434.196;    4.325; -309.000; -117.000
434.319; 3617.575;25482.000;25124.000
434.443;  742.550; -656.000; -603.000
434.566; 2456.850;  281.000;   62.000
434.690;  435.250; -637.000; -383.000
434.813;   59.625; -251.000; -173.000
434.937;  -82.100; -569.000; -696.000
435.060;  -20.850; -423.000; -332.000
435.184;  522.000; -492.000; -217.000
435.307;  308.500;  159.000;  102.000
435.431;   20.250;  -40.000;   24.000
435.554;  -66.075; -399.000; -240.000
435.677;  -82.550; -350.000; -258.000
435.801;  -32.825;  -25.000;   49.000
435.924;   13.775;    1.000;  -67.000
436.048;  -65.275;-1019.000; -732.000
436.171;  -57.600; -240.000;  -66.000
436.294;  -31.900; -248.000; -229.000
436.417;   82.725; -963.000; -849.000
436.541;  -84.950; -814.000; -840.000
436.664;  -42.775; -242.000; -316.000
436.787;  -18.150;   13.000;  113.000
436.910; -102.375; -792.000; -422.000
437.034;   19.450;  142.000;  143.000
437.157;  106.750;  -11.000;    0.000
437.280;  -18.475; -392.000; -292.000
437.403;  -26.500; -982.000; -869.000
437.526;  991.525; -903.000; -865.000
437.649; 3521.525; -505.000; -332.000
437.772;  619.450; -692.000; -540.000
437.896;  167.150;  700.000;  544.000
438.019; -100.350; -758.000; -503.000
438.142;  -75.525; -596.000; -506.000
438.265;   26.125; -639.000; -670.000
438.388;  854.075; -520.000; -410.000
438.511;  221.275; -597.000; -394.000
438.634;  -31.325; -247.000; -125.000
438.757; -127.875; -693.000; -619.000
438.880;  -14.000;  -34.000;  -57.000
439.003;  -60.475; -417.000; -437.000
439.126;  -59.825; -287.000; -167.000
439.248;  -58.600;  -98.000; -139.000
439.371;  -57.000;    9.000;  -53.000
439.494;   31.125;  510.000;  439.000
439.617;  -50.950;   65.000;  -88.000
439.740; -171.925; -968.000; -816.000
439.863; -136.425; -755.000; -595.000
439.986; -120.050; -476.000; -431.000
440.108;  -33.575; -161.000; -112.000
440.231; -146.625; -950.000; -836.000
440.354;  -35.075;  -64.000; -150.000
440.477;  106.650; -566.000; -542.000
440.599;   67.500; -200.000; -225.000
440.722;  -98.325; -709.000; -586.000
440.845;   70.550;  751.000;  928.000
440.968; -110.375; -415.000; -311.000
441.090;  -66.250; -199.000;  -33.000
441.213; -168.650;-1021.000; -825.000
441.336;  -52.225; -159.000;   -5.000
441.458;  -55.450; -549.000; -396.000
441.581;  -60.250; -628.000; -629.000
441.703;  -66.600; -152.000;   13.000
441.826; -108.825; -557.000; -400.000
441.948;  -41.500;   56.000;   51.000
442.071;   23.400;  555.000;  424.000
442.193; -121.750; -531.000; -485.000
442.316;   20.875;  152.000;   97.000
442.438;   45.475; -233.000;  -10.000
442.561;   82.625;  272.000;  262.000
442.683;  826.800; -809.000; -522.000
442.806; 1770.675;   -8.000;   74.000
442.928;  127.850; -859.000; -604.000
443.051;  -48.050; -577.000; -373.000
443.173;  -91.375; -341.000; -339.000
443.295;  -75.800; -263.000; -371.000
443.418;  -58.000; -321.000;  -29.000
443.540;   14.475; -106.000;   -4.000
443.662; -119.375; -563.000; -465.000
443.785;  -14.850;  335.000;  199.000
443.907;  -88.700; -362.000; -208.000
444.029; -123.075; -767.000; -494.000
444.152; -134.550; -644.000; -554.000
444.274;  -36.525;  -18.000;  -24.000
444.396; -112.075; -461.000; -221.000
444.518; -139.000; -691.000; -454.000
444.640;  -99.050; -268.000; -111.000
444.763;  -18.675;  388.000;  249.000
444.885; -120.625; -432.000; -392.000
445.007;  -39.050;   35.000;   86.000
445.129; -110.525; -610.000; -515.000
445.251;  -89.400; -372.000; -439.000
445.373; -133.125; -537.000; -386.000
445.495;   13.425;  242.000;  350.000
445.617;   51.125;  853.000;  753.000
445.739;  -64.125; -215.000;  -97.000
445.861;  -26.300; -245.000; -112.000
445.984;  -24.775; -267.000; -101.000
446.105;  304.400; -418.000; -251.000
446.227;  902.125; -176.000;  -19.000
446.349;   65.575; -358.000; -249.000
446.471;  -97.975; -615.000; -448.000
446.593;  -38.075; -316.000;   19.000
446.715;    3.175;  -67.000;   41.000
446.837;   70.050;  697.000;  832.000
446.959;  -84.000; -457.000; -478.000
447.081; -121.950; -628.000; -518.000
447.203;   66.125;  862.000;  834.000
447.325;  -84.475; -270.000;   42.000
447.446;    0.025;  286.000;  530.000
447.568; -152.125; -921.000; -803.000
447.690;  -61.425; -236.000; -245.000
447.812; -158.700; -798.000; -519.000
447.933;  -27.050;  155.000;  127.000
448.055;  -57.475; -306.000; -261.000
448.177;  209.275;   31.000;   79.000
448.299;  191.025; -935.000; -727.000
448.420;   52.875;  -25.000;  159.000
448.542;  -37.675;   -3.000;   33.000
448.664;  -29.475;  109.000;  322.000
448.785;  -26.425;  265.000;   83.000
448.907;  -59.050; -614.000; -353.000
449.028;   -4.700; -771.000; -471.000
449.150;   66.650;  492.000;  589.000
449.272; -167.900;-1044.000; -913.000
449.393;   34.325;  612.000;  694.000
449.515; -138.775; -634.000; -581.000
449.636;  -54.800; -264.000; -155.000
449.758;   82.375;  763.000;  622.000
449.879;  -94.450; -498.000; -396.000
450.001;  -75.725; -149.000;  -49.000
450.122;  -42.400;  -95.000;  162.000
450.244;  -31.950;   37.000;  364.000
450.365; -100.675; -495.000; -301.000
450.486;  -41.425;   80.000;  268.000
450.608;   13.900;  393.000;  326.000
450.729;   61.550;  578.000;  645.000
450.850;  -10.500; -574.000; -466.000
450.972;  599.575; -552.000; -389.000
451.093; 4238.475;  190.000;  588.000
451.214; 1955.200; -516.000; -337.000
451.336;  362.725;  773.000;  579.000
451.457;   46.050;  264.000;  393.000
451.578;  -35.800; -118.000;  -74.000
451.699; -103.175; -546.000; -540.000
451.821;  -62.950; -284.000;  -50.000
451.942;    5.350;  278.000;  285.000
452.063;   23.850;  228.000;  419.000
452.184;  475.525;  -54.000;  -49.000
452.305; 1004.775;  103.000;  170.000
452.427;  121.600; -549.000; -301.000
452.548;  -16.300;   23.000;   79.000
452.669;  -38.875; -257.000;  -89.000
452.790;  -24.250;    3.000;  -18.000
452.911;    6.700;  195.000;  259.000
453.032;  -56.275; -289.000;  -60.000
453.153;  -35.225;  -29.000;   81.000
453.274;   54.675;  737.000;  868.000
453.395;  -37.925;  -51.000;  175.000
453.516;  100.250; 1317.000; 1388.000
453.637;  -38.425; -205.000; -150.000
453.758;  -60.050;   15.000;   69.000
453.879; -123.300; -462.000; -250.000
454.000;   69.975; 1086.000;  948.000
454.121; -106.425; -554.000; -326.000
454.242; -113.075; -599.000; -383.000
454.362;  -45.100;  -99.000;  114.000
454.483;  -38.575; -309.000; -229.000
454.604;   74.450;  512.000;  580.000
454.725; -101.400; -627.000; -555.000
454.846; -109.475; -474.000; -406.000
454.967;  -18.700;  230.000;  539.000
455.087;  -47.200;  179.000;  153.000
455.208;    7.750;  554.000;  856.000
455.329;  -64.400;  -22.000;   82.000
455.450;   24.525;  473.000;  633.000
455.570;  -85.400; -234.000; -211.000
455.691;  -31.925;  201.000;  407.000
455.812; -102.075; -270.000;  -92.000
455.932;  -69.450;  107.000;  -97.000
456.053;  -76.700;   36.000;   24.000
456.173; -105.200; -433.000; -355.000
456.294; -127.550; -476.000; -303.000
456.415;  -60.800;  -73.000;   70.000
456.535;  -27.700;  297.000;  273.000
456.656;  -44.225;  132.000;  240.000
456.776;  -77.875;    3.000;  298.000
456.897;   -7.350;  308.000;  513.000
457.017;  -79.875; -153.000;   -3.000
457.138;  -99.975; -402.000; -249.000
457.258;  -21.375;  263.000;  224.000
457.379;    9.075;  509.000;  521.000
457.499;  -18.100;  443.000;  432.000
457.620; -113.925; -407.000; -231.000
457.740;  -91.350; -132.000;  -11.000
457.860;  -57.300;   87.000;   44.000
457.981;  -38.150;  132.000;  124.000
458.101;  -79.950;  -89.000;   40.000
458.221;  -20.850;  336.000;  402.000
458.342;  -63.350;   -4.000;  -37.000
458.462;   18.400;  617.000;  352.000
458.582;  -50.075; -302.000; -294.000
458.703;    6.125;  303.000;  154.000
458.823;  -23.900;   22.000;  163.000
458.943;   39.700;  341.000;  467.000
459.063;  -13.525; 1124.000;  192.000
459.183;  -30.350;  328.000;  313.000
459.304;    8.500;  315.000;  517.000
459.424;  -60.425; -246.000;  -89.000
459.544;  278.175;  388.000;  764.000
459.664;  751.550;  499.000;  506.000
459.784;  282.775; 1004.000; 1175.000
459.904;   56.575;  867.000;  744.000
460.024;   76.575;  867.000;  684.000
460.144;   29.525;  449.000;  554.000
460.264;    4.525;  515.000;  327.000
460.385;  -91.625; -145.000; -119.000
460.505;   33.075;  905.000;  858.000
460.625;  -89.325;  -17.000;  -68.000
460.745;  -22.775;  396.000;  541.000
460.864;  -45.700;  153.000;  469.000
460.984;   29.425;  499.000;  573.000
461.104;  149.150; 1656.000; 1775.000
461.224;   24.050;  657.000;  650.000
461.344;  -23.925;  431.000;  360.000
461.464;  -32.875;  258.000;  513.000
461.584;   -9.625;  283.000;  466.000
461.704;  -31.925;   58.000;  108.000
461.824;  -46.900;  238.000;  259.000
461.943;  -38.625;  191.000;  130.000
462.063;  -72.750;    2.000;  324.000
462.183;   39.200;  639.000;  717.000
462.303;  111.600; 1678.000; 1230.000
462.422;   33.575;  781.000;  840.000
462.542;  -25.300;  271.000;  391.000
462.662;   32.200;  353.000;  380.000
462.782;  223.950;  833.000;  572.000
462.901;  448.675;  545.000;  717.000
463.021;  277.850; 1702.000; 1638.000
463.141;   12.825;  337.000;  770.000
463.260;  -13.350;  614.000;  474.000
463.380;    4.475;  902.000;  884.000
463.499;  -39.775;  342.000;  332.000
463.619;  -37.075;  581.000;  559.000
463.738;  128.275; 1644.000;  903.000
463.858;   39.225;  657.000;  811.000
463.978;  -33.950;  542.000;  396.000
464.097;   44.300;  921.000; 1114.000
464.217;   94.875; 1196.000; 1143.000
464.336;  104.675; 1068.000; 1130.000
464.455;  -41.575;  328.000;  659.000
464.575;   70.025;  597.000;  602.000
464.694;  203.875; 1204.000; 1179.000
464.814;  140.575; 1190.000; 1138.000
464.933;   85.025; 1095.000; 1027.000
465.052;   90.850; 1412.000; 1054.000
465.172;  102.550;  922.000;  799.000
465.291;  156.625; 1376.000; 1320.000
465.410;   22.225;  462.000;  735.000
465.530;   95.750; 1355.000; 1310.000
465.649;   66.650; 1209.000; 1273.000
465.768;  148.900; 1673.000; 1508.000
465.888;   43.175;  941.000; 1174.000
466.007;  109.150; 1335.000; 1440.000
466.126;   -2.000;  721.000;  641.000
466.245;   40.000; 1176.000; 1187.000
466.364;   40.300;  950.000; 1060.000
466.484;   56.625; 1024.000; 1213.000
466.603;   43.525; 1101.000; 1222.000
466.722;  116.600; 1490.000; 1769.000
466.841;   82.050; 1151.000; 1401.000
466.960;   49.450; 1069.000;  972.000
467.079;  133.975; 1971.000; 1786.000
467.198;   44.525; 1238.000; 1181.000
467.317;   91.150; 1768.000; 1162.000
467.436;   73.525; 1709.000; 1261.000
467.555;  126.050; 1796.000; 1746.000
467.674;   76.800; 1227.000; 1329.000
467.793;   40.775; 1376.000; 1374.000
467.912;   95.525; 1658.000; 1539.000
468.031;  135.925; 2038.000; 1930.000
468.150;  150.475; 1842.000; 1837.000
468.269;  209.975; 2313.000; 2090.000
468.388;  204.400; 2168.000; 2339.000
468.507;  247.775; 2884.000; 2903.000
468.626;  280.725; 2555.000; 2541.000
468.744;  143.650; 2018.000; 2174.000
468.863;  183.850; 2312.000; 2523.000
468.982;   85.350; 1503.000; 1555.000
469.101;  228.100; 2788.000; 2692.000
469.220;  162.475; 2333.000; 2176.000
469.338;  232.875; 2935.000; 3051.000
469.457;  208.525; 2719.000; 2545.000
469.576;  337.500; 3953.000; 3784.000
469.695;  257.625; 2877.000; 3066.000
469.813;  429.900; 4148.000; 4192.000
469.932;  399.350; 4255.000; 4485.000
470.051;  428.575; 4075.000; 4161.000
470.169;  808.775; 4470.000; 4338.000
470.288; 1382.275; 4700.000; 4809.000
470.406;  848.000; 5059.000; 5194.000
470.525;  627.800; 6101.000; 5787.000
470.644;  650.325; 6847.000; 6794.000
470.762;  879.025; 8397.000; 7873.000
470.881;  896.000; 8651.000; 8464.000
470.999; 1010.400; 9685.000; 9151.000
471.118; 1081.950;11174.000;10711.000

