
Integration time [ms]: 100.000
Averaging Nr. [scans]: 40
Smoothing Nr. [pixels]: 0
Data measured with spectrometer [name]: 2101012U2
Wave   ;Sample   ;Dark     ;Reference
[nm]   ;[counts] ;[counts] ;[counts] 

197.733;   57.750;  516.000;  404.000
197.879;  -76.250; -610.000; -634.000
198.025;  -43.800; -475.000; -420.000
198.171;  -71.475; -602.000; -612.000
198.317;  -31.200; -401.000; -316.000
198.463;  -64.575; -655.000; -404.000
198.609;   30.225;  181.000; -137.000
198.755;  -72.425; -644.000; -410.000
198.901;  -66.350; -505.000; -424.000
199.047;  -68.100; -615.000; -488.000
199.193;  -31.750; -230.000; -468.000
199.339;  -40.250; -222.000; -369.000
199.485;   35.550;  330.000;  271.000
199.631;   10.975;  227.000;  310.000
199.777;  -57.075; -466.000; -398.000
199.923;  -54.625; -610.000; -424.000
200.069;   -1.700; -141.000;  -58.000
200.215;   46.625;  128.000;  453.000
200.361;   36.275;  243.000;  477.000
200.507;  -68.950; -600.000; -373.000
200.653;  -15.800; -371.000; -194.000
200.798;  -38.600; -215.000; -125.000
200.944;  -15.000; -146.000;  -41.000
201.090;   26.450;   61.000;  222.000
201.236;    5.475; -116.000; -158.000
201.382;  109.625;  874.000;  903.000
201.528;   -2.125;  -58.000;  -48.000
201.674;  -57.625; -386.000; -293.000
201.819;  -53.375; -540.000; -439.000
201.965;  -80.725; -699.000; -447.000
202.111;  -17.750; -273.000; -226.000
202.257;  -49.525; -250.000; -238.000
202.402;   26.100;   13.000;  -36.000
202.548;  -43.500; -169.000; -116.000
202.694;   81.375;  410.000; -183.000
202.840;  -74.575; -603.000; -531.000
202.985;  -73.050; -681.000; -639.000
203.131; -100.575; -832.000; -666.000
203.277;  -29.350; -199.000; -262.000
203.423;  -53.100; -434.000; -520.000
203.568;  -40.075; -462.000; -237.000
203.714;  -60.200; -535.000; -542.000
203.860;  -75.300; -682.000; -641.000
204.005;   17.375;  112.000;  167.000
204.151;   62.125;  561.000;  556.000
204.296;  -48.850; -354.000; -221.000
204.442;  -53.750; -600.000; -547.000
204.588;  -63.075; -592.000; -579.000
204.733;   23.350;  178.000;  168.000
204.879; -114.400;-1018.000; -822.000
205.025;   -1.125;  -99.000;  126.000
205.170;  -12.450;  -17.000;   94.000
205.316;   70.400;  438.000;  661.000
205.461;  -78.850; -698.000; -554.000
205.607;   78.850;  609.000;  665.000
205.752;  -71.900; -626.000; -551.000
205.898;  -50.475; -501.000; -391.000
206.043;  -68.225; -578.000; -506.000
206.189;  -42.425; -243.000; -285.000
206.334;   73.200;  554.000;  606.000
206.480;   67.700;  409.000;  239.000
206.625;  -80.600; -529.000; -552.000
206.771;  -46.725; -451.000; -373.000
206.916;  -27.250; -210.000; -537.000
207.062;  -69.475; -545.000; -591.000
207.207;  -70.350; -546.000; -443.000
207.353;   55.050;  185.000;  460.000
207.498;   17.000;  196.000;   85.000
207.643;  -43.250; -501.000; -370.000
207.789; -124.500;-1069.000; -910.000
207.934;  -88.025; -665.000; -713.000
208.080;  -36.050; -154.000;   66.000
208.225;   -1.725;  -22.000;  -57.000
208.370;  -71.200; -727.000; -619.000
208.516;  -67.325; -741.000; -487.000
208.661;  -28.225; -127.000;  -69.000
208.806;  -18.125; -165.000; -171.000
208.952; -110.750;-1044.000; -731.000
209.097;   75.150;  378.000;  349.000
209.242;  -60.325; -307.000; -382.000
209.387;   82.600;  392.000;  350.000
209.533;  -35.425; -321.000; -350.000
209.678;   70.950;  472.000;  543.000
209.823;  -54.675; -408.000; -310.000
209.969; -104.900; -860.000; -757.000
210.114;  -90.700; -907.000; -719.000
210.259; -114.650; -939.000; -889.000
210.404;  -16.275; -171.000;  103.000
210.549;    2.675;  108.000;    3.000
210.695;  -19.625;   -3.000;  -95.000
210.840;   38.675;   94.000;   67.000
210.985;  -55.200; -484.000; -303.000
211.130;   62.850;  268.000;  406.000
211.275;    0.200;  207.000;  199.000
211.420;  -47.050; -300.000; -289.000
211.566;  -69.325; -536.000; -489.000
211.711;   25.700;  218.000;  157.000
211.856;  -61.850; -545.000; -519.000
212.001;    0.300;  151.000;   44.000
212.146;    6.925;  153.000;   49.000
212.291;  -34.650; -210.000; -186.000
212.436;  -26.700; -280.000;   -6.000
212.581;  -79.125; -685.000; -653.000
212.726;  -74.075; -487.000; -538.000
212.871;  -50.500; -552.000; -217.000
213.016; -147.575;-1172.000;-1029.000
213.161;   54.950;  406.000;  291.000
213.306;  -77.350; -435.000; -577.000
213.451;  -98.750; -778.000; -689.000
213.596;  -37.275; -455.000; -347.000
213.741;  -52.500; -448.000; -538.000
213.886;  -75.775; -498.000; -517.000
214.031;  -20.625; -294.000; -124.000
214.176;  -55.525; -408.000; -341.000
214.321;   -6.050; -296.000; -157.000
214.466;  -20.375; -163.000;  -43.000
214.611;   -9.575;  -61.000;  -10.000
214.756; -122.925; -948.000; -858.000
214.901;  -23.325; -388.000; -226.000
215.046; -110.450; -797.000; -825.000
215.191;   26.150;  128.000;   35.000
215.336;  -20.725; -157.000;  -19.000
215.480;  -65.625; -684.000; -505.000
215.625;  -23.450; -175.000;  -19.000
215.770;  -72.025; -757.000; -662.000
215.915;  -13.325;   -5.000;  -97.000
216.060;   -3.725; -113.000;  -21.000
216.205;  -95.150; -731.000; -779.000
216.349;  -63.200; -470.000; -533.000
216.494; -123.700; -939.000; -867.000
216.639; -102.650; -823.000; -888.000
216.784;  -79.575; -577.000; -525.000
216.929;   43.575;  392.000;  281.000
217.073;   -7.825; -244.000;  -31.000
217.218;   -6.975;   78.000;  -47.000
217.363;  -73.825; -656.000; -618.000
217.507;  -73.700; -623.000; -588.000
217.652; -120.300; -845.000; -874.000
217.797;  -77.475; -708.000; -659.000
217.942; -110.275; -856.000; -720.000
218.086;   69.075;  608.000;  539.000
218.231;  -28.575; -174.000;  -26.000
218.376;  -21.950; -337.000; -229.000
218.520;   -7.500;  -41.000;   96.000
218.665;  -33.850; -338.000; -204.000
218.810;  -37.800; -275.000; -233.000
218.954;   18.275;  201.000;   35.000
219.099; -102.200; -713.000; -963.000
219.243;  -67.750; -589.000; -554.000
219.388;  -27.925; -264.000; -136.000
219.532;   -6.300; -116.000; -116.000
219.677;  -77.625; -564.000; -521.000
219.822;    4.675;   33.000;   89.000
219.966;   -1.725;   17.000;  -99.000
220.111;  -38.500; -328.000;  -40.000
220.255;  -84.025; -797.000; -750.000
220.400;  -22.525; -180.000; -146.000
220.544;  -67.100; -516.000; -450.000
220.689;  -52.050; -422.000; -451.000
220.833;  -19.025; -123.000;  -58.000
220.978;  -40.725; -393.000; -563.000
221.122;    9.125;  319.000;  307.000
221.267; -107.850; -906.000; -837.000
221.411;  -65.050; -478.000; -394.000
221.555;   -5.800; -104.000;  -23.000
221.700;  -50.175; -329.000; -222.000
221.844;   24.400;  255.000;  272.000
221.989;  -59.650; -328.000; -311.000
222.133;  -33.900; -289.000; -307.000
222.277;   -5.500;    5.000;   78.000
222.422;   12.725;  227.000;  113.000
222.566;  -43.550; -381.000; -214.000
222.711;  -42.525; -414.000; -479.000
222.855;  -68.625; -643.000; -586.000
222.999;  -73.025; -642.000; -717.000
223.144;  -33.625; -195.000; -194.000
223.288;   53.400;  423.000;  251.000
223.432;   19.100;  184.000;  230.000
223.576;   11.775;  152.000;  -21.000
223.721;   17.750;  364.000;  273.000
223.865;  -63.950; -472.000; -475.000
224.009;  241.200; 1673.000; 1631.000
224.153;  -75.550; -660.000; -671.000
224.298;  -59.425; -531.000; -489.000
224.442;  -11.350;  -74.000;  -33.000
224.586;  -19.675; -169.000; -106.000
224.730;  -82.500; -858.000; -670.000
224.875; -104.575; -739.000; -688.000
225.019;    5.025;  102.000;  188.000
225.163;   45.550;  208.000;  341.000
225.307;    5.000;   97.000;  -91.000
225.451;   41.600;  360.000;  481.000
225.595;   21.400;  264.000;  176.000
225.739;  -27.000; -170.000;  -94.000
225.884;   -5.100;   86.000;    5.000
226.028;  -93.800; -760.000; -626.000
226.172;  -19.950; -260.000; -273.000
226.316; -125.550; -941.000; -902.000
226.460;  -60.300; -645.000; -493.000
226.604;  -51.775; -406.000; -400.000
226.748; -106.625; -836.000; -733.000
226.892;  -34.750; -227.000; -181.000
227.036;  -43.275; -537.000; -447.000
227.180;  -56.975; -551.000; -375.000
227.324;  -58.675; -561.000; -580.000
227.468; -101.625; -819.000; -717.000
227.612;   14.775;  242.000;  -28.000
227.756;  -93.875; -845.000; -698.000
227.900;   60.400;  342.000;  441.000
228.044;  -66.275; -509.000; -290.000
228.188;   47.125;  448.000;  568.000
228.332;  -86.100; -546.000; -472.000
228.476;  -24.450; -223.000; -149.000
228.620;  -46.625; -210.000; -150.000
228.764;   55.825;  431.000;  349.000
228.908;  -28.900; -155.000;   30.000
229.052;  -55.925; -615.000; -528.000
229.195;  -16.000; -172.000;   13.000
229.339;  -25.175; -235.000; -305.000
229.483;  -26.400;    5.000; -162.000
229.627;   -9.575; -156.000;  139.000
229.771;  -54.875; -218.000; -294.000
229.915;   -0.200;  230.000;   79.000
230.059;  -85.300; -648.000; -663.000
230.202;  -35.175; -370.000; -317.000
230.346;  -22.300; -107.000;  107.000
230.490;  -73.100; -489.000; -521.000
230.634; -102.700; -736.000; -553.000
230.777;   53.675;  478.000;  509.000
230.921;  -58.500; -450.000; -359.000
231.065;  -39.800; -246.000; -286.000
231.209;   20.300;  261.000;  265.000
231.352;   14.475;   54.000;   40.000
231.496;   16.700;  568.000;  188.000
231.640;  -90.450; -693.000; -621.000
231.783;   61.550;  546.000;  525.000
231.927;  -43.000; -294.000; -365.000
232.071; -123.000; -962.000; -736.000
232.214; -104.525; -980.000; -764.000
232.358;  -87.075; -683.000; -599.000
232.502;   -2.850;  -19.000;    7.000
232.645; -120.075;-1090.000; -927.000
232.789;  -16.800; -257.000; -218.000
232.933;  -38.550; -407.000; -224.000
233.076; -117.675;-1038.000; -897.000
233.220;  -96.025; -752.000; -777.000
233.363;  -60.675; -669.000; -477.000
233.507;   48.350;  371.000;  129.000
233.650;  -88.875; -764.000; -834.000
233.794;   41.275;  438.000;  461.000
233.938;  -48.950; -530.000; -362.000
234.081;  -14.850;  -93.000;   31.000
234.225;  -76.925; -631.000; -539.000
234.368; -114.575; -773.000; -723.000
234.512;  -43.350; -385.000; -299.000
234.655;  -86.750; -582.000; -555.000
234.798;  -67.025; -493.000; -466.000
234.942; -117.625; -884.000;-1002.000
235.085;  -70.975; -651.000; -443.000
235.229;  -76.000; -405.000; -410.000
235.372;  -45.700; -247.000; -191.000
235.516;  -63.775; -397.000; -321.000
235.659;   21.975;   92.000;  121.000
235.802;  -12.550;  -38.000;  -22.000
235.946;   37.800;  335.000;  215.000
236.089;   30.750;  126.000;  250.000
236.233;   43.975;  275.000;  298.000
236.376;  -53.625; -235.000; -378.000
236.519;  -35.350; -297.000; -319.000
236.663;  -20.825; -215.000; -117.000
236.806; -133.025;-1029.000; -999.000
236.949;   55.000;  543.000;  431.000
237.092;   48.625;  412.000;  391.000
237.236;  -83.625; -589.000; -502.000
237.379;   59.125;  352.000;  428.000
237.522; -116.875; -879.000; -768.000
237.666;  -22.025; -271.000;   18.000
237.809; -114.875; -851.000; -823.000
237.952;   42.275;  469.000;  271.000
238.095;  -62.075; -447.000; -442.000
238.238;   84.200;  688.000;  700.000
238.382;   -2.875;  166.000;  103.000
238.525;  -62.100; -598.000; -511.000
238.668; -141.650;-1060.000; -985.000
238.811;  -82.700; -638.000; -643.000
238.954;  -56.650; -483.000; -334.000
239.097;   83.800;  617.000;  664.000
239.241;   22.075;  394.000;  326.000
239.384;  -42.200; -254.000; -214.000
239.527;  -64.175; -424.000; -224.000
239.670; -129.575; -994.000;-1091.000
239.813; -121.950; -696.000; -658.000
239.956;   66.125;  579.000;  473.000
240.099; -115.400; -778.000; -725.000
240.242;   57.525;  428.000;  432.000
240.385;   39.850;  466.000;  450.000
240.528;  -74.550; -706.000; -473.000
240.671;    7.300;  189.000;  134.000
240.814;  -44.325; -441.000; -158.000
240.957; -109.050; -767.000; -578.000
241.100;  -92.675; -779.000; -755.000
241.243; -136.100;-1234.000; -893.000
241.386;  -52.750; -508.000; -379.000
241.529;  -89.500; -735.000; -547.000
241.672;  -68.100; -566.000; -495.000
241.815; -125.300; -832.000; -808.000
241.958;  -27.050; -125.000; -182.000
242.101;  -74.200; -545.000; -390.000
242.244;  -33.825; -270.000; -325.000
242.387;  -42.875; -304.000; -246.000
242.530;   31.975;  470.000;  134.000
242.673;  -49.325; -381.000; -309.000
242.815; -118.925; -925.000; -899.000
242.958;  -65.950; -482.000; -381.000
243.101;    8.575;  132.000;  187.000
243.244;  -87.175; -564.000; -521.000
243.387;  -51.350; -313.000; -316.000
243.530;  -90.675; -657.000; -674.000
243.672;    0.625;   43.000;  -92.000
243.815;  -59.175; -355.000; -283.000
243.958;    0.700;   98.000;  -26.000
244.101;   -0.350;   59.000;  -16.000
244.243;   -9.900;  -47.000;  101.000
244.386; -114.775; -761.000; -630.000
244.529;  -20.275; -132.000; -139.000
244.672; -144.125;-1154.000; -951.000
244.814;  -95.975; -621.000; -794.000
244.957;  -58.450; -380.000; -304.000
245.100;  -68.025; -489.000; -489.000
245.242;  -61.050; -387.000; -374.000
245.385;   -3.600;  -59.000;  -39.000
245.528; -115.825; -871.000; -705.000
245.670;   88.050;  612.000;  634.000
245.813;  -73.150; -599.000; -547.000
245.956;  -30.075; -324.000; -275.000
246.098;  -81.225; -508.000; -650.000
246.241;   -4.525;  194.000;   48.000
246.383;  -24.050; -119.000;  -73.000
246.526;  -71.675; -454.000; -525.000
246.669; -127.850; -889.000; -780.000
246.811;   14.125;  172.000;   -1.000
246.954;  -63.825; -512.000; -426.000
247.096;  -25.250;  -84.000;   -6.000
247.239;  -78.575; -482.000; -445.000
247.381;  -84.100; -647.000; -488.000
247.524;   76.275;  645.000;  679.000
247.666;  -17.500;   58.000;   11.000
247.809; -111.575; -887.000; -691.000
247.951;   -4.425;  -75.000;  138.000
248.094;   20.075;  432.000;  308.000
248.236; -145.375;-1262.000;-1238.000
248.378;  -25.275; -356.000;  -81.000
248.521;  -43.225; -334.000; -337.000
248.663;  -51.650; -236.000; -267.000
248.806;  -32.925; -300.000; -266.000
248.948; -123.750; -886.000; -763.000
249.090;  -45.125; -428.000; -398.000
249.233;  -47.925; -344.000; -381.000
249.375;  -58.100; -474.000; -451.000
249.518;  -18.775;  -83.000; -133.000
249.660;   -4.675; -103.000;    3.000
249.802; -176.975;-1303.000;-1189.000
249.945;  -79.850; -612.000; -540.000
250.087; -107.200; -834.000; -768.000
250.229;  -45.975; -362.000; -480.000
250.371;  -68.500; -494.000; -439.000
250.514;  -39.800; -310.000; -244.000
250.656;  -56.975;   69.000;  102.000
250.798; -112.550; -849.000; -800.000
250.940;  -67.325; -322.000; -322.000
251.083;  -37.725; -335.000; -111.000
251.225;   46.975;  338.000;  310.000
251.367;  -53.175; -274.000; -373.000
251.509;  -33.750; -265.000; -210.000
251.651;  -83.075; -731.000; -671.000
251.794;   51.125;  538.000;  632.000
251.936;  -99.925; -821.000; -747.000
252.078;  -76.775; -540.000; -461.000
252.220;  -67.050; -645.000; -477.000
252.362;   57.450;  344.000;  462.000
252.504;  -76.475; -677.000; -584.000
252.646; -110.100; -875.000; -722.000
252.788;  -11.475;   14.000; -128.000
252.931;  -45.775; -257.000; -253.000
253.073;  -54.850; -376.000; -317.000
253.215;  -14.775;  141.000;  122.000
253.357;  -13.725;   82.000; -153.000
253.499;  -47.200; -374.000; -234.000
253.641;  -78.025; -749.000; -594.000
253.783;  -81.600; -609.000; -527.000
253.925;  -86.475; -586.000; -591.000
254.067;  -91.775; -744.000; -667.000
254.209;  -38.125; -391.000; -259.000
254.351; -121.725; -865.000; -883.000
254.493;  -70.425; -441.000; -417.000
254.635; -126.175; -936.000; -818.000
254.777;  -83.175; -752.000; -687.000
254.918;  -75.950; -512.000; -430.000
255.060;  -69.500; -551.000; -395.000
255.202;  -68.250; -473.000; -261.000
255.344;  -79.300; -658.000; -455.000
255.486;  -79.025; -471.000; -406.000
255.628; -100.375; -780.000; -781.000
255.770;  -87.100; -676.000; -536.000
255.912;  -65.900; -559.000; -468.000
256.053;  -81.100; -730.000; -508.000
256.195;  141.625; 1008.000;  903.000
256.337;  -80.750; -861.000; -595.000
256.479;   52.175;  532.000;  416.000
256.621;  -43.850; -394.000; -212.000
256.762;  -95.675; -789.000; -742.000
256.904;   43.475;  485.000;  487.000
257.046;  -52.200; -381.000; -271.000
257.188;  -55.250; -351.000; -264.000
257.329;  -70.950; -525.000; -464.000
257.471; -113.350; -939.000; -807.000
257.613;  -66.325; -584.000; -498.000
257.755; -148.650;-1073.000; -982.000
257.896;   30.825;  286.000;  392.000
258.038;  -72.075; -403.000; -352.000
258.180;  -41.650; -354.000; -279.000
258.321;  -75.575; -581.000; -457.000
258.463;    4.175;  -71.000;  133.000
258.605;  -84.225; -562.000; -570.000
258.746; -105.150; -886.000; -772.000
258.888; -134.000;-1026.000;-1020.000
259.029;   14.100;  121.000;   -8.000
259.171;  -98.575; -614.000; -550.000
259.313;   -0.900;  -49.000;  -47.000
259.454;  -69.150; -536.000; -414.000
259.596;  -47.450; -483.000; -390.000
259.737;  -68.525; -590.000; -474.000
259.879;   29.250;  217.000;  311.000
260.020;   70.300;  901.000;  636.000
260.162;  -44.575; -146.000; -253.000
260.303; -125.975; -768.000; -687.000
260.445;  -76.650; -609.000; -613.000
260.586;    9.200;  392.000;  157.000
260.728;  -56.150; -360.000; -248.000
260.869;  -68.450; -350.000; -343.000
261.011;   69.600;  706.000;  537.000
261.152;  -76.250; -479.000; -319.000
261.293;  -87.625; -576.000; -595.000
261.435;  -35.250; -219.000; -184.000
261.576;  -46.725; -455.000; -325.000
261.718;   46.525;  420.000;  470.000
261.859; -118.550; -940.000; -949.000
262.000; -125.675; -951.000;-1016.000
262.142;  -12.450;  -52.000;  -60.000
262.283; -107.575; -808.000; -691.000
262.424;  -86.925; -666.000; -625.000
262.566; -140.350;-1161.000; -983.000
262.707;  -96.750; -840.000; -830.000
262.848; -116.775; -769.000; -726.000
262.990;  -41.975; -362.000; -345.000
263.131;   62.000;  650.000;  681.000
263.272;  -14.425;  -61.000;  -41.000
263.413;  -76.075; -589.000; -561.000
263.555;  -69.425; -669.000; -143.000
263.696;  -81.625; -550.000; -641.000
263.837;  -64.000; -449.000; -551.000
263.978;   -6.450;   -5.000;  -77.000
264.119;  -44.375; -283.000; -264.000
264.261; -120.300; -847.000; -630.000
264.402;   -1.900;   33.000;   40.000
264.543;  -77.850; -509.000; -524.000
264.684;  -17.000;   61.000;  -50.000
264.825;  -83.300; -816.000; -538.000
264.966;  -10.525;  -84.000;  -67.000
265.107; -119.900; -646.000; -670.000
265.248; -112.450; -825.000; -812.000
265.390;   -8.025;  152.000;   -9.000
265.531;  -28.825; -238.000; -107.000
265.672;  -89.200; -557.000; -630.000
265.813;   60.400;  563.000;  439.000
265.954; -123.150; -959.000; -940.000
266.095;   -8.400; -372.000; -322.000
266.236;  -91.700; -686.000; -548.000
266.377;  -39.925; -243.000; -297.000
266.518;  -76.950; -619.000; -547.000
266.659;   24.400;  170.000;  268.000
266.800;    0.850;   83.000;   85.000
266.941;  -71.250; -487.000; -478.000
267.082;   17.975;  354.000;   99.000
267.223;  -45.275; -344.000; -273.000
267.364; -114.050; -892.000; -686.000
267.504;   -9.875;    3.000;  135.000
267.645;   -1.725;  160.000;   67.000
267.786;  -21.925; -147.000;  -86.000
267.927;  -77.150; -473.000; -379.000
268.068;  -20.700; -186.000;  -61.000
268.209;  -50.000; -175.000; -413.000
268.350;  -59.325; -388.000; -532.000
268.490;  -85.900; -648.000; -521.000
268.631;   27.700;  127.000;  225.000
268.772; -112.000; -874.000; -647.000
268.913;  -52.600; -328.000; -476.000
269.054;  -14.525; -117.000;   12.000
269.194;  -54.675; -418.000; -402.000
269.335; -150.300;-1137.000;-1074.000
269.476;  -22.700;   33.000;  -35.000
269.617;  -45.350; -347.000; -392.000
269.757;  -84.375; -713.000; -646.000
269.898; -107.075; -856.000; -613.000
270.039;  -41.625; -415.000; -405.000
270.180; -130.425; -952.000; -816.000
270.320;  -37.300; -190.000; -250.000
270.461;  -41.300; -277.000; -249.000
270.602;   -6.725; -186.000; -156.000
270.742; -112.050; -868.000; -943.000
270.883;  -52.300; -442.000; -390.000
271.023;  -53.225; -358.000; -357.000
271.164;  -78.250; -607.000; -528.000
271.305;  -90.575; -666.000; -654.000
271.445;  -77.400; -722.000; -683.000
271.586;  -64.300; -462.000; -283.000
271.726;  -43.625; -397.000; -322.000
271.867;  -78.775; -594.000; -534.000
272.008;   34.075; -473.000; -285.000
272.148;   57.075;  462.000;  468.000
272.289;  -10.350; -113.000; -181.000
272.429;   -1.950;   19.000;  185.000
272.570;  -80.650; -633.000; -737.000
272.710; -109.275; -825.000; -775.000
272.851;  -22.600;  113.000; -130.000
272.991; -154.175;-1173.000;-1077.000
273.131;  -72.850; -419.000; -459.000
273.272;  -91.750; -683.000; -723.000
273.412;  -14.550; -143.000;  -31.000
273.553;  -68.675; -488.000; -507.000
273.693;  107.725;  913.000;  858.000
273.834; -113.000; -894.000; -692.000
273.974;  -79.575; -664.000; -615.000
274.114;  -96.950; -772.000; -560.000
274.255;   53.825;  414.000;  373.000
274.395;  -27.975; -180.000; -125.000
274.535;   23.850;  199.000;  350.000
274.676;   11.700;  225.000;   94.000
274.816;    1.025;  110.000;   34.000
274.956;  -93.975; -624.000; -690.000
275.097; -110.250;-1014.000; -922.000
275.237; -125.900; -913.000; -803.000
275.377;  -94.250; -778.000; -689.000
275.517; -147.775; -878.000; -937.000
275.658;  -67.950; -590.000; -555.000
275.798;  -78.175; -606.000; -413.000
275.938;   20.025;  215.000;  323.000
276.078;  -77.225; -626.000; -395.000
276.218;   -2.700;   99.000;  104.000
276.359; -124.700;-1026.000;-1024.000
276.499;  -57.050; -605.000; -446.000
276.639;  -32.025; -305.000; -151.000
276.779;  -57.450; -475.000; -357.000
276.919; -101.100; -783.000; -624.000
277.059;  -20.275; -261.000; -212.000
277.199;  -45.525; -357.000; -259.000
277.340;   24.550;  287.000;  175.000
277.480;  -99.200; -840.000; -693.000
277.620;   24.275;  192.000;   16.000
277.760; -185.475;-1533.000;-1294.000
277.900;   -1.625;  113.000;   33.000
278.040;    7.425;  137.000;  159.000
278.180;   30.825;  270.000;  170.000
278.320;   -9.025;   21.000;   56.000
278.460;  -72.600; -443.000; -469.000
278.600;  -86.175; -708.000; -598.000
278.740;   50.525;  448.000;  224.000
278.880; -105.775; -768.000; -791.000
279.020;  -33.475; -194.000; -144.000
279.160;  -83.425; -672.000; -595.000
279.300; -106.900; -926.000; -873.000
279.440;  -94.475; -709.000; -622.000
279.579;  -94.900;-1014.000; -929.000
279.719;  -60.775; -410.000; -394.000
279.859;   31.575;   -4.000;   41.000
279.999;  -19.400; -208.000;  101.000
280.139;  -38.125; -435.000; -387.000
280.279;  -99.975; -708.000; -745.000
280.419;  -25.625; -229.000; -147.000
280.559;  -45.325; -259.000; -180.000
280.698;  -86.175; -790.000; -639.000
280.838; -106.975; -778.000; -800.000
280.978;  -97.550; -846.000; -790.000
281.118; -100.450; -811.000; -704.000
281.257;    1.675;   24.000;    6.000
281.397; -134.150;-1094.000; -960.000
281.537;  -79.750; -599.000; -712.000
281.677;   -8.000; -150.000; -101.000
281.816;  -81.725; -700.000; -630.000
281.956;  -23.625; -193.000; -257.000
282.096;  -44.425; -539.000; -396.000
282.235;  -88.550; -672.000; -638.000
282.375;   -9.650; -243.000;  -98.000
282.515;  -73.500; -715.000; -707.000
282.654;   40.550;   29.000;  106.000
282.794;   38.125;  388.000;  244.000
282.934;  -31.075; -530.000; -491.000
283.073; -104.150;-1030.000; -857.000
283.213;  -46.525; -460.000; -467.000
283.353;  -41.550; -408.000; -349.000
283.492;  -15.900; -264.000; -296.000
283.632;  -38.300; -254.000; -168.000
283.771;  -74.175; -859.000; -730.000
283.911;  -32.050; -369.000; -260.000
284.050;  -92.500; -794.000; -748.000
284.190; -149.175;-1229.000;-1096.000
284.329; -133.925;-1055.000; -964.000
284.469;  -89.550; -516.000; -591.000
284.608;  -53.525; -559.000; -598.000
284.748;  -66.575; -614.000; -570.000
284.887;   13.100;  -87.000;  -20.000
285.027; -108.175; -844.000; -892.000
285.166;  -23.250; -192.000; -249.000
285.306;   -7.425; -116.000;  -33.000
285.445;  -30.350; -229.000; -343.000
285.584;  -72.825; -630.000; -494.000
285.724;  -25.475; -282.000; -322.000
285.863;  -91.425; -857.000; -507.000
286.002;  -45.000; -366.000; -276.000
286.142;  -92.450; -715.000; -622.000
286.281;  -72.175; -525.000; -493.000
286.420;  -75.925; -554.000; -417.000
286.560;   85.475;  653.000;  623.000
286.699; -138.325; -958.000; -912.000
286.838;  -77.700; -590.000; -591.000
286.978;  -87.750; -533.000; -537.000
287.117; -122.725;-1085.000; -950.000
287.256;  -20.350; -228.000; -211.000
287.395;  -41.150; -197.000; -378.000
287.535;  -48.950; -370.000; -298.000
287.674;  -68.975; -509.000; -484.000
287.813;   35.650;  661.000;  533.000
287.952; -119.425;-1010.000; -871.000
288.091; -137.500;-1049.000; -915.000
288.231;   -0.750;   13.000;   15.000
288.370; -165.325;-1217.000;-1200.000
288.509;  -82.850; -728.000; -645.000
288.648;  -73.825; -770.000; -548.000
288.787;  -36.725; -243.000;  -87.000
288.926;  -56.175; -454.000; -475.000
289.065;  101.200;  859.000;  672.000
289.204;  -53.425; -377.000; -217.000
289.344;  -86.025; -791.000; -690.000
289.483;   15.275;  416.000;  304.000
289.622;  -29.200; -291.000; -149.000
289.761;  -14.750; -309.000; -166.000
289.900;  -91.650; -785.000; -626.000
290.039;  -23.275;  -12.000;  -95.000
290.178;  -27.725; -274.000; -180.000
290.317;  -83.100; -618.000; -479.000
290.456;  -65.725; -463.000; -451.000
290.595; -116.725; -961.000; -833.000
290.734; -130.850; -904.000; -891.000
290.873;  -78.950; -456.000; -420.000
291.011;  -94.700; -833.000; -843.000
291.150; -104.325; -770.000; -682.000
291.289;  -17.225; -343.000; -110.000
291.428;  -83.400; -599.000; -480.000
291.567;  -49.725; -370.000; -442.000
291.706;    1.675;  109.000;  154.000
291.845;  -74.875; -597.000; -505.000
291.984; -145.425;-1234.000;-1061.000
292.122;   63.850;  602.000;  582.000
292.261;   47.200;  620.000;  463.000
292.400;    8.725; -144.000;  211.000
292.539; -122.125; -959.000; -813.000
292.678;  -32.200; -325.000; -300.000
292.816; -142.125;-1136.000; -965.000
292.955;  -79.950; -844.000; -684.000
293.094;  -33.775; -173.000; -337.000
293.233;  -49.650; -556.000; -400.000
293.371;  -38.800; -225.000;  -84.000
293.510;  -90.775; -866.000; -780.000
293.649; -122.250; -959.000; -924.000
293.787; -115.725;-1083.000;-1012.000
293.926;  -15.975; -113.000;  -32.000
294.065;  -31.050; -379.000; -290.000
294.203;   44.175;  298.000;  406.000
294.342;   50.300;   74.000;  156.000
294.481; 4860.250;51180.000; -836.000
294.619;  -27.575; -425.000; -582.000
294.758; -138.650;-1230.000;-1137.000
294.896;   27.300; -125.000;    5.000
295.035; -123.150;-1040.000;-1006.000
295.174; -114.850;-1082.000; -954.000
295.312;  -40.275; -323.000; -203.000
295.451;  -41.725; -307.000; -428.000
295.589;  -69.025; -389.000; -518.000
295.728;   15.975; -292.000; -165.000
295.866;    1.600;  -36.000;  -51.000
296.005;  -57.550; -584.000; -341.000
296.143;  -70.175; -558.000; -596.000
296.282;  -86.500; -957.000; -881.000
296.420;  -62.700; -657.000; -557.000
296.559;  -79.125; -892.000; -633.000
296.697;  -42.350; -847.000; -665.000
296.835;  -53.050;-1141.000;-1002.000
296.974;   36.900;  -23.000;   39.000
297.112;  -19.675; -443.000; -504.000
297.251;  -61.950; -815.000; -755.000
297.389;   16.950; -576.000; -438.000
297.527;   22.900; -145.000;  -83.000
297.666;  -48.475; -486.000; -438.000
297.804;  -23.100; -404.000; -264.000
297.942;   -1.825; -136.000; -161.000
298.081;  -10.175; -183.000;   63.000
298.219;   14.375;  -17.000;  -19.000
298.357;   -6.325; -144.000;  -71.000
298.495;  -78.650; -810.000; -812.000
298.634;   18.725;  245.000;  219.000
298.772;   -9.675; -220.000; -338.000
298.910;  -51.725; -309.000; -182.000
299.048;  -18.700; -130.000; -153.000
299.187;  -49.300; -350.000; -250.000
299.325;    9.425;   52.000;  122.000
299.463;  -20.050; -389.000; -299.000
299.601;    5.675; -327.000; -271.000
299.739; -119.300; -908.000; -883.000
299.877;  -85.125; -791.000; -703.000
300.016; -117.025;-1095.000; -935.000
300.154;   30.150;  -19.000; -161.000
300.292;  -34.650; -428.000; -348.000
300.430;  -24.775; -408.000; -291.000
300.568; -111.175; -940.000; -874.000
300.706;  -55.050; -366.000; -469.000
300.844; -127.000;-1108.000; -979.000
300.982;   67.500;  246.000;  282.000
301.120; -117.350; -965.000; -866.000
301.258;  -77.850; -812.000; -705.000
301.396;   -0.150;  104.000;  -41.000
301.534;   -3.200; -218.000; -293.000
301.672;  -82.550; -664.000; -521.000
301.810;  -49.725; -613.000; -545.000
301.948;   27.275;   53.000;  149.000
302.086;  165.250; -250.000;  -32.000
302.224;  204.675; -610.000; -585.000
302.362;  -51.225; -558.000; -622.000
302.500;  -92.950; -923.000; -893.000
302.638;   40.850;  128.000;  245.000
302.776;  -27.925; -352.000; -408.000
302.913;   22.050;  447.000;  236.000
303.051;  -31.200;  -86.000;  -23.000
303.189;   24.225;   90.000;  118.000
303.327;  -43.475; -341.000; -256.000
303.465;  -65.975; -832.000; -588.000
303.603;  -94.575; -805.000; -604.000
303.740;   49.925;  417.000;  241.000
303.878;  -61.175; -800.000; -759.000
304.016;  -92.500; -915.000; -790.000
304.154; -131.100;-1123.000;-1152.000
304.291;  -59.075; -505.000; -554.000
304.429;    2.200;  102.000;   74.000
304.567; -135.625; -908.000; -893.000
304.705;  -63.750; -408.000; -515.000
304.842;  -27.500; -616.000; -540.000
304.980;   19.125;  215.000;   35.000
305.118;  -23.825; -367.000; -365.000
305.255; -111.750; -945.000; -927.000
305.393;   33.575;  178.000;  239.000
305.531; -131.150;-1173.000; -956.000
305.668;  -73.750; -663.000; -582.000
305.806;   -3.400; -358.000; -439.000
305.943;  -11.625; -629.000; -637.000
306.081;  -13.900; -378.000; -267.000
306.219;  -84.575; -863.000; -748.000
306.356;   26.375;  158.000;   27.000
306.494;  157.350;  981.000;  761.000
306.631;   24.600;  -11.000;  -55.000
306.769;   39.175; -613.000; -485.000
306.906;   11.500; -284.000; -258.000
307.044;  -13.150; -473.000; -488.000
307.181;  -31.075; -410.000; -332.000
307.319;   16.825;  112.000;   87.000
307.456; -140.750;-1191.000;-1153.000
307.594;  -83.600; -980.000; -727.000
307.731;  -10.075; -371.000; -164.000
307.868;   10.775;  -15.000;   20.000
308.006; -103.000; -961.000; -847.000
308.143;  -49.400; -618.000; -330.000
308.281;   54.000;  -37.000; -254.000
308.418;  -39.375; -748.000; -640.000
308.555;  -48.225; -400.000; -250.000
308.693;  -41.825; -577.000; -573.000
308.830;  -67.025; -712.000; -657.000
308.967;   10.350; -215.000;  -95.000
309.105;   24.200; -507.000; -396.000
309.242;   23.000; -468.000; -367.000
309.379;   69.600; -577.000; -655.000
309.517;  -66.925; -936.000; -948.000
309.654;  -61.125; -910.000; -734.000
309.791;  -23.075; -662.000; -580.000
309.928;  -77.550; -977.000; -914.000
310.065;  168.675;  819.000;  697.000
310.203;  -47.750; -825.000; -850.000
310.340;   11.800; -465.000; -321.000
310.477;  -59.250; -412.000; -516.000
310.614;  -27.300; -383.000; -473.000
310.751;  -33.300; -427.000; -518.000
310.889;   11.750;    1.000;   11.000
311.026; -101.700;-1161.000; -939.000
311.163;  -17.550; -386.000; -380.000
311.300;  -45.575; -512.000; -479.000
311.437;  -31.450; -658.000; -619.000
311.574; -117.275;-1226.000; -985.000
311.711;  -44.750; -595.000; -433.000
311.848;    5.450; -380.000; -388.000
311.985;   52.450;  270.000;   93.000
312.122;  -80.625; -932.000; -762.000
312.259;  -62.300; -941.000; -994.000
312.396;   -2.500; -508.000; -551.000
312.533;  -20.450; -812.000; -790.000
312.670;  -85.375;-1070.000; -898.000
312.807;   18.050; -352.000; -367.000
312.944;  -13.425; -513.000; -611.000
313.081;   22.125; -150.000; -415.000
313.218;  -57.525;-1111.000; -867.000
313.355;   -8.225; -531.000; -449.000
313.492;   27.475; -455.000; -292.000
313.629;  159.375;  815.000;  735.000
313.766; -100.950;-1176.000;-1008.000
313.902;   14.575; -186.000;   21.000
314.039;  -18.650; -372.000; -289.000
314.176;   53.825;  286.000;  192.000
314.313;  -41.225; -569.000; -473.000
314.450;  -48.325; -788.000; -684.000
314.587;  -41.575; -468.000; -480.000
314.723;   44.700;  -78.000;  130.000
314.860;   79.300;  318.000;  332.000
314.997;   62.700;  223.000;  142.000
315.134;  -13.825; -385.000; -368.000
315.270;   10.125; -480.000; -496.000
315.407;  -86.800;-1094.000; -967.000
315.544;  -13.300; -657.000; -538.000
315.681;  -44.825; -681.000; -565.000
315.817;   69.025; -133.000; -176.000
315.954;   65.875; -613.000; -392.000
316.091;  -87.775;-1045.000;-1023.000
316.227;   -1.425;  -71.000; -179.000
316.364;   12.425;   23.000;    6.000
316.500;  -27.050; -113.000; -300.000
316.637;  -31.675; -181.000; -302.000
316.774;  -70.025; -625.000; -358.000
316.910;  -70.525; -598.000; -629.000
317.047;  -35.925; -487.000; -351.000
317.183;  -60.500; -435.000; -566.000
317.320;   39.400; -367.000; -321.000
317.456;   -7.950; -733.000; -805.000
317.593;  -70.900; -598.000; -641.000
317.729;    4.500;  168.000;  -67.000
317.866; -175.375;-1434.000;-1285.000
318.002;  -85.800; -708.000; -948.000
318.139;  -94.975; -883.000; -867.000
318.275; -106.050;-1003.000; -738.000
318.412;  -53.900; -517.000; -336.000
318.548;  -61.950; -751.000; -720.000
318.685;  -89.400; -985.000; -888.000
318.821;  -73.000; -762.000; -735.000
318.957;  -26.025;   34.000;  -23.000
319.094;   28.325;  297.000;  154.000
319.230;  -80.650; -756.000; -742.000
319.367;    1.625; -471.000; -520.000
319.503;  -28.475; -538.000; -436.000
319.639;  -82.175; -877.000; -793.000
319.775;  -85.800; -750.000; -685.000
319.912;  -55.150; -424.000; -519.000
320.048;  -94.600;-1184.000;-1184.000
320.184;   97.050;   59.000;   70.000
320.321;  -47.825; -497.000; -467.000
320.457;   67.200;  475.000;  662.000
320.593;  -54.350; -375.000; -382.000
320.729;  -81.775; -732.000; -734.000
320.866;  -55.075; -577.000; -635.000
321.002;  -89.375; -759.000; -809.000
321.138;  -33.875; -135.000; -211.000
321.274;    2.100; -148.000; -115.000
321.410;  -58.400; -585.000; -353.000
321.546;  -97.300;-1011.000; -911.000
321.683;   28.550;  400.000;  185.000
321.819;   -1.375;  -48.000; -117.000
321.955; -115.675; -743.000; -722.000
322.091;  -68.000; -585.000; -540.000
322.227;  -28.100; -382.000; -202.000
322.363;  -35.325; -320.000; -215.000
322.499;  -51.000; -343.000; -331.000
322.635;  106.500;  636.000;  443.000
322.771;   -1.025; -139.000;   12.000
322.907;   51.100;  129.000;  327.000
323.043;  -20.125; -115.000; -206.000
323.179;  -47.625; -394.000; -363.000
323.315;  -41.775; -401.000; -371.000
323.451;   24.325; -328.000; -236.000
323.587;   45.700;  -60.000;  -77.000
323.723;  -62.025; -682.000; -601.000
323.859;  -17.025; -258.000;  -76.000
323.995;  -46.100; -467.000; -409.000
324.131; -112.800; -967.000; -892.000
324.267;  -31.450; -254.000; -276.000
324.402; -121.425; -960.000; -983.000
324.538;  -38.500; -279.000; -104.000
324.674;   -1.750;  164.000;   77.000
324.810;   51.500;  226.000;  308.000
324.946;  -45.575; -810.000; -658.000
325.082;  -71.925; -568.000; -475.000
325.217;  -17.375;  -62.000;   16.000
325.353;  -95.775; -764.000; -659.000
325.489;  -78.550; -540.000; -506.000
325.625;  -60.125; -579.000; -525.000
325.760;   79.450;  517.000;  376.000
325.896;   10.275; -515.000; -702.000
326.032;  -38.125; -403.000; -352.000
326.168;  -43.575; -462.000; -369.000
326.303;  -58.325; -352.000; -461.000
326.439;   -5.275; -336.000; -276.000
326.575;   11.975; -190.000;  -29.000
326.710;  -14.975; -156.000;  -30.000
326.846;   -5.600;  146.000;  103.000
326.982;  -83.675; -530.000; -548.000
327.117;  -60.025; -481.000; -442.000
327.253;  -66.500; -745.000; -742.000
327.388; -154.425;-1137.000;-1153.000
327.524;  -63.625; -811.000; -578.000
327.659;  -26.450;  -58.000;  -22.000
327.795;   -3.200;   69.000;   45.000
327.931;  -62.875; -723.000; -499.000
328.066;  -15.500; -417.000; -276.000
328.202;  -23.475;   12.000; -129.000
328.337;   93.625;  957.000;  713.000
328.473;   45.425;  -12.000;  -74.000
328.608;   -9.775; -256.000; -267.000
328.743; -113.975; -799.000; -664.000
328.879;   24.950;  214.000;  114.000
329.014;  -25.050; -102.000; -122.000
329.150;  -60.700; -358.000; -483.000
329.285;  -66.700; -465.000; -466.000
329.421;  -41.725; -548.000; -246.000
329.556;   -0.200;  -36.000;   85.000
329.691;  -73.975; -633.000; -615.000
329.827;  -65.825; -626.000; -480.000
329.962;  -27.225;  131.000; -301.000
330.097;  -58.650; -673.000; -585.000
330.233;  -23.725; -410.000; -223.000
330.368; -104.650; -839.000; -628.000
330.503;   -8.725;    3.000;   98.000
330.638;  -12.050;  -93.000; -125.000
330.774;  -73.250; -609.000; -530.000
330.909;  -50.900; -434.000; -244.000
331.044;  -88.875; -714.000; -708.000
331.179; -160.425;-1217.000;-1109.000
331.315;   12.325;   77.000;   20.000
331.450;   18.875;  157.000;  285.000
331.585;  -79.125; -805.000; -706.000
331.720;  -76.450; -510.000; -460.000
331.855;    6.800;  -35.000; -102.000
331.990;  421.325;   62.000;  138.000
332.126;  233.150; -110.000;   71.000
332.261;   13.450; -379.000; -265.000
332.396;   13.750; -135.000; -242.000
332.531;  -50.300;-1074.000;-1031.000
332.666;  102.750; -519.000; -363.000
332.801;  -88.050; -726.000; -807.000
332.936;  -20.300; -192.000; -122.000
333.071; -122.475; -870.000; -817.000
333.206;   23.325;  307.000;  379.000
333.341;   32.575;  344.000;  418.000
333.476;  -73.000; -627.000; -623.000
333.611;  -34.675; -251.000; -173.000
333.746;  -23.175; -381.000; -464.000
333.881; -108.375; -973.000; -935.000
334.016; -108.300; -936.000; -917.000
334.151; -106.175; -746.000; -702.000
334.286;   25.700;  152.000;  186.000
334.421;   -6.500; -125.000; -178.000
334.556;  -72.025; -611.000; -567.000
334.690;  -81.475; -631.000; -577.000
334.825;   60.250;  381.000;   83.000
334.960;  -54.500; -285.000; -413.000
335.095;    8.575;  135.000;  -91.000
335.230;  -73.500; -722.000; -738.000
335.365; -100.450;-1084.000; -990.000
335.499; -110.300;-1108.000;-1037.000
335.634;   23.325;    9.000;  534.000
335.769;  -74.300; -755.000; -720.000
335.904;  -42.175; -603.000; -561.000
336.038;  -26.625; -735.000; -657.000
336.173;  -92.450;-1206.000;-1194.000
336.308;   35.575; -116.000; -189.000
336.443;   77.550; -544.000; -634.000
336.577;  -25.150; -936.000; -787.000
336.712;   89.575;   -4.000;  -12.000
336.847;    9.825; -724.000; -607.000
336.981;   77.050; -272.000; -208.000
337.116;  316.900;  615.000;  501.000
337.250;  134.500; -434.000; -421.000
337.385;  435.700; -297.000; -208.000
337.520;  207.875; -632.000; -603.000
337.654;  -17.175; -215.000; -126.000
337.789; -117.675; -989.000; -933.000
337.923;  -30.925; -104.000; -205.000
338.058;  -95.525; -673.000; -738.000
338.192;  -45.800; -611.000; -488.000
338.327;    2.325;  -18.000; -155.000
338.461;  -68.025; -299.000; -469.000
338.596;  -90.150; -780.000; -638.000
338.730;  -75.550; -767.000; -803.000
338.865;  157.100;  -46.000; -140.000
338.999;   15.100; -846.000; -702.000
339.134;    6.525; -634.000; -536.000
339.268;   28.500; -741.000; -603.000
339.403;  539.350; -740.000; -775.000
339.537;  260.300; -894.000; -820.000
339.671;  -79.375; -829.000; -813.000
339.806;  -33.725; -556.000; -512.000
339.940;   36.825; -261.000; -235.000
340.074;  -83.325; -685.000; -510.000
340.209;  -41.800; -351.000; -230.000
340.343;  -94.850; -517.000; -573.000
340.477;  125.800;  998.000; 1036.000
340.612;    2.375;-1033.000; -900.000
340.746;  206.250; -199.000; -243.000
340.880;  -98.050; -924.000; -785.000
341.014;  -22.775;  -45.000; -154.000
341.149; -106.125; -756.000; -718.000
341.283; -109.825; -839.000; -754.000
341.417; -119.900;-1124.000; -938.000
341.551;  -31.175; -768.000; -708.000
341.685;  -60.675; -633.000; -611.000
341.820;  -31.700; -562.000; -493.000
341.954;  -55.700; -218.000; -349.000
342.088; -133.100;-1102.000;-1019.000
342.222;   50.000;  565.000;  618.000
342.356;  -69.825; -395.000; -335.000
342.490; -110.575; -880.000; -841.000
342.624;  -50.350; -339.000; -242.000
342.758;  -44.725; -364.000; -312.000
342.892;  -80.900; -710.000; -585.000
343.026;  -38.500;  -58.000; -116.000
343.160;  -30.900; -426.000; -376.000
343.294;  -89.075; -474.000; -337.000
343.428;  -59.500; -488.000; -448.000
343.562;  -31.325; -172.000;  -23.000
343.696;  -54.425; -385.000; -314.000
343.830;  -41.250; -362.000; -356.000
343.964;  -12.425; -231.000; -168.000
344.098;  276.975;  199.000;   70.000
344.232;  232.200; -266.000; -127.000
344.366;   61.625; -567.000; -453.000
344.500;  -40.975; -665.000; -744.000
344.634;  -35.400; -324.000; -164.000
344.768;  -58.125; -531.000; -341.000
344.902;    4.425;  278.000;  256.000
345.035;  -76.250; -556.000; -496.000
345.169; -119.300; -933.000; -656.000
345.303;  -45.850; -308.000; -482.000
345.437;  -91.275; -826.000; -717.000
345.571;  -60.325; -675.000; -594.000
345.704;  -59.050; -309.000; -532.000
345.838;  -27.850; -331.000; -284.000
345.972;  -73.700; -543.000; -495.000
346.106;  245.800; -179.000; -190.000
346.239;  452.825; -312.000; -243.000
346.373;    2.825; -343.000; -302.000
346.507; -123.825; -950.000; -962.000
346.640;   40.325;  -30.000;   13.000
346.774;  -84.750; -650.000; -797.000
346.908;  -18.775; -138.000;  -11.000
347.041;  -92.650; -646.000; -593.000
347.175;  -11.775;  259.000;   27.000
347.309;  -90.000; -698.000; -628.000
347.442; -106.625; -883.000; -732.000
347.576;  118.350;  670.000;  668.000
347.709;   45.975; -123.000;  -52.000
347.843; -123.500; -933.000; -825.000
347.976;   31.325;  235.000;  294.000
348.110; -157.625;-1268.000;-1186.000
348.243; -101.400; -679.000; -772.000
348.377;    5.225;  -26.000;   60.000
348.510;   62.400;  403.000;  540.000
348.644;  -39.400;  -37.000; -159.000
348.777;   11.350;  180.000;  191.000
348.911;  -36.125; -142.000; -112.000
349.044;   93.725;  471.000;  448.000
349.178;  -18.475;-1069.000;-1006.000
349.311;  110.800;  141.000;  255.000
349.444;   24.725; -927.000; -813.000
349.578;  -21.775; -347.000; -200.000
349.711; -111.725; -959.000; -862.000
349.845;  -65.775; -661.000; -591.000
349.978; -161.925;-1224.000;-1137.000
350.111;  -73.050; -546.000; -612.000
350.244; -107.725; -596.000; -700.000
350.378;  -61.950; -392.000; -393.000
350.511;  -68.025; -393.000; -426.000
350.644;  -94.950; -808.000; -806.000
350.778;   17.575;  168.000;  104.000
350.911;    2.350;  134.000;  140.000
351.044;  -85.850; -685.000; -615.000
351.177;  -20.425; -321.000; -281.000
351.310;   -4.700;    3.000; -131.000
351.444;  -89.650; -888.000; -788.000
351.577;   39.900;  140.000;   90.000
351.710;   85.650;  593.000;  417.000
351.843;  -25.275; -165.000;  -77.000
351.976;   -5.200;  149.000;  -79.000
352.109;  -86.875; -621.000; -612.000
352.242;  -48.900; -464.000; -419.000
352.376;  -78.350; -580.000; -636.000
352.509;   20.825; -437.000; -356.000
352.642;  -95.925; -654.000; -604.000
352.775;   17.075; -141.000;  -98.000
352.908; -110.300; -933.000; -904.000
353.041;  -87.350; -814.000; -824.000
353.174;  -69.100; -551.000; -424.000
353.307;  -74.200; -753.000; -764.000
353.440;   73.425;  541.000;  453.000
353.573;  -81.750; -957.000;-1008.000
353.706;  -35.525; -384.000; -558.000
353.839;  -21.450; -264.000; -220.000
353.971; -100.950; -657.000; -512.000
354.104; -101.675; -896.000; -835.000
354.237;  -55.500; -627.000; -662.000
354.370;  -87.025; -846.000; -879.000
354.503; -162.225;-1231.000;-1308.000
354.636;   -0.875; -529.000; -348.000
354.769; -111.875; -937.000; -860.000
354.902;  -10.325; -230.000; -139.000
355.034;  -12.375; -164.000; -220.000
355.167;    1.400; -262.000; -162.000
355.300;  -56.750;-1061.000; -880.000
355.433; 1463.175;  -71.000;  -14.000
355.565; 2324.725; -402.000; -384.000
355.698;  582.350; -356.000; -296.000
355.831;   15.025; -882.000; -801.000
355.964;   48.150; -285.000; -170.000
356.096;  -59.375; -856.000; -843.000
356.229;   28.675; -523.000; -530.000
356.362;  529.675; -373.000; -266.000
356.494;  932.275; -229.000; -162.000
356.627;  332.625;  269.000;  377.000
356.760;  901.400;  120.000;   53.000
356.892; 1531.450; -286.000; -601.000
357.025;  362.225;  403.000;  389.000
357.157;  232.550; -167.000; -179.000
357.290; 1093.000; -856.000; -713.000
357.423;  333.650; -667.000; -556.000
357.555;  109.600; -217.000; -228.000
357.688;  128.350; -483.000; -364.000
357.820;  146.375; -870.000; -877.000
357.953; 1275.800; -563.000; -589.000
358.085;  195.950; -632.000; -612.000
358.218;  148.325;-1131.000; -932.000
358.350;   70.325;  -58.000;  312.000
358.483; -142.575;-1300.000;-1187.000
358.615; -113.475;-1182.000;-1078.000
358.747; -139.400;-1187.000;-1058.000
358.880;  -29.850; -810.000; -744.000
359.012;   -8.725; -376.000; -202.000
359.145;  -49.025; -480.000; -511.000
359.277;  -61.275; -962.000; -913.000
359.409; 1089.825;  536.000;  231.000
359.542;  237.850; -738.000; -688.000
359.674;   24.450;   46.000;   13.000
359.806;  -57.775; -565.000; -438.000
359.939;  -34.825; -617.000; -516.000
360.071;   31.700; -583.000; -579.000
360.203;  -17.725; -411.000; -364.000
360.335;   28.125;  164.000;  -16.000
360.468;  101.925; -249.000; -307.000
360.600; 1170.700; -547.000; -454.000
360.732; 3957.900; -546.000; -423.000
360.864;  613.300;-1216.000;-1044.000
360.996;   81.725; -516.000; -554.000
361.129;  -43.750; -389.000; -598.000
361.261;   -2.150;  110.000; -113.000
361.393;  -38.925; -252.000; -214.000
361.525;    6.125;   94.000;  244.000
361.657; -111.675; -821.000; -703.000
361.789;  -22.800; -139.000; -155.000
361.921;  -20.850; -642.000; -593.000
362.053;   97.150;  524.000;  541.000
362.185;    2.525;  288.000;   72.000
362.318; -109.925; -709.000; -705.000
362.450;   54.375;  294.000;  444.000
362.582;  -63.150; -913.000; -870.000
362.714;  -61.500; -353.000; -332.000
362.846;  -74.100; -606.000; -490.000
362.978; -131.850; -941.000; -811.000
363.109;  -18.625; -161.000; -260.000
363.241;  166.350; -739.000; -749.000
363.373;  663.600; -649.000; -564.000
363.505; 1029.375; -186.000;  -91.000
363.637;  244.200; -787.000; -601.000
363.769; -135.875;-1067.000;-1080.000
363.901;  -80.450; -596.000; -654.000
364.033; -124.400;-1103.000;-1062.000
364.165;  -26.775; -283.000; -283.000
364.296;   95.200; -316.000; -177.000
364.428;  186.950;-1344.000;-1220.000
364.560;  -60.325; -679.000; -661.000
364.692;  -69.900; -738.000; -835.000
364.824;   -7.225; -588.000; -456.000
364.955;  479.850; -402.000; -564.000
365.087; 1587.925;-1097.000; -852.000
365.219;   92.550; -686.000; -816.000
365.351;  -70.725; -526.000; -572.000
365.482;   13.550;  300.000;  240.000
365.614;  -42.275; -402.000; -314.000
365.746;  -87.100; -729.000; -752.000
365.877;  -87.450; -706.000; -672.000
366.009;  422.750;  -35.000;  -62.000
366.141;  -21.000;-1249.000;-1134.000
366.272; -103.275; -803.000; -719.000
366.404; -103.650;-1005.000; -874.000
366.535;    3.225; -139.000;  -12.000
366.667;  -99.425; -644.000; -649.000
366.799;   34.350;  353.000;  203.000
366.930; -118.100; -862.000; -996.000
367.062;  198.025; -639.000; -613.000
367.193;  349.750; -872.000; -842.000
367.325;  -18.075; -580.000; -684.000
367.456;    5.950; -246.000;   31.000
367.588;  262.725; -371.000; -318.000
367.719;   58.375;  -44.000;  -45.000
367.851;  -30.200; -222.000; -241.000
367.982; -103.725; -875.000; -732.000
368.113;   -8.250; -475.000; -358.000
368.245; -128.225; -960.000; -841.000
368.376;  -42.200; -254.000; -302.000
368.508;  -41.025; -188.000; -263.000
368.639; -125.450;-1166.000;-1034.000
368.770;  -81.300; -670.000; -589.000
368.902;  -98.350; -836.000; -926.000
369.033;  -99.250; -906.000; -855.000
369.164;  -20.000; -720.000; -653.000
369.296;  -80.200; -452.000; -601.000
369.427;  -14.900; -209.000; -144.000
369.558;  -72.600; -593.000; -377.000
369.689;  -72.775; -721.000; -569.000
369.821; -121.325; -951.000; -845.000
369.952;  -11.475;   42.000; -108.000
370.083;  -42.200; -229.000; -108.000
370.214;  -89.750; -735.000; -650.000
370.345;   -8.675;   65.000;   81.000
370.477;  -91.850; -810.000; -790.000
370.608;   31.600; -328.000; -264.000
370.739; -121.675;-1233.000;-1292.000
370.870; -104.000;-1102.000; -923.000
371.001;   -5.050; -378.000; -467.000
371.132;  -80.475; -754.000; -735.000
371.263;  -24.150;  -42.000; -148.000
371.394; -137.575; -841.000; -748.000
371.525;   33.550;  345.000;  225.000
371.657; -108.600; -808.000; -670.000
371.788;   46.400;  103.000;  199.000
371.919;   13.650; -384.000; -304.000
372.050; 1099.825;  -91.000; -156.000
372.181;  340.500; -188.000; -294.000
372.311;  109.375;   42.000; -127.000
372.442;  -42.650; -457.000; -451.000
372.573;  -38.450; -444.000; -340.000
372.704; -133.875;-1008.000; -980.000
372.835;  -13.300; -228.000; -289.000
372.966;  -67.975; -646.000; -554.000
373.097;  -91.400; -575.000; -711.000
373.228;  -85.150; -717.000; -542.000
373.359;  -48.425; -824.000; -536.000
373.490;  154.000; -881.000; -727.000
373.620;  235.725;-1001.000; -803.000
373.751;  483.150; -332.000; -396.000
373.882;  206.525; -663.000; -733.000
374.013;  -21.200; -449.000; -262.000
374.143;  -61.725; -581.000; -659.000
374.274; -121.025; -987.000; -908.000
374.405;   59.050; -388.000; -276.000
374.536;  113.150; -526.000; -387.000
374.666;  285.050; -759.000; -807.000
374.797;   -2.250; -817.000; -868.000
374.928;  167.700; -710.000; -560.000
375.058;  188.650; -535.000; -500.000
375.189;   12.600;  -59.000;  -93.000
375.320; -111.175; -928.000;-1034.000
375.450;  -40.325; -625.000; -616.000
375.581;  -38.350; -526.000; -436.000
375.712;  -42.925; -574.000; -250.000
375.842;   12.175; -438.000; -415.000
375.973;  -14.950; -554.000; -513.000
376.103;  -94.600; -665.000; -648.000
376.234;  -71.525; -531.000; -552.000
376.364; -106.000; -944.000; -867.000
376.495;  154.400;  925.000;  529.000
376.625;  -35.575; -472.000; -485.000
376.756;  -36.000; -709.000; -678.000
376.886; -138.175;-1178.000;-1026.000
377.017;  143.800;-1048.000;-1061.000
377.147;  640.450; -786.000; -782.000
377.278;   94.475;  174.000;  228.000
377.408;  -95.575; -801.000; -815.000
377.538;  -78.200; -707.000; -693.000
377.669;  -78.150; -537.000; -613.000
377.799;  -88.925; -645.000; -635.000
377.929;  -71.150; -610.000; -428.000
378.060; -121.675; -781.000; -847.000
378.190;  -12.725; -726.000; -531.000
378.320;  -27.650; -401.000; -406.000
378.451;   -0.700; -131.000;  -22.000
378.581;  -16.975;  -67.000; -110.000
378.711;  110.850; 1035.000;  866.000
378.841;  -58.925; -533.000; -675.000
378.972; -101.775; -871.000; -751.000
379.102;  -46.725; -652.000; -579.000
379.232;  -42.750; -126.000;  -73.000
379.362; -109.225;-1001.000; -885.000
379.492;  -32.100; -373.000; -424.000
379.623;   59.575;    0.000;  111.000
379.753; -113.625;-1107.000; -974.000
379.883;   66.950;   59.000;  156.000
380.013;  -79.250;-1081.000;-1017.000
380.143; -109.275;-1097.000;-1056.000
380.273;  -89.375; -985.000; -861.000
380.403;   29.525; -344.000; -257.000
380.533;  -25.025; -651.000; -664.000
380.663;   32.125;  173.000;  128.000
380.793; -130.300;-1027.000;-1074.000
380.923;  -14.700; -103.000;  -34.000
381.053;  -74.500; -613.000; -623.000
381.183;  -28.275; -106.000; -248.000
381.313;  -62.775; -656.000; -470.000
381.443;  -45.275; -692.000; -473.000
381.573;   -7.950; -402.000; -409.000
381.703;  -60.650;-1249.000;-1095.000
381.833; -162.900;-1454.000;-1336.000
381.963;   32.550; -134.000;  -87.000
382.093;  326.575; -925.000; -909.000
382.223;   89.075; -713.000; -602.000
382.353;  -69.075; -801.000; -608.000
382.482;   15.350;-1091.000; -964.000
382.612;  169.250; -872.000; -644.000
382.742;   71.075; -695.000; -622.000
382.872;    8.825; -565.000; -551.000
383.002;   34.375;  347.000; -132.000
383.131;  -15.175; -226.000; -160.000
383.261;  -16.200; -706.000; -768.000
383.391;  333.100; -552.000; -377.000
383.521; 4733.675;  451.000;  263.000
383.650; 1462.425; -947.000; -904.000
383.780;   54.950; -783.000; -656.000
383.910;  109.525;  880.000;  802.000
384.039;  -64.600; -794.000; -656.000
384.169;  -67.975;-1205.000;-1017.000
384.299;  -75.650; -650.000; -662.000
384.428; -100.275; -764.000; -680.000
384.558;  -31.950; -308.000; -275.000
384.687;  -49.025; -414.000; -334.000
384.817;    1.225;   75.000;   -2.000
384.947;   -9.325; -234.000; -141.000
385.076;  180.400;  982.000;  912.000
385.206;   80.825;  369.000;  480.000
385.335;  -45.700; -549.000; -417.000
385.465;  -81.125; -655.000; -663.000
385.594;   31.525;  -53.000;  -44.000
385.724;   39.175; -868.000; -838.000
385.853;   10.800; -296.000; -270.000
385.982;  310.000; -743.000; -787.000
386.112;  590.700;-1052.000; -871.000
386.241;   15.575; -307.000; -312.000
386.371;  -20.875; -174.000;  -87.000
386.500;  -46.075; -825.000; -789.000
386.629;   -2.525; -874.000; -817.000
386.759;   87.700;  -43.000;   68.000
386.888;    5.650; -170.000; -250.000
387.017;  -71.025; -648.000; -620.000
387.147;  -77.150; -771.000; -798.000
387.276;  -41.475; -410.000; -397.000
387.405;  -33.350; -398.000; -342.000
387.535;  -58.825; -452.000; -361.000
387.664;  -62.025; -692.000; -620.000
387.793;   -2.225; -198.000; -113.000
387.922;  167.750;  255.000;  200.000
388.052;  -32.100; -576.000; -423.000
388.181;  -31.750; -342.000; -472.000
388.310;  -57.825; -889.000; -710.000
388.439;  -83.075; -749.000; -742.000
388.568;   41.325;  365.000;  244.000
388.697;  232.700; -756.000; -653.000
388.826;    3.775; -768.000; -666.000
388.956;  -15.900; -285.000; -307.000
389.085;  -48.625; -347.000; -287.000
389.214;  -87.750; -842.000; -872.000
389.343;  -57.325; -645.000; -413.000
389.472;  546.225;  126.000;  149.000
389.601;  648.175;   91.000;    0.000
389.730;    6.950; -568.000; -687.000
389.859;   40.150;  226.000;   46.000
389.988;   38.675; -423.000; -408.000
390.117;   52.275; -168.000; -146.000
390.246;  -26.550; -331.000; -320.000
390.375;  -34.025; -673.000; -626.000
390.504;  -64.625; -703.000; -621.000
390.633; -102.825; -672.000; -726.000
390.761;  -73.350; -732.000; -645.000
390.890;   -3.175;   -4.000; -130.000
391.019;  -54.350; -421.000; -441.000
391.148; -102.325; -826.000; -855.000
391.277;  -71.150; -576.000; -493.000
391.406;  -91.275; -821.000; -805.000
391.534;   17.550;  574.000; -301.000
391.663;  -69.300; -583.000; -645.000
391.792;  -79.100; -673.000; -701.000
391.921;    9.775;   -3.000;   15.000
392.050;   23.750; -287.000; -228.000
392.178; -119.025;-1206.000;-1061.000
392.307;  -30.925; -758.000; -712.000
392.436;  -31.625; -427.000; -641.000
392.564;   14.200;  166.000;   -6.000
392.693;  -85.375; -860.000; -682.000
392.822;   24.025; -529.000; -534.000
392.950;  -18.625; -880.000; -714.000
393.079;   67.325; -188.000; -328.000
393.208;  -33.550; -488.000; -511.000
393.336;    2.825; -170.000; -145.000
393.465;  -37.325; -317.000; -199.000
393.593;   24.700;   62.000;   79.000
393.722; -127.450;-1121.000; -916.000
393.850;  -17.800; -188.000;  -61.000
393.979; -125.625; -926.000; -805.000
394.107;  -42.100; -517.000; -537.000
394.236;  -34.425; -570.000; -507.000
394.364;  118.500;  383.000;  206.000
394.493;   54.450; -911.000; -767.000
394.621;   23.800; -955.000; -916.000
394.750; 1192.325; -873.000; -923.000
394.878; 4569.975; -247.000; -149.000
395.007; 6776.525; -721.000; -807.000
395.135;  630.925; -790.000; -721.000
395.263;  -27.775;-1038.000;-1040.000
395.392;   15.800;  -25.000; -107.000
395.520; -129.050; -818.000; -679.000
395.648; -104.925; -865.000; -915.000
395.777;  -53.325; -366.000; -405.000
395.905;  -68.575; -449.000; -564.000
396.033;   -2.575;  217.000;  172.000
396.162;   87.425; -399.000; -453.000
396.290;   91.750;  -17.000;   -2.000
396.418;  -46.725; -555.000; -514.000
396.546;  -91.725; -571.000; -466.000
396.674; -121.850; -850.000; -878.000
396.803;  -28.475;  -72.000;  -23.000
396.931;  -29.625; -179.000; -199.000
397.059; -116.825;-1026.000; -989.000
397.187; -113.750;-1026.000; -975.000
397.315; -119.450; -884.000; -649.000
397.443;  -84.550; -592.000; -443.000
397.572;  -94.775; -578.000; -424.000
397.700;  -67.500; -607.000; -614.000
397.828;  -35.925;  120.000;  -90.000
397.956;  -23.125; -508.000; -478.000
398.084;  -31.050; -767.000; -626.000
398.212;   17.700;  137.000;  124.000
398.340;  -16.725;  -56.000;  159.000
398.468;  -49.825; -390.000; -169.000
398.596; -138.075; -993.000; -953.000
398.724; -111.050; -762.000; -767.000
398.852; -148.050;-1024.000; -976.000
398.980;  -91.925; -560.000; -560.000
399.108; -101.525; -982.000; -735.000
399.236;    4.175;   13.000;    8.000
399.363;    6.050;  222.000;  196.000
399.491;  -50.275; -404.000; -398.000
399.619; -109.000; -829.000; -800.000
399.747; -109.475; -859.000; -771.000
399.875;   44.075;  220.000;  234.000
400.003;  -63.050; -359.000; -284.000
400.130;  -88.975; -421.000; -341.000
400.258;  -22.300;  -83.000;   38.000
400.386;  -61.475; -352.000; -168.000
400.514;  -71.675; -526.000; -587.000
400.641; -140.825; -928.000; -802.000
400.769; -138.925; -979.000; -888.000
400.897; -121.450; -838.000; -793.000
401.025;  -30.050; -166.000; -152.000
401.152;  -12.000;  220.000;   38.000
401.280;  -77.250; -430.000; -429.000
401.408;  -98.725; -712.000; -576.000
401.535; -109.000; -735.000; -758.000
401.663; -170.025;-1134.000;-1054.000
401.790;  -90.975; -514.000; -525.000
401.918;   28.475;  436.000;  405.000
402.046;   -2.350;  134.000;  122.000
402.173;  -25.425;  -18.000;    7.000
402.301;  -56.125; -519.000; -397.000
402.428;   49.025;  528.000;  383.000
402.556; -132.300;-1188.000; -913.000
402.683;  -31.400;  -20.000;   -1.000
402.811;  -11.025;  -37.000; -206.000
402.938;   -0.750;   20.000;   27.000
403.066;    1.100; -574.000; -558.000
403.193;  117.475;  299.000;  239.000
403.321;   68.725; -396.000; -574.000
403.448;  119.425;   83.000;   27.000
403.575;   54.775;  -90.000;  -46.000
403.703;  -70.875; -732.000; -557.000
403.830;  -36.350; -531.000; -496.000
403.957; -107.075;-1117.000;-1023.000
404.085;   43.775;  -61.000; -172.000
404.212;  146.775;  -50.000;   63.000
404.339;  466.425; -566.000; -306.000
404.467; 9078.325; -612.000; -524.000
404.594; 5731.175; -287.000; -227.000
404.721; 1030.775; -869.000; -764.000
404.848;  126.150; -113.000; -202.000
404.976;  -78.450; -856.000; -783.000
405.103;    0.025;  -14.000;  -82.000
405.230;   24.625;  190.000;  226.000
405.357;   88.750;  117.000;   44.000
405.484;  445.075;  -49.000;    5.000
405.612;  140.725; -548.000; -563.000
405.739;  -31.900; -488.000; -243.000
405.866;   85.225;  669.000;  385.000
405.993;  -44.350; -398.000; -102.000
406.120; -110.000; -801.000; -887.000
406.247;  -60.975; -323.000; -342.000
406.374;  125.975;  540.000;  629.000
406.501;  -60.450; -632.000; -702.000
406.628;  -85.000; -621.000; -589.000
406.755; -102.500; -803.000; -620.000
406.882;  -39.525; -228.000; -277.000
407.009;  -98.575; -719.000; -628.000
407.136;  -27.525; -480.000; -401.000
407.263;   -7.900; -939.000; -829.000
407.390;  -64.825; -692.000; -614.000
407.517; -157.950;-1139.000;-1187.000
407.644;  -50.300; -332.000; -256.000
407.771;  -73.025; -249.000; -287.000
407.898;   -1.075;  168.000;  328.000
408.025;  -49.025; -421.000; -313.000
408.151;    8.675;   82.000;  153.000
408.278;  -57.450; -267.000; -216.000
408.405; -116.075; -931.000; -899.000
408.532;  -88.600; -549.000; -542.000
408.659; -101.125; -677.000; -648.000
408.785; -186.075;-1298.000;-1170.000
408.912;  -39.625; -412.000; -296.000
409.039; -103.200; -610.000; -686.000
409.166;  -99.150; -591.000; -555.000
409.292;  -90.250; -571.000; -534.000
409.419; -106.200; -665.000; -649.000
409.546;  -71.375; -431.000; -192.000
409.672;  -99.450; -713.000; -545.000
409.799;  -33.225;  -36.000;   34.000
409.926;  -51.000; -180.000; -179.000
410.052; -169.775;-1127.000;-1091.000
410.179;  -54.625; -368.000; -392.000
410.305;  -77.625; -375.000; -493.000
410.432;   -9.425; -220.000; -333.000
410.558;  -75.850; -305.000; -380.000
410.685;  -96.450; -688.000; -431.000
410.812;  -84.975; -409.000; -588.000
410.938; -129.625; -964.000; -808.000
411.065; -102.575; -671.000; -645.000
411.191;  -41.075; -189.000; -174.000
411.317; -126.675; -823.000; -742.000
411.444;  -70.700; -317.000; -246.000
411.570;  -80.800; -339.000; -294.000
411.697; -115.600; -758.000; -752.000
411.823; -161.875; -989.000; -999.000
411.949;  -27.300;  -56.000;   17.000
412.076; -111.275; -539.000; -519.000
412.202; -112.925; -758.000; -757.000
412.329; -119.675; -798.000; -752.000
412.455; -111.425; -821.000; -657.000
412.581;  -24.925;  -15.000;  172.000
412.707;  -79.200; -540.000; -457.000
412.834;   -8.475;  156.000;  219.000
412.960; -106.125; -785.000; -784.000
413.086; -101.475; -743.000; -701.000
413.212;  132.475;  604.000;  578.000
413.339;  -81.225; -685.000; -701.000
413.465;  -45.000; -364.000; -310.000
413.591;  -96.900; -757.000; -474.000
413.717;  -59.800; -358.000; -366.000
413.843; -128.725; -839.000; -861.000
413.969;  -48.925;  -47.000; -292.000
414.096;  -98.150; -679.000; -679.000
414.222;   -2.800;  -33.000;   85.000
414.348;  -66.975; -652.000; -385.000
414.474;    2.900;   38.000;  -52.000
414.600;  -14.775; -126.000; -144.000
414.726;    7.125;  -96.000;  -55.000
414.852;  -39.975; -365.000; -342.000
414.978;   47.225;  104.000;  -18.000
415.104;   67.775;   38.000;   80.000
415.230;   44.825; -329.000; -330.000
415.356;   77.350; -409.000; -514.000
415.482;  229.200;   13.000;  -35.000
415.608;  445.300; -247.000; -323.000
415.734; 1412.525;   67.000;   38.000
415.860;28948.075; -875.000; -767.000
415.986;24452.325; -685.000; -607.000
416.111; 2330.950; -798.000; -652.000
416.237;  517.900; -424.000; -571.000
416.363; 1679.525; -765.000; -733.000
416.489; 6907.350; -324.000; -251.000
416.615;  976.375; -707.000; -742.000
416.741;   60.700; -677.000; -784.000
416.866;  -50.600; -673.000; -736.000
416.992;  -73.150; -801.000; -818.000
417.118;   -9.700;  -41.000;  -80.000
417.244;  -55.925; -798.000; -531.000
417.369;  -48.775; -801.000; -612.000
417.495;   16.975; -325.000; -254.000
417.621;  -63.275;-1015.000; -803.000
417.746;   25.225; -579.000; -572.000
417.872;   97.300; -254.000; -144.000
417.998;  161.475; -515.000; -530.000
418.123; 1603.525;-1073.000; -845.000
418.249; 8871.500; -512.000; -601.000
418.374; 1576.725; -916.000; -824.000
418.500;  270.150; -383.000; -482.000
418.626;  192.975;   70.000;  -59.000
418.751;  181.850; -549.000; -448.000
418.877;  355.525; -637.000; -643.000
419.002; 2613.900; -688.000; -560.000
419.128;19861.500; -930.000; -721.000
419.253; 5799.375; -967.000; -837.000
419.379;  815.425; -391.000; -338.000
419.504;  619.500;  325.000;  415.000
419.629;  846.400; -393.000; -212.000
419.755; 5270.350; -317.000; -254.000
419.880;34686.450;  -98.000;   67.000
420.006;17801.200; -280.000; -221.000
420.131;44970.025; -662.000; -775.000
420.256; 7532.800; -315.000; -316.000
420.382; 1028.300; -665.000; -687.000
420.507;  199.725; -649.000; -778.000
420.632;   76.975; -337.000; -339.000
420.758;   84.075; -251.000; -425.000
420.883;  -83.400; -876.000; -672.000
421.008;  -74.675; -775.000; -619.000
421.133;  -65.350; -509.000; -467.000
421.259;  -32.950; -325.000; -259.000
421.384; -132.475; -834.000; -693.000
421.509; -103.050;-1052.000; -862.000
421.634;  210.825; -936.000; -820.000
421.759;  109.050; -359.000; -327.000
421.885;  -90.150; -717.000; -656.000
422.010;  -69.925; -673.000; -542.000
422.135; -129.125; -695.000; -727.000
422.260;   43.525;  340.000;  280.000
422.385;  -24.175;   12.000;  -98.000
422.510;    2.450;  151.000;  -26.000
422.635;  -15.100;  -87.000;  -43.000
422.760;  -16.725; -766.000; -791.000
422.885;   51.575;  -57.000;  -80.000
423.010;   -7.225; -112.000; -169.000
423.135;  -81.650; -481.000; -561.000
423.260;  -38.075; -150.000; -245.000
423.385;   29.175;  476.000;  222.000
423.510;   16.650;   71.000;  -22.000
423.635;   18.025;  133.000;   45.000
423.760;   78.175;  383.000;  328.000
423.885;   34.775;  336.000;  391.000
424.010;    3.575;  -68.000;  -13.000
424.135;  -17.900;    5.000;  -33.000
424.259;  -55.925; -654.000; -457.000
424.384;  -27.975; -279.000; -272.000
424.509;   -9.800; -260.000; -186.000
424.634;  -81.150; -761.000; -623.000
424.759;  -19.975; -688.000; -544.000
424.883;   11.175; -506.000; -527.000
425.008;  214.900; -502.000; -410.000
425.133; 2906.150; -679.000; -653.000
425.258; 1605.450; -517.000; -381.000
425.382;  480.375; -867.000; -774.000
425.507; 1070.025; -487.000; -543.000
425.632;  356.875; -802.000; -663.000
425.756;  667.450; -256.000; -146.000
425.881; 9549.875; -831.000; -857.000
426.006;30255.425; -604.000; -355.000
426.130; 5179.300; -696.000; -508.000
426.255;  708.775; -611.000; -491.000
426.379;  296.100; -189.000; -577.000
426.504;  521.275;  660.000;  544.000
426.629; 6021.625; -519.000; -466.000
426.753; 4859.325;   64.000;  -46.000
426.878;  593.825; -252.000; -288.000
427.002;  351.275; -651.000; -668.000
427.127; 2087.150;  -35.000; -158.000
427.251;17475.975;  372.000;  401.000
427.375; 5893.875; -191.000; -173.000
427.500; 1256.975; -616.000; -610.000
427.624;  405.425; -234.000; -400.000
427.749;  132.775; -216.000; -225.000
427.873;   20.825; -499.000; -412.000
427.997;  -15.350; -222.000; -230.000
428.122;   81.825;  795.000;  703.000
428.246;   39.350;  433.000;  434.000
428.371; -134.725; -869.000; -773.000
428.495;  -86.300; -624.000; -646.000
428.619;  -22.600; -186.000; -117.000
428.743;   19.525;   65.000;  132.000
428.868;  -65.350; -732.000; -643.000
428.992;  427.775; -219.000; -326.000
429.116;  183.775; -329.000; -357.000
429.240;  121.050;  419.000;  426.000
429.365;  -23.300; -454.000; -574.000
429.489;  -34.650; -638.000; -647.000
429.613;   52.100; -236.000; -177.000
429.737;  124.875; -563.000; -432.000
429.861;  402.625; -247.000; -133.000
429.985; 8040.475; -425.000; -305.000
430.109;10544.150; -770.000; -908.000
430.234; 1332.950;   76.000;  -50.000
430.358;  192.100; -250.000; -160.000
430.482;   -2.925; -672.000; -564.000
430.606;  -47.350; -655.000; -375.000
430.730;  -23.900; -437.000; -388.000
430.854;  -46.550; -909.000; -835.000
430.978;  -59.800; -795.000; -764.000
431.102;  -57.025; -499.000; -422.000
431.226;  -85.400; -874.000; -815.000
431.350;   60.500;  345.000;  422.000
431.474;  -53.275; -661.000; -373.000
431.597; -138.650;-1060.000; -848.000
431.721;  -56.700; -276.000; -267.000
431.845; -104.350; -704.000; -472.000
431.969;  -70.525; -304.000; -349.000
432.093;  -73.225; -395.000; -317.000
432.217;   -6.900;   32.000;   82.000
432.341;  -63.650; -523.000; -518.000
432.464;    4.800;   96.000;   40.000
432.588;   -4.925; -401.000; -329.000
432.712;   38.550;  -52.000;  -52.000
432.836;   64.525;  213.000;  263.000
432.959;   45.400; -372.000; -311.000
433.083;  187.475;   11.000;    2.000
433.207;  601.050;  285.000;  930.000
433.330; 7648.500; -391.000; -200.000
433.454;10873.675; -654.000; -638.000
433.578; 6012.525;  583.000;  278.000
433.701; 1375.325; -623.000; -675.000
433.825;  182.325; -292.000; -299.000
433.949;   79.575;   28.000;  -72.000
434.072;   -2.400; -410.000; -323.000
434.196;   16.625; -309.000; -117.000
434.319; 3443.700;25482.000;25124.000
434.443;  887.225; -656.000; -603.000
434.566; 4173.075;  281.000;   62.000
434.690;  972.900; -637.000; -383.000
434.813;  192.875; -251.000; -173.000
434.937;  -13.375; -569.000; -696.000
435.060;  -55.725; -423.000; -332.000
435.184;   11.700; -492.000; -217.000
435.307;   30.275;  159.000;  102.000
435.431;  -19.375;  -40.000;   24.000
435.554;  -60.425; -399.000; -240.000
435.677;  -61.850; -350.000; -258.000
435.801;  -47.325;  -25.000;   49.000
435.924;  -32.600;    1.000;  -67.000
436.048; -133.650;-1019.000; -732.000
436.171;  -54.375; -240.000;  -66.000
436.294;    1.925; -248.000; -229.000
436.417;  248.150; -963.000; -849.000
436.541;  -10.750; -814.000; -840.000
436.664;  -36.375; -242.000; -316.000
436.787;  -10.375;   13.000;  113.000
436.910;  -97.575; -792.000; -422.000
437.034;    1.025;  142.000;  143.000
437.157;   40.600;  -11.000;    0.000
437.280;  -60.550; -392.000; -292.000
437.403; -118.225; -982.000; -869.000
437.526;   29.950; -903.000; -865.000
437.649;  561.175; -505.000; -332.000
437.772;   26.925; -692.000; -540.000
437.896;   64.900;  700.000;  544.000
438.019;  -62.750; -758.000; -503.000
438.142;  -71.975; -596.000; -506.000
438.265; -111.075; -639.000; -670.000
438.388;   48.600; -520.000; -410.000
438.511;  -47.900; -597.000; -394.000
438.634;  -57.550; -247.000; -125.000
438.757; -127.950; -693.000; -619.000
438.880;  -44.825;  -34.000;  -57.000
439.003;  -92.125; -417.000; -437.000
439.126;  -53.125; -287.000; -167.000
439.248;  -51.825;  -98.000; -139.000
439.371;  -49.925;    9.000;  -53.000
439.494;   24.375;  510.000;  439.000
439.617;  -46.750;   65.000;  -88.000
439.740; -163.900; -968.000; -816.000
439.863; -113.050; -755.000; -595.000
439.986; -100.425; -476.000; -431.000
440.108;  -29.425; -161.000; -112.000
440.231; -152.150; -950.000; -836.000
440.354;  -61.950;  -64.000; -150.000
440.477;  -96.300; -566.000; -542.000
440.599;  -67.225; -200.000; -225.000
440.722; -115.325; -709.000; -586.000
440.845;   59.275;  751.000;  928.000
440.968; -106.975; -415.000; -311.000
441.090;  -64.475; -199.000;  -33.000
441.213; -160.375;-1021.000; -825.000
441.336;  -44.500; -159.000;   -5.000
441.458;  -98.950; -549.000; -396.000
441.581; -117.100; -628.000; -629.000
441.703;  -75.275; -152.000;   13.000
441.826; -110.950; -557.000; -400.000
441.948;  -51.200;   56.000;   51.000
442.071;   20.775;  555.000;  424.000
442.193; -118.850; -531.000; -485.000
442.316;    2.650;  152.000;   97.000
442.438;   87.675; -233.000;  -10.000
442.561;   74.100;  272.000;  262.000
442.683;   80.725; -809.000; -522.000
442.806;  302.050;   -8.000;   74.000
442.928;  -90.150; -859.000; -604.000
443.051;  -67.650; -577.000; -373.000
443.173;  -84.275; -341.000; -339.000
443.295;  -77.700; -263.000; -371.000
443.418;  -71.175; -321.000;  -29.000
443.540;  -45.500; -106.000;   -4.000
443.662; -130.550; -563.000; -465.000
443.785;   -6.575;  335.000;  199.000
443.907; -102.800; -362.000; -208.000
444.029; -114.950; -767.000; -494.000
444.152; -133.575; -644.000; -554.000
444.274;  -40.650;  -18.000;  -24.000
444.396; -103.575; -461.000; -221.000
444.518; -124.475; -691.000; -454.000
444.640;  -87.950; -268.000; -111.000
444.763;  -24.775;  388.000;  249.000
444.885; -107.500; -432.000; -392.000
445.007;  -36.575;   35.000;   86.000
445.129; -123.650; -610.000; -515.000
445.251; -102.625; -372.000; -439.000
445.373; -134.925; -537.000; -386.000
445.495;   -0.300;  242.000;  350.000
445.617;   33.500;  853.000;  753.000
445.739;  -72.350; -215.000;  -97.000
445.861;  -60.825; -245.000; -112.000
445.984;  -52.475; -267.000; -101.000
446.105;  -18.325; -418.000; -251.000
446.227;  122.900; -176.000;  -19.000
446.349;  -77.750; -358.000; -249.000
446.471; -116.225; -615.000; -448.000
446.593;  -86.650; -316.000;   19.000
446.715;  -40.275;  -67.000;   41.000
446.837;   49.900;  697.000;  832.000
446.959; -108.825; -457.000; -478.000
447.081; -129.675; -628.000; -518.000
447.203;   61.625;  862.000;  834.000
447.325;  -80.650; -270.000;   42.000
447.446;   -2.775;  286.000;  530.000
447.568; -147.825; -921.000; -803.000
447.690;  -72.450; -236.000; -245.000
447.812; -131.975; -798.000; -519.000
447.933;  -22.150;  155.000;  127.000
448.055;  -69.800; -306.000; -261.000
448.177;   30.675;   31.000;   79.000
448.299;  -84.725; -935.000; -727.000
448.420;    2.550;  -25.000;  159.000
448.542;  -65.775;   -3.000;   33.000
448.664;  -21.600;  109.000;  322.000
448.785;  -30.775;  265.000;   83.000
448.907;  -87.250; -614.000; -353.000
449.028;  -94.225; -771.000; -471.000
449.150;   38.525;  492.000;  589.000
449.272; -166.550;-1044.000; -913.000
449.393;   30.700;  612.000;  694.000
449.515; -132.625; -634.000; -581.000
449.636;  -61.350; -264.000; -155.000
449.758;   58.550;  763.000;  622.000
449.879;  -71.500; -498.000; -396.000
450.001;  -67.375; -149.000;  -49.000
450.122;  -19.275;  -95.000;  162.000
450.244;    8.150;   37.000;  364.000
450.365;  -33.675; -495.000; -301.000
450.486;    7.900;   80.000;  268.000
450.608;   54.200;  393.000;  326.000
450.729;  110.000;  578.000;  645.000
450.850;  111.775; -574.000; -466.000
450.972; 1205.875; -552.000; -389.000
451.093; 7961.025;  190.000;  588.000
451.214; 4260.600; -516.000; -337.000
451.336;  744.200;  773.000;  579.000
451.457;  119.375;  264.000;  393.000
451.578;   -5.700; -118.000;  -74.000
451.699;  -90.675; -546.000; -540.000
451.821;  -41.975; -284.000;  -50.000
451.942;   14.600;  278.000;  285.000
452.063;   69.350;  228.000;  419.000
452.184;  846.900;  -54.000;  -49.000
452.305; 1822.725;  103.000;  170.000
452.427;  369.200; -549.000; -301.000
452.548;   16.200;   23.000;   79.000
452.669;  -52.125; -257.000;  -89.000
452.790;  -38.050;    3.000;  -18.000
452.911;    3.700;  195.000;  259.000
453.032;  -73.275; -289.000;  -60.000
453.153;  -49.875;  -29.000;   81.000
453.274;   63.825;  737.000;  868.000
453.395;  -54.125;  -51.000;  175.000
453.516;    7.100; 1317.000; 1388.000
453.637;  -73.725; -205.000; -150.000
453.758;  -42.000;   15.000;   69.000
453.879;  -96.525; -462.000; -250.000
454.000;   73.050; 1086.000;  948.000
454.121; -121.150; -554.000; -326.000
454.242; -103.125; -599.000; -383.000
454.362;  -39.925;  -99.000;  114.000
454.483;    5.825; -309.000; -229.000
454.604;   90.450;  512.000;  580.000
454.725; -119.550; -627.000; -555.000
454.846; -118.375; -474.000; -406.000
454.967;  -26.600;  230.000;  539.000
455.087;  -43.100;  179.000;  153.000
455.208;   24.625;  554.000;  856.000
455.329;  -43.700;  -22.000;   82.000
455.450;   68.875;  473.000;  633.000
455.570;  -56.600; -234.000; -211.000
455.691;  -20.925;  201.000;  407.000
455.812;  -83.175; -270.000;  -92.000
455.932;  -40.600;  107.000;  -97.000
456.053;  -75.950;   36.000;   24.000
456.173;  -95.200; -433.000; -355.000
456.294; -132.950; -476.000; -303.000
456.415;  -59.150;  -73.000;   70.000
456.535;  -41.375;  297.000;  273.000
456.656;  -33.800;  132.000;  240.000
456.776;  -67.900;    3.000;  298.000
456.897;    6.925;  308.000;  513.000
457.017;  -48.775; -153.000;   -3.000
457.138;  -90.550; -402.000; -249.000
457.258;  -28.025;  263.000;  224.000
457.379;   -9.000;  509.000;  521.000
457.499;  -27.100;  443.000;  432.000
457.620; -107.175; -407.000; -231.000
457.740;  -81.550; -132.000;  -11.000
457.860;  -34.975;   87.000;   44.000
457.981;  -39.900;  132.000;  124.000
458.101;  -52.850;  -89.000;   40.000
458.221;  -16.075;  336.000;  402.000
458.342;  -40.150;   -4.000;  -37.000
458.462;   26.850;  617.000;  352.000
458.582;   16.675; -302.000; -294.000
458.703;   58.575;  303.000;  154.000
458.823;   11.350;   22.000;  163.000
458.943;   68.050;  341.000;  467.000
459.063;   44.525; 1124.000;  192.000
459.183;   -5.825;  328.000;  313.000
459.304;   19.275;  315.000;  517.000
459.424;  -30.500; -246.000;  -89.000
459.544;  484.525;  388.000;  764.000
459.664; 1345.225;  499.000;  506.000
459.784;  553.075; 1004.000; 1175.000
459.904;   91.350;  867.000;  744.000
460.024;   54.000;  867.000;  684.000
460.144;    4.600;  449.000;  554.000
460.264;   -9.925;  515.000;  327.000
460.385;  -80.750; -145.000; -119.000
460.505;   38.400;  905.000;  858.000
460.625; -102.925;  -17.000;  -68.000
460.745;   -5.275;  396.000;  541.000
460.864;  -29.200;  153.000;  469.000
460.984;   67.325;  499.000;  573.000
461.104;  156.450; 1656.000; 1775.000
461.224;   34.025;  657.000;  650.000
461.344;  -31.675;  431.000;  360.000
461.464;  -38.625;  258.000;  513.000
461.584;  -45.325;  283.000;  466.000
461.704;  -65.225;   58.000;  108.000
461.824;  -53.775;  238.000;  259.000
461.943;  -43.950;  191.000;  130.000
462.063;  -67.125;    2.000;  324.000
462.183;   13.925;  639.000;  717.000
462.303;   85.950; 1678.000; 1230.000
462.422;   26.850;  781.000;  840.000
462.542;  -28.775;  271.000;  391.000
462.662;   37.000;  353.000;  380.000
462.782;  347.625;  833.000;  572.000
462.901;  770.350;  545.000;  717.000
463.021;  413.100; 1702.000; 1638.000
463.141;   12.725;  337.000;  770.000
463.260;  -10.600;  614.000;  474.000
463.380;   25.400;  902.000;  884.000
463.499;  -25.500;  342.000;  332.000
463.619;  -19.175;  581.000;  559.000
463.738;  107.975; 1644.000;  903.000
463.858;    5.050;  657.000;  811.000
463.978;  -39.850;  542.000;  396.000
464.097;   42.050;  921.000; 1114.000
464.217;  150.200; 1196.000; 1143.000
464.336;  152.825; 1068.000; 1130.000
464.455;   -3.350;  328.000;  659.000
464.575;   11.800;  597.000;  602.000
464.694;  133.450; 1204.000; 1179.000
464.814;  161.475; 1190.000; 1138.000
464.933;   84.900; 1095.000; 1027.000
465.052;   96.550; 1412.000; 1054.000
465.172;   78.200;  922.000;  799.000
465.291;  124.025; 1376.000; 1320.000
465.410;   23.525;  462.000;  735.000
465.530;   92.400; 1355.000; 1310.000
465.649;   71.050; 1209.000; 1273.000
465.768;  152.025; 1673.000; 1508.000
465.888;   93.050;  941.000; 1174.000
466.007;  112.825; 1335.000; 1440.000
466.126;   -1.975;  721.000;  641.000
466.245;   49.100; 1176.000; 1187.000
466.364;   23.875;  950.000; 1060.000
466.484;   53.975; 1024.000; 1213.000
466.603;   24.325; 1101.000; 1222.000
466.722;  115.900; 1490.000; 1769.000
466.841;   56.650; 1151.000; 1401.000
466.960;   37.500; 1069.000;  972.000
467.079;  122.100; 1971.000; 1786.000
467.198;   50.875; 1238.000; 1181.000
467.317;  100.725; 1768.000; 1162.000
467.436;   89.800; 1709.000; 1261.000
467.555;  137.200; 1796.000; 1746.000
467.674;   73.075; 1227.000; 1329.000
467.793;   50.125; 1376.000; 1374.000
467.912;   80.050; 1658.000; 1539.000
468.031;  131.875; 2038.000; 1930.000
468.150;  147.025; 1842.000; 1837.000
468.269;  175.725; 2313.000; 2090.000
468.388;  181.025; 2168.000; 2339.000
468.507;  239.200; 2884.000; 2903.000
468.626;  240.450; 2555.000; 2541.000
468.744;  136.300; 2018.000; 2174.000
468.863;  195.475; 2312.000; 2523.000
468.982;   90.800; 1503.000; 1555.000
469.101;  235.175; 2788.000; 2692.000
469.220;  166.775; 2333.000; 2176.000
469.338;  256.900; 2935.000; 3051.000
469.457;  195.125; 2719.000; 2545.000
469.576;  335.350; 3953.000; 3784.000
469.695;  258.150; 2877.000; 3066.000
469.813;  411.850; 4148.000; 4192.000
469.932;  425.025; 4255.000; 4485.000
470.051;  449.325; 4075.000; 4161.000
470.169; 1041.575; 4470.000; 4338.000
470.288; 2077.375; 4700.000; 4809.000
470.406; 1200.225; 5059.000; 5194.000
470.525;  679.375; 6101.000; 5787.000
470.644;  647.700; 6847.000; 6794.000
470.762;  801.625; 8397.000; 7873.000
470.881;  894.325; 8651.000; 8464.000
470.999; 1059.425; 9685.000; 9151.000
471.118; 1098.675;11174.000;10711.000

