
Integration time [ms]: 200.000
Averaging Nr. [scans]: 10
Smoothing Nr. [pixels]: 0
Data measured with spectrometer [name]: 2101012U2
Wave   ;Sample   ;Dark     ;Reference
[nm]   ;[counts] ;[counts] ;[counts] 

197.733;  143.800;  516.000;  404.000
197.879; -158.700; -610.000; -634.000
198.025;  -92.600; -475.000; -420.000
198.171; -167.200; -602.000; -612.000
198.317;  -33.600; -401.000; -316.000
198.463; -139.300; -655.000; -404.000
198.609;   56.700;  181.000; -137.000
198.755; -188.400; -644.000; -410.000
198.901; -123.700; -505.000; -424.000
199.047; -151.300; -615.000; -488.000
199.193;  -29.000; -230.000; -468.000
199.339; -111.700; -222.000; -369.000
199.485;   79.300;  330.000;  271.000
199.631;   40.500;  227.000;  310.000
199.777;  -72.200; -466.000; -398.000
199.923;  -98.800; -610.000; -424.000
200.069;   28.800; -141.000;  -58.000
200.215;  109.500;  128.000;  453.000
200.361;  115.900;  243.000;  477.000
200.507; -145.300; -600.000; -373.000
200.653;  -36.900; -371.000; -194.000
200.798;  -80.200; -215.000; -125.000
200.944;   -1.200; -146.000;  -41.000
201.090;   75.700;   61.000;  222.000
201.236;   20.700; -116.000; -158.000
201.382;  228.500;  874.000;  903.000
201.528;   26.800;  -58.000;  -48.000
201.674; -108.200; -386.000; -293.000
201.819; -128.000; -540.000; -439.000
201.965; -167.700; -699.000; -447.000
202.111;  -36.300; -273.000; -226.000
202.257;  -92.300; -250.000; -238.000
202.402;   24.500;   13.000;  -36.000
202.548;  -78.500; -169.000; -116.000
202.694;  181.700;  410.000; -183.000
202.840; -137.000; -603.000; -531.000
202.985; -144.200; -681.000; -639.000
203.131; -206.400; -832.000; -666.000
203.277;  -18.800; -199.000; -262.000
203.423; -113.200; -434.000; -520.000
203.568;  -82.600; -462.000; -237.000
203.714; -142.200; -535.000; -542.000
203.860; -136.500; -682.000; -641.000
204.005;   22.200;  112.000;  167.000
204.151;  148.200;  561.000;  556.000
204.296;  -89.100; -354.000; -221.000
204.442; -135.600; -600.000; -547.000
204.588; -179.400; -592.000; -579.000
204.733;   54.200;  178.000;  168.000
204.879; -275.200;-1018.000; -822.000
205.025;   37.200;  -99.000;  126.000
205.170;  -18.200;  -17.000;   94.000
205.316;  177.000;  438.000;  661.000
205.461; -155.000; -698.000; -554.000
205.607;  194.100;  609.000;  665.000
205.752; -177.700; -626.000; -551.000
205.898; -107.100; -501.000; -391.000
206.043; -101.200; -578.000; -506.000
206.189;  -72.800; -243.000; -285.000
206.334;  179.000;  554.000;  606.000
206.480;  174.700;  409.000;  239.000
206.625; -182.500; -529.000; -552.000
206.771;  -68.900; -451.000; -373.000
206.916;  -63.700; -210.000; -537.000
207.062; -121.000; -545.000; -591.000
207.207; -124.700; -546.000; -443.000
207.353;  113.300;  185.000;  460.000
207.498;   20.100;  196.000;   85.000
207.643;  -95.100; -501.000; -370.000
207.789; -283.700;-1069.000; -910.000
207.934; -167.600; -665.000; -713.000
208.080;  -74.500; -154.000;   66.000
208.225;    0.700;  -22.000;  -57.000
208.370; -174.300; -727.000; -619.000
208.516; -127.300; -741.000; -487.000
208.661;  -34.500; -127.000;  -69.000
208.806;  -17.800; -165.000; -171.000
208.952; -287.200;-1044.000; -731.000
209.097;  159.800;  378.000;  349.000
209.242;  -90.400; -307.000; -382.000
209.387;  131.800;  392.000;  350.000
209.533; -119.800; -321.000; -350.000
209.678;  177.200;  472.000;  543.000
209.823;  -94.400; -408.000; -310.000
209.969; -187.400; -860.000; -757.000
210.114; -207.900; -907.000; -719.000
210.259; -234.000; -939.000; -889.000
210.404;  -19.900; -171.000;  103.000
210.549;   28.300;  108.000;    3.000
210.695;  -16.800;   -3.000;  -95.000
210.840;   91.500;   94.000;   67.000
210.985; -129.700; -484.000; -303.000
211.130;  127.200;  268.000;  406.000
211.275;   44.900;  207.000;  199.000
211.420; -119.900; -300.000; -289.000
211.566; -136.800; -536.000; -489.000
211.711;   83.700;  218.000;  157.000
211.856; -149.300; -545.000; -519.000
212.001;   40.800;  151.000;   44.000
212.146;   26.800;  153.000;   49.000
212.291;  -42.400; -210.000; -186.000
212.436;  -55.300; -280.000;   -6.000
212.581; -157.300; -685.000; -653.000
212.726; -169.300; -487.000; -538.000
212.871;  -99.100; -552.000; -217.000
213.016; -297.900;-1172.000;-1029.000
213.161;  140.300;  406.000;  291.000
213.306; -181.600; -435.000; -577.000
213.451; -187.500; -778.000; -689.000
213.596; -121.000; -455.000; -347.000
213.741;  -93.500; -448.000; -538.000
213.886; -182.300; -498.000; -517.000
214.031;  -25.500; -294.000; -124.000
214.176;  -90.900; -408.000; -341.000
214.321;  -18.700; -296.000; -157.000
214.466;  -54.700; -163.000;  -43.000
214.611;   21.300;  -61.000;  -10.000
214.756; -247.300; -948.000; -858.000
214.901;  -12.300; -388.000; -226.000
215.046; -266.300; -797.000; -825.000
215.191;   86.300;  128.000;   35.000
215.336;  -20.400; -157.000;  -19.000
215.480; -139.400; -684.000; -505.000
215.625;  -26.400; -175.000;  -19.000
215.770; -147.400; -757.000; -662.000
215.915;  -13.800;   -5.000;  -97.000
216.060;   10.700; -113.000;  -21.000
216.205; -231.700; -731.000; -779.000
216.349; -129.300; -470.000; -533.000
216.494; -279.200; -939.000; -867.000
216.639; -238.100; -823.000; -888.000
216.784; -200.800; -577.000; -525.000
216.929;   95.600;  392.000;  281.000
217.073;   -1.300; -244.000;  -31.000
217.218;   58.400;   78.000;  -47.000
217.363; -191.500; -656.000; -618.000
217.507; -126.100; -623.000; -588.000
217.652; -268.100; -845.000; -874.000
217.797; -171.900; -708.000; -659.000
217.942; -251.700; -856.000; -720.000
218.086;  185.500;  608.000;  539.000
218.231;  -44.700; -174.000;  -26.000
218.376;  -57.700; -337.000; -229.000
218.520;    9.000;  -41.000;   96.000
218.665;  -12.200; -338.000; -204.000
218.810;  -63.000; -275.000; -233.000
218.954;   71.500;  201.000;   35.000
219.099; -231.100; -713.000; -963.000
219.243; -123.600; -589.000; -554.000
219.388;  -45.200; -264.000; -136.000
219.532;    4.400; -116.000; -116.000
219.677; -157.800; -564.000; -521.000
219.822;   57.500;   33.000;   89.000
219.966;   10.800;   17.000;  -99.000
220.111;  -26.700; -328.000;  -40.000
220.255; -181.900; -797.000; -750.000
220.400;  -21.500; -180.000; -146.000
220.544; -128.200; -516.000; -450.000
220.689;  -61.100; -422.000; -451.000
220.833;  -36.200; -123.000;  -58.000
220.978;  -98.700; -393.000; -563.000
221.122;   22.900;  319.000;  307.000
221.267; -204.300; -906.000; -837.000
221.411; -124.700; -478.000; -394.000
221.555;   -1.100; -104.000;  -23.000
221.700; -111.200; -329.000; -222.000
221.844;   89.800;  255.000;  272.000
221.989; -101.000; -328.000; -311.000
222.133;  -52.600; -289.000; -307.000
222.277;  -28.000;    5.000;   78.000
222.422;   44.700;  227.000;  113.000
222.566;  -81.400; -381.000; -214.000
222.711;  -69.200; -414.000; -479.000
222.855; -145.300; -643.000; -586.000
222.999; -145.200; -642.000; -717.000
223.144;  -49.500; -195.000; -194.000
223.288;  157.200;  423.000;  251.000
223.432;    7.100;  184.000;  230.000
223.576;   78.200;  152.000;  -21.000
223.721;   90.600;  364.000;  273.000
223.865;  -84.900; -472.000; -475.000
224.009;  517.400; 1673.000; 1631.000
224.153; -147.200; -660.000; -671.000
224.298; -143.900; -531.000; -489.000
224.442;   -9.200;  -74.000;  -33.000
224.586;  -35.100; -169.000; -106.000
224.730; -183.700; -858.000; -670.000
224.875; -241.600; -739.000; -688.000
225.019;   49.400;  102.000;  188.000
225.163;   96.800;  208.000;  341.000
225.307;   77.900;   97.000;  -91.000
225.451;  108.500;  360.000;  481.000
225.595;   95.000;  264.000;  176.000
225.739;  -40.900; -170.000;  -94.000
225.884;   45.100;   86.000;    5.000
226.028; -195.900; -760.000; -626.000
226.172;  -71.700; -260.000; -273.000
226.316; -256.000; -941.000; -902.000
226.460; -135.800; -645.000; -493.000
226.604;  -79.000; -406.000; -400.000
226.748; -168.400; -836.000; -733.000
226.892; -107.700; -227.000; -181.000
227.036;  -63.900; -537.000; -447.000
227.180;  -97.100; -551.000; -375.000
227.324; -106.500; -561.000; -580.000
227.468; -225.500; -819.000; -717.000
227.612;   38.700;  242.000;  -28.000
227.756; -232.600; -845.000; -698.000
227.900;  126.900;  342.000;  441.000
228.044; -139.700; -509.000; -290.000
228.188;  165.600;  448.000;  568.000
228.332; -175.000; -546.000; -472.000
228.476;  -15.400; -223.000; -149.000
228.620;  -44.600; -210.000; -150.000
228.764;  191.700;  431.000;  349.000
228.908;  -17.900; -155.000;   30.000
229.052;  -89.900; -615.000; -528.000
229.195;  -41.800; -172.000;   13.000
229.339;   -4.900; -235.000; -305.000
229.483;  -57.600;    5.000; -162.000
229.627;   18.400; -156.000;  139.000
229.771;  -92.800; -218.000; -294.000
229.915;   71.100;  230.000;   79.000
230.059; -200.400; -648.000; -663.000
230.202;  -35.400; -370.000; -317.000
230.346;  -16.600; -107.000;  107.000
230.490; -120.900; -489.000; -521.000
230.634; -223.100; -736.000; -553.000
230.777;  186.500;  478.000;  509.000
230.921; -134.800; -450.000; -359.000
231.065;  -68.100; -246.000; -286.000
231.209;   50.900;  261.000;  265.000
231.352;   58.500;   54.000;   40.000
231.496;   49.600;  568.000;  188.000
231.640; -144.600; -693.000; -621.000
231.783;  179.500;  546.000;  525.000
231.927;  -80.200; -294.000; -365.000
232.071; -263.400; -962.000; -736.000
232.214; -202.800; -980.000; -764.000
232.358; -195.000; -683.000; -599.000
232.502;   27.900;  -19.000;    7.000
232.645; -308.000;-1090.000; -927.000
232.789;  -46.100; -257.000; -218.000
232.933;  -76.600; -407.000; -224.000
233.076; -232.200;-1038.000; -897.000
233.220; -217.100; -752.000; -777.000
233.363; -145.700; -669.000; -477.000
233.507;  112.400;  371.000;  129.000
233.650; -158.400; -764.000; -834.000
233.794;   95.400;  438.000;  461.000
233.938; -108.400; -530.000; -362.000
234.081;  -18.000;  -93.000;   31.000
234.225; -107.500; -631.000; -539.000
234.368; -218.500; -773.000; -723.000
234.512;  -46.800; -385.000; -299.000
234.655; -190.200; -582.000; -555.000
234.798; -114.400; -493.000; -466.000
234.942; -285.900; -884.000;-1002.000
235.085; -123.900; -651.000; -443.000
235.229; -161.300; -405.000; -410.000
235.372;  -54.600; -247.000; -191.000
235.516; -105.900; -397.000; -321.000
235.659;   66.000;   92.000;  121.000
235.802;  -18.900;  -38.000;  -22.000
235.946;   81.800;  335.000;  215.000
236.089;  106.600;  126.000;  250.000
236.233;  128.100;  275.000;  298.000
236.376;  -92.300; -235.000; -378.000
236.519;  -80.400; -297.000; -319.000
236.663;  -31.700; -215.000; -117.000
236.806; -263.200;-1029.000; -999.000
236.949;  118.400;  543.000;  431.000
237.092;  158.300;  412.000;  391.000
237.236; -198.300; -589.000; -502.000
237.379;  168.800;  352.000;  428.000
237.522; -255.000; -879.000; -768.000
237.666;    3.500; -271.000;   18.000
237.809; -256.600; -851.000; -823.000
237.952;   80.200;  469.000;  271.000
238.095; -119.200; -447.000; -442.000
238.238;  211.000;  688.000;  700.000
238.382;   -2.800;  166.000;  103.000
238.525; -109.800; -598.000; -511.000
238.668; -295.900;-1060.000; -985.000
238.811; -106.000; -638.000; -643.000
238.954;  -99.200; -483.000; -334.000
239.097;  230.000;  617.000;  664.000
239.241;   71.100;  394.000;  326.000
239.384;  -35.900; -254.000; -214.000
239.527;  -99.200; -424.000; -224.000
239.670; -267.700; -994.000;-1091.000
239.813; -236.900; -696.000; -658.000
239.956;  204.600;  579.000;  473.000
240.099; -236.300; -778.000; -725.000
240.242;  148.100;  428.000;  432.000
240.385;   99.000;  466.000;  450.000
240.528;  -91.100; -706.000; -473.000
240.671;   45.200;  189.000;  134.000
240.814;  -65.300; -441.000; -158.000
240.957; -189.100; -767.000; -578.000
241.100; -158.900; -779.000; -755.000
241.243; -302.200;-1234.000; -893.000
241.386;  -92.300; -508.000; -379.000
241.529; -151.500; -735.000; -547.000
241.672; -111.100; -566.000; -495.000
241.815; -203.200; -832.000; -808.000
241.958;  -17.900; -125.000; -182.000
242.101; -116.700; -545.000; -390.000
242.244;  -45.400; -270.000; -325.000
242.387;  -95.400; -304.000; -246.000
242.530;  123.200;  470.000;  134.000
242.673;  -77.100; -381.000; -309.000
242.815; -230.100; -925.000; -899.000
242.958; -144.500; -482.000; -381.000
243.101;   24.700;  132.000;  187.000
243.244; -165.900; -564.000; -521.000
243.387;  -55.900; -313.000; -316.000
243.530; -175.700; -657.000; -674.000
243.672;   22.100;   43.000;  -92.000
243.815; -110.600; -355.000; -283.000
243.958;   32.800;   98.000;  -26.000
244.101;   18.700;   59.000;  -16.000
244.243;   10.400;  -47.000;  101.000
244.386; -229.200; -761.000; -630.000
244.529;   -9.900; -132.000; -139.000
244.672; -300.900;-1154.000; -951.000
244.814; -202.400; -621.000; -794.000
244.957; -115.400; -380.000; -304.000
245.100; -131.900; -489.000; -489.000
245.242; -116.700; -387.000; -374.000
245.385;   26.300;  -59.000;  -39.000
245.528; -221.000; -871.000; -705.000
245.670;  208.600;  612.000;  634.000
245.813; -176.400; -599.000; -547.000
245.956;  -39.600; -324.000; -275.000
246.098; -150.800; -508.000; -650.000
246.241;   36.300;  194.000;   48.000
246.383;  -33.900; -119.000;  -73.000
246.526; -140.100; -454.000; -525.000
246.669; -246.700; -889.000; -780.000
246.811;   52.300;  172.000;   -1.000
246.954;  -98.400; -512.000; -426.000
247.096;   -5.800;  -84.000;   -6.000
247.239; -101.900; -482.000; -445.000
247.381; -114.700; -647.000; -488.000
247.524;  136.500;  645.000;  679.000
247.666;   20.300;   58.000;   11.000
247.809; -229.000; -887.000; -691.000
247.951;    9.100;  -75.000;  138.000
248.094;   55.600;  432.000;  308.000
248.236; -293.900;-1262.000;-1238.000
248.378;   -8.600; -356.000;  -81.000
248.521;  -46.800; -334.000; -337.000
248.663;  -91.600; -236.000; -267.000
248.806;  -43.400; -300.000; -266.000
248.948; -193.000; -886.000; -763.000
249.090;  -62.100; -428.000; -398.000
249.233; -130.300; -344.000; -381.000
249.375;  -96.800; -474.000; -451.000
249.518;  -50.200;  -83.000; -133.000
249.660;   39.600; -103.000;    3.000
249.802; -353.300;-1303.000;-1189.000
249.945; -125.100; -612.000; -540.000
250.087; -239.000; -834.000; -768.000
250.229;  -73.600; -362.000; -480.000
250.371; -112.100; -494.000; -439.000
250.514;  -62.000; -310.000; -244.000
250.656;   -4.400;   69.000;  102.000
250.798; -212.100; -849.000; -800.000
250.940; -154.400; -322.000; -322.000
251.083;  -35.500; -335.000; -111.000
251.225;   93.800;  338.000;  310.000
251.367;  -62.200; -274.000; -373.000
251.509;  -88.200; -265.000; -210.000
251.651; -146.700; -731.000; -671.000
251.794;  145.600;  538.000;  632.000
251.936; -214.100; -821.000; -747.000
252.078; -159.500; -540.000; -461.000
252.220; -114.200; -645.000; -477.000
252.362;  147.200;  344.000;  462.000
252.504; -134.500; -677.000; -584.000
252.646; -228.600; -875.000; -722.000
252.788;   43.400;   14.000; -128.000
252.931;  -89.600; -257.000; -253.000
253.073;  -57.400; -376.000; -317.000
253.215;   -8.700;  141.000;  122.000
253.357;   -5.600;   82.000; -153.000
253.499; -109.100; -374.000; -234.000
253.641; -152.500; -749.000; -594.000
253.783; -203.500; -609.000; -527.000
253.925; -188.500; -586.000; -591.000
254.067; -211.900; -744.000; -667.000
254.209;  -25.000; -391.000; -259.000
254.351; -281.600; -865.000; -883.000
254.493;  -90.300; -441.000; -417.000
254.635; -207.000; -936.000; -818.000
254.777; -155.400; -752.000; -687.000
254.918; -153.300; -512.000; -430.000
255.060;  -92.200; -551.000; -395.000
255.202; -117.100; -473.000; -261.000
255.344; -126.900; -658.000; -455.000
255.486; -121.200; -471.000; -406.000
255.628; -172.300; -780.000; -781.000
255.770; -168.300; -676.000; -536.000
255.912; -125.500; -559.000; -468.000
256.053; -182.800; -730.000; -508.000
256.195;  356.500; 1008.000;  903.000
256.337; -199.000; -861.000; -595.000
256.479;  164.700;  532.000;  416.000
256.621;  -73.000; -394.000; -212.000
256.762; -179.300; -789.000; -742.000
256.904;  149.400;  485.000;  487.000
257.046;  -44.700; -381.000; -271.000
257.188; -104.900; -351.000; -264.000
257.329; -107.200; -525.000; -464.000
257.471; -211.800; -939.000; -807.000
257.613;  -79.700; -584.000; -498.000
257.755; -282.700;-1073.000; -982.000
257.896;  109.500;  286.000;  392.000
258.038; -121.300; -403.000; -352.000
258.180;  -59.900; -354.000; -279.000
258.321; -151.600; -581.000; -457.000
258.463;   47.300;  -71.000;  133.000
258.605; -188.900; -562.000; -570.000
258.746; -174.100; -886.000; -772.000
258.888; -316.700;-1026.000;-1020.000
259.029;   84.000;  121.000;   -8.000
259.171; -170.200; -614.000; -550.000
259.313;   35.300;  -49.000;  -47.000
259.454; -148.600; -536.000; -414.000
259.596;  -81.400; -483.000; -390.000
259.737; -124.800; -590.000; -474.000
259.879;  111.800;  217.000;  311.000
260.020;  203.200;  901.000;  636.000
260.162;  -22.200; -146.000; -253.000
260.303; -245.500; -768.000; -687.000
260.445; -145.100; -609.000; -613.000
260.586;   81.400;  392.000;  157.000
260.728;  -39.700; -360.000; -248.000
260.869; -154.600; -350.000; -343.000
261.011;  198.400;  706.000;  537.000
261.152; -126.100; -479.000; -319.000
261.293; -123.300; -576.000; -595.000
261.435;  -72.400; -219.000; -184.000
261.576;  -70.500; -455.000; -325.000
261.718;  115.900;  420.000;  470.000
261.859; -212.800; -940.000; -949.000
262.000; -273.700; -951.000;-1016.000
262.142;    5.600;  -52.000;  -60.000
262.283; -232.400; -808.000; -691.000
262.424; -135.500; -666.000; -625.000
262.566; -308.900;-1161.000; -983.000
262.707; -217.500; -840.000; -830.000
262.848; -252.200; -769.000; -726.000
262.990;  -62.700; -362.000; -345.000
263.131;  162.900;  650.000;  681.000
263.272;    6.100;  -61.000;  -41.000
263.413; -182.400; -589.000; -561.000
263.555; -121.000; -669.000; -143.000
263.696; -162.100; -550.000; -641.000
263.837;  -89.300; -449.000; -551.000
263.978;   -8.400;   -5.000;  -77.000
264.119;  -64.900; -283.000; -264.000
264.261; -219.700; -847.000; -630.000
264.402;   50.200;   33.000;   40.000
264.543; -131.900; -509.000; -524.000
264.684;   15.100;   61.000;  -50.000
264.825; -125.300; -816.000; -538.000
264.966;    0.700;  -84.000;  -67.000
265.107; -228.900; -646.000; -670.000
265.248; -226.200; -825.000; -812.000
265.390;  -21.300;  152.000;   -9.000
265.531;  -39.900; -238.000; -107.000
265.672; -188.800; -557.000; -630.000
265.813;  166.200;  563.000;  439.000
265.954; -282.000; -959.000; -940.000
266.095;    1.900; -372.000; -322.000
266.236; -191.100; -686.000; -548.000
266.377;  -45.400; -243.000; -297.000
266.518; -149.200; -619.000; -547.000
266.659;  111.800;  170.000;  268.000
266.800;    4.900;   83.000;   85.000
266.941;  -98.200; -487.000; -478.000
267.082;   55.900;  354.000;   99.000
267.223;  -78.500; -344.000; -273.000
267.364; -218.700; -892.000; -686.000
267.504;   -8.500;    3.000;  135.000
267.645;    7.500;  160.000;   67.000
267.786;  -37.300; -147.000;  -86.000
267.927; -122.000; -473.000; -379.000
268.068;    0.500; -186.000;  -61.000
268.209; -105.300; -175.000; -413.000
268.350; -101.000; -388.000; -532.000
268.490; -177.500; -648.000; -521.000
268.631;  115.700;  127.000;  225.000
268.772; -212.700; -874.000; -647.000
268.913;  -64.600; -328.000; -476.000
269.054;  -17.000; -117.000;   12.000
269.194;  -59.000; -418.000; -402.000
269.335; -312.000;-1137.000;-1074.000
269.476;  -16.100;   33.000;  -35.000
269.617;  -78.800; -347.000; -392.000
269.757; -164.000; -713.000; -646.000
269.898; -233.600; -856.000; -613.000
270.039;  -75.300; -415.000; -405.000
270.180; -274.200; -952.000; -816.000
270.320;  -15.900; -190.000; -250.000
270.461;  -89.200; -277.000; -249.000
270.602;   11.900; -186.000; -156.000
270.742; -278.700; -868.000; -943.000
270.883;  -75.900; -442.000; -390.000
271.023; -118.600; -358.000; -357.000
271.164; -132.300; -607.000; -528.000
271.305; -195.500; -666.000; -654.000
271.445; -153.500; -722.000; -683.000
271.586; -110.900; -462.000; -283.000
271.726;  -63.900; -397.000; -322.000
271.867; -141.200; -594.000; -534.000
272.008;  292.800; -473.000; -285.000
272.148;  248.400;  462.000;  468.000
272.289;   59.600; -113.000; -181.000
272.429;   45.700;   19.000;  185.000
272.570; -158.000; -633.000; -737.000
272.710; -216.300; -825.000; -775.000
272.851;  -22.700;  113.000; -130.000
272.991; -336.000;-1173.000;-1077.000
273.131;  -85.600; -419.000; -459.000
273.272; -196.700; -683.000; -723.000
273.412;   57.200; -143.000;  -31.000
273.553; -122.000; -488.000; -507.000
273.693;  267.000;  913.000;  858.000
273.834; -190.900; -894.000; -692.000
273.974; -117.000; -664.000; -615.000
274.114; -189.000; -772.000; -560.000
274.255;  157.100;  414.000;  373.000
274.395;   16.100; -180.000; -125.000
274.535;   95.600;  199.000;  350.000
274.676;   35.900;  225.000;   94.000
274.816;    1.900;  110.000;   34.000
274.956; -145.600; -624.000; -690.000
275.097; -135.600;-1014.000; -922.000
275.237; -229.200; -913.000; -803.000
275.377; -192.300; -778.000; -689.000
275.517; -290.000; -878.000; -937.000
275.658;  -94.500; -590.000; -555.000
275.798; -135.600; -606.000; -413.000
275.938;   99.500;  215.000;  323.000
276.078; -193.500; -626.000; -395.000
276.218;   72.800;   99.000;  104.000
276.359; -281.900;-1026.000;-1024.000
276.499; -118.300; -605.000; -446.000
276.639;  -51.900; -305.000; -151.000
276.779;  -73.400; -475.000; -357.000
276.919; -209.400; -783.000; -624.000
277.059;    9.100; -261.000; -212.000
277.199;  -70.100; -357.000; -259.000
277.340;  120.700;  287.000;  175.000
277.480; -238.000; -840.000; -693.000
277.620;  115.700;  192.000;   16.000
277.760; -404.700;-1533.000;-1294.000
277.900;   61.500;  113.000;   33.000
278.040;   66.100;  137.000;  159.000
278.180;  114.000;  270.000;  170.000
278.320;    6.800;   21.000;   56.000
278.460; -130.400; -443.000; -469.000
278.600; -172.900; -708.000; -598.000
278.740;  165.000;  448.000;  224.000
278.880; -128.600; -768.000; -791.000
279.020;   93.400; -194.000; -144.000
279.160; -157.700; -672.000; -595.000
279.300; -225.900; -926.000; -873.000
279.440; -174.100; -709.000; -622.000
279.579;  -65.700;-1014.000; -929.000
279.719;  -89.400; -410.000; -394.000
279.859;  130.200;   -4.000;   41.000
279.999;   43.200; -208.000;  101.000
280.139;  -29.900; -435.000; -387.000
280.279; -141.000; -708.000; -745.000
280.419;   -7.600; -229.000; -147.000
280.559;  -46.400; -259.000; -180.000
280.698; -150.100; -790.000; -639.000
280.838; -178.300; -778.000; -800.000
280.978; -162.200; -846.000; -790.000
281.118; -219.100; -811.000; -704.000
281.257;   35.200;   24.000;    6.000
281.397; -267.600;-1094.000; -960.000
281.537; -118.800; -599.000; -712.000
281.677;  -47.600; -150.000; -101.000
281.816; -134.300; -700.000; -630.000
281.956;  -66.700; -193.000; -257.000
282.096;  -95.200; -539.000; -396.000
282.235; -192.000; -672.000; -638.000
282.375;  -10.800; -243.000;  -98.000
282.515; -193.800; -715.000; -707.000
282.654;  115.900;   29.000;  106.000
282.794;   89.400;  388.000;  244.000
282.934;  -81.600; -530.000; -491.000
283.073; -239.200;-1030.000; -857.000
283.213;  -81.000; -460.000; -467.000
283.353;  -66.100; -408.000; -349.000
283.492;  -31.300; -264.000; -296.000
283.632;  -77.800; -254.000; -168.000
283.771; -184.600; -859.000; -730.000
283.911; -100.800; -369.000; -260.000
284.050; -180.700; -794.000; -748.000
284.190; -317.300;-1229.000;-1096.000
284.329; -262.200;-1055.000; -964.000
284.469; -135.300; -516.000; -591.000
284.608;  -98.600; -559.000; -598.000
284.748; -180.900; -614.000; -570.000
284.887;   23.800;  -87.000;  -20.000
285.027; -228.000; -844.000; -892.000
285.166;  -42.100; -192.000; -249.000
285.306;   26.400; -116.000;  -33.000
285.445;  -20.000; -229.000; -343.000
285.584; -184.500; -630.000; -494.000
285.724;  -88.000; -282.000; -322.000
285.863; -209.100; -857.000; -507.000
286.002;  -72.900; -366.000; -276.000
286.142; -216.800; -715.000; -622.000
286.281; -109.100; -525.000; -493.000
286.420; -175.000; -554.000; -417.000
286.560;  231.200;  653.000;  623.000
286.699; -248.500; -958.000; -912.000
286.838; -139.600; -590.000; -591.000
286.978; -151.400; -533.000; -537.000
287.117; -259.400;-1085.000; -950.000
287.256;  -60.000; -228.000; -211.000
287.395;  -62.900; -197.000; -378.000
287.535;  -83.300; -370.000; -298.000
287.674; -114.400; -509.000; -484.000
287.813;  151.600;  661.000;  533.000
287.952; -231.600;-1010.000; -871.000
288.091; -299.500;-1049.000; -915.000
288.231;  102.900;   13.000;   15.000
288.370; -310.500;-1217.000;-1200.000
288.509; -162.300; -728.000; -645.000
288.648; -171.700; -770.000; -548.000
288.787;  -16.300; -243.000;  -87.000
288.926; -127.400; -454.000; -475.000
289.065;  290.500;  859.000;  672.000
289.204;  -80.900; -377.000; -217.000
289.344; -161.100; -791.000; -690.000
289.483;   59.200;  416.000;  304.000
289.622;  -26.100; -291.000; -149.000
289.761;  -24.500; -309.000; -166.000
289.900; -204.100; -785.000; -626.000
290.039;  -41.500;  -12.000;  -95.000
290.178;  -48.200; -274.000; -180.000
290.317; -136.100; -618.000; -479.000
290.456; -111.400; -463.000; -451.000
290.595; -263.800; -961.000; -833.000
290.734; -252.100; -904.000; -891.000
290.873; -109.800; -456.000; -420.000
291.011; -202.800; -833.000; -843.000
291.150; -195.000; -770.000; -682.000
291.289;  -27.800; -343.000; -110.000
291.428; -174.000; -599.000; -480.000
291.567;  -89.900; -370.000; -442.000
291.706;   -5.700;  109.000;  154.000
291.845; -140.900; -597.000; -505.000
291.984; -290.200;-1234.000;-1061.000
292.122;  185.700;  602.000;  582.000
292.261;  112.900;  620.000;  463.000
292.400;   66.000; -144.000;  211.000
292.539; -221.200; -959.000; -813.000
292.678;  -11.900; -325.000; -300.000
292.816; -271.500;-1136.000; -965.000
292.955; -142.600; -844.000; -684.000
293.094;   -7.100; -173.000; -337.000
293.233;  -91.600; -556.000; -400.000
293.371;  -41.700; -225.000;  -84.000
293.510; -170.000; -866.000; -780.000
293.649; -242.300; -959.000; -924.000
293.787; -126.100;-1083.000;-1012.000
293.926;   -6.700; -113.000;  -32.000
294.065;  -52.700; -379.000; -290.000
294.203;  100.200;  298.000;  406.000
294.342;   58.300;   74.000;  156.000
294.481;11166.500;51180.000; -836.000
294.619;  -16.400; -425.000; -582.000
294.758; -281.000;-1230.000;-1137.000
294.896;  178.000; -125.000;    5.000
295.035; -252.000;-1040.000;-1006.000
295.174; -219.500;-1082.000; -954.000
295.312;  -89.100; -323.000; -203.000
295.451;   12.100; -307.000; -428.000
295.589;  -98.400; -389.000; -518.000
295.728;  104.300; -292.000; -165.000
295.866;   17.200;  -36.000;  -51.000
296.005;  -96.300; -584.000; -341.000
296.143; -156.300; -558.000; -596.000
296.282; -183.800; -957.000; -881.000
296.420; -159.800; -657.000; -557.000
296.559; -155.800; -892.000; -633.000
296.697;    5.400; -847.000; -665.000
296.835;   82.900;-1141.000;-1002.000
296.974;   82.400;  -23.000;   39.000
297.112;   54.500; -443.000; -504.000
297.251; -126.000; -815.000; -755.000
297.389;  151.700; -576.000; -438.000
297.527;   97.500; -145.000;  -83.000
297.666; -101.700; -486.000; -438.000
297.804;  -98.000; -404.000; -264.000
297.942;   31.400; -136.000; -161.000
298.081;  -20.900; -183.000;   63.000
298.219;  150.200;  -17.000;  -19.000
298.357;   90.400; -144.000;  -71.000
298.495;   73.600; -810.000; -812.000
298.634;  159.400;  245.000;  219.000
298.772;  115.700; -220.000; -338.000
298.910;  -53.800; -309.000; -182.000
299.048;   30.400; -130.000; -153.000
299.187;  -50.100; -350.000; -250.000
299.325;   75.700;   52.000;  122.000
299.463;   86.400; -389.000; -299.000
299.601;  194.600; -327.000; -271.000
299.739; -208.300; -908.000; -883.000
299.877; -129.200; -791.000; -703.000
300.016; -126.700;-1095.000; -935.000
300.154;  264.000;  -19.000; -161.000
300.292;   52.600; -428.000; -348.000
300.430;   52.800; -408.000; -291.000
300.568; -195.900; -940.000; -874.000
300.706;  -65.200; -366.000; -469.000
300.844; -165.200;-1108.000; -979.000
300.982;  244.400;  246.000;  282.000
301.120; -231.100; -965.000; -866.000
301.258;  -98.700; -812.000; -705.000
301.396;   69.100;  104.000;  -41.000
301.534;  164.000; -218.000; -293.000
301.672;  -25.300; -664.000; -521.000
301.810;   33.800; -613.000; -545.000
301.948;  266.300;   53.000;  149.000
302.086;  966.900; -250.000;  -32.000
302.224; 1525.100; -610.000; -585.000
302.362;  116.200; -558.000; -622.000
302.500;  -62.700; -923.000; -893.000
302.638;  224.000;  128.000;  245.000
302.776;    3.500; -352.000; -408.000
302.913;  137.500;  447.000;  236.000
303.051;    6.200;  -86.000;  -23.000
303.189;  186.200;   90.000;  118.000
303.327;  -52.100; -341.000; -256.000
303.465; -129.600; -832.000; -588.000
303.603; -180.800; -805.000; -604.000
303.740;  235.300;  417.000;  241.000
303.878;   43.900; -800.000; -759.000
304.016; -135.000; -915.000; -790.000
304.154; -267.400;-1123.000;-1152.000
304.291;  -40.600; -505.000; -554.000
304.429;   46.000;  102.000;   74.000
304.567; -231.000; -908.000; -893.000
304.705;  -69.300; -408.000; -515.000
304.842;  163.200; -616.000; -540.000
304.980;   97.400;  215.000;   35.000
305.118;   90.500; -367.000; -365.000
305.255; -169.400; -945.000; -927.000
305.393;  157.200;  178.000;  239.000
305.531; -218.700;-1173.000; -956.000
305.668; -121.800; -663.000; -582.000
305.806;  134.600; -358.000; -439.000
305.943;  184.700; -629.000; -637.000
306.081;   97.300; -378.000; -267.000
306.219; -172.200; -863.000; -748.000
306.356;   65.100;  158.000;   27.000
306.494;  296.300;  981.000;  761.000
306.631;   17.500;  -11.000;  -55.000
306.769;   37.900; -613.000; -485.000
306.906;  -17.200; -284.000; -258.000
307.044;  -66.300; -473.000; -488.000
307.181; -136.800; -410.000; -332.000
307.319;   91.800;  112.000;   87.000
307.456; -334.300;-1191.000;-1153.000
307.594; -172.300; -980.000; -727.000
307.731;  -13.000; -371.000; -164.000
307.868;   50.700;  -15.000;   20.000
308.006; -273.700; -961.000; -847.000
308.143;  -78.500; -618.000; -330.000
308.281;  389.900;  -37.000; -254.000
308.418;   55.500; -748.000; -640.000
308.555; -122.700; -400.000; -250.000
308.693;  -66.700; -577.000; -573.000
308.830; -160.100; -712.000; -657.000
308.967;    2.700; -215.000;  -95.000
309.105;  -35.400; -507.000; -396.000
309.242;  113.300; -468.000; -367.000
309.379;  707.100; -577.000; -655.000
309.517;  -42.900; -936.000; -948.000
309.654; -194.000; -910.000; -734.000
309.791;  -94.300; -662.000; -580.000
309.928; -243.800; -977.000; -914.000
310.065;  372.900;  819.000;  697.000
310.203;  -52.000; -825.000; -850.000
310.340;   31.900; -465.000; -321.000
310.477; -135.300; -412.000; -516.000
310.614;  -87.600; -383.000; -473.000
310.751; -147.100; -427.000; -518.000
310.889;   18.900;    1.000;   11.000
311.026; -262.100;-1161.000; -939.000
311.163;  -49.800; -386.000; -380.000
311.300; -112.700; -512.000; -479.000
311.437; -137.900; -658.000; -619.000
311.574; -300.100;-1226.000; -985.000
311.711; -100.900; -595.000; -433.000
311.848;  -63.100; -380.000; -388.000
311.985;   62.300;  270.000;   93.000
312.122; -212.800; -932.000; -762.000
312.259; -202.300; -941.000; -994.000
312.396; -109.100; -508.000; -551.000
312.533; -135.000; -812.000; -790.000
312.670; -247.000;-1070.000; -898.000
312.807;  -19.100; -352.000; -367.000
312.944; -142.200; -513.000; -611.000
313.081;  -32.600; -150.000; -415.000
313.218; -202.200;-1111.000; -867.000
313.355;   44.400; -531.000; -449.000
313.492;   28.500; -455.000; -292.000
313.629;  315.300;  815.000;  735.000
313.766; -312.100;-1176.000;-1008.000
313.902;   31.500; -186.000;   21.000
314.039;  -48.800; -372.000; -289.000
314.176;  119.400;  286.000;  192.000
314.313; -138.300; -569.000; -473.000
314.450;  -86.500; -788.000; -684.000
314.587;  -92.000; -468.000; -480.000
314.723;   47.100;  -78.000;  130.000
314.860;   97.900;  318.000;  332.000
314.997;   94.900;  223.000;  142.000
315.134;  -23.000; -385.000; -368.000
315.270;  -19.700; -480.000; -496.000
315.407; -229.900;-1094.000; -967.000
315.544;  -58.100; -657.000; -538.000
315.681; -129.600; -681.000; -565.000
315.817;   82.500; -133.000; -176.000
315.954;    7.900; -613.000; -392.000
316.091; -214.300;-1045.000;-1023.000
316.227;  -11.400;  -71.000; -179.000
316.364;   49.900;   23.000;    6.000
316.500;  -19.400; -113.000; -300.000
316.637;  -36.800; -181.000; -302.000
316.774; -124.400; -625.000; -358.000
316.910; -157.100; -598.000; -629.000
317.047;  -90.800; -487.000; -351.000
317.183;  -36.000; -435.000; -566.000
317.320;  -18.300; -367.000; -321.000
317.456; -104.800; -733.000; -805.000
317.593; -160.300; -598.000; -641.000
317.729;   80.700;  168.000;  -67.000
317.866; -382.500;-1434.000;-1285.000
318.002; -165.200; -708.000; -948.000
318.139; -161.200; -883.000; -867.000
318.275; -164.300;-1003.000; -738.000
318.412; -100.500; -517.000; -336.000
318.548;  -24.000; -751.000; -720.000
318.685; -196.800; -985.000; -888.000
318.821; -131.900; -762.000; -735.000
318.957;  -15.300;   34.000;  -23.000
319.094;  129.400;  297.000;  154.000
319.230; -109.200; -756.000; -742.000
319.367;  254.700; -471.000; -520.000
319.503;  106.000; -538.000; -436.000
319.639; -136.300; -877.000; -793.000
319.775; -110.400; -750.000; -685.000
319.912;  -73.000; -424.000; -519.000
320.048; -189.500;-1184.000;-1184.000
320.184;  170.900;   59.000;   70.000
320.321; -122.300; -497.000; -467.000
320.457;  183.900;  475.000;  662.000
320.593; -105.600; -375.000; -382.000
320.729; -171.100; -732.000; -734.000
320.866; -145.800; -577.000; -635.000
321.002; -117.200; -759.000; -809.000
321.138;  -21.600; -135.000; -211.000
321.274;  133.300; -148.000; -115.000
321.410;  -30.200; -585.000; -353.000
321.546;  -39.100;-1011.000; -911.000
321.683;  144.400;  400.000;  185.000
321.819;   21.500;  -48.000; -117.000
321.955; -202.800; -743.000; -722.000
322.091;  -46.900; -585.000; -540.000
322.227;    0.400; -382.000; -202.000
322.363;   -6.500; -320.000; -215.000
322.499;  -83.300; -343.000; -331.000
322.635;  303.800;  636.000;  443.000
322.771;   31.600; -139.000;   12.000
322.907;  174.700;  129.000;  327.000
323.043;   -7.300; -115.000; -206.000
323.179;  -11.400; -394.000; -363.000
323.315;   -8.000; -401.000; -371.000
323.451;  176.500; -328.000; -236.000
323.587;  101.200;  -60.000;  -77.000
323.723;   36.100; -682.000; -601.000
323.859;  -35.800; -258.000;  -76.000
323.995;   -3.500; -467.000; -409.000
324.131; -240.200; -967.000; -892.000
324.267;  -63.800; -254.000; -276.000
324.402; -237.300; -960.000; -983.000
324.538;   10.200; -279.000; -104.000
324.674;   82.000;  164.000;   77.000
324.810;  353.800;  226.000;  308.000
324.946;   52.400; -810.000; -658.000
325.082; -105.400; -568.000; -475.000
325.217;  -26.600;  -62.000;   16.000
325.353; -167.200; -764.000; -659.000
325.489; -173.900; -540.000; -506.000
325.625;  -93.900; -579.000; -525.000
325.760;  124.200;  517.000;  376.000
325.896;  -45.700; -515.000; -702.000
326.032;  -93.000; -403.000; -352.000
326.168;  -95.900; -462.000; -369.000
326.303; -102.400; -352.000; -461.000
326.439;   -6.700; -336.000; -276.000
326.575;    5.500; -190.000;  -29.000
326.710;    6.200; -156.000;  -30.000
326.846;   19.600;  146.000;  103.000
326.982; -120.000; -530.000; -548.000
327.117; -122.400; -481.000; -442.000
327.253; -147.100; -745.000; -742.000
327.388; -246.900;-1137.000;-1153.000
327.524;  -28.900; -811.000; -578.000
327.659;  -42.500;  -58.000;  -22.000
327.795;   31.400;   69.000;   45.000
327.931; -152.100; -723.000; -499.000
328.066;    9.900; -417.000; -276.000
328.202;   38.300;   12.000; -129.000
328.337;  271.500;  957.000;  713.000
328.473;   23.000;  -12.000;  -74.000
328.608;  -10.400; -256.000; -267.000
328.743; -178.100; -799.000; -664.000
328.879;   94.100;  214.000;  114.000
329.014; -137.600; -102.000; -122.000
329.150; -115.000; -358.000; -483.000
329.285; -137.600; -465.000; -466.000
329.421;  -33.800; -548.000; -246.000
329.556;    3.700;  -36.000;   85.000
329.691; -135.100; -633.000; -615.000
329.827; -146.600; -626.000; -480.000
329.962;  -45.000;  131.000; -301.000
330.097; -180.500; -673.000; -585.000
330.233;  -39.800; -410.000; -223.000
330.368; -232.600; -839.000; -628.000
330.503;   35.400;    3.000;   98.000
330.638;   33.700;  -93.000; -125.000
330.774;  -52.600; -609.000; -530.000
330.909;  -60.700; -434.000; -244.000
331.044;  -97.100; -714.000; -708.000
331.179; -317.600;-1217.000;-1109.000
331.315;   86.300;   77.000;   20.000
331.450;   38.200;  157.000;  285.000
331.585; -143.800; -805.000; -706.000
331.720; -166.900; -510.000; -460.000
331.855;   51.200;  -35.000; -102.000
331.990;  295.300;   62.000;  138.000
332.126;  207.000; -110.000;   71.000
332.261;  -42.400; -379.000; -265.000
332.396;   14.100; -135.000; -242.000
332.531; -232.600;-1074.000;-1031.000
332.666;   34.200; -519.000; -363.000
332.801; -214.100; -726.000; -807.000
332.936;   -9.200; -192.000; -122.000
333.071; -276.700; -870.000; -817.000
333.206;   56.300;  307.000;  379.000
333.341;   87.100;  344.000;  418.000
333.476; -129.600; -627.000; -623.000
333.611;  -81.000; -251.000; -173.000
333.746;  -42.900; -381.000; -464.000
333.881; -221.800; -973.000; -935.000
334.016; -216.700; -936.000; -917.000
334.151; -225.300; -746.000; -702.000
334.286;  106.500;  152.000;  186.000
334.421;  -59.000; -125.000; -178.000
334.556; -102.500; -611.000; -567.000
334.690; -145.700; -631.000; -577.000
334.825;  178.100;  381.000;   83.000
334.960;  -88.800; -285.000; -413.000
335.095;   71.600;  135.000;  -91.000
335.230; -187.900; -722.000; -738.000
335.365; -242.300;-1084.000; -990.000
335.499; -239.500;-1108.000;-1037.000
335.634;   39.500;    9.000;  534.000
335.769; -206.900; -755.000; -720.000
335.904;  -63.100; -603.000; -561.000
336.038; -119.600; -735.000; -657.000
336.173; -245.900;-1206.000;-1194.000
336.308;   14.800; -116.000; -189.000
336.443;   65.200; -544.000; -634.000
336.577; -152.800; -936.000; -787.000
336.712;  144.500;   -4.000;  -12.000
336.847;  -87.500; -724.000; -607.000
336.981;  125.600; -272.000; -208.000
337.116;  441.700;  615.000;  501.000
337.250;  234.800; -434.000; -421.000
337.385;  297.600; -297.000; -208.000
337.520;   73.500; -632.000; -603.000
337.654;  -64.500; -215.000; -126.000
337.789; -207.600; -989.000; -933.000
337.923;  -28.800; -104.000; -205.000
338.058; -151.200; -673.000; -738.000
338.192;  -76.300; -611.000; -488.000
338.327;   28.600;  -18.000; -155.000
338.461; -117.400; -299.000; -469.000
338.596; -156.300; -780.000; -638.000
338.730; -199.100; -767.000; -803.000
338.865;  157.500;  -46.000; -140.000
338.999; -123.600; -846.000; -702.000
339.134;  -57.300; -634.000; -536.000
339.268;  -22.800; -741.000; -603.000
339.403;  447.500; -740.000; -775.000
339.537;   80.400; -894.000; -820.000
339.671; -173.200; -829.000; -813.000
339.806; -118.800; -556.000; -512.000
339.940;   26.700; -261.000; -235.000
340.074; -175.700; -685.000; -510.000
340.209;  -56.000; -351.000; -230.000
340.343; -155.700; -517.000; -573.000
340.477;  360.900;  998.000; 1036.000
340.612; -157.400;-1033.000; -900.000
340.746;  167.700; -199.000; -243.000
340.880; -125.600; -924.000; -785.000
341.014;   17.200;  -45.000; -154.000
341.149; -188.800; -756.000; -718.000
341.283; -198.900; -839.000; -754.000
341.417; -203.500;-1124.000; -938.000
341.551;  230.700; -768.000; -708.000
341.685;  -61.800; -633.000; -611.000
341.820;  -70.800; -562.000; -493.000
341.954;  -92.000; -218.000; -349.000
342.088; -251.500;-1102.000;-1019.000
342.222;  122.600;  565.000;  618.000
342.356;  -91.600; -395.000; -335.000
342.490; -178.800; -880.000; -841.000
342.624;  -39.100; -339.000; -242.000
342.758;   17.800; -364.000; -312.000
342.892;  -81.600; -710.000; -585.000
343.026;  -51.000;  -58.000; -116.000
343.160;  -46.100; -426.000; -376.000
343.294; -162.100; -474.000; -337.000
343.428;    0.100; -488.000; -448.000
343.562;  -16.300; -172.000;  -23.000
343.696;  -15.900; -385.000; -314.000
343.830;  -13.800; -362.000; -356.000
343.964;   55.100; -231.000; -168.000
344.098; 1562.800;  199.000;   70.000
344.232; 1312.800; -266.000; -127.000
344.366;  140.800; -567.000; -453.000
344.500;  153.000; -665.000; -744.000
344.634;   54.600; -324.000; -164.000
344.768;   23.200; -531.000; -341.000
344.902;   99.200;  278.000;  256.000
345.035; -121.400; -556.000; -496.000
345.169; -269.300; -933.000; -656.000
345.303;  -33.700; -308.000; -482.000
345.437; -140.000; -826.000; -717.000
345.571;  -96.600; -675.000; -594.000
345.704; -107.100; -309.000; -532.000
345.838;   11.900; -331.000; -284.000
345.972;  -76.400; -543.000; -495.000
346.106;  231.200; -179.000; -190.000
346.239;  553.000; -312.000; -243.000
346.373;   35.400; -343.000; -302.000
346.507; -249.300; -950.000; -962.000
346.640;  303.300;  -30.000;   13.000
346.774;  -33.200; -650.000; -797.000
346.908;   19.700; -138.000;  -11.000
347.041; -200.600; -646.000; -593.000
347.175;   79.100;  259.000;   27.000
347.309; -115.800; -698.000; -628.000
347.442; -164.300; -883.000; -732.000
347.576;  552.900;  670.000;  668.000
347.709;  408.900; -123.000;  -52.000
347.843; -146.100; -933.000; -825.000
347.976;  128.300;  235.000;  294.000
348.110; -340.200;-1268.000;-1186.000
348.243; -145.200; -679.000; -772.000
348.377;   26.100;  -26.000;   60.000
348.510;  161.800;  403.000;  540.000
348.644;  -44.100;  -37.000; -159.000
348.777;   47.200;  180.000;  191.000
348.911;  -30.700; -142.000; -112.000
349.044;  372.200;  471.000;  448.000
349.178;  236.400;-1069.000;-1006.000
349.311;  251.700;  141.000;  255.000
349.444;  -35.000; -927.000; -813.000
349.578;   -6.800; -347.000; -200.000
349.711; -148.700; -959.000; -862.000
349.845;   36.700; -661.000; -591.000
349.978; -267.400;-1224.000;-1137.000
350.111;  -95.600; -546.000; -612.000
350.244; -133.800; -596.000; -700.000
350.378;   26.000; -392.000; -393.000
350.511;  -82.100; -393.000; -426.000
350.644; -159.600; -808.000; -806.000
350.778;   54.100;  168.000;  104.000
350.911;   87.100;  134.000;  140.000
351.044; -174.600; -685.000; -615.000
351.177;   19.200; -321.000; -281.000
351.310;   15.500;    3.000; -131.000
351.444; -147.300; -888.000; -788.000
351.577;  209.800;  140.000;   90.000
351.710;  270.200;  593.000;  417.000
351.843;  -65.600; -165.000;  -77.000
351.976;   43.200;  149.000;  -79.000
352.109; -153.100; -621.000; -612.000
352.242;  -13.700; -464.000; -419.000
352.376;  -72.500; -580.000; -636.000
352.509;  260.700; -437.000; -356.000
352.642;  -13.700; -654.000; -604.000
352.775;  152.000; -141.000;  -98.000
352.908; -219.300; -933.000; -904.000
353.041; -190.000; -814.000; -824.000
353.174;  -87.200; -551.000; -424.000
353.307; -109.700; -753.000; -764.000
353.440;  161.800;  541.000;  453.000
353.573; -198.300; -957.000;-1008.000
353.706;  -56.400; -384.000; -558.000
353.839;    4.500; -264.000; -220.000
353.971; -126.300; -657.000; -512.000
354.104; -153.400; -896.000; -835.000
354.237;  -60.100; -627.000; -662.000
354.370; -132.200; -846.000; -879.000
354.503; -361.300;-1231.000;-1308.000
354.636;  -53.600; -529.000; -348.000
354.769; -222.800; -937.000; -860.000
354.902;   31.100; -230.000; -139.000
355.034;  -36.800; -164.000; -220.000
355.167;    5.000; -262.000; -162.000
355.300; -213.600;-1061.000; -880.000
355.433; 1244.500;  -71.000;  -14.000
355.565; 1759.900; -402.000; -384.000
355.698;  467.400; -356.000; -296.000
355.831;  -42.500; -882.000; -801.000
355.964;  202.000; -285.000; -170.000
356.096; -155.900; -856.000; -843.000
356.229;   10.900; -523.000; -530.000
356.362;  367.100; -373.000; -266.000
356.494;  791.400; -229.000; -162.000
356.627;  796.200;  269.000;  377.000
356.760;  903.200;  120.000;   53.000
356.892; 1041.300; -286.000; -601.000
357.025; 1144.100;  403.000;  389.000
357.157;  979.500; -167.000; -179.000
357.290;  743.800; -856.000; -713.000
357.423;  246.600; -667.000; -556.000
357.555;  175.000; -217.000; -228.000
357.688;  162.700; -483.000; -364.000
357.820;  646.300; -870.000; -877.000
357.953; 5967.900; -563.000; -589.000
358.085; 1360.700; -632.000; -612.000
358.218; 1864.800;-1131.000; -932.000
358.350;  431.600;  -58.000;  312.000
358.483; -243.000;-1300.000;-1187.000
358.615;  -24.900;-1182.000;-1078.000
358.747; -147.500;-1187.000;-1058.000
358.880;   65.600; -810.000; -744.000
359.012;  -21.800; -376.000; -202.000
359.145;  -44.300; -480.000; -511.000
359.277;   68.800; -962.000; -913.000
359.409; 5051.800;  536.000;  231.000
359.542; 1252.600; -738.000; -688.000
359.674;  189.400;   46.000;   13.000
359.806; -108.200; -565.000; -438.000
359.939;  -89.600; -617.000; -516.000
360.071;  -55.800; -583.000; -579.000
360.203;  -27.400; -411.000; -364.000
360.335;  118.200;  164.000;  -16.000
360.468;  287.400; -249.000; -307.000
360.600; 3853.200; -547.000; -454.000
360.732; 3461.600; -546.000; -423.000
360.864;  377.000;-1216.000;-1044.000
360.996;  512.700; -516.000; -554.000
361.129;   83.000; -389.000; -598.000
361.261;   93.600;  110.000; -113.000
361.393;  -57.000; -252.000; -214.000
361.525;  100.400;   94.000;  244.000
361.657;  -79.000; -821.000; -703.000
361.789;   52.500; -139.000; -155.000
361.921;  389.000; -642.000; -593.000
362.053;  513.900;  524.000;  541.000
362.185;  148.700;  288.000;   72.000
362.318; -106.700; -709.000; -705.000
362.450;  271.200;  294.000;  444.000
362.582;  209.700; -913.000; -870.000
362.714;   -0.100; -353.000; -332.000
362.846; -105.500; -606.000; -490.000
362.978; -258.100; -941.000; -811.000
363.109;  105.300; -161.000; -260.000
363.241;  679.700; -739.000; -749.000
363.373;  519.500; -649.000; -564.000
363.505;  794.900; -186.000;  -91.000
363.637;  198.300; -787.000; -601.000
363.769; -253.500;-1067.000;-1080.000
363.901; -114.400; -596.000; -654.000
364.033; -225.900;-1103.000;-1062.000
364.165;   55.300; -283.000; -283.000
364.296;  101.600; -316.000; -177.000
364.428;   -3.500;-1344.000;-1220.000
364.560; -133.900; -679.000; -661.000
364.692; -102.800; -738.000; -835.000
364.824;  433.700; -588.000; -456.000
364.955;  595.200; -402.000; -564.000
365.087;  935.300;-1097.000; -852.000
365.219;  -23.600; -686.000; -816.000
365.351; -126.800; -526.000; -572.000
365.482;  175.100;  300.000;  240.000
365.614;  -57.700; -402.000; -314.000
365.746; -155.600; -729.000; -752.000
365.877; -177.900; -706.000; -672.000
366.009;  356.700;  -35.000;  -62.000
366.141; -236.900;-1249.000;-1134.000
366.272; -168.100; -803.000; -719.000
366.404; -214.900;-1005.000; -874.000
366.535;   39.900; -139.000;  -12.000
366.667; -179.500; -644.000; -649.000
366.799;  161.800;  353.000;  203.000
366.930; -211.300; -862.000; -996.000
367.062;  167.100; -639.000; -613.000
367.193;   83.700; -872.000; -842.000
367.325;  -73.500; -580.000; -684.000
367.456;  132.900; -246.000;   31.000
367.588;  235.700; -371.000; -318.000
367.719;   45.700;  -44.000;  -45.000
367.851;   16.200; -222.000; -241.000
367.982; -104.600; -875.000; -732.000
368.113;  217.400; -475.000; -358.000
368.245; -199.500; -960.000; -841.000
368.376;   11.700; -254.000; -302.000
368.508;  -58.400; -188.000; -263.000
368.639; -216.900;-1166.000;-1034.000
368.770;  -47.300; -670.000; -589.000
368.902;  -83.100; -836.000; -926.000
369.033; -179.800; -906.000; -855.000
369.164;  -77.500; -720.000; -653.000
369.296; -178.500; -452.000; -601.000
369.427;   86.100; -209.000; -144.000
369.558;  -52.300; -593.000; -377.000
369.689; -131.200; -721.000; -569.000
369.821; -216.500; -951.000; -845.000
369.952;   16.700;   42.000; -108.000
370.083;  -70.200; -229.000; -108.000
370.214; -117.100; -735.000; -650.000
370.345;   32.900;   65.000;   81.000
370.477; -108.700; -810.000; -790.000
370.608;  441.900; -328.000; -264.000
370.739; -107.400;-1233.000;-1292.000
370.870;  -80.000;-1102.000; -923.000
371.001;  216.200; -378.000; -467.000
371.132; -127.000; -754.000; -735.000
371.263;   18.200;  -42.000; -148.000
371.394; -228.100; -841.000; -748.000
371.525;  100.900;  345.000;  225.000
371.657; -141.100; -808.000; -670.000
371.788;  171.200;  103.000;  199.000
371.919;  342.800; -384.000; -304.000
372.050; 6326.500;  -91.000; -156.000
372.181; 1826.700; -188.000; -294.000
372.311;  714.800;   42.000; -127.000
372.442;   36.300; -457.000; -451.000
372.573;   16.800; -444.000; -340.000
372.704; -219.100;-1008.000; -980.000
372.835;  191.100; -228.000; -289.000
372.966; -100.300; -646.000; -554.000
373.097;  -54.700; -575.000; -711.000
373.228;  -98.300; -717.000; -542.000
373.359;  246.800; -824.000; -536.000
373.490; 1515.100; -881.000; -727.000
373.620; 1885.200;-1001.000; -803.000
373.751; 3156.800; -332.000; -396.000
373.882; 1435.400; -663.000; -733.000
374.013;  118.700; -449.000; -262.000
374.143;  -13.900; -581.000; -659.000
374.274; -186.200; -987.000; -908.000
374.405;  325.400; -388.000; -276.000
374.536;  798.200; -526.000; -387.000
374.666; 1947.000; -759.000; -807.000
374.797;  360.000; -817.000; -868.000
374.928; 1548.500; -710.000; -560.000
375.058; 1472.600; -535.000; -500.000
375.189;  146.700;  -59.000;  -93.000
375.320; -188.500; -928.000;-1034.000
375.450;  -36.200; -625.000; -616.000
375.581;  -92.000; -526.000; -436.000
375.712;   -4.900; -574.000; -250.000
375.842;  523.800; -438.000; -415.000
375.973;  395.300; -554.000; -513.000
376.103;   -3.300; -665.000; -648.000
376.234;  -88.400; -531.000; -552.000
376.364;  -63.100; -944.000; -867.000
376.495;  608.200;  925.000;  529.000
376.625;   13.100; -472.000; -485.000
376.756;  127.000; -709.000; -678.000
376.886; -166.600;-1178.000;-1026.000
377.017;    8.000;-1048.000;-1061.000
377.147;  317.300; -786.000; -782.000
377.278;  168.600;  174.000;  228.000
377.408; -215.000; -801.000; -815.000
377.538; -170.300; -707.000; -693.000
377.669; -116.300; -537.000; -613.000
377.799; -137.000; -645.000; -635.000
377.929;  -87.100; -610.000; -428.000
378.060; -190.800; -781.000; -847.000
378.190; -137.300; -726.000; -531.000
378.320;  -59.500; -401.000; -406.000
378.451;   37.400; -131.000;  -22.000
378.581;   69.300;  -67.000; -110.000
378.711;  340.300; 1035.000;  866.000
378.841;  -12.000; -533.000; -675.000
378.972; -136.500; -871.000; -751.000
379.102;   -2.700; -652.000; -579.000
379.232;  -22.500; -126.000;  -73.000
379.362; -161.400;-1001.000; -885.000
379.492;   32.400; -373.000; -424.000
379.623;  243.000;    0.000;  111.000
379.753; -180.100;-1107.000; -974.000
379.883;  465.800;   59.000;  156.000
380.013;  -18.400;-1081.000;-1017.000
380.143; -160.500;-1097.000;-1056.000
380.273; -171.100; -985.000; -861.000
380.403;   40.500; -344.000; -257.000
380.533;  -50.200; -651.000; -664.000
380.663;  179.900;  173.000;  128.000
380.793; -193.300;-1027.000;-1074.000
380.923;   15.000; -103.000;  -34.000
381.053; -165.600; -613.000; -623.000
381.183;   -8.100; -106.000; -248.000
381.313;   89.100; -656.000; -470.000
381.443;  106.700; -692.000; -473.000
381.573;  398.900; -402.000; -409.000
381.703;  472.900;-1249.000;-1095.000
381.833; -253.700;-1454.000;-1336.000
381.963;  252.700; -134.000;  -87.000
382.093; 2266.800; -925.000; -909.000
382.223;  645.200; -713.000; -602.000
382.353;  -58.000; -801.000; -608.000
382.482;  664.600;-1091.000; -964.000
382.612; 1312.400; -872.000; -644.000
382.742;  727.300; -695.000; -622.000
382.872;  442.300; -565.000; -551.000
383.002;  148.700;  347.000; -132.000
383.131;   -7.600; -226.000; -160.000
383.261;  -82.200; -706.000; -768.000
383.391;  390.400; -552.000; -377.000
383.521; 3972.300;  451.000;  263.000
383.650;  736.300; -947.000; -904.000
383.780;  -49.700; -783.000; -656.000
383.910;  273.400;  880.000;  802.000
384.039;   64.300; -794.000; -656.000
384.169;  280.400;-1205.000;-1017.000
384.299;   -3.600; -650.000; -662.000
384.428; -160.300; -764.000; -680.000
384.558;    2.300; -308.000; -275.000
384.687;  -40.700; -414.000; -334.000
384.817;  121.300;   75.000;   -2.000
384.947;   32.000; -234.000; -141.000
385.076;  589.600;  982.000;  912.000
385.206;  229.400;  369.000;  480.000
385.335;  -11.500; -549.000; -417.000
385.465; -145.700; -655.000; -663.000
385.594;  306.200;  -53.000;  -44.000
385.724;  741.200; -868.000; -838.000
385.853;  263.800; -296.000; -270.000
385.982; 2446.400; -743.000; -787.000
386.112; 3621.400;-1052.000; -871.000
386.241;  252.400; -307.000; -312.000
386.371;  102.400; -174.000;  -87.000
386.500;   33.600; -825.000; -789.000
386.629;   21.800; -874.000; -817.000
386.759;  122.000;  -43.000;   68.000
386.888;   88.700; -170.000; -250.000
387.017; -153.800; -648.000; -620.000
387.147; -150.700; -771.000; -798.000
387.276;   24.300; -410.000; -397.000
387.405;   68.600; -398.000; -342.000
387.535;  -74.600; -452.000; -361.000
387.664;  -98.100; -692.000; -620.000
387.793;  129.600; -198.000; -113.000
387.922;  971.800;  255.000;  200.000
388.052;   25.600; -576.000; -423.000
388.181;   94.200; -342.000; -472.000
388.310;   17.800; -889.000; -710.000
388.439;  -71.500; -749.000; -742.000
388.568;  392.600;  365.000;  244.000
388.697; 1872.800; -756.000; -653.000
388.826;  311.700; -768.000; -666.000
388.956;  184.100; -285.000; -307.000
389.085;   -3.500; -347.000; -287.000
389.214; -193.100; -842.000; -872.000
389.343;  -93.500; -645.000; -413.000
389.472;  603.900;  126.000;  149.000
389.601;  748.100;   91.000;    0.000
389.730;   31.600; -568.000; -687.000
389.859;  164.700;  226.000;   46.000
389.988;  376.800; -423.000; -408.000
390.117;  227.700; -168.000; -146.000
390.246;   71.100; -331.000; -320.000
390.375;  256.000; -673.000; -626.000
390.504;  -53.900; -703.000; -621.000
390.633; -194.100; -672.000; -726.000
390.761;  -77.700; -732.000; -645.000
390.890;   76.600;   -4.000; -130.000
391.019;   30.100; -421.000; -441.000
391.148; -249.500; -826.000; -855.000
391.277;  -67.600; -576.000; -493.000
391.406; -118.900; -821.000; -805.000
391.534;  124.700;  574.000; -301.000
391.663;  -86.700; -583.000; -645.000
391.792;  -98.400; -673.000; -701.000
391.921;  202.200;   -3.000;   15.000
392.050;  387.300; -287.000; -228.000
392.178;  -81.700;-1206.000;-1061.000
392.307;  306.900; -758.000; -712.000
392.436;  119.900; -427.000; -641.000
392.564;   74.600;  166.000;   -6.000
392.693; -187.900; -860.000; -682.000
392.822;  419.800; -529.000; -534.000
392.950;  123.400; -880.000; -714.000
393.079;  674.900; -188.000; -328.000
393.208;   50.500; -488.000; -511.000
393.336;    8.700; -170.000; -145.000
393.465;  -39.300; -317.000; -199.000
393.593;   61.200;   62.000;   79.000
393.722; -272.400;-1121.000; -916.000
393.850;    9.500; -188.000;  -61.000
393.979; -235.700; -926.000; -805.000
394.107;  -77.100; -517.000; -537.000
394.236;    0.900; -570.000; -507.000
394.364;  574.700;  383.000;  206.000
394.493;  807.200; -911.000; -767.000
394.621;  -16.000; -955.000; -916.000
394.750;  799.600; -873.000; -923.000
394.878; 3570.900; -247.000; -149.000
395.007; 4558.200; -721.000; -807.000
395.135;  304.200; -790.000; -721.000
395.263; -164.100;-1038.000;-1040.000
395.392;   55.200;  -25.000; -107.000
395.520; -162.300; -818.000; -679.000
395.648; -166.200; -865.000; -915.000
395.777;   -3.300; -366.000; -405.000
395.905;  -57.300; -449.000; -564.000
396.033;   69.000;  217.000;  172.000
396.162; 1455.000; -399.000; -453.000
396.290; 1213.300;  -17.000;   -2.000
396.418;  194.400; -555.000; -514.000
396.546; -130.400; -571.000; -466.000
396.674; -157.500; -850.000; -878.000
396.803;   53.800;  -72.000;  -23.000
396.931;  213.400; -179.000; -199.000
397.059;   63.300;-1026.000; -989.000
397.187; -186.100;-1026.000; -975.000
397.315; -227.200; -884.000; -649.000
397.443; -118.600; -592.000; -443.000
397.572; -153.800; -578.000; -424.000
397.700;    9.000; -607.000; -614.000
397.828;   72.500;  120.000;  -90.000
397.956;  -70.500; -508.000; -478.000
398.084; -163.700; -767.000; -626.000
398.212;  162.900;  137.000;  124.000
398.340;   71.600;  -56.000;  159.000
398.468;  108.000; -390.000; -169.000
398.596; -237.200; -993.000; -953.000
398.724; -174.500; -762.000; -767.000
398.852; -289.300;-1024.000; -976.000
398.980;  -50.200; -560.000; -560.000
399.108;  -96.300; -982.000; -735.000
399.236;  104.500;   13.000;    8.000
399.363;   79.100;  222.000;  196.000
399.491;  -91.900; -404.000; -398.000
399.619; -235.300; -829.000; -800.000
399.747; -136.700; -859.000; -771.000
399.875;  207.300;  220.000;  234.000
400.003;  -20.000; -359.000; -284.000
400.130; -134.900; -421.000; -341.000
400.258;    5.200;  -83.000;   38.000
400.386;  -90.200; -352.000; -168.000
400.514;  -14.500; -526.000; -587.000
400.641; -177.800; -928.000; -802.000
400.769; -203.000; -979.000; -888.000
400.897; -160.800; -838.000; -793.000
401.025;   38.700; -166.000; -152.000
401.152;   47.000;  220.000;   38.000
401.280;  -70.000; -430.000; -429.000
401.408; -189.800; -712.000; -576.000
401.535; -163.000; -735.000; -758.000
401.663; -343.600;-1134.000;-1054.000
401.790;  -98.500; -514.000; -525.000
401.918;  140.700;  436.000;  405.000
402.046;   35.900;  134.000;  122.000
402.173;    9.400;  -18.000;    7.000
402.301;  -71.100; -519.000; -397.000
402.428;   98.300;  528.000;  383.000
402.556; -243.300;-1188.000; -913.000
402.683;  -10.100;  -20.000;   -1.000
402.811;   11.400;  -37.000; -206.000
402.938;   50.700;   20.000;   27.000
403.066;  390.200; -574.000; -558.000
403.193;  569.300;  299.000;  239.000
403.321;  446.500; -396.000; -574.000
403.448;  571.500;   83.000;   27.000
403.575;  281.300;  -90.000;  -46.000
403.703; -184.400; -732.000; -557.000
403.830;  -83.200; -531.000; -496.000
403.957; -231.900;-1117.000;-1023.000
404.085;   25.900;  -61.000; -172.000
404.212;  155.800;  -50.000;   63.000
404.339;  341.300; -566.000; -306.000
404.467; 6894.300; -612.000; -524.000
404.594; 4683.000; -287.000; -227.000
404.721; 1169.200; -869.000; -764.000
404.848;  165.000; -113.000; -202.000
404.976; -185.400; -856.000; -783.000
405.103;   43.300;  -14.000;  -82.000
405.230;   24.100;  190.000;  226.000
405.357;   67.200;  117.000;   44.000
405.484;  336.900;  -49.000;    5.000
405.612;   46.800; -548.000; -563.000
405.739;  -94.100; -488.000; -243.000
405.866;  255.800;  669.000;  385.000
405.993;  -60.000; -398.000; -102.000
406.120; -228.100; -801.000; -887.000
406.247;  -97.000; -323.000; -342.000
406.374;  877.900;  540.000;  629.000
406.501;  172.800; -632.000; -702.000
406.628; -111.800; -621.000; -589.000
406.755; -143.900; -803.000; -620.000
406.882;  -29.200; -228.000; -277.000
407.009; -155.500; -719.000; -628.000
407.136;  143.700; -480.000; -401.000
407.263;  198.500; -939.000; -829.000
407.390;  -94.900; -692.000; -614.000
407.517; -305.600;-1139.000;-1187.000
407.644;  -45.000; -332.000; -256.000
407.771; -262.500; -249.000; -287.000
407.898;   87.800;  168.000;  328.000
408.025;  -37.000; -421.000; -313.000
408.151;   50.300;   82.000;  153.000
408.278;  -88.100; -267.000; -216.000
408.405; -191.000; -931.000; -899.000
408.532; -125.600; -549.000; -542.000
408.659; -146.600; -677.000; -648.000
408.785; -350.700;-1298.000;-1170.000
408.912;  -53.300; -412.000; -296.000
409.039; -199.700; -610.000; -686.000
409.166; -148.400; -591.000; -555.000
409.292; -184.800; -571.000; -534.000
409.419; -174.300; -665.000; -649.000
409.546; -115.500; -431.000; -192.000
409.672; -144.500; -713.000; -545.000
409.799;    7.400;  -36.000;   34.000
409.926;  -24.500; -180.000; -179.000
410.052; -309.400;-1127.000;-1091.000
410.179;  -55.300; -368.000; -392.000
410.305; -125.400; -375.000; -493.000
410.432;  -30.600; -220.000; -333.000
410.558; -122.300; -305.000; -380.000
410.685; -166.500; -688.000; -431.000
410.812; -137.100; -409.000; -588.000
410.938; -208.100; -964.000; -808.000
411.065; -142.400; -671.000; -645.000
411.191;   18.500; -189.000; -174.000
411.317; -200.600; -823.000; -742.000
411.444;  -56.400; -317.000; -246.000
411.570;  -90.800; -339.000; -294.000
411.697; -191.000; -758.000; -752.000
411.823; -289.600; -989.000; -999.000
411.949;  -32.400;  -56.000;   17.000
412.076; -180.200; -539.000; -519.000
412.202; -168.500; -758.000; -757.000
412.329; -188.800; -798.000; -752.000
412.455; -163.600; -821.000; -657.000
412.581;   15.200;  -15.000;  172.000
412.707;  -66.700; -540.000; -457.000
412.834;   61.600;  156.000;  219.000
412.960; -133.600; -785.000; -784.000
413.086; -150.000; -743.000; -701.000
413.212;  342.700;  604.000;  578.000
413.339;  -96.300; -685.000; -701.000
413.465;   72.000; -364.000; -310.000
413.591; -159.200; -757.000; -474.000
413.717;  -28.500; -358.000; -366.000
413.843; -263.400; -839.000; -861.000
413.969;  -34.700;  -47.000; -292.000
414.096; -183.200; -679.000; -679.000
414.222;   42.500;  -33.000;   85.000
414.348;  -47.200; -652.000; -385.000
414.474;  192.100;   38.000;  -52.000
414.600;   -4.100; -126.000; -144.000
414.726;   -2.100;  -96.000;  -55.000
414.852;  -82.500; -365.000; -342.000
414.978;  122.600;  104.000;  -18.000
415.104;   75.900;   38.000;   80.000
415.230;   78.100; -329.000; -330.000
415.356;   38.600; -409.000; -514.000
415.482;  308.000;   13.000;  -35.000
415.608;  298.100; -247.000; -323.000
415.734; 1305.700;   67.000;   38.000
415.860;25800.200; -875.000; -767.000
415.986;16818.000; -685.000; -607.000
416.111; 1291.800; -798.000; -652.000
416.237;  298.700; -424.000; -571.000
416.363; 1398.000; -765.000; -733.000
416.489; 4975.900; -324.000; -251.000
416.615;  384.500; -707.000; -742.000
416.741;  -81.600; -677.000; -784.000
416.866; -164.000; -673.000; -736.000
416.992; -214.600; -801.000; -818.000
417.118;  -15.600;  -41.000;  -80.000
417.244; -101.600; -798.000; -531.000
417.369; -142.100; -801.000; -612.000
417.495;   15.600; -325.000; -254.000
417.621; -173.300;-1015.000; -803.000
417.746;   14.000; -579.000; -572.000
417.872;   41.300; -254.000; -144.000
417.998;   50.100; -515.000; -530.000
418.123; 1244.300;-1073.000; -845.000
418.249; 6379.000; -512.000; -601.000
418.374;  725.300; -916.000; -824.000
418.500;  148.000; -383.000; -482.000
418.626;  174.100;   70.000;  -59.000
418.751;  168.200; -549.000; -448.000
418.877;  198.400; -637.000; -643.000
419.002; 2315.600; -688.000; -560.000
419.128;14989.500; -930.000; -721.000
419.253; 3256.000; -967.000; -837.000
419.379;  426.300; -391.000; -338.000
419.504;  594.700;  325.000;  415.000
419.629;  578.000; -393.000; -212.000
419.755; 4441.000; -317.000; -254.000
419.880;24443.300;  -98.000;   67.000
420.006;13982.700; -280.000; -221.000
420.131;35170.200; -662.000; -775.000
420.256; 4690.900; -315.000; -316.000
420.382;  567.400; -665.000; -687.000
420.507;   77.600; -649.000; -778.000
420.632;  259.200; -337.000; -339.000
420.758;  505.100; -251.000; -425.000
420.883; -136.400; -876.000; -672.000
421.008; -141.000; -775.000; -619.000
421.133; -132.500; -509.000; -467.000
421.259;  -14.400; -325.000; -259.000
421.384; -194.800; -834.000; -693.000
421.509;  -24.800;-1052.000; -862.000
421.634; 2301.500; -936.000; -820.000
421.759;  898.800; -359.000; -327.000
421.885;  -99.000; -717.000; -656.000
422.010;  -97.700; -673.000; -542.000
422.135; -241.600; -695.000; -727.000
422.260;  140.900;  340.000;  280.000
422.385;  -53.100;   12.000;  -98.000
422.510;   92.800;  151.000;  -26.000
422.635;   85.300;  -87.000;  -43.000
422.760;  198.000; -766.000; -791.000
422.885;  128.700;  -57.000;  -80.000
423.010;  -27.500; -112.000; -169.000
423.135; -129.400; -481.000; -561.000
423.260;   39.300; -150.000; -245.000
423.385;  155.600;  476.000;  222.000
423.510;  118.600;   71.000;  -22.000
423.635;  197.100;  133.000;   45.000
423.760;  176.900;  383.000;  328.000
423.885;  149.300;  336.000;  391.000
424.010;   57.700;  -68.000;  -13.000
424.135;    9.900;    5.000;  -33.000
424.259; -114.200; -654.000; -457.000
424.384;  -94.600; -279.000; -272.000
424.509;    7.100; -260.000; -186.000
424.634; -191.900; -761.000; -623.000
424.759;  -47.300; -688.000; -544.000
424.883;  -23.300; -506.000; -527.000
425.008;  256.400; -502.000; -410.000
425.133; 2492.100; -679.000; -653.000
425.258; 1063.700; -517.000; -381.000
425.382; 1837.500; -867.000; -774.000
425.507; 4305.800; -487.000; -543.000
425.632;  554.400; -802.000; -663.000
425.756;  579.700; -256.000; -146.000
425.881; 8029.100; -831.000; -857.000
426.006;19537.700; -604.000; -355.000
426.130; 2832.000; -696.000; -508.000
426.255;  340.700; -611.000; -491.000
426.379;  196.500; -189.000; -577.000
426.504;  599.800;  660.000;  544.000
426.629; 5180.200; -519.000; -466.000
426.753; 3254.900;   64.000;  -46.000
426.878;  358.700; -252.000; -288.000
427.002;  137.800; -651.000; -668.000
427.127; 2180.600;  -35.000; -158.000
427.251;14053.900;  372.000;  401.000
427.375; 3649.400; -191.000; -173.000
427.500; 3811.600; -616.000; -610.000
427.624; 1113.900; -234.000; -400.000
427.749;  212.800; -216.000; -225.000
427.873;  -67.500; -499.000; -412.000
427.997;  -20.500; -222.000; -230.000
428.122;  218.600;  795.000;  703.000
428.246;  192.800;  433.000;  434.000
428.371; -201.800; -869.000; -773.000
428.495; -115.300; -624.000; -646.000
428.619;   -0.800; -186.000; -117.000
428.743;  105.000;   65.000;  132.000
428.868;   30.000; -732.000; -643.000
428.992; 2504.700; -219.000; -326.000
429.116;  949.300; -329.000; -357.000
429.240;  560.700;  419.000;  426.000
429.365;    3.600; -454.000; -574.000
429.489;  -33.500; -638.000; -647.000
429.613;   56.800; -236.000; -177.000
429.737;   86.700; -563.000; -432.000
429.861;  364.200; -247.000; -133.000
429.985; 7085.900; -425.000; -305.000
430.109; 6970.900; -770.000; -908.000
430.234;  849.300;   76.000;  -50.000
430.358;  102.500; -250.000; -160.000
430.482;  -82.300; -672.000; -564.000
430.606;  -92.400; -655.000; -375.000
430.730;   81.900; -437.000; -388.000
430.854;  185.700; -909.000; -835.000
430.978;  -72.200; -795.000; -764.000
431.102; -106.600; -499.000; -422.000
431.226; -158.600; -874.000; -815.000
431.350;  111.700;  345.000;  422.000
431.474;  -57.500; -661.000; -373.000
431.597; -269.200;-1060.000; -848.000
431.721;  -92.600; -276.000; -267.000
431.845; -208.400; -704.000; -472.000
431.969; -105.200; -304.000; -349.000
432.093; -164.400; -395.000; -317.000
432.217;   27.100;   32.000;   82.000
432.341; -146.600; -523.000; -518.000
432.464;   54.600;   96.000;   40.000
432.588;  370.600; -401.000; -329.000
432.712;  227.000;  -52.000;  -52.000
432.836;  135.700;  213.000;  263.000
432.959;  -23.800; -372.000; -311.000
433.083;  128.300;   11.000;    2.000
433.207;  547.300;  285.000;  930.000
433.330; 6351.400; -391.000; -200.000
433.454; 7095.300; -654.000; -638.000
433.578; 4204.900;  583.000;  278.000
433.701;  694.700; -623.000; -675.000
433.825;  216.400; -292.000; -299.000
433.949;  379.800;   28.000;  -72.000
434.072;  104.400; -410.000; -323.000
434.196;   16.600; -309.000; -117.000
434.319; 7880.300;25482.000;25124.000
434.443; 1049.000; -656.000; -603.000
434.566; 3248.000;  281.000;   62.000
434.690;  475.300; -637.000; -383.000
434.813;   56.100; -251.000; -173.000
434.937;  -92.000; -569.000; -696.000
435.060;  -56.900; -423.000; -332.000
435.184;  647.700; -492.000; -217.000
435.307;  333.800;  159.000;  102.000
435.431;   64.900;  -40.000;   24.000
435.554;  -98.200; -399.000; -240.000
435.677;  -78.500; -350.000; -258.000
435.801;  -21.000;  -25.000;   49.000
435.924;   39.900;    1.000;  -67.000
436.048; -189.500;-1019.000; -732.000
436.171;  -82.300; -240.000;  -66.000
436.294;  -70.900; -248.000; -229.000
436.417;   23.400; -963.000; -849.000
436.541; -169.400; -814.000; -840.000
436.664;   -5.600; -242.000; -316.000
436.787;   23.000;   13.000;  113.000
436.910; -159.900; -792.000; -422.000
437.034;   87.600;  142.000;  143.000
437.157;  180.900;  -11.000;    0.000
437.280;  -76.100; -392.000; -292.000
437.403;  -85.500; -982.000; -869.000
437.526; 1337.400; -903.000; -865.000
437.649; 4364.300; -505.000; -332.000
437.772;  546.300; -692.000; -540.000
437.896;  332.100;  700.000;  544.000
438.019; -155.500; -758.000; -503.000
438.142;  -73.700; -596.000; -506.000
438.265;  -14.000; -639.000; -670.000
438.388; 1052.600; -520.000; -410.000
438.511;  132.000; -597.000; -394.000
438.634;  -22.600; -247.000; -125.000
438.757; -203.500; -693.000; -619.000
438.880;   45.400;  -34.000;  -57.000
439.003; -140.900; -417.000; -437.000
439.126;  -54.800; -287.000; -167.000
439.248;  -61.800;  -98.000; -139.000
439.371;   -8.200;    9.000;  -53.000
439.494;  103.100;  510.000;  439.000
439.617;  -27.600;   65.000;  -88.000
439.740; -293.500; -968.000; -816.000
439.863; -213.200; -755.000; -595.000
439.986; -164.700; -476.000; -431.000
440.108;   -1.400; -161.000; -112.000
440.231; -274.800; -950.000; -836.000
440.354;  -21.500;  -64.000; -150.000
440.477;   83.700; -566.000; -542.000
440.599;   75.000; -200.000; -225.000
440.722; -195.100; -709.000; -586.000
440.845;  228.100;  751.000;  928.000
440.968; -152.200; -415.000; -311.000
441.090;  -45.400; -199.000;  -33.000
441.213; -299.000;-1021.000; -825.000
441.336;  -24.100; -159.000;   -5.000
441.458;  -80.200; -549.000; -396.000
441.581;  -96.500; -628.000; -629.000
441.703;  -72.000; -152.000;   13.000
441.826; -162.000; -557.000; -400.000
441.948;  -42.500;   56.000;   51.000
442.071;  133.200;  555.000;  424.000
442.193; -172.400; -531.000; -485.000
442.316;   95.300;  152.000;   97.000
442.438;   56.400; -233.000;  -10.000
442.561;  199.200;  272.000;  262.000
442.683; 1154.200; -809.000; -522.000
442.806; 2178.200;   -8.000;   74.000
442.928;   46.100; -859.000; -604.000
443.051; -108.300; -577.000; -373.000
443.173; -151.000; -341.000; -339.000
443.295; -116.300; -263.000; -371.000
443.418;  -66.700; -321.000;  -29.000
443.540;   51.500; -106.000;   -4.000
443.662; -199.100; -563.000; -465.000
443.785;   63.600;  335.000;  199.000
443.907; -169.600; -362.000; -208.000
444.029; -157.000; -767.000; -494.000
444.152; -224.900; -644.000; -554.000
444.274;   -3.800;  -18.000;  -24.000
444.396; -177.800; -461.000; -221.000
444.518; -185.100; -691.000; -454.000
444.640; -166.100; -268.000; -111.000
444.763;   21.100;  388.000;  249.000
444.885; -177.100; -432.000; -392.000
445.007;    6.300;   35.000;   86.000
445.129; -169.700; -610.000; -515.000
445.251; -123.900; -372.000; -439.000
445.373; -220.600; -537.000; -386.000
445.495;  103.300;  242.000;  350.000
445.617;  140.200;  853.000;  753.000
445.739;  -47.600; -215.000;  -97.000
445.861;    3.900; -245.000; -112.000
445.984;  -37.900; -267.000; -101.000
446.105;  404.500; -418.000; -251.000
446.227; 1164.000; -176.000;  -19.000
446.349;   45.700; -358.000; -249.000
446.471; -114.200; -615.000; -448.000
446.593;  -66.000; -316.000;   19.000
446.715;   59.200;  -67.000;   41.000
446.837;  214.400;  697.000;  832.000
446.959; -121.500; -457.000; -478.000
447.081; -237.100; -628.000; -518.000
447.203;  188.700;  862.000;  834.000
447.325; -119.800; -270.000;   42.000
447.446;   62.600;  286.000;  530.000
447.568; -263.900; -921.000; -803.000
447.690;  -84.100; -236.000; -245.000
447.812; -264.300; -798.000; -519.000
447.933;   46.900;  155.000;  127.000
448.055;  -90.000; -306.000; -261.000
448.177;  383.100;   31.000;   79.000
448.299;  148.200; -935.000; -727.000
448.420;   94.100;  -25.000;  159.000
448.542;  -32.900;   -3.000;   33.000
448.664;   60.400;  109.000;  322.000
448.785;  -21.600;  265.000;   83.000
448.907;  -91.200; -614.000; -353.000
449.028;  -52.300; -771.000; -471.000
449.150;  191.800;  492.000;  589.000
449.272; -317.700;-1044.000; -913.000
449.393;  119.200;  612.000;  694.000
449.515; -243.100; -634.000; -581.000
449.636;  -57.600; -264.000; -155.000
449.758;  208.000;  763.000;  622.000
449.879; -124.000; -498.000; -396.000
450.001; -111.400; -149.000;  -49.000
450.122;   30.800;  -95.000;  162.000
450.244;   12.900;   37.000;  364.000
450.365; -118.800; -495.000; -301.000
450.486;  -41.800;   80.000;  268.000
450.608;  100.500;  393.000;  326.000
450.729;  156.200;  578.000;  645.000
450.850;  -35.900; -574.000; -466.000
450.972;  872.000; -552.000; -389.000
451.093; 5971.600;  190.000;  588.000
451.214; 2181.100; -516.000; -337.000
451.336;  530.900;  773.000;  579.000
451.457;  111.000;  264.000;  393.000
451.578;  -27.600; -118.000;  -74.000
451.699; -208.400; -546.000; -540.000
451.821;  -64.700; -284.000;  -50.000
451.942;   38.200;  278.000;  285.000
452.063;  114.400;  228.000;  419.000
452.184;  714.000;  -54.000;  -49.000
452.305; 1268.800;  103.000;  170.000
452.427;   86.100; -549.000; -301.000
452.548;    5.600;   23.000;   79.000
452.669;  -58.300; -257.000;  -89.000
452.790;  -41.100;    3.000;  -18.000
452.911;   33.200;  195.000;  259.000
453.032;  -50.500; -289.000;  -60.000
453.153;  -44.700;  -29.000;   81.000
453.274;  223.500;  737.000;  868.000
453.395;  -68.900;  -51.000;  175.000
453.516;  347.800; 1317.000; 1388.000
453.637;  -43.800; -205.000; -150.000
453.758;    2.300;   15.000;   69.000
453.879; -184.900; -462.000; -250.000
454.000;  269.000; 1086.000;  948.000
454.121; -181.500; -554.000; -326.000
454.242; -168.200; -599.000; -383.000
454.362;  -71.400;  -99.000;  114.000
454.483;  -37.800; -309.000; -229.000
454.604;  146.100;  512.000;  580.000
454.725; -167.700; -627.000; -555.000
454.846; -194.400; -474.000; -406.000
454.967;   69.900;  230.000;  539.000
455.087;  -50.800;  179.000;  153.000
455.208;  155.900;  554.000;  856.000
455.329;  -66.600;  -22.000;   82.000
455.450;  130.500;  473.000;  633.000
455.570; -129.900; -234.000; -211.000
455.691;   17.900;  201.000;  407.000
455.812; -178.700; -270.000;  -92.000
455.932;  -33.800;  107.000;  -97.000
456.053; -102.700;   36.000;   24.000
456.173; -115.200; -433.000; -355.000
456.294; -172.400; -476.000; -303.000
456.415;  -60.100;  -73.000;   70.000
456.535;  -36.600;  297.000;  273.000
456.656;  -14.700;  132.000;  240.000
456.776;  -95.100;    3.000;  298.000
456.897;   91.000;  308.000;  513.000
457.017;  -95.900; -153.000;   -3.000
457.138; -130.800; -402.000; -249.000
457.258;  -14.200;  263.000;  224.000
457.379;   43.200;  509.000;  521.000
457.499;   47.500;  443.000;  432.000
457.620; -197.300; -407.000; -231.000
457.740; -111.600; -132.000;  -11.000
457.860;  -23.200;   87.000;   44.000
457.981;   -9.800;  132.000;  124.000
458.101;  -77.800;  -89.000;   40.000
458.221;   59.100;  336.000;  402.000
458.342;  -32.000;   -4.000;  -37.000
458.462;   93.500;  617.000;  352.000
458.582;  -36.000; -302.000; -294.000
458.703;   17.100;  303.000;  154.000
458.823;   11.400;   22.000;  163.000
458.943;   75.300;  341.000;  467.000
459.063;   40.500; 1124.000;  192.000
459.183;   -7.300;  328.000;  313.000
459.304;   72.800;  315.000;  517.000
459.424;  -79.900; -246.000;  -89.000
459.544;  524.900;  388.000;  764.000
459.664; 1078.900;  499.000;  506.000
459.784;  497.600; 1004.000; 1175.000
459.904;  158.500;  867.000;  744.000
460.024;  208.400;  867.000;  684.000
460.144;   88.600;  449.000;  554.000
460.264;   43.000;  515.000;  327.000
460.385; -111.900; -145.000; -119.000
460.505;  179.800;  905.000;  858.000
460.625; -136.800;  -17.000;  -68.000
460.745;   54.700;  396.000;  541.000
460.864;  -41.800;  153.000;  469.000
460.984;  100.900;  499.000;  573.000
461.104;  369.600; 1656.000; 1775.000
461.224;  128.600;  657.000;  650.000
461.344;    8.800;  431.000;  360.000
461.464;   -0.400;  258.000;  513.000
461.584;   34.400;  283.000;  466.000
461.704;  -24.300;   58.000;  108.000
461.824;  -74.000;  238.000;  259.000
461.943;   -9.800;  191.000;  130.000
462.063; -111.900;    2.000;  324.000
462.183;  119.900;  639.000;  717.000
462.303;  291.200; 1678.000; 1230.000
462.422;  122.200;  781.000;  840.000
462.542;  -16.700;  271.000;  391.000
462.662;  110.200;  353.000;  380.000
462.782;  352.700;  833.000;  572.000
462.901;  650.200;  545.000;  717.000
463.021;  497.200; 1702.000; 1638.000
463.141;   58.900;  337.000;  770.000
463.260;   36.900;  614.000;  474.000
463.380;  117.300;  902.000;  884.000
463.499;   22.700;  342.000;  332.000
463.619;   35.400;  581.000;  559.000
463.738;  290.800; 1644.000;  903.000
463.858;  104.500;  657.000;  811.000
463.978;   10.600;  542.000;  396.000
464.097;  181.100;  921.000; 1114.000
464.217;  238.300; 1196.000; 1143.000
464.336;  292.800; 1068.000; 1130.000
464.455;  -18.500;  328.000;  659.000
464.575;  108.500;  597.000;  602.000
464.694;  341.500; 1204.000; 1179.000
464.814;  294.400; 1190.000; 1138.000
464.933;  216.300; 1095.000; 1027.000
465.052;  290.000; 1412.000; 1054.000
465.172;  205.900;  922.000;  799.000
465.291;  349.700; 1376.000; 1320.000
465.410;   66.000;  462.000;  735.000
465.530;  274.800; 1355.000; 1310.000
465.649;  171.100; 1209.000; 1273.000
465.768;  372.300; 1673.000; 1508.000
465.888;  172.800;  941.000; 1174.000
466.007;  287.400; 1335.000; 1440.000
466.126;   65.500;  721.000;  641.000
466.245;  182.000; 1176.000; 1187.000
466.364;  104.400;  950.000; 1060.000
466.484;  222.900; 1024.000; 1213.000
466.603;  150.700; 1101.000; 1222.000
466.722;  318.200; 1490.000; 1769.000
466.841;  201.700; 1151.000; 1401.000
466.960;  151.300; 1069.000;  972.000
467.079;  309.500; 1971.000; 1786.000
467.198;  189.300; 1238.000; 1181.000
467.317;  234.800; 1768.000; 1162.000
467.436;  212.800; 1709.000; 1261.000
467.555;  346.500; 1796.000; 1746.000
467.674;  233.400; 1227.000; 1329.000
467.793;  156.800; 1376.000; 1374.000
467.912;  257.100; 1658.000; 1539.000
468.031;  347.100; 2038.000; 1930.000
468.150;  403.800; 1842.000; 1837.000
468.269;  464.700; 2313.000; 2090.000
468.388;  486.000; 2168.000; 2339.000
468.507;  592.700; 2884.000; 2903.000
468.626;  682.600; 2555.000; 2541.000
468.744;  380.700; 2018.000; 2174.000
468.863;  482.100; 2312.000; 2523.000
468.982;  267.500; 1503.000; 1555.000
469.101;  544.300; 2788.000; 2692.000
469.220;  409.000; 2333.000; 2176.000
469.338;  637.300; 2935.000; 3051.000
469.457;  448.100; 2719.000; 2545.000
469.576;  776.500; 3953.000; 3784.000
469.695;  537.000; 2877.000; 3066.000
469.813;  970.700; 4148.000; 4192.000
469.932;  916.000; 4255.000; 4485.000
470.051;  896.200; 4075.000; 4161.000
470.169; 1482.500; 4470.000; 4338.000
470.288; 2191.500; 4700.000; 4809.000
470.406; 1457.900; 5059.000; 5194.000
470.525; 1286.300; 6101.000; 5787.000
470.644; 1343.000; 6847.000; 6794.000
470.762; 1745.500; 8397.000; 7873.000
470.881; 1834.100; 8651.000; 8464.000
470.999; 2119.800; 9685.000; 9151.000
471.118; 2321.600;11174.000;10711.000

