
Integration time [ms]: 100.000
Averaging Nr. [scans]: 40
Smoothing Nr. [pixels]: 0
Data measured with spectrometer [name]: 2101012U2
Wave   ;Sample   ;Dark     ;Reference
[nm]   ;[counts] ;[counts] ;[counts] 

197.733;   47.800;  516.000;  404.000
197.879;  -80.250; -610.000; -634.000
198.025;  -41.050; -475.000; -420.000
198.171;  -62.525; -602.000; -612.000
198.317;  -29.725; -401.000; -316.000
198.463;  -57.275; -655.000; -404.000
198.609;   26.500;  181.000; -137.000
198.755;  -71.225; -644.000; -410.000
198.901;  -54.225; -505.000; -424.000
199.047;  -65.050; -615.000; -488.000
199.193;  -45.475; -230.000; -468.000
199.339;  -29.325; -222.000; -369.000
199.485;   37.425;  330.000;  271.000
199.631;   27.825;  227.000;  310.000
199.777;  -31.500; -466.000; -398.000
199.923;  -57.575; -610.000; -424.000
200.069;    2.575; -141.000;  -58.000
200.215;   57.400;  128.000;  453.000
200.361;   53.450;  243.000;  477.000
200.507;  -53.400; -600.000; -373.000
200.653;  -24.450; -371.000; -194.000
200.798;  -45.275; -215.000; -125.000
200.944;    2.150; -146.000;  -41.000
201.090;   46.450;   61.000;  222.000
201.236;   -7.450; -116.000; -158.000
201.382;  122.925;  874.000;  903.000
201.528;   -8.925;  -58.000;  -48.000
201.674;  -25.775; -386.000; -293.000
201.819;  -58.375; -540.000; -439.000
201.965;  -79.150; -699.000; -447.000
202.111;  -17.150; -273.000; -226.000
202.257;  -31.550; -250.000; -238.000
202.402;   26.950;   13.000;  -36.000
202.548;  -27.350; -169.000; -116.000
202.694;   88.475;  410.000; -183.000
202.840;  -66.250; -603.000; -531.000
202.985;  -62.025; -681.000; -639.000
203.131; -103.850; -832.000; -666.000
203.277;  -24.200; -199.000; -262.000
203.423;  -57.250; -434.000; -520.000
203.568;  -28.975; -462.000; -237.000
203.714;  -50.825; -535.000; -542.000
203.860;  -73.700; -682.000; -641.000
204.005;   19.625;  112.000;  167.000
204.151;   74.850;  561.000;  556.000
204.296;  -43.650; -354.000; -221.000
204.442;  -56.975; -600.000; -547.000
204.588;  -57.875; -592.000; -579.000
204.733;   22.625;  178.000;  168.000
204.879; -115.975;-1018.000; -822.000
205.025;   12.800;  -99.000;  126.000
205.170;    0.625;  -17.000;   94.000
205.316;   88.875;  438.000;  661.000
205.461;  -79.125; -698.000; -554.000
205.607;   85.250;  609.000;  665.000
205.752;  -65.550; -626.000; -551.000
205.898;  -55.825; -501.000; -391.000
206.043;  -59.050; -578.000; -506.000
206.189;  -33.825; -243.000; -285.000
206.334;   82.925;  554.000;  606.000
206.480;   65.700;  409.000;  239.000
206.625;  -79.675; -529.000; -552.000
206.771;  -46.525; -451.000; -373.000
206.916;  -25.275; -210.000; -537.000
207.062;  -58.950; -545.000; -591.000
207.207;  -54.100; -546.000; -443.000
207.353;   57.675;  185.000;  460.000
207.498;   23.200;  196.000;   85.000
207.643;  -40.800; -501.000; -370.000
207.789; -125.625;-1069.000; -910.000
207.934;  -84.725; -665.000; -713.000
208.080;  -16.900; -154.000;   66.000
208.225;  -10.875;  -22.000;  -57.000
208.370;  -61.100; -727.000; -619.000
208.516;  -66.550; -741.000; -487.000
208.661;  -37.075; -127.000;  -69.000
208.806;  -20.175; -165.000; -171.000
208.952; -122.675;-1044.000; -731.000
209.097;   75.350;  378.000;  349.000
209.242;  -42.550; -307.000; -382.000
209.387;   64.925;  392.000;  350.000
209.533;  -40.900; -321.000; -350.000
209.678;   78.150;  472.000;  543.000
209.823;  -54.550; -408.000; -310.000
209.969;  -99.750; -860.000; -757.000
210.114;  -94.925; -907.000; -719.000
210.259; -112.025; -939.000; -889.000
210.404;   -0.075; -171.000;  103.000
210.549;   29.050;  108.000;    3.000
210.695;   -8.250;   -3.000;  -95.000
210.840;   34.650;   94.000;   67.000
210.985;  -59.100; -484.000; -303.000
211.130;   66.925;  268.000;  406.000
211.275;   14.650;  207.000;  199.000
211.420;  -38.650; -300.000; -289.000
211.566;  -65.525; -536.000; -489.000
211.711;   25.950;  218.000;  157.000
211.856;  -51.950; -545.000; -519.000
212.001;   13.775;  151.000;   44.000
212.146;   24.375;  153.000;   49.000
212.291;  -20.225; -210.000; -186.000
212.436;  -12.375; -280.000;   -6.000
212.581;  -77.200; -685.000; -653.000
212.726;  -79.550; -487.000; -538.000
212.871;  -39.700; -552.000; -217.000
213.016; -137.925;-1172.000;-1029.000
213.161;   57.850;  406.000;  291.000
213.306;  -70.725; -435.000; -577.000
213.451; -101.575; -778.000; -689.000
213.596;  -36.575; -455.000; -347.000
213.741;  -41.325; -448.000; -538.000
213.886;  -84.075; -498.000; -517.000
214.031;  -19.875; -294.000; -124.000
214.176;  -42.250; -408.000; -341.000
214.321;  -26.975; -296.000; -157.000
214.466;  -21.100; -163.000;  -43.000
214.611;   -9.300;  -61.000;  -10.000
214.756; -104.200; -948.000; -858.000
214.901;  -27.600; -388.000; -226.000
215.046; -107.250; -797.000; -825.000
215.191;   17.650;  128.000;   35.000
215.336;  -17.025; -157.000;  -19.000
215.480;  -73.875; -684.000; -505.000
215.625;  -11.650; -175.000;  -19.000
215.770;  -79.825; -757.000; -662.000
215.915;  -12.275;   -5.000;  -97.000
216.060;   -8.575; -113.000;  -21.000
216.205; -109.975; -731.000; -779.000
216.349;  -68.950; -470.000; -533.000
216.494; -139.925; -939.000; -867.000
216.639;  -98.250; -823.000; -888.000
216.784;  -84.375; -577.000; -525.000
216.929;   45.700;  392.000;  281.000
217.073;  -21.600; -244.000;  -31.000
217.218;   10.500;   78.000;  -47.000
217.363;  -73.925; -656.000; -618.000
217.507;  -80.750; -623.000; -588.000
217.652; -108.825; -845.000; -874.000
217.797;  -90.700; -708.000; -659.000
217.942; -109.125; -856.000; -720.000
218.086;   69.350;  608.000;  539.000
218.231;  -26.800; -174.000;  -26.000
218.376;  -35.550; -337.000; -229.000
218.520;   14.375;  -41.000;   96.000
218.665;  -33.525; -338.000; -204.000
218.810;  -34.050; -275.000; -233.000
218.954;   18.050;  201.000;   35.000
219.099;  -97.000; -713.000; -963.000
219.243;  -60.275; -589.000; -554.000
219.388;  -18.800; -264.000; -136.000
219.532;  -10.675; -116.000; -116.000
219.677;  -70.200; -564.000; -521.000
219.822;   12.775;   33.000;   89.000
219.966;   17.825;   17.000;  -99.000
220.111;  -27.875; -328.000;  -40.000
220.255;  -89.250; -797.000; -750.000
220.400;  -16.975; -180.000; -146.000
220.544;  -60.925; -516.000; -450.000
220.689;  -48.500; -422.000; -451.000
220.833;  -14.425; -123.000;  -58.000
220.978;  -32.675; -393.000; -563.000
221.122;   33.175;  319.000;  307.000
221.267; -110.725; -906.000; -837.000
221.411;  -68.350; -478.000; -394.000
221.555;    0.525; -104.000;  -23.000
221.700;  -39.175; -329.000; -222.000
221.844;   30.075;  255.000;  272.000
221.989;  -35.750; -328.000; -311.000
222.133;  -33.875; -289.000; -307.000
222.277;  -10.725;    5.000;   78.000
222.422;   28.675;  227.000;  113.000
222.566;  -27.500; -381.000; -214.000
222.711;  -50.525; -414.000; -479.000
222.855;  -69.825; -643.000; -586.000
222.999;  -80.275; -642.000; -717.000
223.144;  -19.250; -195.000; -194.000
223.288;   42.075;  423.000;  251.000
223.432;   19.725;  184.000;  230.000
223.576;   31.150;  152.000;  -21.000
223.721;   41.850;  364.000;  273.000
223.865;  -55.400; -472.000; -475.000
224.009;  243.950; 1673.000; 1631.000
224.153;  -86.600; -660.000; -671.000
224.298;  -64.025; -531.000; -489.000
224.442;   -4.900;  -74.000;  -33.000
224.586;   -3.975; -169.000; -106.000
224.730;  -99.200; -858.000; -670.000
224.875;  -97.400; -739.000; -688.000
225.019;   15.475;  102.000;  188.000
225.163;   55.075;  208.000;  341.000
225.307;   18.150;   97.000;  -91.000
225.451;   31.700;  360.000;  481.000
225.595;   16.725;  264.000;  176.000
225.739;  -22.775; -170.000;  -94.000
225.884;    5.900;   86.000;    5.000
226.028;  -87.750; -760.000; -626.000
226.172;  -31.925; -260.000; -273.000
226.316; -114.075; -941.000; -902.000
226.460;  -52.350; -645.000; -493.000
226.604;  -51.800; -406.000; -400.000
226.748;  -92.000; -836.000; -733.000
226.892;  -43.275; -227.000; -181.000
227.036;  -39.975; -537.000; -447.000
227.180;  -53.900; -551.000; -375.000
227.324;  -60.850; -561.000; -580.000
227.468; -108.125; -819.000; -717.000
227.612;   10.650;  242.000;  -28.000
227.756;  -89.725; -845.000; -698.000
227.900;   52.775;  342.000;  441.000
228.044;  -57.450; -509.000; -290.000
228.188;   61.650;  448.000;  568.000
228.332;  -74.475; -546.000; -472.000
228.476;  -12.650; -223.000; -149.000
228.620;  -22.475; -210.000; -150.000
228.764;   51.450;  431.000;  349.000
228.908;   -9.125; -155.000;   30.000
229.052;  -55.450; -615.000; -528.000
229.195;  -14.875; -172.000;   13.000
229.339;  -34.300; -235.000; -305.000
229.483;  -26.325;    5.000; -162.000
229.627;    4.900; -156.000;  139.000
229.771;  -52.875; -218.000; -294.000
229.915;   23.875;  230.000;   79.000
230.059;  -87.475; -648.000; -663.000
230.202;  -33.175; -370.000; -317.000
230.346;  -25.200; -107.000;  107.000
230.490;  -48.625; -489.000; -521.000
230.634; -111.350; -736.000; -553.000
230.777;   70.450;  478.000;  509.000
230.921;  -53.375; -450.000; -359.000
231.065;  -31.800; -246.000; -286.000
231.209;   20.850;  261.000;  265.000
231.352;   20.925;   54.000;   40.000
231.496;   13.700;  568.000;  188.000
231.640;  -75.150; -693.000; -621.000
231.783;   64.225;  546.000;  525.000
231.927;  -41.775; -294.000; -365.000
232.071; -112.975; -962.000; -736.000
232.214; -112.725; -980.000; -764.000
232.358;  -94.775; -683.000; -599.000
232.502;    1.375;  -19.000;    7.000
232.645; -127.625;-1090.000; -927.000
232.789;  -17.025; -257.000; -218.000
232.933;  -44.775; -407.000; -224.000
233.076; -128.550;-1038.000; -897.000
233.220;  -95.125; -752.000; -777.000
233.363;  -70.600; -669.000; -477.000
233.507;   49.575;  371.000;  129.000
233.650;  -86.050; -764.000; -834.000
233.794;   46.675;  438.000;  461.000
233.938;  -50.700; -530.000; -362.000
234.081;  -11.350;  -93.000;   31.000
234.225;  -65.450; -631.000; -539.000
234.368; -115.000; -773.000; -723.000
234.512;  -39.000; -385.000; -299.000
234.655;  -84.200; -582.000; -555.000
234.798;  -64.050; -493.000; -466.000
234.942; -133.700; -884.000;-1002.000
235.085;  -51.525; -651.000; -443.000
235.229;  -71.725; -405.000; -410.000
235.372;  -30.000; -247.000; -191.000
235.516;  -53.450; -397.000; -321.000
235.659;   20.900;   92.000;  121.000
235.802;   -7.050;  -38.000;  -22.000
235.946;   39.100;  335.000;  215.000
236.089;   30.050;  126.000;  250.000
236.233;   54.375;  275.000;  298.000
236.376;  -34.700; -235.000; -378.000
236.519;  -40.325; -297.000; -319.000
236.663;  -29.375; -215.000; -117.000
236.806; -116.725;-1029.000; -999.000
236.949;   44.875;  543.000;  431.000
237.092;   52.525;  412.000;  391.000
237.236;  -85.100; -589.000; -502.000
237.379;   55.025;  352.000;  428.000
237.522; -102.600; -879.000; -768.000
237.666;  -26.250; -271.000;   18.000
237.809; -113.450; -851.000; -823.000
237.952;   39.150;  469.000;  271.000
238.095;  -49.300; -447.000; -442.000
238.238;   81.175;  688.000;  700.000
238.382;   -0.925;  166.000;  103.000
238.525;  -69.100; -598.000; -511.000
238.668; -139.175;-1060.000; -985.000
238.811;  -67.925; -638.000; -643.000
238.954;  -58.350; -483.000; -334.000
239.097;   94.150;  617.000;  664.000
239.241;   33.050;  394.000;  326.000
239.384;  -20.525; -254.000; -214.000
239.527;  -55.150; -424.000; -224.000
239.670; -131.325; -994.000;-1091.000
239.813; -107.850; -696.000; -658.000
239.956;   84.625;  579.000;  473.000
240.099; -100.550; -778.000; -725.000
240.242;   47.250;  428.000;  432.000
240.385;   42.125;  466.000;  450.000
240.528;  -66.200; -706.000; -473.000
240.671;   19.575;  189.000;  134.000
240.814;  -39.500; -441.000; -158.000
240.957;  -94.475; -767.000; -578.000
241.100;  -87.500; -779.000; -755.000
241.243; -138.600;-1234.000; -893.000
241.386;  -67.325; -508.000; -379.000
241.529;  -82.325; -735.000; -547.000
241.672;  -69.850; -566.000; -495.000
241.815; -113.000; -832.000; -808.000
241.958;  -18.150; -125.000; -182.000
242.101;  -78.650; -545.000; -390.000
242.244;  -38.225; -270.000; -325.000
242.387;  -42.625; -304.000; -246.000
242.530;   69.775;  470.000;  134.000
242.673;  -42.600; -381.000; -309.000
242.815; -107.375; -925.000; -899.000
242.958;  -65.375; -482.000; -381.000
243.101;    6.925;  132.000;  187.000
243.244;  -82.975; -564.000; -521.000
243.387;  -46.800; -313.000; -316.000
243.530;  -99.900; -657.000; -674.000
243.672;   20.800;   43.000;  -92.000
243.815;  -44.275; -355.000; -283.000
243.958;    3.725;   98.000;  -26.000
244.101;  -14.325;   59.000;  -16.000
244.243;  -11.775;  -47.000;  101.000
244.386; -104.950; -761.000; -630.000
244.529;  -23.200; -132.000; -139.000
244.672; -159.325;-1154.000; -951.000
244.814;  -96.400; -621.000; -794.000
244.957;  -55.875; -380.000; -304.000
245.100;  -80.775; -489.000; -489.000
245.242;  -66.650; -387.000; -374.000
245.385;    1.525;  -59.000;  -39.000
245.528; -116.225; -871.000; -705.000
245.670;   88.375;  612.000;  634.000
245.813;  -83.725; -599.000; -547.000
245.956;  -30.700; -324.000; -275.000
246.098;  -70.400; -508.000; -650.000
246.241;   10.925;  194.000;   48.000
246.383;  -20.250; -119.000;  -73.000
246.526;  -81.075; -454.000; -525.000
246.669; -116.225; -889.000; -780.000
246.811;   17.775;  172.000;   -1.000
246.954;  -51.825; -512.000; -426.000
247.096;   -8.025;  -84.000;   -6.000
247.239;  -69.625; -482.000; -445.000
247.381;  -61.450; -647.000; -488.000
247.524;   82.225;  645.000;  679.000
247.666;   -4.575;   58.000;   11.000
247.809; -115.600; -887.000; -691.000
247.951;  -10.050;  -75.000;  138.000
248.094;   37.075;  432.000;  308.000
248.236; -142.750;-1262.000;-1238.000
248.378;    9.050; -356.000;  -81.000
248.521;   -7.050; -334.000; -337.000
248.663;  -29.050; -236.000; -267.000
248.806;  -17.725; -300.000; -266.000
248.948;  -95.600; -886.000; -763.000
249.090;  -34.675; -428.000; -398.000
249.233;  -43.075; -344.000; -381.000
249.375;  -43.800; -474.000; -451.000
249.518;   -6.350;  -83.000; -133.000
249.660;   -2.625; -103.000;    3.000
249.802; -161.450;-1303.000;-1189.000
249.945;  -71.125; -612.000; -540.000
250.087;  -99.400; -834.000; -768.000
250.229;  -47.000; -362.000; -480.000
250.371;  -81.200; -494.000; -439.000
250.514;  -55.075; -310.000; -244.000
250.656;  -73.650;   69.000;  102.000
250.798; -109.900; -849.000; -800.000
250.940;  -61.750; -322.000; -322.000
251.083;  -21.075; -335.000; -111.000
251.225;   49.200;  338.000;  310.000
251.367;  -29.800; -274.000; -373.000
251.509;  -29.150; -265.000; -210.000
251.651;  -97.325; -731.000; -671.000
251.794;   48.850;  538.000;  632.000
251.936;  -94.775; -821.000; -747.000
252.078;  -75.900; -540.000; -461.000
252.220;  -74.025; -645.000; -477.000
252.362;   90.000;  344.000;  462.000
252.504;  -59.800; -677.000; -584.000
252.646; -107.825; -875.000; -722.000
252.788;    1.900;   14.000; -128.000
252.931;  -37.600; -257.000; -253.000
253.073;  -51.775; -376.000; -317.000
253.215;   -9.775;  141.000;  122.000
253.357;   -5.800;   82.000; -153.000
253.499;  -37.125; -374.000; -234.000
253.641;  -89.825; -749.000; -594.000
253.783;  -88.200; -609.000; -527.000
253.925;  -95.400; -586.000; -591.000
254.067; -101.025; -744.000; -667.000
254.209;  -26.025; -391.000; -259.000
254.351; -132.100; -865.000; -883.000
254.493;  -63.000; -441.000; -417.000
254.635; -113.175; -936.000; -818.000
254.777;  -76.025; -752.000; -687.000
254.918;  -67.250; -512.000; -430.000
255.060;  -63.775; -551.000; -395.000
255.202;  -50.675; -473.000; -261.000
255.344;  -62.925; -658.000; -455.000
255.486;  -75.375; -471.000; -406.000
255.628; -111.500; -780.000; -781.000
255.770;  -75.600; -676.000; -536.000
255.912;  -61.300; -559.000; -468.000
256.053;  -83.550; -730.000; -508.000
256.195;  144.400; 1008.000;  903.000
256.337;  -94.625; -861.000; -595.000
256.479;   66.900;  532.000;  416.000
256.621;  -49.400; -394.000; -212.000
256.762;  -85.250; -789.000; -742.000
256.904;   57.400;  485.000;  487.000
257.046;  -38.825; -381.000; -271.000
257.188;  -45.450; -351.000; -264.000
257.329;  -72.375; -525.000; -464.000
257.471; -117.550; -939.000; -807.000
257.613;  -50.175; -584.000; -498.000
257.755; -141.900;-1073.000; -982.000
257.896;   33.475;  286.000;  392.000
258.038;  -60.000; -403.000; -352.000
258.180;  -36.500; -354.000; -279.000
258.321;  -72.400; -581.000; -457.000
258.463;  -10.675;  -71.000;  133.000
258.605;  -85.350; -562.000; -570.000
258.746; -106.375; -886.000; -772.000
258.888; -144.225;-1026.000;-1020.000
259.029;   13.875;  121.000;   -8.000
259.171;  -86.500; -614.000; -550.000
259.313;   -4.650;  -49.000;  -47.000
259.454;  -76.975; -536.000; -414.000
259.596;  -37.250; -483.000; -390.000
259.737;  -74.300; -590.000; -474.000
259.879;   33.175;  217.000;  311.000
260.020;   90.450;  901.000;  636.000
260.162;  -23.225; -146.000; -253.000
260.303; -119.450; -768.000; -687.000
260.445;  -79.375; -609.000; -613.000
260.586;   27.525;  392.000;  157.000
260.728;  -30.825; -360.000; -248.000
260.869;  -71.425; -350.000; -343.000
261.011;   94.975;  706.000;  537.000
261.152;  -63.125; -479.000; -319.000
261.293;  -65.550; -576.000; -595.000
261.435;  -34.675; -219.000; -184.000
261.576;  -32.975; -455.000; -325.000
261.718;   49.600;  420.000;  470.000
261.859; -118.425; -940.000; -949.000
262.000; -119.750; -951.000;-1016.000
262.142;  -14.925;  -52.000;  -60.000
262.283; -117.275; -808.000; -691.000
262.424;  -81.925; -666.000; -625.000
262.566; -141.000;-1161.000; -983.000
262.707; -108.150; -840.000; -830.000
262.848; -121.350; -769.000; -726.000
262.990;  -49.200; -362.000; -345.000
263.131;   80.350;  650.000;  681.000
263.272;   -6.025;  -61.000;  -41.000
263.413;  -85.125; -589.000; -561.000
263.555;  -58.525; -669.000; -143.000
263.696;  -81.200; -550.000; -641.000
263.837;  -42.975; -449.000; -551.000
263.978;  -21.350;   -5.000;  -77.000
264.119;  -42.750; -283.000; -264.000
264.261; -112.950; -847.000; -630.000
264.402;   -4.875;   33.000;   40.000
264.543;  -79.650; -509.000; -524.000
264.684;   -6.100;   61.000;  -50.000
264.825;  -76.000; -816.000; -538.000
264.966;    3.650;  -84.000;  -67.000
265.107; -104.775; -646.000; -670.000
265.248; -112.725; -825.000; -812.000
265.390;   -1.800;  152.000;   -9.000
265.531;  -41.825; -238.000; -107.000
265.672;  -85.925; -557.000; -630.000
265.813;   73.775;  563.000;  439.000
265.954; -146.575; -959.000; -940.000
266.095;   -8.150; -372.000; -322.000
266.236;  -97.200; -686.000; -548.000
266.377;  -52.325; -243.000; -297.000
266.518;  -68.975; -619.000; -547.000
266.659;   21.325;  170.000;  268.000
266.800;   12.325;   83.000;   85.000
266.941;  -71.850; -487.000; -478.000
267.082;   20.025;  354.000;   99.000
267.223;  -51.900; -344.000; -273.000
267.364; -113.875; -892.000; -686.000
267.504;  -16.475;    3.000;  135.000
267.645;    0.900;  160.000;   67.000
267.786;  -36.950; -147.000;  -86.000
267.927;  -67.475; -473.000; -379.000
268.068;   -9.200; -186.000;  -61.000
268.209;  -48.975; -175.000; -413.000
268.350;  -55.825; -388.000; -532.000
268.490;  -80.800; -648.000; -521.000
268.631;   29.950;  127.000;  225.000
268.772; -108.450; -874.000; -647.000
268.913;  -41.175; -328.000; -476.000
269.054;  -19.000; -117.000;   12.000
269.194;  -47.725; -418.000; -402.000
269.335; -149.775;-1137.000;-1074.000
269.476;  -10.950;   33.000;  -35.000
269.617;  -51.825; -347.000; -392.000
269.757;  -78.275; -713.000; -646.000
269.898; -101.700; -856.000; -613.000
270.039;  -48.025; -415.000; -405.000
270.180; -138.550; -952.000; -816.000
270.320;  -18.625; -190.000; -250.000
270.461;  -37.425; -277.000; -249.000
270.602;  -20.750; -186.000; -156.000
270.742; -107.550; -868.000; -943.000
270.883;  -57.775; -442.000; -390.000
271.023;  -74.700; -358.000; -357.000
271.164;  -47.800; -607.000; -528.000
271.305; -100.075; -666.000; -654.000
271.445;  -83.600; -722.000; -683.000
271.586;  -52.150; -462.000; -283.000
271.726;  -53.325; -397.000; -322.000
271.867;  -43.825; -594.000; -534.000
272.008;  186.075; -473.000; -285.000
272.148;  126.250;  462.000;  468.000
272.289;   17.175; -113.000; -181.000
272.429;    5.300;   19.000;  185.000
272.570;  -82.250; -633.000; -737.000
272.710;  -90.300; -825.000; -775.000
272.851;  -25.300;  113.000; -130.000
272.991; -140.600;-1173.000;-1077.000
273.131;  -45.450; -419.000; -459.000
273.272;  -91.225; -683.000; -723.000
273.412;   -1.375; -143.000;  -31.000
273.553;  -57.350; -488.000; -507.000
273.693;  118.050;  913.000;  858.000
273.834;  -85.525; -894.000; -692.000
273.974;  -65.900; -664.000; -615.000
274.114;  -94.750; -772.000; -560.000
274.255;   67.550;  414.000;  373.000
274.395;    1.550; -180.000; -125.000
274.535;   34.650;  199.000;  350.000
274.676;   17.700;  225.000;   94.000
274.816;    4.000;  110.000;   34.000
274.956;  -79.925; -624.000; -690.000
275.097;  -51.425;-1014.000; -922.000
275.237; -101.925; -913.000; -803.000
275.377;  -88.400; -778.000; -689.000
275.517; -142.025; -878.000; -937.000
275.658;  -52.300; -590.000; -555.000
275.798;  -70.375; -606.000; -413.000
275.938;   23.300;  215.000;  323.000
276.078;  -92.400; -626.000; -395.000
276.218;   10.550;   99.000;  104.000
276.359; -117.225;-1026.000;-1024.000
276.499;  -74.575; -605.000; -446.000
276.639;  -32.150; -305.000; -151.000
276.779;  -55.925; -475.000; -357.000
276.919;  -99.900; -783.000; -624.000
277.059;  -23.850; -261.000; -212.000
277.199;  -56.450; -357.000; -259.000
277.340;   54.575;  287.000;  175.000
277.480;  -94.850; -840.000; -693.000
277.620;   28.750;  192.000;   16.000
277.760; -199.100;-1533.000;-1294.000
277.900;   19.850;  113.000;   33.000
278.040;    4.425;  137.000;  159.000
278.180;   24.575;  270.000;  170.000
278.320;   -7.375;   21.000;   56.000
278.460;  -75.825; -443.000; -469.000
278.600;  -83.800; -708.000; -598.000
278.740;   36.725;  448.000;  224.000
278.880;  -52.375; -768.000; -791.000
279.020;  -13.925; -194.000; -144.000
279.160;  -77.050; -672.000; -595.000
279.300; -111.725; -926.000; -873.000
279.440;  -85.025; -709.000; -622.000
279.579;   -3.575;-1014.000; -929.000
279.719;  -49.500; -410.000; -394.000
279.859;   75.650;   -4.000;   41.000
279.999;   18.475; -208.000;  101.000
280.139;   -8.850; -435.000; -387.000
280.279;  -74.775; -708.000; -745.000
280.419;   -5.475; -229.000; -147.000
280.559;  -57.100; -259.000; -180.000
280.698;  -75.150; -790.000; -639.000
280.838;  -87.225; -778.000; -800.000
280.978;  -94.100; -846.000; -790.000
281.118; -101.375; -811.000; -704.000
281.257;    3.275;   24.000;    6.000
281.397; -111.025;-1094.000; -960.000
281.537;  -70.000; -599.000; -712.000
281.677;  -24.575; -150.000; -101.000
281.816;  -83.650; -700.000; -630.000
281.956;  -27.500; -193.000; -257.000
282.096;  -60.475; -539.000; -396.000
282.235; -104.525; -672.000; -638.000
282.375;  -21.150; -243.000;  -98.000
282.515;  -97.350; -715.000; -707.000
282.654;   35.125;   29.000;  106.000
282.794;   25.025;  388.000;  244.000
282.934;  -56.525; -530.000; -491.000
283.073; -142.250;-1030.000; -857.000
283.213;  -56.650; -460.000; -467.000
283.353;  -30.875; -408.000; -349.000
283.492;  -30.950; -264.000; -296.000
283.632;  -46.400; -254.000; -168.000
283.771;  -91.325; -859.000; -730.000
283.911;  -53.000; -369.000; -260.000
284.050; -105.150; -794.000; -748.000
284.190; -153.525;-1229.000;-1096.000
284.329; -137.350;-1055.000; -964.000
284.469;  -55.675; -516.000; -591.000
284.608;  -63.025; -559.000; -598.000
284.748;  -82.400; -614.000; -570.000
284.887;   -7.375;  -87.000;  -20.000
285.027; -114.600; -844.000; -892.000
285.166;  -18.800; -192.000; -249.000
285.306;   -3.025; -116.000;  -33.000
285.445;  -39.850; -229.000; -343.000
285.584;  -86.875; -630.000; -494.000
285.724;  -34.750; -282.000; -322.000
285.863; -124.825; -857.000; -507.000
286.002;  -49.275; -366.000; -276.000
286.142; -108.575; -715.000; -622.000
286.281;  -62.575; -525.000; -493.000
286.420;  -57.500; -554.000; -417.000
286.560;   82.650;  653.000;  623.000
286.699; -143.250; -958.000; -912.000
286.838;  -83.150; -590.000; -591.000
286.978;  -84.650; -533.000; -537.000
287.117; -141.650;-1085.000; -950.000
287.256;  -33.850; -228.000; -211.000
287.395;  -55.200; -197.000; -378.000
287.535;  -42.925; -370.000; -298.000
287.674;  -74.100; -509.000; -484.000
287.813;   49.050;  661.000;  533.000
287.952; -129.550;-1010.000; -871.000
288.091; -143.675;-1049.000; -915.000
288.231;    9.450;   13.000;   15.000
288.370; -166.550;-1217.000;-1200.000
288.509;  -86.450; -728.000; -645.000
288.648;  -84.625; -770.000; -548.000
288.787;  -38.525; -243.000;  -87.000
288.926;  -65.175; -454.000; -475.000
289.065;  107.100;  859.000;  672.000
289.204;  -43.575; -377.000; -217.000
289.344;  -94.850; -791.000; -690.000
289.483;   31.525;  416.000;  304.000
289.622;  -23.325; -291.000; -149.000
289.761;  -11.275; -309.000; -166.000
289.900; -104.400; -785.000; -626.000
290.039;  -16.600;  -12.000;  -95.000
290.178;  -43.100; -274.000; -180.000
290.317;  -85.400; -618.000; -479.000
290.456;  -63.350; -463.000; -451.000
290.595; -119.775; -961.000; -833.000
290.734; -129.200; -904.000; -891.000
290.873;  -54.350; -456.000; -420.000
291.011; -100.225; -833.000; -843.000
291.150;  -97.125; -770.000; -682.000
291.289;  -16.050; -343.000; -110.000
291.428;  -99.150; -599.000; -480.000
291.567;  -50.575; -370.000; -442.000
291.706;  -16.325;  109.000;  154.000
291.845;  -80.425; -597.000; -505.000
291.984; -151.875;-1234.000;-1061.000
292.122;   74.325;  602.000;  582.000
292.261;   42.450;  620.000;  463.000
292.400;    3.125; -144.000;  211.000
292.539; -105.675; -959.000; -813.000
292.678;  -35.700; -325.000; -300.000
292.816; -150.225;-1136.000; -965.000
292.955;  -86.725; -844.000; -684.000
293.094;  -20.675; -173.000; -337.000
293.233;  -39.125; -556.000; -400.000
293.371;  -39.050; -225.000;  -84.000
293.510; -110.600; -866.000; -780.000
293.649; -123.325; -959.000; -924.000
293.787;  -51.600;-1083.000;-1012.000
293.926;   -0.600; -113.000;  -32.000
294.065;  -45.900; -379.000; -290.000
294.203;   43.625;  298.000;  406.000
294.342;   26.050;   74.000;  156.000
294.481; 5924.425;51180.000; -836.000
294.619;  -20.000; -425.000; -582.000
294.758; -160.125;-1230.000;-1137.000
294.896;   59.875; -125.000;    5.000
295.035; -116.150;-1040.000;-1006.000
295.174; -103.000;-1082.000; -954.000
295.312;  -32.475; -323.000; -203.000
295.451;   -8.750; -307.000; -428.000
295.589;  -52.200; -389.000; -518.000
295.728;   18.800; -292.000; -165.000
295.866;    8.400;  -36.000;  -51.000
296.005;  -69.750; -584.000; -341.000
296.143;  -74.575; -558.000; -596.000
296.282;  -98.650; -957.000; -881.000
296.420;  -74.625; -657.000; -557.000
296.559;  -87.025; -892.000; -633.000
296.697;   28.850; -847.000; -665.000
296.835;   57.800;-1141.000;-1002.000
296.974;   42.850;  -23.000;   39.000
297.112;   16.325; -443.000; -504.000
297.251;  -70.625; -815.000; -755.000
297.389;   95.900; -576.000; -438.000
297.527;   37.075; -145.000;  -83.000
297.666;  -46.225; -486.000; -438.000
297.804;  -47.725; -404.000; -264.000
297.942;  -10.150; -136.000; -161.000
298.081;   -0.100; -183.000;   63.000
298.219;   63.975;  -17.000;  -19.000
298.357;   49.650; -144.000;  -71.000
298.495;   38.950; -810.000; -812.000
298.634;   62.550;  245.000;  219.000
298.772;   40.075; -220.000; -338.000
298.910;  -37.050; -309.000; -182.000
299.048;   -3.000; -130.000; -153.000
299.187;  -30.475; -350.000; -250.000
299.325;   21.400;   52.000;  122.000
299.463;   50.025; -389.000; -299.000
299.601;   91.950; -327.000; -271.000
299.739; -111.250; -908.000; -883.000
299.877;  -85.525; -791.000; -703.000
300.016;  -50.175;-1095.000; -935.000
300.154;  152.325;  -19.000; -161.000
300.292;   43.875; -428.000; -348.000
300.430;   29.850; -408.000; -291.000
300.568; -105.100; -940.000; -874.000
300.706;  -43.600; -366.000; -469.000
300.844;  -75.175;-1108.000; -979.000
300.982;  108.175;  246.000;  282.000
301.120; -108.825; -965.000; -866.000
301.258;  -60.050; -812.000; -705.000
301.396;   28.950;  104.000;  -41.000
301.534;   76.950; -218.000; -293.000
301.672;  -12.775; -664.000; -521.000
301.810;   16.225; -613.000; -545.000
301.948;  106.200;   53.000;  149.000
302.086;  628.700; -250.000;  -32.000
302.224;  889.500; -610.000; -585.000
302.362;   30.850; -558.000; -622.000
302.500;  -30.325; -923.000; -893.000
302.638;   90.175;  128.000;  245.000
302.776;   -9.700; -352.000; -408.000
302.913;   41.000;  447.000;  236.000
303.051;  -10.525;  -86.000;  -23.000
303.189;   44.775;   90.000;  118.000
303.327;  -21.150; -341.000; -256.000
303.465;  -82.375; -832.000; -588.000
303.603;  -94.475; -805.000; -604.000
303.740;   86.825;  417.000;  241.000
303.878;    7.675; -800.000; -759.000
304.016;  -92.225; -915.000; -790.000
304.154; -125.525;-1123.000;-1152.000
304.291;  -41.175; -505.000; -554.000
304.429;    6.175;  102.000;   74.000
304.567; -122.425; -908.000; -893.000
304.705;  -56.475; -408.000; -515.000
304.842;   94.525; -616.000; -540.000
304.980;   50.350;  215.000;   35.000
305.118;   45.825; -367.000; -365.000
305.255;  -86.925; -945.000; -927.000
305.393;   65.350;  178.000;  239.000
305.531; -101.075;-1173.000; -956.000
305.668;  -70.325; -663.000; -582.000
305.806;  105.300; -358.000; -439.000
305.943;   99.925; -629.000; -637.000
306.081;   65.100; -378.000; -267.000
306.219;  -97.525; -863.000; -748.000
306.356;   -3.300;  158.000;   27.000
306.494;  100.100;  981.000;  761.000
306.631;   -5.250;  -11.000;  -55.000
306.769;    2.975; -613.000; -485.000
306.906;  -23.200; -284.000; -258.000
307.044;  -54.850; -473.000; -488.000
307.181;  -45.700; -410.000; -332.000
307.319;    5.150;  112.000;   87.000
307.456; -173.150;-1191.000;-1153.000
307.594;  -95.900; -980.000; -727.000
307.731;  -28.650; -371.000; -164.000
307.868;    6.500;  -15.000;   20.000
308.006; -140.975; -961.000; -847.000
308.143;  -63.000; -618.000; -330.000
308.281;  181.450;  -37.000; -254.000
308.418;   -8.200; -748.000; -640.000
308.555;  -54.050; -400.000; -250.000
308.693;  -66.100; -577.000; -573.000
308.830; -100.500; -712.000; -657.000
308.967;  -18.450; -215.000;  -95.000
309.105;  -40.525; -507.000; -396.000
309.242;   53.425; -468.000; -367.000
309.379;  326.225; -577.000; -655.000
309.517;  -60.550; -936.000; -948.000
309.654;  -99.925; -910.000; -734.000
309.791;  -74.475; -662.000; -580.000
309.928; -108.700; -977.000; -914.000
310.065;  174.350;  819.000;  697.000
310.203;   -2.525; -825.000; -850.000
310.340;  -20.700; -465.000; -321.000
310.477;  -74.800; -412.000; -516.000
310.614;  -68.550; -383.000; -473.000
310.751;  -66.350; -427.000; -518.000
310.889;  -26.450;    1.000;   11.000
311.026; -143.025;-1161.000; -939.000
311.163;  -42.500; -386.000; -380.000
311.300;  -79.450; -512.000; -479.000
311.437;  -76.875; -658.000; -619.000
311.574; -167.100;-1226.000; -985.000
311.711;  -58.250; -595.000; -433.000
311.848;  -41.350; -380.000; -388.000
311.985;   20.100;  270.000;   93.000
312.122; -109.525; -932.000; -762.000
312.259; -122.775; -941.000; -994.000
312.396;  -75.225; -508.000; -551.000
312.533;  -75.475; -812.000; -790.000
312.670; -134.250;-1070.000; -898.000
312.807;  -40.400; -352.000; -367.000
312.944;  -78.900; -513.000; -611.000
313.081;  -22.925; -150.000; -415.000
313.218; -108.850;-1111.000; -867.000
313.355;    1.300; -531.000; -449.000
313.492;    3.600; -455.000; -292.000
313.629;  122.275;  815.000;  735.000
313.766; -150.550;-1176.000;-1008.000
313.902;  -17.000; -186.000;   21.000
314.039;  -48.025; -372.000; -289.000
314.176;   26.600;  286.000;  192.000
314.313;  -57.700; -569.000; -473.000
314.450;  -69.150; -788.000; -684.000
314.587;  -48.700; -468.000; -480.000
314.723;    8.300;  -78.000;  130.000
314.860;    7.425;  318.000;  332.000
314.997;   35.500;  223.000;  142.000
315.134;  -27.325; -385.000; -368.000
315.270;  -22.025; -480.000; -496.000
315.407; -125.275;-1094.000; -967.000
315.544;  -54.200; -657.000; -538.000
315.681;  -68.675; -681.000; -565.000
315.817;   23.425; -133.000; -176.000
315.954;   17.275; -613.000; -392.000
316.091; -118.125;-1045.000;-1023.000
316.227;  -27.850;  -71.000; -179.000
316.364;    5.200;   23.000;    6.000
316.500;  -54.625; -113.000; -300.000
316.637;  -48.975; -181.000; -302.000
316.774;  -83.600; -625.000; -358.000
316.910;  -91.500; -598.000; -629.000
317.047;  -69.200; -487.000; -351.000
317.183;  -45.100; -435.000; -566.000
317.320;   -2.700; -367.000; -321.000
317.456;  -56.775; -733.000; -805.000
317.593;  -87.750; -598.000; -641.000
317.729;   -0.250;  168.000;  -67.000
317.866; -186.125;-1434.000;-1285.000
318.002;  -82.100; -708.000; -948.000
318.139;  -90.525; -883.000; -867.000
318.275; -109.050;-1003.000; -738.000
318.412;  -70.175; -517.000; -336.000
318.548;  -39.875; -751.000; -720.000
318.685;  -86.650; -985.000; -888.000
318.821;  -93.550; -762.000; -735.000
318.957;  -17.125;   34.000;  -23.000
319.094;   46.450;  297.000;  154.000
319.230;  -57.125; -756.000; -742.000
319.367;  121.575; -471.000; -520.000
319.503;   59.650; -538.000; -436.000
319.639;  -88.925; -877.000; -793.000
319.775;  -67.750; -750.000; -685.000
319.912;  -51.825; -424.000; -519.000
320.048;  -78.475;-1184.000;-1184.000
320.184;   80.300;   59.000;   70.000
320.321;  -53.650; -497.000; -467.000
320.457;   59.625;  475.000;  662.000
320.593;  -59.800; -375.000; -382.000
320.729;  -94.150; -732.000; -734.000
320.866;  -74.950; -577.000; -635.000
321.002;  -71.700; -759.000; -809.000
321.138;   -5.275; -135.000; -211.000
321.274;   77.125; -148.000; -115.000
321.410;  -31.625; -585.000; -353.000
321.546;  -26.450;-1011.000; -911.000
321.683;   50.550;  400.000;  185.000
321.819;    5.925;  -48.000; -117.000
321.955;  -98.550; -743.000; -722.000
322.091;  -50.900; -585.000; -540.000
322.227;   -5.475; -382.000; -202.000
322.363;  -17.150; -320.000; -215.000
322.499;  -43.350; -343.000; -331.000
322.635;  162.850;  636.000;  443.000
322.771;   26.975; -139.000;   12.000
322.907;   81.275;  129.000;  327.000
323.043;  -30.900; -115.000; -206.000
323.179;  -20.950; -394.000; -363.000
323.315;   11.875; -401.000; -371.000
323.451;   82.950; -328.000; -236.000
323.587;   60.800;  -60.000;  -77.000
323.723;   20.850; -682.000; -601.000
323.859;  -23.775; -258.000;  -76.000
323.995;  -34.350; -467.000; -409.000
324.131; -117.425; -967.000; -892.000
324.267;  -35.075; -254.000; -276.000
324.402; -113.725; -960.000; -983.000
324.538;   -8.275; -279.000; -104.000
324.674;   14.625;  164.000;   77.000
324.810;  119.650;  226.000;  308.000
324.946;    0.200; -810.000; -658.000
325.082;  -70.000; -568.000; -475.000
325.217;  -16.450;  -62.000;   16.000
325.353; -100.900; -764.000; -659.000
325.489;  -74.550; -540.000; -506.000
325.625;  -74.125; -579.000; -525.000
325.760;   66.625;  517.000;  376.000
325.896;  -23.075; -515.000; -702.000
326.032;  -58.400; -403.000; -352.000
326.168;  -62.975; -462.000; -369.000
326.303;  -59.950; -352.000; -461.000
326.439;  -20.700; -336.000; -276.000
326.575;   -0.500; -190.000;  -29.000
326.710;    2.175; -156.000;  -30.000
326.846;  -17.875;  146.000;  103.000
326.982;  -83.400; -530.000; -548.000
327.117;  -68.675; -481.000; -442.000
327.253;  -82.600; -745.000; -742.000
327.388; -126.775;-1137.000;-1153.000
327.524;  -51.350; -811.000; -578.000
327.659;  -28.050;  -58.000;  -22.000
327.795;  -23.025;   69.000;   45.000
327.931;  -84.325; -723.000; -499.000
328.066;  -24.575; -417.000; -276.000
328.202;  -11.200;   12.000; -129.000
328.337;   99.300;  957.000;  713.000
328.473;   31.700;  -12.000;  -74.000
328.608;  -23.375; -256.000; -267.000
328.743;  -86.325; -799.000; -664.000
328.879;   12.075;  214.000;  114.000
329.014;  -20.675; -102.000; -122.000
329.150;  -87.500; -358.000; -483.000
329.285;  -73.475; -465.000; -466.000
329.421;  -42.650; -548.000; -246.000
329.556;  -23.125;  -36.000;   85.000
329.691;  -89.325; -633.000; -615.000
329.827;  -86.025; -626.000; -480.000
329.962;  -41.350;  131.000; -301.000
330.097;  -86.450; -673.000; -585.000
330.233;  -49.775; -410.000; -223.000
330.368; -124.625; -839.000; -628.000
330.503;   -3.025;    3.000;   98.000
330.638;    7.550;  -93.000; -125.000
330.774;  -56.300; -609.000; -530.000
330.909;  -42.475; -434.000; -244.000
331.044;  -94.925; -714.000; -708.000
331.179; -169.525;-1217.000;-1109.000
331.315;   10.175;   77.000;   20.000
331.450;    8.025;  157.000;  285.000
331.585;  -81.625; -805.000; -706.000
331.720;  -82.075; -510.000; -460.000
331.855;  -12.075;  -35.000; -102.000
331.990;  246.250;   62.000;  138.000
332.126;  130.075; -110.000;   71.000
332.261;  -14.800; -379.000; -265.000
332.396;    4.675; -135.000; -242.000
332.531;  -78.775;-1074.000;-1031.000
332.666;   41.050; -519.000; -363.000
332.801; -107.675; -726.000; -807.000
332.936;  -17.525; -192.000; -122.000
333.071; -153.475; -870.000; -817.000
333.206;   18.950;  307.000;  379.000
333.341;   29.175;  344.000;  418.000
333.476;  -80.175; -627.000; -623.000
333.611;  -34.925; -251.000; -173.000
333.746;  -27.625; -381.000; -464.000
333.881; -123.950; -973.000; -935.000
334.016; -125.375; -936.000; -917.000
334.151; -135.825; -746.000; -702.000
334.286;   24.200;  152.000;  186.000
334.421;  -25.650; -125.000; -178.000
334.556;  -71.750; -611.000; -567.000
334.690;  -81.900; -631.000; -577.000
334.825;   38.000;  381.000;   83.000
334.960;  -55.675; -285.000; -413.000
335.095;    4.900;  135.000;  -91.000
335.230; -100.225; -722.000; -738.000
335.365; -131.925;-1084.000; -990.000
335.499; -140.600;-1108.000;-1037.000
335.634;   16.600;    9.000;  534.000
335.769;  -79.600; -755.000; -720.000
335.904;  -54.900; -603.000; -561.000
336.038;  -59.825; -735.000; -657.000
336.173; -111.875;-1206.000;-1194.000
336.308;   -8.150; -116.000; -189.000
336.443;   19.950; -544.000; -634.000
336.577;  -72.125; -936.000; -787.000
336.712;   45.550;   -4.000;  -12.000
336.847;  -58.475; -724.000; -607.000
336.981;   47.350; -272.000; -208.000
337.116;  255.850;  615.000;  501.000
337.250;  135.300; -434.000; -421.000
337.385;  269.875; -297.000; -208.000
337.520;   95.675; -632.000; -603.000
337.654;  -34.200; -215.000; -126.000
337.789; -114.100; -989.000; -933.000
337.923;  -35.125; -104.000; -205.000
338.058;  -81.000; -673.000; -738.000
338.192;  -32.675; -611.000; -488.000
338.327;  -17.450;  -18.000; -155.000
338.461;  -45.800; -299.000; -469.000
338.596;  -88.175; -780.000; -638.000
338.730;  -99.125; -767.000; -803.000
338.865;   92.600;  -46.000; -140.000
338.999;  -47.425; -846.000; -702.000
339.134;  -16.125; -634.000; -536.000
339.268;   15.750; -741.000; -603.000
339.403;  373.375; -740.000; -775.000
339.537;  134.250; -894.000; -820.000
339.671; -101.000; -829.000; -813.000
339.806;  -61.575; -556.000; -512.000
339.940;    3.175; -261.000; -235.000
340.074;  -88.450; -685.000; -510.000
340.209;  -48.275; -351.000; -230.000
340.343;  -83.725; -517.000; -573.000
340.477;  146.775;  998.000; 1036.000
340.612;  -36.700;-1033.000; -900.000
340.746;  144.075; -199.000; -243.000
340.880;  -63.000; -924.000; -785.000
341.014;  -11.050;  -45.000; -154.000
341.149; -116.025; -756.000; -718.000
341.283;  -99.225; -839.000; -754.000
341.417;  -97.050;-1124.000; -938.000
341.551;  112.000; -768.000; -708.000
341.685;  -38.675; -633.000; -611.000
341.820;  -54.150; -562.000; -493.000
341.954;  -47.350; -218.000; -349.000
342.088; -134.450;-1102.000;-1019.000
342.222;   59.950;  565.000;  618.000
342.356;  -47.600; -395.000; -335.000
342.490;  -92.825; -880.000; -841.000
342.624;  -35.600; -339.000; -242.000
342.758;   -3.400; -364.000; -312.000
342.892;  -60.775; -710.000; -585.000
343.026;  -42.800;  -58.000; -116.000
343.160;  -57.300; -426.000; -376.000
343.294;  -74.450; -474.000; -337.000
343.428;  -18.225; -488.000; -448.000
343.562;  -20.025; -172.000;  -23.000
343.696;  -20.700; -385.000; -314.000
343.830;  -10.125; -362.000; -356.000
343.964;   23.850; -231.000; -168.000
344.098;  848.250;  199.000;   70.000
344.232;  698.025; -266.000; -127.000
344.366;   95.900; -567.000; -453.000
344.500;   49.425; -665.000; -744.000
344.634;   22.300; -324.000; -164.000
344.768;  -13.450; -531.000; -341.000
344.902;   20.750;  278.000;  256.000
345.035;  -67.225; -556.000; -496.000
345.169; -127.900; -933.000; -656.000
345.303;  -24.250; -308.000; -482.000
345.437;  -75.075; -826.000; -717.000
345.571;  -59.350; -675.000; -594.000
345.704;  -61.850; -309.000; -532.000
345.838;   -1.650; -331.000; -284.000
345.972;  -41.150; -543.000; -495.000
346.106;  169.600; -179.000; -190.000
346.239;  422.625; -312.000; -243.000
346.373;    6.075; -343.000; -302.000
346.507; -135.325; -950.000; -962.000
346.640;  145.250;  -30.000;   13.000
346.774;  -34.750; -650.000; -797.000
346.908;   -9.725; -138.000;  -11.000
347.041;  -97.100; -646.000; -593.000
347.175;   19.900;  259.000;   27.000
347.309;  -74.850; -698.000; -628.000
347.442;  -96.675; -883.000; -732.000
347.576;  252.825;  670.000;  668.000
347.709;  183.700; -123.000;  -52.000
347.843;  -96.125; -933.000; -825.000
347.976;   22.075;  235.000;  294.000
348.110; -175.600;-1268.000;-1186.000
348.243;  -90.050; -679.000; -772.000
348.377;    5.150;  -26.000;   60.000
348.510;   55.100;  403.000;  540.000
348.644;  -23.750;  -37.000; -159.000
348.777;    7.725;  180.000;  191.000
348.911;  -41.200; -142.000; -112.000
349.044;  173.650;  471.000;  448.000
349.178;  138.425;-1069.000;-1006.000
349.311;  107.275;  141.000;  255.000
349.444;   -3.325; -927.000; -813.000
349.578;  -23.575; -347.000; -200.000
349.711;  -95.125; -959.000; -862.000
349.845;   -0.050; -661.000; -591.000
349.978; -139.450;-1224.000;-1137.000
350.111;  -84.200; -546.000; -612.000
350.244;  -75.425; -596.000; -700.000
350.378;   -3.725; -392.000; -393.000
350.511;  -64.075; -393.000; -426.000
350.644; -101.550; -808.000; -806.000
350.778;   16.000;  168.000;  104.000
350.911;   11.850;  134.000;  140.000
351.044;  -92.400; -685.000; -615.000
351.177;  -28.325; -321.000; -281.000
351.310;   -9.625;    3.000; -131.000
351.444;  -80.700; -888.000; -788.000
351.577;   99.400;  140.000;   90.000
351.710;   79.425;  593.000;  417.000
351.843;  -43.850; -165.000;  -77.000
351.976;   -7.350;  149.000;  -79.000
352.109;  -84.500; -621.000; -612.000
352.242;  -40.325; -464.000; -419.000
352.376;  -48.025; -580.000; -636.000
352.509;  149.250; -437.000; -356.000
352.642;    7.950; -654.000; -604.000
352.775;   50.025; -141.000;  -98.000
352.908;  -98.725; -933.000; -904.000
353.041; -108.025; -814.000; -824.000
353.174;  -56.625; -551.000; -424.000
353.307;  -72.125; -753.000; -764.000
353.440;   73.925;  541.000;  453.000
353.573; -113.375; -957.000;-1008.000
353.706;  -25.025; -384.000; -558.000
353.839;  -14.875; -264.000; -220.000
353.971;  -88.650; -657.000; -512.000
354.104;  -82.525; -896.000; -835.000
354.237;  -25.075; -627.000; -662.000
354.370;  -72.000; -846.000; -879.000
354.503; -172.125;-1231.000;-1308.000
354.636;  -29.150; -529.000; -348.000
354.769; -116.150; -937.000; -860.000
354.902;  -19.300; -230.000; -139.000
355.034;  -34.675; -164.000; -220.000
355.167;  -25.625; -262.000; -162.000
355.300;  -74.025;-1061.000; -880.000
355.433; 1030.450;  -71.000;  -14.000
355.565; 1592.675; -402.000; -384.000
355.698;  397.700; -356.000; -296.000
355.831;   19.575; -882.000; -801.000
355.964;   67.825; -285.000; -170.000
356.096;  -75.600; -856.000; -843.000
356.229;   -6.200; -523.000; -530.000
356.362;  335.250; -373.000; -266.000
356.494;  634.750; -229.000; -162.000
356.627;  466.750;  269.000;  377.000
356.760;  686.550;  120.000;   53.000
356.892; 1022.125; -286.000; -601.000
357.025;  624.800;  403.000;  389.000
357.157;  586.400; -167.000; -179.000
357.290;  692.600; -856.000; -713.000
357.423;  212.900; -667.000; -556.000
357.555;  114.475; -217.000; -228.000
357.688;  113.900; -483.000; -364.000
357.820;  436.425; -870.000; -877.000
357.953; 3550.875; -563.000; -589.000
358.085;  792.375; -632.000; -612.000
358.218; 1041.775;-1131.000; -932.000
358.350;  202.725;  -58.000;  312.000
358.483; -119.700;-1300.000;-1187.000
358.615;   -9.925;-1182.000;-1078.000
358.747;  -64.075;-1187.000;-1058.000
358.880;   16.100; -810.000; -744.000
359.012;  -18.450; -376.000; -202.000
359.145;  -38.025; -480.000; -511.000
359.277;   60.625; -962.000; -913.000
359.409; 2888.300;  536.000;  231.000
359.542;  793.550; -738.000; -688.000
359.674;   58.700;   46.000;   13.000
359.806;  -47.625; -565.000; -438.000
359.939;  -51.050; -617.000; -516.000
360.071;   -3.450; -583.000; -579.000
360.203;  -10.775; -411.000; -364.000
360.335;   65.200;  164.000;  -16.000
360.468;  203.525; -249.000; -307.000
360.600; 2351.600; -547.000; -454.000
360.732; 2970.275; -546.000; -423.000
360.864;  415.450;-1216.000;-1044.000
360.996;  262.925; -516.000; -554.000
361.129;   35.200; -389.000; -598.000
361.261;   17.200;  110.000; -113.000
361.393;  -30.175; -252.000; -214.000
361.525;   20.250;   94.000;  244.000
361.657;  -43.400; -821.000; -703.000
361.789;    1.400; -139.000; -155.000
361.921;  206.925; -642.000; -593.000
362.053;  244.100;  524.000;  541.000
362.185;   53.425;  288.000;   72.000
362.318;  -62.650; -709.000; -705.000
362.450;  109.625;  294.000;  444.000
362.582;   65.475; -913.000; -870.000
362.714;  -45.325; -353.000; -332.000
362.846;  -76.200; -606.000; -490.000
362.978; -131.200; -941.000; -811.000
363.109;   51.200; -161.000; -260.000
363.241;  400.650; -739.000; -749.000
363.373;  472.375; -649.000; -564.000
363.505;  692.575; -186.000;  -91.000
363.637;  164.725; -787.000; -601.000
363.769; -110.925;-1067.000;-1080.000
363.901;  -58.675; -596.000; -654.000
364.033; -112.925;-1103.000;-1062.000
364.165;   -2.200; -283.000; -283.000
364.296;   77.150; -316.000; -177.000
364.428;   82.750;-1344.000;-1220.000
364.560;  -61.400; -679.000; -661.000
364.692;  -48.925; -738.000; -835.000
364.824;  242.525; -588.000; -456.000
364.955;  468.500; -402.000; -564.000
365.087;  998.875;-1097.000; -852.000
365.219;   49.375; -686.000; -816.000
365.351;  -55.825; -526.000; -572.000
365.482;   60.800;  300.000;  240.000
365.614;  -47.675; -402.000; -314.000
365.746;  -94.325; -729.000; -752.000
365.877;  -90.525; -706.000; -672.000
366.009;  267.125;  -35.000;  -62.000
366.141;  -76.000;-1249.000;-1134.000
366.272; -102.525; -803.000; -719.000
366.404; -118.575;-1005.000; -874.000
366.535;   -9.825; -139.000;  -12.000
366.667; -101.500; -644.000; -649.000
366.799;   38.000;  353.000;  203.000
366.930; -109.500; -862.000; -996.000
367.062;  131.775; -639.000; -613.000
367.193;  174.775; -872.000; -842.000
367.325;  -58.575; -580.000; -684.000
367.456;   37.350; -246.000;   31.000
367.588;  161.175; -371.000; -318.000
367.719;   16.325;  -44.000;  -45.000
367.851;  -16.350; -222.000; -241.000
367.982;  -60.450; -875.000; -732.000
368.113;   91.100; -475.000; -358.000
368.245; -111.675; -960.000; -841.000
368.376;  -17.725; -254.000; -302.000
368.508;  -35.750; -188.000; -263.000
368.639; -131.100;-1166.000;-1034.000
368.770;  -10.675; -670.000; -589.000
368.902;  -57.000; -836.000; -926.000
369.033;  -96.875; -906.000; -855.000
369.164;  -49.250; -720.000; -653.000
369.296; -100.550; -452.000; -601.000
369.427;   -5.625; -209.000; -144.000
369.558;  -45.075; -593.000; -377.000
369.689;  -74.325; -721.000; -569.000
369.821; -134.075; -951.000; -845.000
369.952;  -16.425;   42.000; -108.000
370.083;  -52.225; -229.000; -108.000
370.214;  -82.725; -735.000; -650.000
370.345;   -2.025;   65.000;   81.000
370.477;  -89.900; -810.000; -790.000
370.608;  215.250; -328.000; -264.000
370.739;  -44.700;-1233.000;-1292.000
370.870;  -46.025;-1102.000; -923.000
371.001;   95.975; -378.000; -467.000
371.132;  -78.675; -754.000; -735.000
371.263;  -28.975;  -42.000; -148.000
371.394; -129.750; -841.000; -748.000
371.525;   34.975;  345.000;  225.000
371.657;  -88.250; -808.000; -670.000
371.788;   56.400;  103.000;  199.000
371.919;  168.975; -384.000; -304.000
372.050; 3350.175;  -91.000; -156.000
372.181; 1059.350; -188.000; -294.000
372.311;  345.450;   42.000; -127.000
372.442;   32.075; -457.000; -451.000
372.573;  -22.575; -444.000; -340.000
372.704; -123.500;-1008.000; -980.000
372.835;   72.850; -228.000; -289.000
372.966;  -59.400; -646.000; -554.000
373.097;  -61.900; -575.000; -711.000
373.228;  -33.750; -717.000; -542.000
373.359;  110.675; -824.000; -536.000
373.490;  838.625; -881.000; -727.000
373.620; 1113.825;-1001.000; -803.000
373.751; 1640.425; -332.000; -396.000
373.882;  753.725; -663.000; -733.000
374.013;   49.725; -449.000; -262.000
374.143;  -34.800; -581.000; -659.000
374.274;  -97.825; -987.000; -908.000
374.405;  162.050; -388.000; -276.000
374.536;  415.275; -526.000; -387.000
374.666; 1046.500; -759.000; -807.000
374.797;  209.050; -817.000; -868.000
374.928;  796.475; -710.000; -560.000
375.058;  850.500; -535.000; -500.000
375.189;   84.625;  -59.000;  -93.000
375.320; -105.050; -928.000;-1034.000
375.450;  -39.325; -625.000; -616.000
375.581;  -41.700; -526.000; -436.000
375.712;  -36.125; -574.000; -250.000
375.842;  285.325; -438.000; -415.000
375.973;  209.250; -554.000; -513.000
376.103;  -60.250; -665.000; -648.000
376.234;  -61.875; -531.000; -552.000
376.364;  -45.475; -944.000; -867.000
376.495;  296.975;  925.000;  529.000
376.625;    7.250; -472.000; -485.000
376.756;   53.250; -709.000; -678.000
376.886;  -76.400;-1178.000;-1026.000
377.017;   64.825;-1048.000;-1061.000
377.147;  376.600; -786.000; -782.000
377.278;   74.925;  174.000;  228.000
377.408; -118.675; -801.000; -815.000
377.538; -110.475; -707.000; -693.000
377.669;  -85.400; -537.000; -613.000
377.799;  -91.500; -645.000; -635.000
377.929;  -68.100; -610.000; -428.000
378.060; -132.325; -781.000; -847.000
378.190;  -55.175; -726.000; -531.000
378.320;  -38.725; -401.000; -406.000
378.451;  -12.875; -131.000;  -22.000
378.581;    0.175;  -67.000; -110.000
378.711;  144.250; 1035.000;  866.000
378.841;  -25.750; -533.000; -675.000
378.972;  -76.725; -871.000; -751.000
379.102;   -6.700; -652.000; -579.000
379.232;  -13.725; -126.000;  -73.000
379.362; -105.975;-1001.000; -885.000
379.492;    9.275; -373.000; -424.000
379.623;  106.025;    0.000;  111.000
379.753;  -91.675;-1107.000; -974.000
379.883;  185.625;   59.000;  156.000
380.013;    5.100;-1081.000;-1017.000
380.143;  -97.975;-1097.000;-1056.000
380.273; -107.900; -985.000; -861.000
380.403;  -10.575; -344.000; -257.000
380.533;  -35.225; -651.000; -664.000
380.663;   64.775;  173.000;  128.000
380.793;  -94.125;-1027.000;-1074.000
380.923;  -16.275; -103.000;  -34.000
381.053;  -81.825; -613.000; -623.000
381.183;  -45.475; -106.000; -248.000
381.313;   12.800; -656.000; -470.000
381.443;   41.200; -692.000; -473.000
381.573;  171.575; -402.000; -409.000
381.703;  275.825;-1249.000;-1095.000
381.833; -124.300;-1454.000;-1336.000
381.963;   94.450; -134.000;  -87.000
382.093; 1326.475; -925.000; -909.000
382.223;  440.600; -713.000; -602.000
382.353;  -14.125; -801.000; -608.000
382.482;  342.400;-1091.000; -964.000
382.612;  703.300; -872.000; -644.000
382.742;  417.750; -695.000; -622.000
382.872;  246.025; -565.000; -551.000
383.002;   67.400;  347.000; -132.000
383.131;  -19.025; -226.000; -160.000
383.261;  -44.125; -706.000; -768.000
383.391;  281.900; -552.000; -377.000
383.521; 3281.925;  451.000;  263.000
383.650;  871.250; -947.000; -904.000
383.780;    5.000; -783.000; -656.000
383.910;  100.300;  880.000;  802.000
384.039;   17.000; -794.000; -656.000
384.169;  182.725;-1205.000;-1017.000
384.299;  -26.125; -650.000; -662.000
384.428;  -89.100; -764.000; -680.000
384.558;  -47.925; -308.000; -275.000
384.687;  -35.400; -414.000; -334.000
384.817;    6.725;   75.000;   -2.000
384.947;   11.650; -234.000; -141.000
385.076;  271.150;  982.000;  912.000
385.206;   98.975;  369.000;  480.000
385.335;  -28.775; -549.000; -417.000
385.465;  -83.350; -655.000; -663.000
385.594;  120.625;  -53.000;  -44.000
385.724;  377.675; -868.000; -838.000
385.853;  120.200; -296.000; -270.000
385.982; 1209.175; -743.000; -787.000
386.112; 2051.450;-1052.000; -871.000
386.241;  142.600; -307.000; -312.000
386.371;   36.600; -174.000;  -87.000
386.500;    1.525; -825.000; -789.000
386.629;   24.200; -874.000; -817.000
386.759;   56.025;  -43.000;   68.000
386.888;   -5.500; -170.000; -250.000
387.017;  -74.325; -648.000; -620.000
387.147;  -84.925; -771.000; -798.000
387.276;   13.300; -410.000; -397.000
387.405;   11.750; -398.000; -342.000
387.535;  -44.625; -452.000; -361.000
387.664;  -54.475; -692.000; -620.000
387.793;   43.575; -198.000; -113.000
387.922;  478.500;  255.000;  200.000
388.052;   11.200; -576.000; -423.000
388.181;   -2.175; -342.000; -472.000
388.310;   -5.600; -889.000; -710.000
388.439;  -49.650; -749.000; -742.000
388.568;  160.050;  365.000;  244.000
388.697;  940.000; -756.000; -653.000
388.826;  202.300; -768.000; -666.000
388.956;   46.625; -285.000; -307.000
389.085;  -22.500; -347.000; -287.000
389.214; -100.925; -842.000; -872.000
389.343;  -62.225; -645.000; -413.000
389.472;  414.300;  126.000;  149.000
389.601;  515.425;   91.000;    0.000
389.730;   25.125; -568.000; -687.000
389.859;   61.675;  226.000;   46.000
389.988;  170.400; -423.000; -408.000
390.117;  145.100; -168.000; -146.000
390.246;   -4.425; -331.000; -320.000
390.375;   90.250; -673.000; -626.000
390.504;  -45.525; -703.000; -621.000
390.633;  -90.575; -672.000; -726.000
390.761;  -62.625; -732.000; -645.000
390.890;   18.425;   -4.000; -130.000
391.019;  -19.450; -421.000; -441.000
391.148; -127.000; -826.000; -855.000
391.277;  -75.600; -576.000; -493.000
391.406;  -81.075; -821.000; -805.000
391.534;   22.200;  574.000; -301.000
391.663;  -52.100; -583.000; -645.000
391.792;  -76.725; -673.000; -701.000
391.921;   70.100;   -3.000;   15.000
392.050;  187.725; -287.000; -228.000
392.178;  -42.750;-1206.000;-1061.000
392.307;  137.900; -758.000; -712.000
392.436;   65.100; -427.000; -641.000
392.564;   29.300;  166.000;   -6.000
392.693;  -87.425; -860.000; -682.000
392.822;  177.825; -529.000; -534.000
392.950;   79.975; -880.000; -714.000
393.079;  278.900; -188.000; -328.000
393.208;   19.650; -488.000; -511.000
393.336;   -9.475; -170.000; -145.000
393.465;  -44.600; -317.000; -199.000
393.593;   17.825;   62.000;   79.000
393.722; -141.850;-1121.000; -916.000
393.850;  -29.275; -188.000;  -61.000
393.979; -137.675; -926.000; -805.000
394.107;  -61.125; -517.000; -537.000
394.236;  -32.925; -570.000; -507.000
394.364;  208.650;  383.000;  206.000
394.493;  369.650; -911.000; -767.000
394.621;    3.350; -955.000; -916.000
394.750;  736.100; -873.000; -923.000
394.878; 3080.475; -247.000; -149.000
395.007; 4357.725; -721.000; -807.000
395.135;  363.500; -790.000; -721.000
395.263;  -84.475;-1038.000;-1040.000
395.392;   29.650;  -25.000; -107.000
395.520; -115.275; -818.000; -679.000
395.648;  -96.725; -865.000; -915.000
395.777;  -12.025; -366.000; -405.000
395.905;  -52.075; -449.000; -564.000
396.033;   10.625;  217.000;  172.000
396.162;  597.100; -399.000; -453.000
396.290;  567.550;  -17.000;   -2.000
396.418;  103.425; -555.000; -514.000
396.546;  -76.175; -571.000; -466.000
396.674;  -86.625; -850.000; -878.000
396.803;    3.600;  -72.000;  -23.000
396.931;   73.375; -179.000; -199.000
397.059;   41.350;-1026.000; -989.000
397.187; -109.325;-1026.000; -975.000
397.315; -140.675; -884.000; -649.000
397.443;  -95.675; -592.000; -443.000
397.572;  -82.050; -578.000; -424.000
397.700;  -26.675; -607.000; -614.000
397.828;    9.775;  120.000;  -90.000
397.956;  -45.600; -508.000; -478.000
398.084;  -52.400; -767.000; -626.000
398.212;   17.025;  137.000;  124.000
398.340;    8.025;  -56.000;  159.000
398.468;   28.600; -390.000; -169.000
398.596; -113.725; -993.000; -953.000
398.724; -109.250; -762.000; -767.000
398.852; -164.700;-1024.000; -976.000
398.980;  -59.575; -560.000; -560.000
399.108;  -64.975; -982.000; -735.000
399.236;   34.150;   13.000;    8.000
399.363;   10.925;  222.000;  196.000
399.491;  -64.225; -404.000; -398.000
399.619; -115.425; -829.000; -800.000
399.747;  -88.750; -859.000; -771.000
399.875;   88.025;  220.000;  234.000
400.003;  -34.975; -359.000; -284.000
400.130;  -90.850; -421.000; -341.000
400.258;  -21.325;  -83.000;   38.000
400.386;  -61.275; -352.000; -168.000
400.514;  -57.650; -526.000; -587.000
400.641;  -90.200; -928.000; -802.000
400.769; -134.750; -979.000; -888.000
400.897; -111.525; -838.000; -793.000
401.025;  -12.200; -166.000; -152.000
401.152;   -7.575;  220.000;   38.000
401.280;  -75.600; -430.000; -429.000
401.408;  -96.750; -712.000; -576.000
401.535; -102.075; -735.000; -758.000
401.663; -176.850;-1134.000;-1054.000
401.790;  -73.950; -514.000; -525.000
401.918;   50.675;  436.000;  405.000
402.046;  -13.200;  134.000;  122.000
402.173;  -31.250;  -18.000;    7.000
402.301;  -69.850; -519.000; -397.000
402.428;   43.675;  528.000;  383.000
402.556; -137.375;-1188.000; -913.000
402.683;  -36.600;  -20.000;   -1.000
402.811;  -16.550;  -37.000; -206.000
402.938;  -23.900;   20.000;   27.000
403.066;  159.850; -574.000; -558.000
403.193;  317.700;  299.000;  239.000
403.321;  223.750; -396.000; -574.000
403.448;  299.075;   83.000;   27.000
403.575;  138.875;  -90.000;  -46.000
403.703;  -84.475; -732.000; -557.000
403.830;  -46.400; -531.000; -496.000
403.957; -130.025;-1117.000;-1023.000
404.085;   20.825;  -61.000; -172.000
404.212;  106.750;  -50.000;   63.000
404.339;  276.000; -566.000; -306.000
404.467; 5997.600; -612.000; -524.000
404.594; 4117.400; -287.000; -227.000
404.721;  945.800; -869.000; -764.000
404.848;   99.900; -113.000; -202.000
404.976; -105.550; -856.000; -783.000
405.103;  -13.325;  -14.000;  -82.000
405.230;   -3.825;  190.000;  226.000
405.357;    6.825;  117.000;   44.000
405.484;  271.000;  -49.000;    5.000
405.612;   60.575; -548.000; -563.000
405.739;  -63.625; -488.000; -243.000
405.866;   77.700;  669.000;  385.000
405.993;  -47.850; -398.000; -102.000
406.120; -139.400; -801.000; -887.000
406.247;  -53.575; -323.000; -342.000
406.374;  382.175;  540.000;  629.000
406.501;  107.975; -632.000; -702.000
406.628;  -69.475; -621.000; -589.000
406.755;  -87.000; -803.000; -620.000
406.882;  -27.450; -228.000; -277.000
407.009; -104.550; -719.000; -628.000
407.136;   26.525; -480.000; -401.000
407.263;  133.725; -939.000; -829.000
407.390;  -76.650; -692.000; -614.000
407.517; -155.800;-1139.000;-1187.000
407.644;  -59.750; -332.000; -256.000
407.771;  -63.350; -249.000; -287.000
407.898;   12.825;  168.000;  328.000
408.025;  -68.975; -421.000; -313.000
408.151;  -22.575;   82.000;  153.000
408.278;  -70.225; -267.000; -216.000
408.405; -114.650; -931.000; -899.000
408.532;  -75.000; -549.000; -542.000
408.659; -109.500; -677.000; -648.000
408.785; -205.325;-1298.000;-1170.000
408.912;  -76.325; -412.000; -296.000
409.039;  -95.225; -610.000; -686.000
409.166; -111.625; -591.000; -555.000
409.292; -102.275; -571.000; -534.000
409.419; -113.950; -665.000; -649.000
409.546;  -85.775; -431.000; -192.000
409.672; -104.675; -713.000; -545.000
409.799;  -25.925;  -36.000;   34.000
409.926;  -32.875; -180.000; -179.000
410.052; -163.225;-1127.000;-1091.000
410.179;  -59.550; -368.000; -392.000
410.305;  -84.675; -375.000; -493.000
410.432;  -52.925; -220.000; -333.000
410.558;  -85.500; -305.000; -380.000
410.685; -102.075; -688.000; -431.000
410.812;  -89.225; -409.000; -588.000
410.938; -125.275; -964.000; -808.000
411.065; -104.850; -671.000; -645.000
411.191;   -8.275; -189.000; -174.000
411.317; -125.025; -823.000; -742.000
411.444;  -58.825; -317.000; -246.000
411.570;  -71.975; -339.000; -294.000
411.697; -110.925; -758.000; -752.000
411.823; -167.925; -989.000; -999.000
411.949;  -32.100;  -56.000;   17.000
412.076; -112.550; -539.000; -519.000
412.202; -114.725; -758.000; -757.000
412.329; -132.350; -798.000; -752.000
412.455; -117.550; -821.000; -657.000
412.581;   -7.525;  -15.000;  172.000
412.707;  -66.250; -540.000; -457.000
412.834;    9.550;  156.000;  219.000
412.960;  -89.525; -785.000; -784.000
413.086;  -94.700; -743.000; -701.000
413.212;  139.200;  604.000;  578.000
413.339;  -52.200; -685.000; -701.000
413.465;   -5.750; -364.000; -310.000
413.591;  -89.800; -757.000; -474.000
413.717;  -54.275; -358.000; -366.000
413.843; -136.175; -839.000; -861.000
413.969;  -60.750;  -47.000; -292.000
414.096;  -96.100; -679.000; -679.000
414.222;  -20.625;  -33.000;   85.000
414.348;  -37.300; -652.000; -385.000
414.474;   96.800;   38.000;  -52.000
414.600;   -0.800; -126.000; -144.000
414.726;    0.075;  -96.000;  -55.000
414.852;  -61.525; -365.000; -342.000
414.978;   41.350;  104.000;  -18.000
415.104;   53.350;   38.000;   80.000
415.230;   37.800; -329.000; -330.000
415.356;   44.050; -409.000; -514.000
415.482;  210.000;   13.000;  -35.000
415.608;  285.200; -247.000; -323.000
415.734;  994.550;   67.000;   38.000
415.860;20237.600; -875.000; -767.000
415.986;16161.100; -685.000; -607.000
416.111; 1454.925; -798.000; -652.000
416.237;  301.750; -424.000; -571.000
416.363; 1108.150; -765.000; -733.000
416.489; 4516.525; -324.000; -251.000
416.615;  539.325; -707.000; -742.000
416.741;   -7.250; -677.000; -784.000
416.866;  -76.125; -673.000; -736.000
416.992; -108.950; -801.000; -818.000
417.118;  -27.750;  -41.000;  -80.000
417.244;  -70.100; -798.000; -531.000
417.369;  -80.025; -801.000; -612.000
417.495;   -0.775; -325.000; -254.000
417.621;  -85.725;-1015.000; -803.000
417.746;   13.600; -579.000; -572.000
417.872;   61.175; -254.000; -144.000
417.998;   53.275; -515.000; -530.000
418.123; 1017.900;-1073.000; -845.000
418.249; 5755.450; -512.000; -601.000
418.374;  907.900; -916.000; -824.000
418.500;  151.050; -383.000; -482.000
418.626;  111.500;   70.000;  -59.000
418.751;  127.700; -549.000; -448.000
418.877;  196.575; -637.000; -643.000
419.002; 1747.100; -688.000; -560.000
419.128;13244.600; -930.000; -721.000
419.253; 3644.800; -967.000; -837.000
419.379;  481.875; -391.000; -338.000
419.504;  418.100;  325.000;  415.000
419.629;  540.950; -393.000; -212.000
419.755; 3472.825; -317.000; -254.000
419.880;22397.200;  -98.000;   67.000
420.006;12078.725; -280.000; -221.000
420.131;31571.475; -662.000; -775.000
420.256; 5016.275; -315.000; -316.000
420.382;  655.675; -665.000; -687.000
420.507;  105.575; -649.000; -778.000
420.632;  115.100; -337.000; -339.000
420.758;  220.350; -251.000; -425.000
420.883;  -73.150; -876.000; -672.000
421.008;  -96.525; -775.000; -619.000
421.133;  -83.675; -509.000; -467.000
421.259;  -44.450; -325.000; -259.000
421.384; -120.750; -834.000; -693.000
421.509;  -57.950;-1052.000; -862.000
421.634;  969.575; -936.000; -820.000
421.759;  469.150; -359.000; -327.000
421.885;  -60.700; -717.000; -656.000
422.010;  -76.625; -673.000; -542.000
422.135; -139.325; -695.000; -727.000
422.260;   28.600;  340.000;  280.000
422.385;  -41.600;   12.000;  -98.000
422.510;    8.800;  151.000;  -26.000
422.635;   16.850;  -87.000;  -43.000
422.760;   98.325; -766.000; -791.000
422.885;   55.600;  -57.000;  -80.000
423.010;  -22.275; -112.000; -169.000
423.135;  -92.500; -481.000; -561.000
423.260;  -15.400; -150.000; -245.000
423.385;   71.525;  476.000;  222.000
423.510;   32.325;   71.000;  -22.000
423.635;   64.875;  133.000;   45.000
423.760;   65.075;  383.000;  328.000
423.885;   57.275;  336.000;  391.000
424.010;   17.650;  -68.000;  -13.000
424.135;  -12.875;    5.000;  -33.000
424.259;  -81.275; -654.000; -457.000
424.384;  -59.175; -279.000; -272.000
424.509;  -10.150; -260.000; -186.000
424.634;  -93.800; -761.000; -623.000
424.759;  -19.250; -688.000; -544.000
424.883;  -14.625; -506.000; -527.000
425.008;  175.300; -502.000; -410.000
425.133; 2060.575; -679.000; -653.000
425.258; 1094.175; -517.000; -381.000
425.382;  904.350; -867.000; -774.000
425.507; 2499.475; -487.000; -543.000
425.632;  463.200; -802.000; -663.000
425.756;  483.625; -256.000; -146.000
425.881; 6490.875; -831.000; -857.000
426.006;19260.650; -604.000; -355.000
426.130; 3289.800; -696.000; -508.000
426.255;  442.875; -611.000; -491.000
426.379;  179.525; -189.000; -577.000
426.504;  399.700;  660.000;  544.000
426.629; 4089.350; -519.000; -466.000
426.753; 3121.725;   64.000;  -46.000
426.878;  367.400; -252.000; -288.000
427.002;  208.050; -651.000; -668.000
427.127; 1547.975;  -35.000; -158.000
427.251;11852.225;  372.000;  401.000
427.375; 3777.925; -191.000; -173.000
427.500; 2151.375; -616.000; -610.000
427.624;  824.325; -234.000; -400.000
427.749;   99.250; -216.000; -225.000
427.873;  -36.425; -499.000; -412.000
427.997;  -36.900; -222.000; -230.000
428.122;   63.750;  795.000;  703.000
428.246;   64.850;  433.000;  434.000
428.371; -115.425; -869.000; -773.000
428.495; -108.725; -624.000; -646.000
428.619;  -26.550; -186.000; -117.000
428.743;   21.950;   65.000;  132.000
428.868;    3.425; -732.000; -643.000
428.992; 1266.900; -219.000; -326.000
429.116;  558.225; -329.000; -357.000
429.240;  253.300;  419.000;  426.000
429.365;   -3.125; -454.000; -574.000
429.489;  -36.050; -638.000; -647.000
429.613;   27.800; -236.000; -177.000
429.737;   45.450; -563.000; -432.000
429.861;  283.550; -247.000; -133.000
429.985; 5579.875; -425.000; -305.000
430.109; 6798.475; -770.000; -908.000
430.234;  824.300;   76.000;  -50.000
430.358;   97.700; -250.000; -160.000
430.482;  -56.925; -672.000; -564.000
430.606;  -70.950; -655.000; -375.000
430.730;  -10.125; -437.000; -388.000
430.854;  111.500; -909.000; -835.000
430.978;  -72.825; -795.000; -764.000
431.102;  -86.675; -499.000; -422.000
431.226; -115.575; -874.000; -815.000
431.350;   23.300;  345.000;  422.000
431.474;  -67.075; -661.000; -373.000
431.597; -144.400;-1060.000; -848.000
431.721;  -78.900; -276.000; -267.000
431.845; -124.975; -704.000; -472.000
431.969;  -80.675; -304.000; -349.000
432.093;  -81.625; -395.000; -317.000
432.217;  -12.375;   32.000;   82.000
432.341;  -83.600; -523.000; -518.000
432.464;   -8.725;   96.000;   40.000
432.588;  175.400; -401.000; -329.000
432.712;  117.375;  -52.000;  -52.000
432.836;   49.125;  213.000;  263.000
432.959;  -12.850; -372.000; -311.000
433.083;   88.675;   11.000;    2.000
433.207;  377.350;  285.000;  930.000
433.330; 5085.050; -391.000; -200.000
433.454; 6897.925; -654.000; -638.000
433.578; 3890.525;  583.000;  278.000
433.701;  809.725; -623.000; -675.000
433.825;  138.350; -292.000; -299.000
433.949;  143.575;   28.000;  -72.000
434.072;   59.175; -410.000; -323.000
434.196;   -0.350; -309.000; -117.000
434.319; 3560.525;25482.000;25124.000
434.443;  680.850; -656.000; -603.000
434.566; 2807.650;  281.000;   62.000
434.690;  561.175; -637.000; -383.000
434.813;   51.125; -251.000; -173.000
434.937;  -61.400; -569.000; -696.000
435.060;  -53.925; -423.000; -332.000
435.184;  226.900; -492.000; -217.000
435.307;  161.325;  159.000;  102.000
435.431;    1.075;  -40.000;   24.000
435.554;  -70.700; -399.000; -240.000
435.677;  -80.000; -350.000; -258.000
435.801;  -39.300;  -25.000;   49.000
435.924;  -22.225;    1.000;  -67.000
436.048; -116.100;-1019.000; -732.000
436.171;  -81.000; -240.000;  -66.000
436.294;  -27.675; -248.000; -229.000
436.417;  101.675; -963.000; -849.000
436.541;  -63.875; -814.000; -840.000
436.664;  -44.050; -242.000; -316.000
436.787;  -23.650;   13.000;  113.000
436.910; -107.400; -792.000; -422.000
437.034;   -1.900;  142.000;  143.000
437.157;   44.075;  -11.000;    0.000
437.280;  -49.750; -392.000; -292.000
437.403;  -95.500; -982.000; -869.000
437.526;  458.825; -903.000; -865.000
437.649; 1929.500; -505.000; -332.000
437.772;  317.550; -692.000; -540.000
437.896;  118.075;  700.000;  544.000
438.019;  -97.375; -758.000; -503.000
438.142;  -85.350; -596.000; -506.000
438.265;  -47.300; -639.000; -670.000
438.388;  509.175; -520.000; -410.000
438.511;   92.575; -597.000; -394.000
438.634;  -52.075; -247.000; -125.000
438.757; -131.650; -693.000; -619.000
438.880;  -23.800;  -34.000;  -57.000
439.003;  -78.500; -417.000; -437.000
439.126;  -61.725; -287.000; -167.000
439.248;  -67.725;  -98.000; -139.000
439.371;  -37.775;    9.000;  -53.000
439.494;   19.025;  510.000;  439.000
439.617;  -51.975;   65.000;  -88.000
439.740; -180.850; -968.000; -816.000
439.863; -137.525; -755.000; -595.000
439.986; -126.950; -476.000; -431.000
440.108;  -70.500; -161.000; -112.000
440.231; -166.350; -950.000; -836.000
440.354;  -48.300;  -64.000; -150.000
440.477;    3.200; -566.000; -542.000
440.599;   -8.650; -200.000; -225.000
440.722; -104.725; -709.000; -586.000
440.845;   62.150;  751.000;  928.000
440.968; -105.075; -415.000; -311.000
441.090;  -65.550; -199.000;  -33.000
441.213; -167.725;-1021.000; -825.000
441.336;  -52.875; -159.000;   -5.000
441.458;  -82.375; -549.000; -396.000
441.581;  -75.325; -628.000; -629.000
441.703;  -80.775; -152.000;   13.000
441.826; -113.975; -557.000; -400.000
441.948;  -50.975;   56.000;   51.000
442.071;   36.225;  555.000;  424.000
442.193; -119.200; -531.000; -485.000
442.316;    8.450;  152.000;   97.000
442.438;   37.375; -233.000;  -10.000
442.561;   67.450;  272.000;  262.000
442.683;  396.725; -809.000; -522.000
442.806;  994.600;   -8.000;   74.000
442.928;   25.925; -859.000; -604.000
443.051;  -67.450; -577.000; -373.000
443.173;  -93.900; -341.000; -339.000
443.295;  -76.900; -263.000; -371.000
443.418;  -68.825; -321.000;  -29.000
443.540;  -18.450; -106.000;   -4.000
443.662; -111.125; -563.000; -465.000
443.785;  -28.825;  335.000;  199.000
443.907;  -99.275; -362.000; -208.000
444.029; -135.450; -767.000; -494.000
444.152; -141.525; -644.000; -554.000
444.274;  -33.200;  -18.000;  -24.000
444.396; -101.900; -461.000; -221.000
444.518; -125.900; -691.000; -454.000
444.640;  -80.000; -268.000; -111.000
444.763;  -20.900;  388.000;  249.000
444.885; -121.275; -432.000; -392.000
445.007;  -24.475;   35.000;   86.000
445.129; -114.100; -610.000; -515.000
445.251; -107.600; -372.000; -439.000
445.373; -127.375; -537.000; -386.000
445.495;   -7.225;  242.000;  350.000
445.617;   48.875;  853.000;  753.000
445.739;  -60.825; -215.000;  -97.000
445.861;  -35.600; -245.000; -112.000
445.984;  -36.225; -267.000; -101.000
446.105;  139.475; -418.000; -251.000
446.227;  530.650; -176.000;  -19.000
446.349;   17.675; -358.000; -249.000
446.471;  -89.800; -615.000; -448.000
446.593;  -49.225; -316.000;   19.000
446.715;   -4.475;  -67.000;   41.000
446.837;   54.850;  697.000;  832.000
446.959;  -86.775; -457.000; -478.000
447.081; -129.850; -628.000; -518.000
447.203;   38.575;  862.000;  834.000
447.325;  -90.900; -270.000;   42.000
447.446;   -0.250;  286.000;  530.000
447.568; -142.725; -921.000; -803.000
447.690;  -64.425; -236.000; -245.000
447.812; -143.400; -798.000; -519.000
447.933;  -39.125;  155.000;  127.000
448.055;  -77.100; -306.000; -261.000
448.177;  106.125;   31.000;   79.000
448.299;   76.675; -935.000; -727.000
448.420;   27.150;  -25.000;  159.000
448.542;  -59.125;   -3.000;   33.000
448.664;  -20.700;  109.000;  322.000
448.785;  -41.100;  265.000;   83.000
448.907;  -76.600; -614.000; -353.000
449.028;  -34.150; -771.000; -471.000
449.150;   47.325;  492.000;  589.000
449.272; -167.325;-1044.000; -913.000
449.393;   25.150;  612.000;  694.000
449.515; -133.500; -634.000; -581.000
449.636;  -53.550; -264.000; -155.000
449.758;   56.225;  763.000;  622.000
449.879;  -92.275; -498.000; -396.000
450.001;  -85.425; -149.000;  -49.000
450.122;  -44.200;  -95.000;  162.000
450.244;  -29.000;   37.000;  364.000
450.365;  -85.425; -495.000; -301.000
450.486;  -17.950;   80.000;  268.000
450.608;   19.650;  393.000;  326.000
450.729;   80.725;  578.000;  645.000
450.850;   13.975; -574.000; -466.000
450.972;  744.300; -552.000; -389.000
451.093; 5107.650;  190.000;  588.000
451.214; 2488.100; -516.000; -337.000
451.336;  470.425;  773.000;  579.000
451.457;   64.000;  264.000;  393.000
451.578;  -23.075; -118.000;  -74.000
451.699; -115.000; -546.000; -540.000
451.821;  -69.775; -284.000;  -50.000
451.942;   -5.625;  278.000;  285.000
452.063;   29.850;  228.000;  419.000
452.184;  561.875;  -54.000;  -49.000
452.305; 1205.375;  103.000;  170.000
452.427;  183.225; -549.000; -301.000
452.548;   -8.175;   23.000;   79.000
452.669;  -52.025; -257.000;  -89.000
452.790;  -42.225;    3.000;  -18.000
452.911;  -15.175;  195.000;  259.000
453.032;  -67.100; -289.000;  -60.000
453.153;  -58.300;  -29.000;   81.000
453.274;   85.850;  737.000;  868.000
453.395;  -68.000;  -51.000;  175.000
453.516;  115.925; 1317.000; 1388.000
453.637;  -57.100; -205.000; -150.000
453.758;  -48.525;   15.000;   69.000
453.879; -117.125; -462.000; -250.000
454.000;   62.825; 1086.000;  948.000
454.121; -112.050; -554.000; -326.000
454.242; -104.225; -599.000; -383.000
454.362;  -64.725;  -99.000;  114.000
454.483;  -42.525; -309.000; -229.000
454.604;   42.300;  512.000;  580.000
454.725; -123.950; -627.000; -555.000
454.846; -109.250; -474.000; -406.000
454.967;  -13.250;  230.000;  539.000
455.087;  -22.775;  179.000;  153.000
455.208;   12.500;  554.000;  856.000
455.329;  -53.050;  -22.000;   82.000
455.450;   33.400;  473.000;  633.000
455.570;  -61.050; -234.000; -211.000
455.691;  -41.275;  201.000;  407.000
455.812; -109.225; -270.000;  -92.000
455.932;  -59.875;  107.000;  -97.000
456.053;  -78.850;   36.000;   24.000
456.173; -111.625; -433.000; -355.000
456.294; -132.300; -476.000; -303.000
456.415;  -58.175;  -73.000;   70.000
456.535;  -27.050;  297.000;  273.000
456.656;  -29.775;  132.000;  240.000
456.776;  -76.975;    3.000;  298.000
456.897;    1.750;  308.000;  513.000
457.017;  -57.450; -153.000;   -3.000
457.138;  -89.125; -402.000; -249.000
457.258;  -41.175;  263.000;  224.000
457.379;  -23.925;  509.000;  521.000
457.499;  -33.175;  443.000;  432.000
457.620; -115.800; -407.000; -231.000
457.740;  -85.075; -132.000;  -11.000
457.860;  -47.250;   87.000;   44.000
457.981;  -48.100;  132.000;  124.000
458.101;  -80.425;  -89.000;   40.000
458.221;  -17.150;  336.000;  402.000
458.342;  -66.925;   -4.000;  -37.000
458.462;   10.325;  617.000;  352.000
458.582;  -28.075; -302.000; -294.000
458.703;   16.675;  303.000;  154.000
458.823;  -17.500;   22.000;  163.000
458.943;   29.125;  341.000;  467.000
459.063;    1.075; 1124.000;  192.000
459.183;  -22.825;  328.000;  313.000
459.304;   12.125;  315.000;  517.000
459.424;  -52.300; -246.000;  -89.000
459.544;  336.550;  388.000;  764.000
459.664;  866.175;  499.000;  506.000
459.784;  364.100; 1004.000; 1175.000
459.904;   61.875;  867.000;  744.000
460.024;   76.875;  867.000;  684.000
460.144;    4.000;  449.000;  554.000
460.264;   -9.625;  515.000;  327.000
460.385;  -92.450; -145.000; -119.000
460.505;   36.725;  905.000;  858.000
460.625;  -88.700;  -17.000;  -68.000
460.745;  -24.150;  396.000;  541.000
460.864;  -46.800;  153.000;  469.000
460.984;   -7.175;  499.000;  573.000
461.104;  129.150; 1656.000; 1775.000
461.224;   19.775;  657.000;  650.000
461.344;  -44.550;  431.000;  360.000
461.464;  -19.575;  258.000;  513.000
461.584;  -21.550;  283.000;  466.000
461.704;  -53.100;   58.000;  108.000
461.824;  -46.275;  238.000;  259.000
461.943;  -27.250;  191.000;  130.000
462.063;  -85.175;    2.000;  324.000
462.183;   29.175;  639.000;  717.000
462.303;   99.450; 1678.000; 1230.000
462.422;   31.350;  781.000;  840.000
462.542;  -47.575;  271.000;  391.000
462.662;   39.600;  353.000;  380.000
462.782;  248.700;  833.000;  572.000
462.901;  510.300;  545.000;  717.000
463.021;  300.975; 1702.000; 1638.000
463.141;   -1.075;  337.000;  770.000
463.260;  -23.425;  614.000;  474.000
463.380;   11.150;  902.000;  884.000
463.499;  -39.625;  342.000;  332.000
463.619;  -33.025;  581.000;  559.000
463.738;  122.250; 1644.000;  903.000
463.858;   22.825;  657.000;  811.000
463.978;  -26.425;  542.000;  396.000
464.097;   49.325;  921.000; 1114.000
464.217;  115.925; 1196.000; 1143.000
464.336;  122.100; 1068.000; 1130.000
464.455;  -32.900;  328.000;  659.000
464.575;   49.200;  597.000;  602.000
464.694;  153.025; 1204.000; 1179.000
464.814;  143.600; 1190.000; 1138.000
464.933;   69.300; 1095.000; 1027.000
465.052;   91.825; 1412.000; 1054.000
465.172;   82.100;  922.000;  799.000
465.291;  135.750; 1376.000; 1320.000
465.410;   15.200;  462.000;  735.000
465.530;   79.075; 1355.000; 1310.000
465.649;   84.175; 1209.000; 1273.000
465.768;  120.875; 1673.000; 1508.000
465.888;   54.275;  941.000; 1174.000
466.007;   84.575; 1335.000; 1440.000
466.126;    9.950;  721.000;  641.000
466.245;   42.250; 1176.000; 1187.000
466.364;   15.550;  950.000; 1060.000
466.484;   56.650; 1024.000; 1213.000
466.603;   30.500; 1101.000; 1222.000
466.722;  123.825; 1490.000; 1769.000
466.841;   85.750; 1151.000; 1401.000
466.960;   44.375; 1069.000;  972.000
467.079;  132.875; 1971.000; 1786.000
467.198;   55.875; 1238.000; 1181.000
467.317;   74.575; 1768.000; 1162.000
467.436;   84.900; 1709.000; 1261.000
467.555;  114.350; 1796.000; 1746.000
467.674;   65.950; 1227.000; 1329.000
467.793;   45.550; 1376.000; 1374.000
467.912;   91.750; 1658.000; 1539.000
468.031;  135.975; 2038.000; 1930.000
468.150;  147.625; 1842.000; 1837.000
468.269;  185.425; 2313.000; 2090.000
468.388;  183.025; 2168.000; 2339.000
468.507;  256.650; 2884.000; 2903.000
468.626;  259.550; 2555.000; 2541.000
468.744;  164.175; 2018.000; 2174.000
468.863;  192.875; 2312.000; 2523.000
468.982;   87.125; 1503.000; 1555.000
469.101;  241.350; 2788.000; 2692.000
469.220;  151.950; 2333.000; 2176.000
469.338;  253.975; 2935.000; 3051.000
469.457;  199.100; 2719.000; 2545.000
469.576;  358.075; 3953.000; 3784.000
469.695;  247.150; 2877.000; 3066.000
469.813;  429.525; 4148.000; 4192.000
469.932;  405.050; 4255.000; 4485.000
470.051;  410.675; 4075.000; 4161.000
470.169;  846.975; 4470.000; 4338.000
470.288; 1532.225; 4700.000; 4809.000
470.406;  950.200; 5059.000; 5194.000
470.525;  631.550; 6101.000; 5787.000
470.644;  652.025; 6847.000; 6794.000
470.762;  802.425; 8397.000; 7873.000
470.881;  903.325; 8651.000; 8464.000
470.999; 1051.850; 9685.000; 9151.000
471.118; 1098.625;11174.000;10711.000

