
Integration time [ms]: 200.000
Averaging Nr. [scans]: 10
Smoothing Nr. [pixels]: 0
Data measured with spectrometer [name]: 2101012U2
Wave   ;Sample   ;Dark     ;Reference
[nm]   ;[counts] ;[counts] ;[counts] 

197.733;  126.800;  516.000;  404.000
197.879; -193.600; -610.000; -634.000
198.025; -139.600; -475.000; -420.000
198.171; -143.100; -602.000; -612.000
198.317;  -79.500; -401.000; -316.000
198.463; -137.100; -655.000; -404.000
198.609;   42.700;  181.000; -137.000
198.755; -169.000; -644.000; -410.000
198.901; -129.600; -505.000; -424.000
199.047; -147.600; -615.000; -488.000
199.193;  -95.200; -230.000; -468.000
199.339; -101.600; -222.000; -369.000
199.485;  120.400;  330.000;  271.000
199.631;    4.500;  227.000;  310.000
199.777; -117.300; -466.000; -398.000
199.923; -110.200; -610.000; -424.000
200.069;   14.100; -141.000;  -58.000
200.215;   93.700;  128.000;  453.000
200.361;   86.200;  243.000;  477.000
200.507; -133.500; -600.000; -373.000
200.653;  -54.600; -371.000; -194.000
200.798;  -96.000; -215.000; -125.000
200.944;  -18.800; -146.000;  -41.000
201.090;   71.300;   61.000;  222.000
201.236;   29.400; -116.000; -158.000
201.382;  278.000;  874.000;  903.000
201.528;   33.900;  -58.000;  -48.000
201.674; -118.800; -386.000; -293.000
201.819; -138.800; -540.000; -439.000
201.965; -192.000; -699.000; -447.000
202.111;  -65.500; -273.000; -226.000
202.257;  -68.600; -250.000; -238.000
202.402;   36.400;   13.000;  -36.000
202.548;  -64.100; -169.000; -116.000
202.694;  197.600;  410.000; -183.000
202.840; -168.400; -603.000; -531.000
202.985; -174.700; -681.000; -639.000
203.131; -226.500; -832.000; -666.000
203.277;  -50.200; -199.000; -262.000
203.423; -103.900; -434.000; -520.000
203.568;  -76.800; -462.000; -237.000
203.714; -137.900; -535.000; -542.000
203.860; -167.500; -682.000; -641.000
204.005;   10.300;  112.000;  167.000
204.151;  155.900;  561.000;  556.000
204.296; -116.800; -354.000; -221.000
204.442; -158.600; -600.000; -547.000
204.588; -157.100; -592.000; -579.000
204.733;   18.800;  178.000;  168.000
204.879; -280.300;-1018.000; -822.000
205.025;   29.800;  -99.000;  126.000
205.170;  -19.200;  -17.000;   94.000
205.316;  160.300;  438.000;  661.000
205.461; -182.300; -698.000; -554.000
205.607;  201.800;  609.000;  665.000
205.752; -181.100; -626.000; -551.000
205.898;  -92.200; -501.000; -391.000
206.043; -118.700; -578.000; -506.000
206.189;  -99.000; -243.000; -285.000
206.334;  184.400;  554.000;  606.000
206.480;  177.400;  409.000;  239.000
206.625; -163.700; -529.000; -552.000
206.771;  -94.900; -451.000; -373.000
206.916;  -67.000; -210.000; -537.000
207.062; -146.600; -545.000; -591.000
207.207; -151.000; -546.000; -443.000
207.353;   99.000;  185.000;  460.000
207.498;   36.200;  196.000;   85.000
207.643; -109.700; -501.000; -370.000
207.789; -260.900;-1069.000; -910.000
207.934; -207.400; -665.000; -713.000
208.080;  -68.200; -154.000;   66.000
208.225;   -4.300;  -22.000;  -57.000
208.370; -178.100; -727.000; -619.000
208.516; -169.200; -741.000; -487.000
208.661;  -86.000; -127.000;  -69.000
208.806;  -54.000; -165.000; -171.000
208.952; -245.100;-1044.000; -731.000
209.097;  156.300;  378.000;  349.000
209.242;  -98.600; -307.000; -382.000
209.387;  122.500;  392.000;  350.000
209.533; -120.900; -321.000; -350.000
209.678;  162.900;  472.000;  543.000
209.823; -120.800; -408.000; -310.000
209.969; -197.500; -860.000; -757.000
210.114; -216.900; -907.000; -719.000
210.259; -246.900; -939.000; -889.000
210.404;    0.200; -171.000;  103.000
210.549;   36.200;  108.000;    3.000
210.695;  -29.100;   -3.000;  -95.000
210.840;   83.500;   94.000;   67.000
210.985; -137.200; -484.000; -303.000
211.130;  161.200;  268.000;  406.000
211.275;   29.400;  207.000;  199.000
211.420; -113.000; -300.000; -289.000
211.566; -144.000; -536.000; -489.000
211.711;   45.000;  218.000;  157.000
211.856; -132.200; -545.000; -519.000
212.001;   16.300;  151.000;   44.000
212.146;   -0.400;  153.000;   49.000
212.291;  -59.100; -210.000; -186.000
212.436;  -69.500; -280.000;   -6.000
212.581; -197.600; -685.000; -653.000
212.726; -139.100; -487.000; -538.000
212.871;  -92.900; -552.000; -217.000
213.016; -309.600;-1172.000;-1029.000
213.161;  120.400;  406.000;  291.000
213.306; -132.100; -435.000; -577.000
213.451; -203.300; -778.000; -689.000
213.596; -114.800; -455.000; -347.000
213.741; -142.300; -448.000; -538.000
213.886; -168.300; -498.000; -517.000
214.031;  -21.100; -294.000; -124.000
214.176;  -82.100; -408.000; -341.000
214.321;  -49.900; -296.000; -157.000
214.466;  -33.200; -163.000;  -43.000
214.611;   -8.600;  -61.000;  -10.000
214.756; -242.500; -948.000; -858.000
214.901;  -33.400; -388.000; -226.000
215.046; -230.900; -797.000; -825.000
215.191;   45.500;  128.000;   35.000
215.336;  -37.900; -157.000;  -19.000
215.480; -157.100; -684.000; -505.000
215.625;  -27.100; -175.000;  -19.000
215.770; -189.400; -757.000; -662.000
215.915;  -18.500;   -5.000;  -97.000
216.060;    8.800; -113.000;  -21.000
216.205; -249.300; -731.000; -779.000
216.349; -143.500; -470.000; -533.000
216.494; -278.300; -939.000; -867.000
216.639; -266.700; -823.000; -888.000
216.784; -190.300; -577.000; -525.000
216.929;  111.000;  392.000;  281.000
217.073;  -24.700; -244.000;  -31.000
217.218;    7.500;   78.000;  -47.000
217.363; -189.100; -656.000; -618.000
217.507; -184.000; -623.000; -588.000
217.652; -264.600; -845.000; -874.000
217.797; -185.500; -708.000; -659.000
217.942; -243.700; -856.000; -720.000
218.086;  151.000;  608.000;  539.000
218.231;  -55.400; -174.000;  -26.000
218.376;  -69.000; -337.000; -229.000
218.520;   10.200;  -41.000;   96.000
218.665;  -41.800; -338.000; -204.000
218.810; -111.900; -275.000; -233.000
218.954;   45.500;  201.000;   35.000
219.099; -225.500; -713.000; -963.000
219.243; -144.700; -589.000; -554.000
219.388;  -59.000; -264.000; -136.000
219.532;    5.400; -116.000; -116.000
219.677; -154.400; -564.000; -521.000
219.822;   40.800;   33.000;   89.000
219.966;   38.900;   17.000;  -99.000
220.111;  -45.500; -328.000;  -40.000
220.255; -203.100; -797.000; -750.000
220.400;  -25.800; -180.000; -146.000
220.544; -136.600; -516.000; -450.000
220.689; -109.300; -422.000; -451.000
220.833;  -56.400; -123.000;  -58.000
220.978;  -83.000; -393.000; -563.000
221.122;   32.000;  319.000;  307.000
221.267; -259.600; -906.000; -837.000
221.411; -135.200; -478.000; -394.000
221.555;    3.300; -104.000;  -23.000
221.700;  -94.300; -329.000; -222.000
221.844;   80.800;  255.000;  272.000
221.989;  -87.200; -328.000; -311.000
222.133;  -77.500; -289.000; -307.000
222.277;  -17.800;    5.000;   78.000
222.422;   43.200;  227.000;  113.000
222.566;  -70.200; -381.000; -214.000
222.711; -137.900; -414.000; -479.000
222.855; -150.400; -643.000; -586.000
222.999; -184.200; -642.000; -717.000
223.144;  -76.600; -195.000; -194.000
223.288;  124.500;  423.000;  251.000
223.432;   56.600;  184.000;  230.000
223.576;   32.700;  152.000;  -21.000
223.721;  112.600;  364.000;  273.000
223.865; -109.400; -472.000; -475.000
224.009;  575.900; 1673.000; 1631.000
224.153; -177.400; -660.000; -671.000
224.298; -118.400; -531.000; -489.000
224.442;  -21.600;  -74.000;  -33.000
224.586;  -34.100; -169.000; -106.000
224.730; -219.300; -858.000; -670.000
224.875; -213.000; -739.000; -688.000
225.019;   27.200;  102.000;  188.000
225.163;  117.400;  208.000;  341.000
225.307;   55.600;   97.000;  -91.000
225.451;  107.500;  360.000;  481.000
225.595;   78.200;  264.000;  176.000
225.739;  -33.600; -170.000;  -94.000
225.884;   33.500;   86.000;    5.000
226.028; -211.900; -760.000; -626.000
226.172;  -79.600; -260.000; -273.000
226.316; -238.400; -941.000; -902.000
226.460; -148.500; -645.000; -493.000
226.604; -134.700; -406.000; -400.000
226.748; -207.700; -836.000; -733.000
226.892;  -73.400; -227.000; -181.000
227.036;  -67.800; -537.000; -447.000
227.180; -129.700; -551.000; -375.000
227.324; -132.400; -561.000; -580.000
227.468; -237.900; -819.000; -717.000
227.612;   29.300;  242.000;  -28.000
227.756; -167.800; -845.000; -698.000
227.900;   96.900;  342.000;  441.000
228.044; -128.500; -509.000; -290.000
228.188;   96.900;  448.000;  568.000
228.332; -167.400; -546.000; -472.000
228.476;  -66.600; -223.000; -149.000
228.620;  -76.000; -210.000; -150.000
228.764;  158.000;  431.000;  349.000
228.908;  -10.500; -155.000;   30.000
229.052; -110.400; -615.000; -528.000
229.195;  -16.800; -172.000;   13.000
229.339;  -60.000; -235.000; -305.000
229.483;  -56.400;    5.000; -162.000
229.627;    4.000; -156.000;  139.000
229.771; -111.200; -218.000; -294.000
229.915;    0.700;  230.000;   79.000
230.059; -171.800; -648.000; -663.000
230.202;  -83.500; -370.000; -317.000
230.346;  -53.700; -107.000;  107.000
230.490; -101.600; -489.000; -521.000
230.634; -219.800; -736.000; -553.000
230.777;  146.600;  478.000;  509.000
230.921; -108.100; -450.000; -359.000
231.065;  -61.000; -246.000; -286.000
231.209;   59.300;  261.000;  265.000
231.352;   62.100;   54.000;   40.000
231.496;   44.200;  568.000;  188.000
231.640; -167.300; -693.000; -621.000
231.783;  134.800;  546.000;  525.000
231.927; -100.200; -294.000; -365.000
232.071; -239.000; -962.000; -736.000
232.214; -228.000; -980.000; -764.000
232.358; -194.900; -683.000; -599.000
232.502;   12.300;  -19.000;    7.000
232.645; -291.500;-1090.000; -927.000
232.789;  -33.800; -257.000; -218.000
232.933;  -63.700; -407.000; -224.000
233.076; -272.700;-1038.000; -897.000
233.220; -207.300; -752.000; -777.000
233.363; -130.700; -669.000; -477.000
233.507;  126.700;  371.000;  129.000
233.650; -215.400; -764.000; -834.000
233.794;   72.800;  438.000;  461.000
233.938; -101.500; -530.000; -362.000
234.081;  -51.000;  -93.000;   31.000
234.225; -157.800; -631.000; -539.000
234.368; -203.600; -773.000; -723.000
234.512;  -80.400; -385.000; -299.000
234.655; -195.300; -582.000; -555.000
234.798; -144.800; -493.000; -466.000
234.942; -283.000; -884.000;-1002.000
235.085; -156.000; -651.000; -443.000
235.229; -170.000; -405.000; -410.000
235.372;  -96.000; -247.000; -191.000
235.516; -127.400; -397.000; -321.000
235.659;   54.100;   92.000;  121.000
235.802;  -53.000;  -38.000;  -22.000
235.946;   81.300;  335.000;  215.000
236.089;   48.100;  126.000;  250.000
236.233;  124.400;  275.000;  298.000
236.376; -104.400; -235.000; -378.000
236.519; -107.800; -297.000; -319.000
236.663;  -26.100; -215.000; -117.000
236.806; -262.300;-1029.000; -999.000
236.949;  136.400;  543.000;  431.000
237.092;  101.200;  412.000;  391.000
237.236; -181.500; -589.000; -502.000
237.379;  159.000;  352.000;  428.000
237.522; -254.600; -879.000; -768.000
237.666;  -24.200; -271.000;   18.000
237.809; -248.000; -851.000; -823.000
237.952;  103.800;  469.000;  271.000
238.095; -131.900; -447.000; -442.000
238.238;  148.100;  688.000;  700.000
238.382;   13.500;  166.000;  103.000
238.525; -133.200; -598.000; -511.000
238.668; -299.500;-1060.000; -985.000
238.811; -143.900; -638.000; -643.000
238.954; -125.300; -483.000; -334.000
239.097;  204.700;  617.000;  664.000
239.241;   44.900;  394.000;  326.000
239.384;  -68.200; -254.000; -214.000
239.527; -129.200; -424.000; -224.000
239.670; -306.700; -994.000;-1091.000
239.813; -217.000; -696.000; -658.000
239.956;  156.300;  579.000;  473.000
240.099; -213.700; -778.000; -725.000
240.242;  113.300;  428.000;  432.000
240.385;  138.300;  466.000;  450.000
240.528; -124.600; -706.000; -473.000
240.671;   39.900;  189.000;  134.000
240.814;  -90.100; -441.000; -158.000
240.957; -191.700; -767.000; -578.000
241.100; -179.800; -779.000; -755.000
241.243; -283.400;-1234.000; -893.000
241.386; -122.500; -508.000; -379.000
241.529; -183.600; -735.000; -547.000
241.672; -137.500; -566.000; -495.000
241.815; -237.500; -832.000; -808.000
241.958;  -69.600; -125.000; -182.000
242.101; -147.200; -545.000; -390.000
242.244;  -82.000; -270.000; -325.000
242.387;  -75.900; -304.000; -246.000
242.530;  158.500;  470.000;  134.000
242.673;  -95.400; -381.000; -309.000
242.815; -209.400; -925.000; -899.000
242.958; -137.900; -482.000; -381.000
243.101;   54.500;  132.000;  187.000
243.244; -164.900; -564.000; -521.000
243.387;  -87.100; -313.000; -316.000
243.530; -195.900; -657.000; -674.000
243.672;   16.100;   43.000;  -92.000
243.815;  -86.700; -355.000; -283.000
243.958;   34.200;   98.000;  -26.000
244.101;   -3.800;   59.000;  -16.000
244.243;  -35.100;  -47.000;  101.000
244.386; -211.200; -761.000; -630.000
244.529;  -33.200; -132.000; -139.000
244.672; -351.100;-1154.000; -951.000
244.814; -233.100; -621.000; -794.000
244.957; -119.900; -380.000; -304.000
245.100; -134.200; -489.000; -489.000
245.242; -122.200; -387.000; -374.000
245.385;   -4.700;  -59.000;  -39.000
245.528; -275.800; -871.000; -705.000
245.670;  212.700;  612.000;  634.000
245.813; -155.700; -599.000; -547.000
245.956;  -57.700; -324.000; -275.000
246.098; -116.700; -508.000; -650.000
246.241;   25.700;  194.000;   48.000
246.383;  -30.800; -119.000;  -73.000
246.526; -170.400; -454.000; -525.000
246.669; -229.500; -889.000; -780.000
246.811;   27.600;  172.000;   -1.000
246.954; -165.300; -512.000; -426.000
247.096;  -49.500;  -84.000;   -6.000
247.239; -121.200; -482.000; -445.000
247.381; -114.000; -647.000; -488.000
247.524;  194.700;  645.000;  679.000
247.666;  -14.800;   58.000;   11.000
247.809; -235.300; -887.000; -691.000
247.951;  -14.500;  -75.000;  138.000
248.094;   73.600;  432.000;  308.000
248.236; -335.300;-1262.000;-1238.000
248.378;  -35.400; -356.000;  -81.000
248.521;  -61.800; -334.000; -337.000
248.663;  -57.700; -236.000; -267.000
248.806;  -41.300; -300.000; -266.000
248.948; -204.100; -886.000; -763.000
249.090;  -88.100; -428.000; -398.000
249.233;  -80.300; -344.000; -381.000
249.375; -129.600; -474.000; -451.000
249.518;  -18.600;  -83.000; -133.000
249.660;   -0.500; -103.000;    3.000
249.802; -363.300;-1303.000;-1189.000
249.945; -158.200; -612.000; -540.000
250.087; -212.200; -834.000; -768.000
250.229;  -91.600; -362.000; -480.000
250.371; -140.500; -494.000; -439.000
250.514;  -94.500; -310.000; -244.000
250.656; -117.900;   69.000;  102.000
250.798; -243.200; -849.000; -800.000
250.940; -186.200; -322.000; -322.000
251.083;  -71.600; -335.000; -111.000
251.225;  154.900;  338.000;  310.000
251.367;  -52.200; -274.000; -373.000
251.509;  -66.600; -265.000; -210.000
251.651; -187.200; -731.000; -671.000
251.794;  130.300;  538.000;  632.000
251.936; -207.100; -821.000; -747.000
252.078; -145.400; -540.000; -461.000
252.220; -147.600; -645.000; -477.000
252.362;  174.100;  344.000;  462.000
252.504; -158.900; -677.000; -584.000
252.646; -226.200; -875.000; -722.000
252.788;   19.000;   14.000; -128.000
252.931;  -74.600; -257.000; -253.000
253.073;  -82.400; -376.000; -317.000
253.215;    0.800;  141.000;  122.000
253.357;  -18.500;   82.000; -153.000
253.499;  -91.000; -374.000; -234.000
253.641; -191.700; -749.000; -594.000
253.783; -194.800; -609.000; -527.000
253.925; -176.500; -586.000; -591.000
254.067; -214.200; -744.000; -667.000
254.209;  -46.300; -391.000; -259.000
254.351; -275.200; -865.000; -883.000
254.493; -107.600; -441.000; -417.000
254.635; -251.300; -936.000; -818.000
254.777; -177.300; -752.000; -687.000
254.918; -129.400; -512.000; -430.000
255.060; -104.700; -551.000; -395.000
255.202; -131.100; -473.000; -261.000
255.344; -152.500; -658.000; -455.000
255.486; -148.900; -471.000; -406.000
255.628; -216.500; -780.000; -781.000
255.770; -186.900; -676.000; -536.000
255.912; -122.700; -559.000; -468.000
256.053; -179.400; -730.000; -508.000
256.195;  323.800; 1008.000;  903.000
256.337; -216.700; -861.000; -595.000
256.479;  146.700;  532.000;  416.000
256.621; -106.500; -394.000; -212.000
256.762; -209.700; -789.000; -742.000
256.904;   96.000;  485.000;  487.000
257.046;  -91.500; -381.000; -271.000
257.188; -112.400; -351.000; -264.000
257.329; -156.100; -525.000; -464.000
257.471; -209.400; -939.000; -807.000
257.613; -117.600; -584.000; -498.000
257.755; -291.300;-1073.000; -982.000
257.896;  119.100;  286.000;  392.000
258.038; -162.900; -403.000; -352.000
258.180;  -99.600; -354.000; -279.000
258.321; -180.700; -581.000; -457.000
258.463;   -7.500;  -71.000;  133.000
258.605; -194.900; -562.000; -570.000
258.746; -214.800; -886.000; -772.000
258.888; -321.100;-1026.000;-1020.000
259.029;   30.200;  121.000;   -8.000
259.171; -164.800; -614.000; -550.000
259.313;  -19.900;  -49.000;  -47.000
259.454; -136.500; -536.000; -414.000
259.596; -114.100; -483.000; -390.000
259.737; -147.000; -590.000; -474.000
259.879;   94.200;  217.000;  311.000
260.020;  233.800;  901.000;  636.000
260.162;  -34.800; -146.000; -253.000
260.303; -233.800; -768.000; -687.000
260.445; -157.300; -609.000; -613.000
260.586;   62.200;  392.000;  157.000
260.728;  -67.200; -360.000; -248.000
260.869; -118.900; -350.000; -343.000
261.011;  192.500;  706.000;  537.000
261.152; -111.800; -479.000; -319.000
261.293; -166.900; -576.000; -595.000
261.435;  -32.700; -219.000; -184.000
261.576;  -87.600; -455.000; -325.000
261.718;   98.600;  420.000;  470.000
261.859; -267.100; -940.000; -949.000
262.000; -280.700; -951.000;-1016.000
262.142;  -41.100;  -52.000;  -60.000
262.283; -235.900; -808.000; -691.000
262.424; -183.200; -666.000; -625.000
262.566; -300.600;-1161.000; -983.000
262.707; -238.700; -840.000; -830.000
262.848; -244.800; -769.000; -726.000
262.990;  -95.700; -362.000; -345.000
263.131;  198.600;  650.000;  681.000
263.272;  -25.400;  -61.000;  -41.000
263.413; -182.500; -589.000; -561.000
263.555; -123.300; -669.000; -143.000
263.696; -156.700; -550.000; -641.000
263.837;  -79.600; -449.000; -551.000
263.978;   23.100;   -5.000;  -77.000
264.119;  -98.900; -283.000; -264.000
264.261; -226.900; -847.000; -630.000
264.402;   15.000;   33.000;   40.000
264.543; -180.100; -509.000; -524.000
264.684;   -8.000;   61.000;  -50.000
264.825; -152.000; -816.000; -538.000
264.966;   23.800;  -84.000;  -67.000
265.107; -242.800; -646.000; -670.000
265.248; -222.500; -825.000; -812.000
265.390;   -3.700;  152.000;   -9.000
265.531;   -5.500; -238.000; -107.000
265.672; -174.800; -557.000; -630.000
265.813;  136.000;  563.000;  439.000
265.954; -290.900; -959.000; -940.000
266.095;   -0.500; -372.000; -322.000
266.236; -193.400; -686.000; -548.000
266.377;  -73.000; -243.000; -297.000
266.518; -121.900; -619.000; -547.000
266.659;   76.300;  170.000;  268.000
266.800;   30.400;   83.000;   85.000
266.941; -145.900; -487.000; -478.000
267.082;   46.700;  354.000;   99.000
267.223;  -90.800; -344.000; -273.000
267.364; -224.000; -892.000; -686.000
267.504;  -15.700;    3.000;  135.000
267.645;   43.500;  160.000;   67.000
267.786;  -49.900; -147.000;  -86.000
267.927; -120.100; -473.000; -379.000
268.068;  -10.100; -186.000;  -61.000
268.209;  -99.900; -175.000; -413.000
268.350;  -95.100; -388.000; -532.000
268.490; -148.200; -648.000; -521.000
268.631;  105.300;  127.000;  225.000
268.772; -210.600; -874.000; -647.000
268.913; -111.100; -328.000; -476.000
269.054;  -16.700; -117.000;   12.000
269.194;  -77.700; -418.000; -402.000
269.335; -320.100;-1137.000;-1074.000
269.476;  -43.300;   33.000;  -35.000
269.617;  -86.700; -347.000; -392.000
269.757; -202.700; -713.000; -646.000
269.898; -225.900; -856.000; -613.000
270.039; -103.000; -415.000; -405.000
270.180; -298.700; -952.000; -816.000
270.320;  -44.600; -190.000; -250.000
270.461;  -56.200; -277.000; -249.000
270.602;  -18.200; -186.000; -156.000
270.742; -253.600; -868.000; -943.000
270.883;  -87.300; -442.000; -390.000
271.023;  -99.300; -358.000; -357.000
271.164; -173.600; -607.000; -528.000
271.305; -198.500; -666.000; -654.000
271.445; -188.800; -722.000; -683.000
271.586; -107.800; -462.000; -283.000
271.726;  -63.400; -397.000; -322.000
271.867; -100.200; -594.000; -534.000
272.008;  313.700; -473.000; -285.000
272.148;  215.900;  462.000;  468.000
272.289;   33.300; -113.000; -181.000
272.429;   49.100;   19.000;  185.000
272.570; -194.600; -633.000; -737.000
272.710; -214.500; -825.000; -775.000
272.851;    1.800;  113.000; -130.000
272.991; -337.300;-1173.000;-1077.000
273.131; -110.900; -419.000; -459.000
273.272; -209.500; -683.000; -723.000
273.412;   37.500; -143.000;  -31.000
273.553; -115.100; -488.000; -507.000
273.693;  276.100;  913.000;  858.000
273.834; -177.500; -894.000; -692.000
273.974; -178.900; -664.000; -615.000
274.114; -201.600; -772.000; -560.000
274.255;  160.600;  414.000;  373.000
274.395;    7.300; -180.000; -125.000
274.535;  119.900;  199.000;  350.000
274.676;   94.300;  225.000;   94.000
274.816;   33.300;  110.000;   34.000
274.956; -180.100; -624.000; -690.000
275.097; -146.300;-1014.000; -922.000
275.237; -204.400; -913.000; -803.000
275.377; -180.500; -778.000; -689.000
275.517; -310.700; -878.000; -937.000
275.658; -117.500; -590.000; -555.000
275.798; -134.700; -606.000; -413.000
275.938;   65.500;  215.000;  323.000
276.078; -152.800; -626.000; -395.000
276.218;   33.600;   99.000;  104.000
276.359; -242.200;-1026.000;-1024.000
276.499; -109.600; -605.000; -446.000
276.639;  -52.100; -305.000; -151.000
276.779;  -88.200; -475.000; -357.000
276.919; -203.100; -783.000; -624.000
277.059;  -54.200; -261.000; -212.000
277.199;  -93.600; -357.000; -259.000
277.340;  106.900;  287.000;  175.000
277.480; -204.700; -840.000; -693.000
277.620;   73.900;  192.000;   16.000
277.760; -398.000;-1533.000;-1294.000
277.900;   94.000;  113.000;   33.000
278.040;   22.300;  137.000;  159.000
278.180;  129.400;  270.000;  170.000
278.320;    9.400;   21.000;   56.000
278.460; -121.200; -443.000; -469.000
278.600; -189.300; -708.000; -598.000
278.740;  130.700;  448.000;  224.000
278.880; -161.500; -768.000; -791.000
279.020;   58.000; -194.000; -144.000
279.160; -165.400; -672.000; -595.000
279.300; -249.300; -926.000; -873.000
279.440; -154.800; -709.000; -622.000
279.579;  -96.800;-1014.000; -929.000
279.719; -106.000; -410.000; -394.000
279.859;  152.000;   -4.000;   41.000
279.999;   68.200; -208.000;  101.000
280.139;  -39.100; -435.000; -387.000
280.279; -142.300; -708.000; -745.000
280.419;  -10.400; -229.000; -147.000
280.559;  -58.200; -259.000; -180.000
280.698; -185.900; -790.000; -639.000
280.838; -184.200; -778.000; -800.000
280.978; -193.100; -846.000; -790.000
281.118; -224.900; -811.000; -704.000
281.257;   36.600;   24.000;    6.000
281.397; -246.700;-1094.000; -960.000
281.537; -167.500; -599.000; -712.000
281.677;  -36.200; -150.000; -101.000
281.816; -167.700; -700.000; -630.000
281.956;  -67.400; -193.000; -257.000
282.096; -128.500; -539.000; -396.000
282.235; -206.800; -672.000; -638.000
282.375;  -38.600; -243.000;  -98.000
282.515; -232.500; -715.000; -707.000
282.654;   76.000;   29.000;  106.000
282.794;   73.600;  388.000;  244.000
282.934; -115.800; -530.000; -491.000
283.073; -267.300;-1030.000; -857.000
283.213; -108.500; -460.000; -467.000
283.353;  -82.800; -408.000; -349.000
283.492;  -50.000; -264.000; -296.000
283.632;  -89.600; -254.000; -168.000
283.771; -197.000; -859.000; -730.000
283.911;  -90.500; -369.000; -260.000
284.050; -217.500; -794.000; -748.000
284.190; -342.900;-1229.000;-1096.000
284.329; -276.000;-1055.000; -964.000
284.469; -106.700; -516.000; -591.000
284.608; -102.800; -559.000; -598.000
284.748; -152.500; -614.000; -570.000
284.887;   46.400;  -87.000;  -20.000
285.027; -244.400; -844.000; -892.000
285.166;  -56.100; -192.000; -249.000
285.306;   59.200; -116.000;  -33.000
285.445;  -75.800; -229.000; -343.000
285.584; -169.900; -630.000; -494.000
285.724;  -68.800; -282.000; -322.000
285.863; -211.100; -857.000; -507.000
286.002;  -70.700; -366.000; -276.000
286.142; -207.000; -715.000; -622.000
286.281; -120.700; -525.000; -493.000
286.420; -120.700; -554.000; -417.000
286.560;  200.900;  653.000;  623.000
286.699; -264.800; -958.000; -912.000
286.838; -146.600; -590.000; -591.000
286.978; -162.200; -533.000; -537.000
287.117; -293.300;-1085.000; -950.000
287.256;  -51.600; -228.000; -211.000
287.395;  -85.900; -197.000; -378.000
287.535; -103.300; -370.000; -298.000
287.674; -149.700; -509.000; -484.000
287.813;  131.400;  661.000;  533.000
287.952; -252.100;-1010.000; -871.000
288.091; -290.900;-1049.000; -915.000
288.231;   47.000;   13.000;   15.000
288.370; -344.700;-1217.000;-1200.000
288.509; -173.800; -728.000; -645.000
288.648; -143.500; -770.000; -548.000
288.787;  -26.400; -243.000;  -87.000
288.926; -127.000; -454.000; -475.000
289.065;  284.000;  859.000;  672.000
289.204; -138.100; -377.000; -217.000
289.344; -181.600; -791.000; -690.000
289.483;   81.700;  416.000;  304.000
289.622;  -14.700; -291.000; -149.000
289.761;   -5.800; -309.000; -166.000
289.900; -240.700; -785.000; -626.000
290.039;   14.200;  -12.000;  -95.000
290.178;  -58.900; -274.000; -180.000
290.317; -153.100; -618.000; -479.000
290.456; -135.100; -463.000; -451.000
290.595; -287.900; -961.000; -833.000
290.734; -261.500; -904.000; -891.000
290.873; -149.200; -456.000; -420.000
291.011; -177.800; -833.000; -843.000
291.150; -215.300; -770.000; -682.000
291.289;  -62.800; -343.000; -110.000
291.428; -174.700; -599.000; -480.000
291.567;  -64.500; -370.000; -442.000
291.706;   -5.200;  109.000;  154.000
291.845; -185.300; -597.000; -505.000
291.984; -325.300;-1234.000;-1061.000
292.122;  187.300;  602.000;  582.000
292.261;  131.400;  620.000;  463.000
292.400;   41.600; -144.000;  211.000
292.539; -256.800; -959.000; -813.000
292.678;  -55.400; -325.000; -300.000
292.816; -309.900;-1136.000; -965.000
292.955; -169.200; -844.000; -684.000
293.094;  -47.400; -173.000; -337.000
293.233; -102.100; -556.000; -400.000
293.371;  -46.100; -225.000;  -84.000
293.510; -210.500; -866.000; -780.000
293.649; -278.900; -959.000; -924.000
293.787; -145.400;-1083.000;-1012.000
293.926;   -6.400; -113.000;  -32.000
294.065;  -71.900; -379.000; -290.000
294.203;  150.500;  298.000;  406.000
294.342;   64.400;   74.000;  156.000
294.481;12327.000;51180.000; -836.000
294.619;  -38.800; -425.000; -582.000
294.758; -267.300;-1230.000;-1137.000
294.896;  116.400; -125.000;    5.000
295.035; -247.700;-1040.000;-1006.000
295.174; -217.700;-1082.000; -954.000
295.312;  -29.200; -323.000; -203.000
295.451;  -35.300; -307.000; -428.000
295.589;  -83.600; -389.000; -518.000
295.728;   51.800; -292.000; -165.000
295.866;   40.200;  -36.000;  -51.000
296.005; -151.200; -584.000; -341.000
296.143; -126.300; -558.000; -596.000
296.282; -155.200; -957.000; -881.000
296.420; -159.200; -657.000; -557.000
296.559; -176.700; -892.000; -633.000
296.697;  -10.500; -847.000; -665.000
296.835;   83.900;-1141.000;-1002.000
296.974;  113.200;  -23.000;   39.000
297.112;    9.200; -443.000; -504.000
297.251; -158.200; -815.000; -755.000
297.389;  133.200; -576.000; -438.000
297.527;   69.200; -145.000;  -83.000
297.666;  -72.500; -486.000; -438.000
297.804; -102.800; -404.000; -264.000
297.942;    2.600; -136.000; -161.000
298.081;    8.400; -183.000;   63.000
298.219;  130.200;  -17.000;  -19.000
298.357;   87.500; -144.000;  -71.000
298.495;   33.400; -810.000; -812.000
298.634;  141.600;  245.000;  219.000
298.772;  122.600; -220.000; -338.000
298.910;  -42.000; -309.000; -182.000
299.048;  -30.200; -130.000; -153.000
299.187;  -88.600; -350.000; -250.000
299.325;   83.400;   52.000;  122.000
299.463;   71.700; -389.000; -299.000
299.601;  151.400; -327.000; -271.000
299.739; -210.800; -908.000; -883.000
299.877; -152.900; -791.000; -703.000
300.016; -140.600;-1095.000; -935.000
300.154;  314.100;  -19.000; -161.000
300.292;   47.200; -428.000; -348.000
300.430;   49.200; -408.000; -291.000
300.568; -195.100; -940.000; -874.000
300.706;  -67.900; -366.000; -469.000
300.844; -191.500;-1108.000; -979.000
300.982;  239.400;  246.000;  282.000
301.120; -207.600; -965.000; -866.000
301.258; -174.200; -812.000; -705.000
301.396;   34.800;  104.000;  -41.000
301.534;  151.400; -218.000; -293.000
301.672;  -28.300; -664.000; -521.000
301.810;   16.700; -613.000; -545.000
301.948;  281.900;   53.000;  149.000
302.086;  973.000; -250.000;  -32.000
302.224; 1657.300; -610.000; -585.000
302.362;   63.000; -558.000; -622.000
302.500;  -61.200; -923.000; -893.000
302.638;  234.000;  128.000;  245.000
302.776;  -14.100; -352.000; -408.000
302.913;  147.400;  447.000;  236.000
303.051;    1.500;  -86.000;  -23.000
303.189;   98.700;   90.000;  118.000
303.327;  -42.800; -341.000; -256.000
303.465; -148.800; -832.000; -588.000
303.603; -188.700; -805.000; -604.000
303.740;  205.300;  417.000;  241.000
303.878;   11.800; -800.000; -759.000
304.016; -139.100; -915.000; -790.000
304.154; -239.200;-1123.000;-1152.000
304.291;  -83.100; -505.000; -554.000
304.429;   34.700;  102.000;   74.000
304.567; -251.600; -908.000; -893.000
304.705;  -97.000; -408.000; -515.000
304.842;  112.300; -616.000; -540.000
304.980;  133.800;  215.000;   35.000
305.118;   90.100; -367.000; -365.000
305.255; -149.100; -945.000; -927.000
305.393;  112.300;  178.000;  239.000
305.531; -202.900;-1173.000; -956.000
305.668; -140.300; -663.000; -582.000
305.806;  179.000; -358.000; -439.000
305.943;  162.600; -629.000; -637.000
306.081;  114.400; -378.000; -267.000
306.219; -180.800; -863.000; -748.000
306.356;    5.100;  158.000;   27.000
306.494;  262.300;  981.000;  761.000
306.631;   22.700;  -11.000;  -55.000
306.769;   39.700; -613.000; -485.000
306.906;  -12.700; -284.000; -258.000
307.044; -104.000; -473.000; -488.000
307.181;  -80.200; -410.000; -332.000
307.319;  128.300;  112.000;   87.000
307.456; -320.300;-1191.000;-1153.000
307.594; -193.600; -980.000; -727.000
307.731;  -22.800; -371.000; -164.000
307.868;   28.600;  -15.000;   20.000
308.006; -250.900; -961.000; -847.000
308.143;  -82.100; -618.000; -330.000
308.281;  472.500;  -37.000; -254.000
308.418;   29.700; -748.000; -640.000
308.555; -114.500; -400.000; -250.000
308.693; -161.200; -577.000; -573.000
308.830; -194.200; -712.000; -657.000
308.967;    9.700; -215.000;  -95.000
309.105;  -89.000; -507.000; -396.000
309.242;  142.600; -468.000; -367.000
309.379;  868.200; -577.000; -655.000
309.517; -103.100; -936.000; -948.000
309.654; -181.000; -910.000; -734.000
309.791; -138.800; -662.000; -580.000
309.928; -215.300; -977.000; -914.000
310.065;  390.900;  819.000;  697.000
310.203;  -42.400; -825.000; -850.000
310.340;  -10.400; -465.000; -321.000
310.477; -142.200; -412.000; -516.000
310.614;  -86.800; -383.000; -473.000
310.751; -155.000; -427.000; -518.000
310.889;   -1.100;    1.000;   11.000
311.026; -282.000;-1161.000; -939.000
311.163;  -50.700; -386.000; -380.000
311.300; -150.800; -512.000; -479.000
311.437; -138.800; -658.000; -619.000
311.574; -305.300;-1226.000; -985.000
311.711; -110.700; -595.000; -433.000
311.848;  -73.000; -380.000; -388.000
311.985;   41.000;  270.000;   93.000
312.122; -239.900; -932.000; -762.000
312.259; -229.800; -941.000; -994.000
312.396; -146.800; -508.000; -551.000
312.533; -188.100; -812.000; -790.000
312.670; -251.100;-1070.000; -898.000
312.807;  -58.000; -352.000; -367.000
312.944; -147.100; -513.000; -611.000
313.081;  -35.700; -150.000; -415.000
313.218; -196.900;-1111.000; -867.000
313.355;   -4.900; -531.000; -449.000
313.492;   47.200; -455.000; -292.000
313.629;  281.400;  815.000;  735.000
313.766; -306.100;-1176.000;-1008.000
313.902;    6.300; -186.000;   21.000
314.039;  -65.100; -372.000; -289.000
314.176;   59.100;  286.000;  192.000
314.313; -148.000; -569.000; -473.000
314.450; -125.000; -788.000; -684.000
314.587;  -91.700; -468.000; -480.000
314.723;   34.900;  -78.000;  130.000
314.860;   91.300;  318.000;  332.000
314.997;  109.700;  223.000;  142.000
315.134;  -85.300; -385.000; -368.000
315.270;  -61.000; -480.000; -496.000
315.407; -241.500;-1094.000; -967.000
315.544; -106.000; -657.000; -538.000
315.681; -111.200; -681.000; -565.000
315.817;   71.400; -133.000; -176.000
315.954;   28.900; -613.000; -392.000
316.091; -261.600;-1045.000;-1023.000
316.227;  -28.000;  -71.000; -179.000
316.364;   21.200;   23.000;    6.000
316.500;  -60.000; -113.000; -300.000
316.637;  -58.100; -181.000; -302.000
316.774; -150.100; -625.000; -358.000
316.910; -157.100; -598.000; -629.000
317.047; -129.000; -487.000; -351.000
317.183;  -85.400; -435.000; -566.000
317.320;   -2.400; -367.000; -321.000
317.456; -110.300; -733.000; -805.000
317.593; -194.500; -598.000; -641.000
317.729;   -0.500;  168.000;  -67.000
317.866; -402.400;-1434.000;-1285.000
318.002; -175.400; -708.000; -948.000
318.139; -175.100; -883.000; -867.000
318.275; -213.300;-1003.000; -738.000
318.412; -112.100; -517.000; -336.000
318.548;  -54.300; -751.000; -720.000
318.685; -152.500; -985.000; -888.000
318.821; -165.100; -762.000; -735.000
318.957;  -19.400;   34.000;  -23.000
319.094;  102.800;  297.000;  154.000
319.230; -134.300; -756.000; -742.000
319.367;  189.500; -471.000; -520.000
319.503;   51.700; -538.000; -436.000
319.639; -179.100; -877.000; -793.000
319.775; -103.200; -750.000; -685.000
319.912;  -76.100; -424.000; -519.000
320.048; -175.800;-1184.000;-1184.000
320.184;  160.500;   59.000;   70.000
320.321;  -74.800; -497.000; -467.000
320.457;  165.100;  475.000;  662.000
320.593; -111.600; -375.000; -382.000
320.729; -177.300; -732.000; -734.000
320.866; -149.000; -577.000; -635.000
321.002; -149.300; -759.000; -809.000
321.138;  -16.100; -135.000; -211.000
321.274;  158.700; -148.000; -115.000
321.410;  -68.000; -585.000; -353.000
321.546;  -81.800;-1011.000; -911.000
321.683;  140.100;  400.000;  185.000
321.819;   62.000;  -48.000; -117.000
321.955; -239.200; -743.000; -722.000
322.091;  -69.100; -585.000; -540.000
322.227;  -33.100; -382.000; -202.000
322.363;   -8.500; -320.000; -215.000
322.499;  -53.200; -343.000; -331.000
322.635;  341.400;  636.000;  443.000
322.771;   87.600; -139.000;   12.000
322.907;  221.000;  129.000;  327.000
323.043;  -35.600; -115.000; -206.000
323.179;  -43.700; -394.000; -363.000
323.315;   21.600; -401.000; -371.000
323.451;  160.300; -328.000; -236.000
323.587;  101.400;  -60.000;  -77.000
323.723;   13.500; -682.000; -601.000
323.859;  -27.400; -258.000;  -76.000
323.995;  -42.500; -467.000; -409.000
324.131; -227.500; -967.000; -892.000
324.267;  -55.100; -254.000; -276.000
324.402; -234.600; -960.000; -983.000
324.538;    8.700; -279.000; -104.000
324.674;   33.300;  164.000;   77.000
324.810;  266.000;  226.000;  308.000
324.946;   -9.700; -810.000; -658.000
325.082; -149.400; -568.000; -475.000
325.217;   17.200;  -62.000;   16.000
325.353; -188.100; -764.000; -659.000
325.489; -165.800; -540.000; -506.000
325.625; -130.300; -579.000; -525.000
325.760;  148.800;  517.000;  376.000
325.896;  -20.400; -515.000; -702.000
326.032;  -48.100; -403.000; -352.000
326.168; -123.700; -462.000; -369.000
326.303; -116.900; -352.000; -461.000
326.439;  -15.300; -336.000; -276.000
326.575;    7.200; -190.000;  -29.000
326.710;   29.700; -156.000;  -30.000
326.846;  -16.000;  146.000;  103.000
326.982; -165.100; -530.000; -548.000
327.117; -126.100; -481.000; -442.000
327.253; -148.100; -745.000; -742.000
327.388; -280.000;-1137.000;-1153.000
327.524;  -78.800; -811.000; -578.000
327.659;  -45.100;  -58.000;  -22.000
327.795;    7.600;   69.000;   45.000
327.931; -158.500; -723.000; -499.000
328.066;  -14.100; -417.000; -276.000
328.202;    7.900;   12.000; -129.000
328.337;  224.600;  957.000;  713.000
328.473;    5.300;  -12.000;  -74.000
328.608;   -1.700; -256.000; -267.000
328.743; -154.600; -799.000; -664.000
328.879;   69.200;  214.000;  114.000
329.014; -123.700; -102.000; -122.000
329.150; -141.100; -358.000; -483.000
329.285; -124.800; -465.000; -466.000
329.421;  -71.800; -548.000; -246.000
329.556;  -10.000;  -36.000;   85.000
329.691; -157.000; -633.000; -615.000
329.827; -146.800; -626.000; -480.000
329.962;  -51.500;  131.000; -301.000
330.097; -172.500; -673.000; -585.000
330.233;  -81.700; -410.000; -223.000
330.368; -220.800; -839.000; -628.000
330.503;   18.500;    3.000;   98.000
330.638;   29.300;  -93.000; -125.000
330.774; -115.400; -609.000; -530.000
330.909;  -39.400; -434.000; -244.000
331.044; -164.200; -714.000; -708.000
331.179; -320.000;-1217.000;-1109.000
331.315;   33.700;   77.000;   20.000
331.450;   46.700;  157.000;  285.000
331.585; -177.800; -805.000; -706.000
331.720; -119.100; -510.000; -460.000
331.855;  -12.500;  -35.000; -102.000
331.990;  510.900;   62.000;  138.000
332.126;  318.500; -110.000;   71.000
332.261;   13.700; -379.000; -265.000
332.396;   47.900; -135.000; -242.000
332.531; -163.400;-1074.000;-1031.000
332.666;   88.200; -519.000; -363.000
332.801; -188.100; -726.000; -807.000
332.936;   -9.900; -192.000; -122.000
333.071; -277.000; -870.000; -817.000
333.206;   81.700;  307.000;  379.000
333.341;   79.600;  344.000;  418.000
333.476; -129.800; -627.000; -623.000
333.611;  -62.500; -251.000; -173.000
333.746;  -49.200; -381.000; -464.000
333.881; -194.600; -973.000; -935.000
334.016; -252.100; -936.000; -917.000
334.151; -220.700; -746.000; -702.000
334.286;   71.100;  152.000;  186.000
334.421;   17.400; -125.000; -178.000
334.556; -106.200; -611.000; -567.000
334.690; -163.100; -631.000; -577.000
334.825;  156.200;  381.000;   83.000
334.960;  -98.600; -285.000; -413.000
335.095;   33.800;  135.000;  -91.000
335.230; -165.100; -722.000; -738.000
335.365; -266.400;-1084.000; -990.000
335.499; -275.200;-1108.000;-1037.000
335.634;   67.900;    9.000;  534.000
335.769; -190.300; -755.000; -720.000
335.904; -103.900; -603.000; -561.000
336.038; -108.900; -735.000; -657.000
336.173; -246.600;-1206.000;-1194.000
336.308;   21.600; -116.000; -189.000
336.443;   32.000; -544.000; -634.000
336.577; -151.900; -936.000; -787.000
336.712;  122.800;   -4.000;  -12.000
336.847;  -85.700; -724.000; -607.000
336.981;  102.800; -272.000; -208.000
337.116;  544.200;  615.000;  501.000
337.250;  260.900; -434.000; -421.000
337.385;  529.000; -297.000; -208.000
337.520;  215.900; -632.000; -603.000
337.654;  -68.900; -215.000; -126.000
337.789; -201.600; -989.000; -933.000
337.923;  -73.300; -104.000; -205.000
338.058; -163.900; -673.000; -738.000
338.192;  -61.600; -611.000; -488.000
338.327;   17.400;  -18.000; -155.000
338.461;  -83.500; -299.000; -469.000
338.596; -129.600; -780.000; -638.000
338.730; -170.200; -767.000; -803.000
338.865;  255.700;  -46.000; -140.000
338.999;  -82.500; -846.000; -702.000
339.134;  -46.700; -634.000; -536.000
339.268;   38.200; -741.000; -603.000
339.403;  727.900; -740.000; -775.000
339.537;  243.400; -894.000; -820.000
339.671; -192.800; -829.000; -813.000
339.806;  -85.400; -556.000; -512.000
339.940;   52.100; -261.000; -235.000
340.074; -170.100; -685.000; -510.000
340.209;  -76.000; -351.000; -230.000
340.343; -119.300; -517.000; -573.000
340.477;  366.100;  998.000; 1036.000
340.612;  -98.700;-1033.000; -900.000
340.746;  288.800; -199.000; -243.000
340.880; -130.700; -924.000; -785.000
341.014;   -0.600;  -45.000; -154.000
341.149; -231.500; -756.000; -718.000
341.283; -194.500; -839.000; -754.000
341.417; -204.100;-1124.000; -938.000
341.551;  213.800; -768.000; -708.000
341.685;  -59.100; -633.000; -611.000
341.820;  -62.800; -562.000; -493.000
341.954;  -86.600; -218.000; -349.000
342.088; -281.100;-1102.000;-1019.000
342.222;  136.800;  565.000;  618.000
342.356;  -99.600; -395.000; -335.000
342.490; -195.200; -880.000; -841.000
342.624;  -45.000; -339.000; -242.000
342.758;  -22.200; -364.000; -312.000
342.892; -129.300; -710.000; -585.000
343.026;  -42.800;  -58.000; -116.000
343.160;  -83.200; -426.000; -376.000
343.294; -115.500; -474.000; -337.000
343.428;  -37.800; -488.000; -448.000
343.562;   -1.600; -172.000;  -23.000
343.696;  -71.900; -385.000; -314.000
343.830;  -17.300; -362.000; -356.000
343.964;   52.100; -231.000; -168.000
344.098; 1537.600;  199.000;   70.000
344.232; 1312.000; -266.000; -127.000
344.366;  176.600; -567.000; -453.000
344.500;   93.300; -665.000; -744.000
344.634;   52.900; -324.000; -164.000
344.768;  -34.100; -531.000; -341.000
344.902;   88.300;  278.000;  256.000
345.035; -132.000; -556.000; -496.000
345.169; -236.100; -933.000; -656.000
345.303;  -35.200; -308.000; -482.000
345.437; -159.200; -826.000; -717.000
345.571; -121.600; -675.000; -594.000
345.704; -113.700; -309.000; -532.000
345.838;   -5.300; -331.000; -284.000
345.972;  -35.900; -543.000; -495.000
346.106;  402.000; -179.000; -190.000
346.239;  808.300; -312.000; -243.000
346.373;   20.400; -343.000; -302.000
346.507; -242.500; -950.000; -962.000
346.640;  256.600;  -30.000;   13.000
346.774;  -90.400; -650.000; -797.000
346.908;   22.900; -138.000;  -11.000
347.041; -141.400; -646.000; -593.000
347.175;   53.300;  259.000;   27.000
347.309; -141.000; -698.000; -628.000
347.442; -159.100; -883.000; -732.000
347.576;  528.200;  670.000;  668.000
347.709;  348.900; -123.000;  -52.000
347.843; -197.900; -933.000; -825.000
347.976;  115.900;  235.000;  294.000
348.110; -358.300;-1268.000;-1186.000
348.243; -200.700; -679.000; -772.000
348.377;   47.500;  -26.000;   60.000
348.510;  174.100;  403.000;  540.000
348.644;  -41.200;  -37.000; -159.000
348.777;   69.500;  180.000;  191.000
348.911;  -48.600; -142.000; -112.000
349.044;  359.300;  471.000;  448.000
349.178;  216.500;-1069.000;-1006.000
349.311;  255.900;  141.000;  255.000
349.444;   -4.200; -927.000; -813.000
349.578;  -15.500; -347.000; -200.000
349.711; -188.300; -959.000; -862.000
349.845;  -19.800; -661.000; -591.000
349.978; -295.500;-1224.000;-1137.000
350.111; -148.300; -546.000; -612.000
350.244; -124.000; -596.000; -700.000
350.378;   29.300; -392.000; -393.000
350.511;  -82.400; -393.000; -426.000
350.644; -169.500; -808.000; -806.000
350.778;   49.100;  168.000;  104.000
350.911;   36.500;  134.000;  140.000
351.044; -166.300; -685.000; -615.000
351.177;  -46.000; -321.000; -281.000
351.310;  -37.900;    3.000; -131.000
351.444; -167.200; -888.000; -788.000
351.577;  262.200;  140.000;   90.000
351.710;  240.800;  593.000;  417.000
351.843;   -9.400; -165.000;  -77.000
351.976;   20.900;  149.000;  -79.000
352.109; -164.900; -621.000; -612.000
352.242;  -43.700; -464.000; -419.000
352.376; -117.600; -580.000; -636.000
352.509;  264.200; -437.000; -356.000
352.642;  -39.300; -654.000; -604.000
352.775;  141.800; -141.000;  -98.000
352.908; -234.500; -933.000; -904.000
353.041; -178.000; -814.000; -824.000
353.174;  -70.500; -551.000; -424.000
353.307; -124.200; -753.000; -764.000
353.440;  194.200;  541.000;  453.000
353.573; -210.100; -957.000;-1008.000
353.706; -130.900; -384.000; -558.000
353.839;  -14.500; -264.000; -220.000
353.971; -164.700; -657.000; -512.000
354.104; -165.700; -896.000; -835.000
354.237;  -86.300; -627.000; -662.000
354.370; -149.100; -846.000; -879.000
354.503; -366.100;-1231.000;-1308.000
354.636;  -28.900; -529.000; -348.000
354.769; -260.100; -937.000; -860.000
354.902;   -5.300; -230.000; -139.000
355.034;   -4.800; -164.000; -220.000
355.167;   30.300; -262.000; -162.000
355.300; -192.400;-1061.000; -880.000
355.433; 1930.900;  -71.000;  -14.000
355.565; 3046.700; -402.000; -384.000
355.698;  744.000; -356.000; -296.000
355.831;  -11.200; -882.000; -801.000
355.964;  159.500; -285.000; -170.000
356.096; -134.800; -856.000; -843.000
356.229;    7.500; -523.000; -530.000
356.362;  629.500; -373.000; -266.000
356.494; 1221.000; -229.000; -162.000
356.627;  889.000;  269.000;  377.000
356.760; 1336.500;  120.000;   53.000
356.892; 1928.500; -286.000; -601.000
357.025; 1201.400;  403.000;  389.000
357.157; 1016.500; -167.000; -179.000
357.290; 1395.800; -856.000; -713.000
357.423;  426.900; -667.000; -556.000
357.555;  207.400; -217.000; -228.000
357.688;  215.500; -483.000; -364.000
357.820;  719.400; -870.000; -877.000
357.953; 6350.600; -563.000; -589.000
358.085; 1333.400; -632.000; -612.000
358.218; 1762.800;-1131.000; -932.000
358.350;  393.500;  -58.000;  312.000
358.483; -255.700;-1300.000;-1187.000
358.615;  -80.600;-1182.000;-1078.000
358.747; -151.000;-1187.000;-1058.000
358.880;   17.600; -810.000; -744.000
359.012;    7.500; -376.000; -202.000
359.145;  -41.100; -480.000; -511.000
359.277;   75.100; -962.000; -913.000
359.409; 5265.400;  536.000;  231.000
359.542; 1292.000; -738.000; -688.000
359.674;  181.200;   46.000;   13.000
359.806;  -72.600; -565.000; -438.000
359.939;  -42.400; -617.000; -516.000
360.071;   51.100; -583.000; -579.000
360.203;    5.900; -411.000; -364.000
360.335;  154.200;  164.000;  -16.000
360.468;  327.700; -249.000; -307.000
360.600; 4248.200; -547.000; -454.000
360.732; 5731.700; -546.000; -423.000
360.864;  727.500;-1216.000;-1044.000
360.996;  470.900; -516.000; -554.000
361.129;   70.500; -389.000; -598.000
361.261;   57.300;  110.000; -113.000
361.393;  -20.800; -252.000; -214.000
361.525;   99.200;   94.000;  244.000
361.657;  -82.800; -821.000; -703.000
361.789;   75.500; -139.000; -155.000
361.921;  384.000; -642.000; -593.000
362.053;  475.900;  524.000;  541.000
362.185;  117.000;  288.000;   72.000
362.318; -143.300; -709.000; -705.000
362.450;  231.800;  294.000;  444.000
362.582;  100.300; -913.000; -870.000
362.714;  -61.500; -353.000; -332.000
362.846; -144.800; -606.000; -490.000
362.978; -226.000; -941.000; -811.000
363.109;  114.100; -161.000; -260.000
363.241;  758.100; -739.000; -749.000
363.373;  859.400; -649.000; -564.000
363.505; 1425.800; -186.000;  -91.000
363.637;  324.100; -787.000; -601.000
363.769; -228.700;-1067.000;-1080.000
363.901; -129.300; -596.000; -654.000
364.033; -242.900;-1103.000;-1062.000
364.165;   15.800; -283.000; -283.000
364.296;  208.000; -316.000; -177.000
364.428;  170.500;-1344.000;-1220.000
364.560; -115.200; -679.000; -661.000
364.692; -120.500; -738.000; -835.000
364.824;  428.100; -588.000; -456.000
364.955;  876.300; -402.000; -564.000
365.087; 1964.400;-1097.000; -852.000
365.219;   97.300; -686.000; -816.000
365.351; -138.200; -526.000; -572.000
365.482;  161.500;  300.000;  240.000
365.614;  -80.500; -402.000; -314.000
365.746; -170.600; -729.000; -752.000
365.877; -168.000; -706.000; -672.000
366.009;  579.000;  -35.000;  -62.000
366.141; -157.800;-1249.000;-1134.000
366.272; -191.200; -803.000; -719.000
366.404; -173.800;-1005.000; -874.000
366.535;   16.000; -139.000;  -12.000
366.667; -146.000; -644.000; -649.000
366.799;  114.300;  353.000;  203.000
366.930; -217.500; -862.000; -996.000
367.062;  255.900; -639.000; -613.000
367.193;  340.000; -872.000; -842.000
367.325;  -79.600; -580.000; -684.000
367.456;   78.500; -246.000;   31.000
367.588;  362.300; -371.000; -318.000
367.719;   83.300;  -44.000;  -45.000
367.851;   19.700; -222.000; -241.000
367.982; -124.200; -875.000; -732.000
368.113;  179.400; -475.000; -358.000
368.245; -211.800; -960.000; -841.000
368.376;   -4.300; -254.000; -302.000
368.508;  -30.500; -188.000; -263.000
368.639; -266.000;-1166.000;-1034.000
368.770;  -77.000; -670.000; -589.000
368.902;  -91.900; -836.000; -926.000
369.033; -185.500; -906.000; -855.000
369.164;  -55.800; -720.000; -653.000
369.296; -198.500; -452.000; -601.000
369.427;   16.800; -209.000; -144.000
369.558;  -79.900; -593.000; -377.000
369.689; -132.100; -721.000; -569.000
369.821; -232.000; -951.000; -845.000
369.952;   29.500;   42.000; -108.000
370.083;  -41.000; -229.000; -108.000
370.214; -140.500; -735.000; -650.000
370.345;   30.500;   65.000;   81.000
370.477; -172.500; -810.000; -790.000
370.608;  390.200; -328.000; -264.000
370.739; -115.200;-1233.000;-1292.000
370.870;  -73.400;-1102.000; -923.000
371.001;  189.100; -378.000; -467.000
371.132; -155.000; -754.000; -735.000
371.263;   -3.700;  -42.000; -148.000
371.394; -243.600; -841.000; -748.000
371.525;   88.000;  345.000;  225.000
371.657; -151.600; -808.000; -670.000
371.788;  183.200;  103.000;  199.000
371.919;  298.800; -384.000; -304.000
372.050; 6227.400;  -91.000; -156.000
372.181; 1754.100; -188.000; -294.000
372.311;  625.500;   42.000; -127.000
372.442;   54.200; -457.000; -451.000
372.573;   -2.600; -444.000; -340.000
372.704; -218.100;-1008.000; -980.000
372.835;  159.200; -228.000; -289.000
372.966;  -86.200; -646.000; -554.000
373.097; -101.900; -575.000; -711.000
373.228;  -90.300; -717.000; -542.000
373.359;  212.500; -824.000; -536.000
373.490; 1509.800; -881.000; -727.000
373.620; 1859.700;-1001.000; -803.000
373.751; 3009.600; -332.000; -396.000
373.882; 1251.300; -663.000; -733.000
374.013;   93.500; -449.000; -262.000
374.143;  -53.500; -581.000; -659.000
374.274; -221.400; -987.000; -908.000
374.405;  327.600; -388.000; -276.000
374.536;  765.600; -526.000; -387.000
374.666; 1788.800; -759.000; -807.000
374.797;  358.100; -817.000; -868.000
374.928; 1393.800; -710.000; -560.000
375.058; 1451.400; -535.000; -500.000
375.189;  145.700;  -59.000;  -93.000
375.320; -192.300; -928.000;-1034.000
375.450;  -58.700; -625.000; -616.000
375.581;  -95.300; -526.000; -436.000
375.712;  -13.000; -574.000; -250.000
375.842;  538.900; -438.000; -415.000
375.973;  328.600; -554.000; -513.000
376.103; -113.200; -665.000; -648.000
376.234; -144.100; -531.000; -552.000
376.364;  -95.400; -944.000; -867.000
376.495;  618.000;  925.000;  529.000
376.625;   -2.000; -472.000; -485.000
376.756;  110.900; -709.000; -678.000
376.886; -163.300;-1178.000;-1026.000
377.017;  117.100;-1048.000;-1061.000
377.147;  759.200; -786.000; -782.000
377.278;  180.500;  174.000;  228.000
377.408; -237.400; -801.000; -815.000
377.538; -145.000; -707.000; -693.000
377.669; -151.400; -537.000; -613.000
377.799; -140.800; -645.000; -635.000
377.929; -110.700; -610.000; -428.000
378.060; -223.600; -781.000; -847.000
378.190; -111.400; -726.000; -531.000
378.320;  -46.100; -401.000; -406.000
378.451;    7.900; -131.000;  -22.000
378.581;   25.100;  -67.000; -110.000
378.711;  342.900; 1035.000;  866.000
378.841;   -4.700; -533.000; -675.000
378.972; -155.100; -871.000; -751.000
379.102;    5.000; -652.000; -579.000
379.232;  -22.900; -126.000;  -73.000
379.362; -204.200;-1001.000; -885.000
379.492;   21.400; -373.000; -424.000
379.623;  225.900;    0.000;  111.000
379.753; -154.400;-1107.000; -974.000
379.883;  395.700;   59.000;  156.000
380.013;  -20.600;-1081.000;-1017.000
380.143; -208.400;-1097.000;-1056.000
380.273; -183.600; -985.000; -861.000
380.403;   28.400; -344.000; -257.000
380.533;  -63.000; -651.000; -664.000
380.663;  163.600;  173.000;  128.000
380.793; -211.400;-1027.000;-1074.000
380.923;   -0.400; -103.000;  -34.000
381.053; -136.500; -613.000; -623.000
381.183;   -9.600; -106.000; -248.000
381.313;   45.000; -656.000; -470.000
381.443;   81.900; -692.000; -473.000
381.573;  333.500; -402.000; -409.000
381.703;  398.000;-1249.000;-1095.000
381.833; -268.700;-1454.000;-1336.000
381.963;  187.500; -134.000;  -87.000
382.093; 2447.900; -925.000; -909.000
382.223;  695.900; -713.000; -602.000
382.353;  -30.500; -801.000; -608.000
382.482;  614.000;-1091.000; -964.000
382.612; 1295.100; -872.000; -644.000
382.742;  693.900; -695.000; -622.000
382.872;  411.800; -565.000; -551.000
383.002;  179.000;  347.000; -132.000
383.131;   -6.800; -226.000; -160.000
383.261;  -91.200; -706.000; -768.000
383.391;  620.900; -552.000; -377.000
383.521; 6623.600;  451.000;  263.000
383.650; 1464.700; -947.000; -904.000
383.780;   14.000; -783.000; -656.000
383.910;  272.600;  880.000;  802.000
384.039;   44.600; -794.000; -656.000
384.169;  296.900;-1205.000;-1017.000
384.299;  -56.600; -650.000; -662.000
384.428; -154.800; -764.000; -680.000
384.558;  -60.000; -308.000; -275.000
384.687;  -50.500; -414.000; -334.000
384.817;  106.600;   75.000;   -2.000
384.947;   15.400; -234.000; -141.000
385.076;  593.800;  982.000;  912.000
385.206;  233.300;  369.000;  480.000
385.335;  -74.300; -549.000; -417.000
385.465; -158.500; -655.000; -663.000
385.594;  293.000;  -53.000;  -44.000
385.724;  628.700; -868.000; -838.000
385.853;  190.700; -296.000; -270.000
385.982; 2353.400; -743.000; -787.000
386.112; 3515.000;-1052.000; -871.000
386.241;  214.400; -307.000; -312.000
386.371;   44.000; -174.000;  -87.000
386.500;   -3.000; -825.000; -789.000
386.629;   55.700; -874.000; -817.000
386.759;  169.500;  -43.000;   68.000
386.888;   35.300; -170.000; -250.000
387.017; -122.600; -648.000; -620.000
387.147; -184.400; -771.000; -798.000
387.276;    6.500; -410.000; -397.000
387.405;   79.700; -398.000; -342.000
387.535;  -55.800; -452.000; -361.000
387.664; -103.200; -692.000; -620.000
387.793;  136.900; -198.000; -113.000
387.922;  870.300;  255.000;  200.000
388.052;   49.800; -576.000; -423.000
388.181;    1.500; -342.000; -472.000
388.310;  -23.400; -889.000; -710.000
388.439;  -86.500; -749.000; -742.000
388.568;  363.100;  365.000;  244.000
388.697; 1757.200; -756.000; -653.000
388.826;  288.700; -768.000; -666.000
388.956;  118.500; -285.000; -307.000
389.085;  -24.600; -347.000; -287.000
389.214; -184.400; -842.000; -872.000
389.343;  -98.300; -645.000; -413.000
389.472;  914.100;  126.000;  149.000
389.601; 1017.000;   91.000;    0.000
389.730;   10.300; -568.000; -687.000
389.859;  150.400;  226.000;   46.000
389.988;  367.100; -423.000; -408.000
390.117;  250.500; -168.000; -146.000
390.246;   -1.500; -331.000; -320.000
390.375;  165.700; -673.000; -626.000
390.504;  -86.700; -703.000; -621.000
390.633; -192.900; -672.000; -726.000
390.761; -106.100; -732.000; -645.000
390.890;   44.900;   -4.000; -130.000
391.019;  -38.600; -421.000; -441.000
391.148; -252.200; -826.000; -855.000
391.277;  -81.700; -576.000; -493.000
391.406; -140.500; -821.000; -805.000
391.534;   64.200;  574.000; -301.000
391.663;  -74.500; -583.000; -645.000
391.792; -128.200; -673.000; -701.000
391.921;  206.100;   -3.000;   15.000
392.050;  308.500; -287.000; -228.000
392.178; -118.300;-1206.000;-1061.000
392.307;  244.100; -758.000; -712.000
392.436;   96.300; -427.000; -641.000
392.564;  102.600;  166.000;   -6.000
392.693; -168.000; -860.000; -682.000
392.822;  363.100; -529.000; -534.000
392.950;  129.500; -880.000; -714.000
393.079;  534.900; -188.000; -328.000
393.208;   66.100; -488.000; -511.000
393.336;   24.000; -170.000; -145.000
393.465;  -70.900; -317.000; -199.000
393.593;   61.800;   62.000;   79.000
393.722; -268.300;-1121.000; -916.000
393.850;    8.100; -188.000;  -61.000
393.979; -262.600; -926.000; -805.000
394.107;  -80.000; -517.000; -537.000
394.236;   -3.800; -570.000; -507.000
394.364;  539.000;  383.000;  206.000
394.493;  879.900; -911.000; -767.000
394.621;   34.500; -955.000; -916.000
394.750; 1612.200; -873.000; -923.000
394.878; 6321.600; -247.000; -149.000
395.007; 7923.000; -721.000; -807.000
395.135;  585.400; -790.000; -721.000
395.263; -173.300;-1038.000;-1040.000
395.392;   37.700;  -25.000; -107.000
395.520; -253.200; -818.000; -679.000
395.648; -184.400; -865.000; -915.000
395.777;   -0.200; -366.000; -405.000
395.905;  -74.700; -449.000; -564.000
396.033;  118.500;  217.000;  172.000
396.162; 1499.300; -399.000; -453.000
396.290; 1191.300;  -17.000;   -2.000
396.418;  180.300; -555.000; -514.000
396.546; -141.200; -571.000; -466.000
396.674; -167.000; -850.000; -878.000
396.803;   58.500;  -72.000;  -23.000
396.931;  209.500; -179.000; -199.000
397.059;   25.400;-1026.000; -989.000
397.187; -200.200;-1026.000; -975.000
397.315; -221.000; -884.000; -649.000
397.443; -151.100; -592.000; -443.000
397.572; -147.100; -578.000; -424.000
397.700;  -12.700; -607.000; -614.000
397.828;   25.200;  120.000;  -90.000
397.956;  -63.800; -508.000; -478.000
398.084; -106.800; -767.000; -626.000
398.212;  116.300;  137.000;  124.000
398.340;   61.500;  -56.000;  159.000
398.468;   39.900; -390.000; -169.000
398.596; -256.200; -993.000; -953.000
398.724; -227.100; -762.000; -767.000
398.852; -288.400;-1024.000; -976.000
398.980;  -64.300; -560.000; -560.000
399.108;  -58.700; -982.000; -735.000
399.236;  112.400;   13.000;    8.000
399.363;   42.800;  222.000;  196.000
399.491;  -85.700; -404.000; -398.000
399.619; -246.100; -829.000; -800.000
399.747; -180.300; -859.000; -771.000
399.875;  209.700;  220.000;  234.000
400.003;  -82.500; -359.000; -284.000
400.130; -159.800; -421.000; -341.000
400.258;   15.300;  -83.000;   38.000
400.386; -116.800; -352.000; -168.000
400.514;  -52.900; -526.000; -587.000
400.641; -196.800; -928.000; -802.000
400.769; -271.900; -979.000; -888.000
400.897; -198.600; -838.000; -793.000
401.025;   15.300; -166.000; -152.000
401.152;   52.200;  220.000;   38.000
401.280; -121.500; -430.000; -429.000
401.408; -200.000; -712.000; -576.000
401.535; -154.400; -735.000; -758.000
401.663; -341.600;-1134.000;-1054.000
401.790; -132.500; -514.000; -525.000
401.918;  137.500;  436.000;  405.000
402.046;   36.800;  134.000;  122.000
402.173;  -25.400;  -18.000;    7.000
402.301;  -99.000; -519.000; -397.000
402.428;  126.000;  528.000;  383.000
402.556; -277.700;-1188.000; -913.000
402.683;  -16.300;  -20.000;   -1.000
402.811;   20.600;  -37.000; -206.000
402.938;   35.600;   20.000;   27.000
403.066;  341.200; -574.000; -558.000
403.193;  561.000;  299.000;  239.000
403.321;  457.700; -396.000; -574.000
403.448;  553.800;   83.000;   27.000
403.575;  245.300;  -90.000;  -46.000
403.703; -174.400; -732.000; -557.000
403.830;  -85.100; -531.000; -496.000
403.957; -246.800;-1117.000;-1023.000
404.085;   55.900;  -61.000; -172.000
404.212;  258.200;  -50.000;   63.000
404.339;  638.000; -566.000; -306.000
404.467;12484.200; -612.000; -524.000
404.594; 7291.700; -287.000; -227.000
404.721; 1529.000; -869.000; -764.000
404.848;  181.600; -113.000; -202.000
404.976; -183.000; -856.000; -783.000
405.103;   44.100;  -14.000;  -82.000
405.230;   46.900;  190.000;  226.000
405.357;  135.700;  117.000;   44.000
405.484;  668.600;  -49.000;    5.000
405.612;   81.800; -548.000; -563.000
405.739;  -57.400; -488.000; -243.000
405.866;  244.900;  669.000;  385.000
405.993;  -51.500; -398.000; -102.000
406.120; -221.500; -801.000; -887.000
406.247;  -69.900; -323.000; -342.000
406.374;  840.700;  540.000;  629.000
406.501;  107.000; -632.000; -702.000
406.628;  -97.900; -621.000; -589.000
406.755; -185.400; -803.000; -620.000
406.882;  -61.500; -228.000; -277.000
407.009; -160.800; -719.000; -628.000
407.136;  115.400; -480.000; -401.000
407.263;  163.000; -939.000; -829.000
407.390; -143.900; -692.000; -614.000
407.517; -312.900;-1139.000;-1187.000
407.644;  -60.600; -332.000; -256.000
407.771;  -86.000; -249.000; -287.000
407.898;   72.100;  168.000;  328.000
408.025; -137.600; -421.000; -313.000
408.151;   64.500;   82.000;  153.000
408.278;  -98.600; -267.000; -216.000
408.405; -186.100; -931.000; -899.000
408.532; -112.200; -549.000; -542.000
408.659; -177.100; -677.000; -648.000
408.785; -376.600;-1298.000;-1170.000
408.912;  -85.900; -412.000; -296.000
409.039; -182.700; -610.000; -686.000
409.166; -158.200; -591.000; -555.000
409.292; -149.000; -571.000; -534.000
409.419; -184.000; -665.000; -649.000
409.546; -138.000; -431.000; -192.000
409.672; -163.900; -713.000; -545.000
409.799;    1.200;  -36.000;   34.000
409.926;  -13.600; -180.000; -179.000
410.052; -309.000;-1127.000;-1091.000
410.179;  -94.500; -368.000; -392.000
410.305; -134.400; -375.000; -493.000
410.432;  -47.000; -220.000; -333.000
410.558; -119.200; -305.000; -380.000
410.685; -159.800; -688.000; -431.000
410.812; -172.900; -409.000; -588.000
410.938; -251.100; -964.000; -808.000
411.065; -146.800; -671.000; -645.000
411.191;   12.500; -189.000; -174.000
411.317; -187.400; -823.000; -742.000
411.444;  -75.300; -317.000; -246.000
411.570; -108.600; -339.000; -294.000
411.697; -192.300; -758.000; -752.000
411.823; -289.700; -989.000; -999.000
411.949;  -34.800;  -56.000;   17.000
412.076; -162.800; -539.000; -519.000
412.202; -191.300; -758.000; -757.000
412.329; -261.500; -798.000; -752.000
412.455; -174.100; -821.000; -657.000
412.581;   20.900;  -15.000;  172.000
412.707; -106.800; -540.000; -457.000
412.834;   80.600;  156.000;  219.000
412.960; -169.900; -785.000; -784.000
413.086; -172.700; -743.000; -701.000
413.212;  352.200;  604.000;  578.000
413.339; -129.400; -685.000; -701.000
413.465;   22.600; -364.000; -310.000
413.591; -153.200; -757.000; -474.000
413.717;  -79.700; -358.000; -366.000
413.843; -247.100; -839.000; -861.000
413.969;  -53.600;  -47.000; -292.000
414.096; -175.800; -679.000; -679.000
414.222;   33.700;  -33.000;   85.000
414.348;  -40.000; -652.000; -385.000
414.474;  201.300;   38.000;  -52.000
414.600;   13.500; -126.000; -144.000
414.726;   25.000;  -96.000;  -55.000
414.852;  -88.000; -365.000; -342.000
414.978;  113.400;  104.000;  -18.000
415.104;  143.000;   38.000;   80.000
415.230;  141.700; -329.000; -330.000
415.356;  139.900; -409.000; -514.000
415.482;  414.900;   13.000;  -35.000
415.608;  606.800; -247.000; -323.000
415.734; 2073.200;   67.000;   38.000
415.860;42325.200; -875.000; -767.000
415.986;27413.800; -685.000; -607.000
416.111; 2296.000; -798.000; -652.000
416.237;  541.500; -424.000; -571.000
416.363; 2681.100; -765.000; -733.000
416.489; 8627.500; -324.000; -251.000
416.615;  877.800; -707.000; -742.000
416.741;  -10.800; -677.000; -784.000
416.866; -122.400; -673.000; -736.000
416.992; -185.800; -801.000; -818.000
417.118;    8.900;  -41.000;  -80.000
417.244; -111.900; -798.000; -531.000
417.369; -154.300; -801.000; -612.000
417.495;    6.600; -325.000; -254.000
417.621; -147.400;-1015.000; -803.000
417.746;   38.300; -579.000; -572.000
417.872;  134.700; -254.000; -144.000
417.998;  151.900; -515.000; -530.000
418.123; 2497.000;-1073.000; -845.000
418.249;11198.100; -512.000; -601.000
418.374; 1400.800; -916.000; -824.000
418.500;  281.700; -383.000; -482.000
418.626;  288.000;   70.000;  -59.000
418.751;  269.400; -549.000; -448.000
418.877;  459.300; -637.000; -643.000
419.002; 4282.500; -688.000; -560.000
419.128;26300.200; -930.000; -721.000
419.253; 5645.100; -967.000; -837.000
419.379;  859.200; -391.000; -338.000
419.504;  819.300;  325.000;  415.000
419.629; 1108.000; -393.000; -212.000
419.755; 8304.400; -317.000; -254.000
419.880;44013.000;  -98.000;   67.000
420.006;24349.100; -280.000; -221.000
420.131;57438.800; -662.000; -775.000
420.256; 7428.300; -315.000; -316.000
420.382; 1040.000; -665.000; -687.000
420.507;  145.800; -649.000; -778.000
420.632;  252.400; -337.000; -339.000
420.758;  407.100; -251.000; -425.000
420.883; -128.600; -876.000; -672.000
421.008; -161.600; -775.000; -619.000
421.133; -152.600; -509.000; -467.000
421.259;  -29.700; -325.000; -259.000
421.384; -210.400; -834.000; -693.000
421.509;  -90.400;-1052.000; -862.000
421.634; 1854.300; -936.000; -820.000
421.759;  695.700; -359.000; -327.000
421.885; -104.900; -717.000; -656.000
422.010; -103.600; -673.000; -542.000
422.135; -229.400; -695.000; -727.000
422.260;  120.100;  340.000;  280.000
422.385;   -4.600;   12.000;  -98.000
422.510;   56.000;  151.000;  -26.000
422.635;   52.400;  -87.000;  -43.000
422.760;  216.900; -766.000; -791.000
422.885;  113.300;  -57.000;  -80.000
423.010;  -19.700; -112.000; -169.000
423.135; -172.200; -481.000; -561.000
423.260;  -15.200; -150.000; -245.000
423.385;  157.400;  476.000;  222.000
423.510;  117.300;   71.000;  -22.000
423.635;  169.900;  133.000;   45.000
423.760;  161.200;  383.000;  328.000
423.885;  169.400;  336.000;  391.000
424.010;   56.900;  -68.000;  -13.000
424.135;   -2.500;    5.000;  -33.000
424.259; -113.000; -654.000; -457.000
424.384;  -69.700; -279.000; -272.000
424.509;   -2.900; -260.000; -186.000
424.634; -156.600; -761.000; -623.000
424.759;   14.500; -688.000; -544.000
424.883;   15.400; -506.000; -527.000
425.008;  408.200; -502.000; -410.000
425.133; 4341.100; -679.000; -653.000
425.258; 1811.600; -517.000; -381.000
425.382; 1885.600; -867.000; -774.000
425.507; 4239.100; -487.000; -543.000
425.632;  728.200; -802.000; -663.000
425.756;  957.300; -256.000; -146.000
425.881;15367.000; -831.000; -857.000
426.006;36726.100; -604.000; -355.000
426.130; 5086.800; -696.000; -508.000
426.255;  779.300; -611.000; -491.000
426.379;  356.200; -189.000; -577.000
426.504;  885.000;  660.000;  544.000
426.629; 8731.400; -519.000; -466.000
426.753; 5284.600;   64.000;  -46.000
426.878;  655.400; -252.000; -288.000
427.002;  415.400; -651.000; -668.000
427.127; 3616.300;  -35.000; -158.000
427.251;23954.600;  372.000;  401.000
427.375; 5988.300; -191.000; -173.000
427.500; 3982.400; -616.000; -610.000
427.624; 1219.000; -234.000; -400.000
427.749;  213.400; -216.000; -225.000
427.873;  -49.900; -499.000; -412.000
427.997;  -10.000; -222.000; -230.000
428.122;  193.900;  795.000;  703.000
428.246;  175.000;  433.000;  434.000
428.371; -229.100; -869.000; -773.000
428.495; -174.300; -624.000; -646.000
428.619;   -7.600; -186.000; -117.000
428.743;  103.700;   65.000;  132.000
428.868;   38.600; -732.000; -643.000
428.992; 2421.700; -219.000; -326.000
429.116;  882.400; -329.000; -357.000
429.240;  483.800;  419.000;  426.000
429.365;   -5.200; -454.000; -574.000
429.489;  -41.600; -638.000; -647.000
429.613;  114.100; -236.000; -177.000
429.737;  113.200; -563.000; -432.000
429.861;  593.400; -247.000; -133.000
429.985;12332.400; -425.000; -305.000
430.109;11997.000; -770.000; -908.000
430.234; 1301.900;   76.000;  -50.000
430.358;  174.500; -250.000; -160.000
430.482;  -88.700; -672.000; -564.000
430.606;  -86.800; -655.000; -375.000
430.730;   82.000; -437.000; -388.000
430.854;  188.200; -909.000; -835.000
430.978; -121.500; -795.000; -764.000
431.102; -130.200; -499.000; -422.000
431.226; -185.400; -874.000; -815.000
431.350;  136.700;  345.000;  422.000
431.474; -128.400; -661.000; -373.000
431.597; -271.000;-1060.000; -848.000
431.721;  -91.500; -276.000; -267.000
431.845; -198.600; -704.000; -472.000
431.969; -104.200; -304.000; -349.000
432.093; -127.600; -395.000; -317.000
432.217;   27.200;   32.000;   82.000
432.341; -111.000; -523.000; -518.000
432.464;   69.800;   96.000;   40.000
432.588;  369.100; -401.000; -329.000
432.712;  189.500;  -52.000;  -52.000
432.836;  150.900;  213.000;  263.000
432.959;   33.100; -372.000; -311.000
433.083;  234.800;   11.000;    2.000
433.207;  875.100;  285.000;  930.000
433.330;11334.800; -391.000; -200.000
433.454;12522.500; -654.000; -638.000
433.578; 7360.000;  583.000;  278.000
433.701; 1229.300; -623.000; -675.000
433.825;  268.700; -292.000; -299.000
433.949;  311.800;   28.000;  -72.000
434.072;   92.500; -410.000; -323.000
434.196;    8.800; -309.000; -117.000
434.319; 7845.100;25482.000;25124.000
434.443; 1699.600; -656.000; -603.000
434.566; 5536.500;  281.000;   62.000
434.690;  809.400; -637.000; -383.000
434.813;  148.800; -251.000; -173.000
434.937;  -90.000; -569.000; -696.000
435.060;  -73.300; -423.000; -332.000
435.184;  479.400; -492.000; -217.000
435.307;  284.800;  159.000;  102.000
435.431;   24.100;  -40.000;   24.000
435.554;  -80.200; -399.000; -240.000
435.677; -103.400; -350.000; -258.000
435.801;  -32.600;  -25.000;   49.000
435.924;   16.200;    1.000;  -67.000
436.048; -214.000;-1019.000; -732.000
436.171;  -81.100; -240.000;  -66.000
436.294;   25.200; -248.000; -229.000
436.417;  253.500; -963.000; -849.000
436.541; -136.300; -814.000; -840.000
436.664;  -55.400; -242.000; -316.000
436.787;   17.300;   13.000;  113.000
436.910; -191.500; -792.000; -422.000
437.034;   43.600;  142.000;  143.000
437.157;  130.500;  -11.000;    0.000
437.280;  -94.200; -392.000; -292.000
437.403; -170.300; -982.000; -869.000
437.526;  983.100; -903.000; -865.000
437.649; 3369.300; -505.000; -332.000
437.772;  383.800; -692.000; -540.000
437.896;  323.800;  700.000;  544.000
438.019; -179.700; -758.000; -503.000
438.142; -132.600; -596.000; -506.000
438.265;   10.100; -639.000; -670.000
438.388;  961.800; -520.000; -410.000
438.511;  112.600; -597.000; -394.000
438.634;  -83.600; -247.000; -125.000
438.757; -208.900; -693.000; -619.000
438.880;   -0.100;  -34.000;  -57.000
439.003; -104.500; -417.000; -437.000
439.126;  -54.500; -287.000; -167.000
439.248;  -93.500;  -98.000; -139.000
439.371;  -24.000;    9.000;  -53.000
439.494;  109.100;  510.000;  439.000
439.617;  -16.800;   65.000;  -88.000
439.740; -280.100; -968.000; -816.000
439.863; -235.800; -755.000; -595.000
439.986; -224.200; -476.000; -431.000
440.108;  -37.900; -161.000; -112.000
440.231; -294.100; -950.000; -836.000
440.354;  -11.100;  -64.000; -150.000
440.477;   97.000; -566.000; -542.000
440.599;    1.500; -200.000; -225.000
440.722; -218.900; -709.000; -586.000
440.845;  229.800;  751.000;  928.000
440.968; -153.200; -415.000; -311.000
441.090; -101.700; -199.000;  -33.000
441.213; -288.500;-1021.000; -825.000
441.336;  -70.900; -159.000;   -5.000
441.458; -147.000; -549.000; -396.000
441.581; -145.900; -628.000; -629.000
441.703; -109.400; -152.000;   13.000
441.826; -168.200; -557.000; -400.000
441.948;  -66.100;   56.000;   51.000
442.071;  132.500;  555.000;  424.000
442.193; -183.700; -531.000; -485.000
442.316;   60.500;  152.000;   97.000
442.438;  157.000; -233.000;  -10.000
442.561;  222.100;  272.000;  262.000
442.683;  901.700; -809.000; -522.000
442.806; 1716.800;   -8.000;   74.000
442.928;  -42.400; -859.000; -604.000
443.051;  -76.700; -577.000; -373.000
443.173; -148.400; -341.000; -339.000
443.295; -122.400; -263.000; -371.000
443.418;  -94.300; -321.000;  -29.000
443.540;   18.600; -106.000;   -4.000
443.662; -205.200; -563.000; -465.000
443.785;   66.200;  335.000;  199.000
443.907; -182.200; -362.000; -208.000
444.029; -220.900; -767.000; -494.000
444.152; -239.000; -644.000; -554.000
444.274;   -8.600;  -18.000;  -24.000
444.396; -195.600; -461.000; -221.000
444.518; -212.000; -691.000; -454.000
444.640; -163.300; -268.000; -111.000
444.763;   41.900;  388.000;  249.000
444.885; -192.400; -432.000; -392.000
445.007;    2.800;   35.000;   86.000
445.129; -215.200; -610.000; -515.000
445.251; -164.200; -372.000; -439.000
445.373; -228.500; -537.000; -386.000
445.495;   77.800;  242.000;  350.000
445.617;  172.000;  853.000;  753.000
445.739;  -89.200; -215.000;  -97.000
445.861;  -29.100; -245.000; -112.000
445.984;  -27.400; -267.000; -101.000
446.105;  325.100; -418.000; -251.000
446.227;  961.800; -176.000;  -19.000
446.349;   -6.300; -358.000; -249.000
446.471; -158.700; -615.000; -448.000
446.593;  -87.300; -316.000;   19.000
446.715;    2.100;  -67.000;   41.000
446.837;  188.700;  697.000;  832.000
446.959; -170.400; -457.000; -478.000
447.081; -212.000; -628.000; -518.000
447.203;  179.800;  862.000;  834.000
447.325; -130.000; -270.000;   42.000
447.446;   27.900;  286.000;  530.000
447.568; -274.900; -921.000; -803.000
447.690; -126.700; -236.000; -245.000
447.812; -255.000; -798.000; -519.000
447.933;    2.800;  155.000;  127.000
448.055;  -58.800; -306.000; -261.000
448.177;  324.200;   31.000;   79.000
448.299;   97.900; -935.000; -727.000
448.420;   90.900;  -25.000;  159.000
448.542;  -18.600;   -3.000;   33.000
448.664;   25.200;  109.000;  322.000
448.785;  -31.800;  265.000;   83.000
448.907; -133.300; -614.000; -353.000
449.028;  -80.600; -771.000; -471.000
449.150;  161.200;  492.000;  589.000
449.272; -321.400;-1044.000; -913.000
449.393;  115.400;  612.000;  694.000
449.515; -254.300; -634.000; -581.000
449.636;  -57.300; -264.000; -155.000
449.758;  193.400;  763.000;  622.000
449.879;  -89.900; -498.000; -396.000
450.001; -111.900; -149.000;  -49.000
450.122;   23.100;  -95.000;  162.000
450.244;   40.600;   37.000;  364.000
450.365; -111.700; -495.000; -301.000
450.486;   -8.800;   80.000;  268.000
450.608;   58.100;  393.000;  326.000
450.729;  214.400;  578.000;  645.000
450.850;   97.600; -574.000; -466.000
450.972; 1835.000; -552.000; -389.000
451.093;10941.500;  190.000;  588.000
451.214; 4083.100; -516.000; -337.000
451.336;  813.300;  773.000;  579.000
451.457;  190.600;  264.000;  393.000
451.578;   -1.900; -118.000;  -74.000
451.699; -199.100; -546.000; -540.000
451.821;  -47.400; -284.000;  -50.000
451.942;   25.800;  278.000;  285.000
452.063;  150.800;  228.000;  419.000
452.184; 1316.800;  -54.000;  -49.000
452.305; 2264.700;  103.000;  170.000
452.427;  260.900; -549.000; -301.000
452.548;   10.600;   23.000;   79.000
452.669;  -78.300; -257.000;  -89.000
452.790;  -14.300;    3.000;  -18.000
452.911;   51.400;  195.000;  259.000
453.032;  -80.000; -289.000;  -60.000
453.153;  -47.200;  -29.000;   81.000
453.274;  193.500;  737.000;  868.000
453.395;  -45.200;  -51.000;  175.000
453.516;  350.800; 1317.000; 1388.000
453.637; -112.200; -205.000; -150.000
453.758;  -48.900;   15.000;   69.000
453.879; -225.600; -462.000; -250.000
454.000;  258.900; 1086.000;  948.000
454.121; -217.600; -554.000; -326.000
454.242; -173.600; -599.000; -383.000
454.362;  -79.300;  -99.000;  114.000
454.483;   -0.600; -309.000; -229.000
454.604;  165.200;  512.000;  580.000
454.725; -194.300; -627.000; -555.000
454.846; -232.700; -474.000; -406.000
454.967;   39.300;  230.000;  539.000
455.087;  -16.600;  179.000;  153.000
455.208;  113.600;  554.000;  856.000
455.329;  -76.100;  -22.000;   82.000
455.450;  173.000;  473.000;  633.000
455.570; -129.100; -234.000; -211.000
455.691;  -20.900;  201.000;  407.000
455.812; -140.800; -270.000;  -92.000
455.932;  -67.900;  107.000;  -97.000
456.053;  -86.700;   36.000;   24.000
456.173; -148.600; -433.000; -355.000
456.294; -233.400; -476.000; -303.000
456.415;  -66.100;  -73.000;   70.000
456.535;  -16.900;  297.000;  273.000
456.656;  -13.100;  132.000;  240.000
456.776; -109.000;    3.000;  298.000
456.897;   43.200;  308.000;  513.000
457.017;  -94.900; -153.000;   -3.000
457.138; -178.600; -402.000; -249.000
457.258;  -11.900;  263.000;  224.000
457.379;   30.200;  509.000;  521.000
457.499;   33.400;  443.000;  432.000
457.620; -169.500; -407.000; -231.000
457.740; -165.200; -132.000;  -11.000
457.860;  -63.500;   87.000;   44.000
457.981;  -46.100;  132.000;  124.000
458.101; -109.800;  -89.000;   40.000
458.221;   47.600;  336.000;  402.000
458.342;  -67.000;   -4.000;  -37.000
458.462;  148.900;  617.000;  352.000
458.582;   -1.000; -302.000; -294.000
458.703;   81.100;  303.000;  154.000
458.823;    0.600;   22.000;  163.000
458.943;  125.000;  341.000;  467.000
459.063;   26.000; 1124.000;  192.000
459.183;   -6.800;  328.000;  313.000
459.304;  116.900;  315.000;  517.000
459.424;  -59.600; -246.000;  -89.000
459.544;  761.300;  388.000;  764.000
459.664; 1791.100;  499.000;  506.000
459.784;  644.600; 1004.000; 1175.000
459.904;  174.400;  867.000;  744.000
460.024;  195.900;  867.000;  684.000
460.144;   52.500;  449.000;  554.000
460.264;   32.400;  515.000;  327.000
460.385; -124.700; -145.000; -119.000
460.505;  155.900;  905.000;  858.000
460.625; -129.100;  -17.000;  -68.000
460.745;    6.000;  396.000;  541.000
460.864;  -31.200;  153.000;  469.000
460.984;   86.300;  499.000;  573.000
461.104;  360.400; 1656.000; 1775.000
461.224;  115.000;  657.000;  650.000
461.344;   -8.800;  431.000;  360.000
461.464;   13.900;  258.000;  513.000
461.584;   63.700;  283.000;  466.000
461.704;  -52.300;   58.000;  108.000
461.824;  -46.900;  238.000;  259.000
461.943;  -53.300;  191.000;  130.000
462.063; -122.100;    2.000;  324.000
462.183;  127.300;  639.000;  717.000
462.303;  267.900; 1678.000; 1230.000
462.422;  117.000;  781.000;  840.000
462.542;  -11.600;  271.000;  391.000
462.662;  134.600;  353.000;  380.000
462.782;  591.400;  833.000;  572.000
462.901; 1091.600;  545.000;  717.000
463.021;  617.300; 1702.000; 1638.000
463.141;   42.600;  337.000;  770.000
463.260;   27.600;  614.000;  474.000
463.380;   91.100;  902.000;  884.000
463.499;  -39.200;  342.000;  332.000
463.619;  -18.800;  581.000;  559.000
463.738;  263.300; 1644.000;  903.000
463.858;   73.400;  657.000;  811.000
463.978;   -4.000;  542.000;  396.000
464.097;  140.300;  921.000; 1114.000
464.217;  308.000; 1196.000; 1143.000
464.336;  298.300; 1068.000; 1130.000
464.455;    9.500;  328.000;  659.000
464.575;  145.000;  597.000;  602.000
464.694;  378.700; 1204.000; 1179.000
464.814;  322.600; 1190.000; 1138.000
464.933;  179.700; 1095.000; 1027.000
465.052;  241.100; 1412.000; 1054.000
465.172;  211.600;  922.000;  799.000
465.291;  335.700; 1376.000; 1320.000
465.410;   61.900;  462.000;  735.000
465.530;  235.200; 1355.000; 1310.000
465.649;  196.000; 1209.000; 1273.000
465.768;  379.800; 1673.000; 1508.000
465.888;  160.900;  941.000; 1174.000
466.007;  295.400; 1335.000; 1440.000
466.126;   73.100;  721.000;  641.000
466.245;  155.600; 1176.000; 1187.000
466.364;   91.500;  950.000; 1060.000
466.484;  168.800; 1024.000; 1213.000
466.603;  123.900; 1101.000; 1222.000
466.722;  309.200; 1490.000; 1769.000
466.841;  237.300; 1151.000; 1401.000
466.960;   92.700; 1069.000;  972.000
467.079;  342.300; 1971.000; 1786.000
467.198;  171.000; 1238.000; 1181.000
467.317;  235.500; 1768.000; 1162.000
467.436;  252.900; 1709.000; 1261.000
467.555;  342.400; 1796.000; 1746.000
467.674;  196.200; 1227.000; 1329.000
467.793;  155.700; 1376.000; 1374.000
467.912;  240.000; 1658.000; 1539.000
468.031;  313.300; 2038.000; 1930.000
468.150;  328.800; 1842.000; 1837.000
468.269;  479.200; 2313.000; 2090.000
468.388;  468.100; 2168.000; 2339.000
468.507;  602.800; 2884.000; 2903.000
468.626;  652.200; 2555.000; 2541.000
468.744;  310.600; 2018.000; 2174.000
468.863;  464.900; 2312.000; 2523.000
468.982;  294.200; 1503.000; 1555.000
469.101;  499.900; 2788.000; 2692.000
469.220;  360.600; 2333.000; 2176.000
469.338;  597.900; 2935.000; 3051.000
469.457;  471.200; 2719.000; 2545.000
469.576;  777.400; 3953.000; 3784.000
469.695;  533.000; 2877.000; 3066.000
469.813;  950.300; 4148.000; 4192.000
469.932;  893.100; 4255.000; 4485.000
470.051;  947.200; 4075.000; 4161.000
470.169; 1914.300; 4470.000; 4338.000
470.288; 3131.700; 4700.000; 4809.000
470.406; 1787.900; 5059.000; 5194.000
470.525; 1378.800; 6101.000; 5787.000
470.644; 1392.000; 6847.000; 6794.000
470.762; 1845.100; 8397.000; 7873.000
470.881; 1950.300; 8651.000; 8464.000
470.999; 2133.600; 9685.000; 9151.000
471.118; 2308.500;11174.000;10711.000

