
Integration time [ms]: 100.000
Averaging Nr. [scans]: 40
Smoothing Nr. [pixels]: 0
Data measured with spectrometer [name]: 2101012U2
Wave   ;Sample   ;Dark     ;Reference
[nm]   ;[counts] ;[counts] ;[counts] 

197.733;   43.225;  516.000;  404.000
197.879;  -84.300; -610.000; -634.000
198.025;  -47.375; -475.000; -420.000
198.171;  -72.525; -602.000; -612.000
198.317;  -20.950; -401.000; -316.000
198.463;  -63.775; -655.000; -404.000
198.609;   39.975;  181.000; -137.000
198.755;  -65.450; -644.000; -410.000
198.901;  -60.125; -505.000; -424.000
199.047;  -75.275; -615.000; -488.000
199.193;  -29.900; -230.000; -468.000
199.339;  -41.025; -222.000; -369.000
199.485;   35.500;  330.000;  271.000
199.631;   14.575;  227.000;  310.000
199.777;  -39.575; -466.000; -398.000
199.923;  -48.725; -610.000; -424.000
200.069;    9.400; -141.000;  -58.000
200.215;   55.800;  128.000;  453.000
200.361;   35.075;  243.000;  477.000
200.507;  -54.075; -600.000; -373.000
200.653;  -23.050; -371.000; -194.000
200.798;  -28.825; -215.000; -125.000
200.944;   -5.400; -146.000;  -41.000
201.090;   45.300;   61.000;  222.000
201.236;   -0.850; -116.000; -158.000
201.382;  113.225;  874.000;  903.000
201.528;    1.950;  -58.000;  -48.000
201.674;  -50.675; -386.000; -293.000
201.819;  -52.550; -540.000; -439.000
201.965;  -70.975; -699.000; -447.000
202.111;   -0.750; -273.000; -226.000
202.257;  -38.975; -250.000; -238.000
202.402;   18.600;   13.000;  -36.000
202.548;  -25.825; -169.000; -116.000
202.694;   73.975;  410.000; -183.000
202.840;  -74.900; -603.000; -531.000
202.985;  -76.700; -681.000; -639.000
203.131; -101.150; -832.000; -666.000
203.277;  -29.125; -199.000; -262.000
203.423;  -49.300; -434.000; -520.000
203.568;  -37.900; -462.000; -237.000
203.714;  -69.000; -535.000; -542.000
203.860;  -70.900; -682.000; -641.000
204.005;   22.375;  112.000;  167.000
204.151;   68.775;  561.000;  556.000
204.296;  -36.425; -354.000; -221.000
204.442;  -77.525; -600.000; -547.000
204.588;  -67.000; -592.000; -579.000
204.733;   25.150;  178.000;  168.000
204.879; -110.300;-1018.000; -822.000
205.025;   18.275;  -99.000;  126.000
205.170;   13.700;  -17.000;   94.000
205.316;   75.775;  438.000;  661.000
205.461;  -75.100; -698.000; -554.000
205.607;   75.525;  609.000;  665.000
205.752;  -71.750; -626.000; -551.000
205.898;  -42.550; -501.000; -391.000
206.043;  -52.875; -578.000; -506.000
206.189;  -48.675; -243.000; -285.000
206.334;   84.100;  554.000;  606.000
206.480;   81.975;  409.000;  239.000
206.625;  -87.625; -529.000; -552.000
206.771;  -43.200; -451.000; -373.000
206.916;  -25.450; -210.000; -537.000
207.062;  -71.650; -545.000; -591.000
207.207;  -58.900; -546.000; -443.000
207.353;   51.275;  185.000;  460.000
207.498;   26.800;  196.000;   85.000
207.643;  -46.300; -501.000; -370.000
207.789; -119.750;-1069.000; -910.000
207.934;  -85.175; -665.000; -713.000
208.080;  -13.950; -154.000;   66.000
208.225;    5.125;  -22.000;  -57.000
208.370;  -85.425; -727.000; -619.000
208.516;  -77.675; -741.000; -487.000
208.661;  -36.750; -127.000;  -69.000
208.806;  -17.725; -165.000; -171.000
208.952; -129.600;-1044.000; -731.000
209.097;   70.900;  378.000;  349.000
209.242;  -44.525; -307.000; -382.000
209.387;   83.025;  392.000;  350.000
209.533;  -36.425; -321.000; -350.000
209.678;   73.950;  472.000;  543.000
209.823;  -50.375; -408.000; -310.000
209.969;  -99.750; -860.000; -757.000
210.114;  -97.900; -907.000; -719.000
210.259; -103.425; -939.000; -889.000
210.404;    5.725; -171.000;  103.000
210.549;   16.975;  108.000;    3.000
210.695;   -7.625;   -3.000;  -95.000
210.840;   24.400;   94.000;   67.000
210.985;  -59.550; -484.000; -303.000
211.130;   69.075;  268.000;  406.000
211.275;   13.425;  207.000;  199.000
211.420;  -62.675; -300.000; -289.000
211.566;  -59.775; -536.000; -489.000
211.711;   16.975;  218.000;  157.000
211.856;  -58.400; -545.000; -519.000
212.001;    1.450;  151.000;   44.000
212.146;   10.450;  153.000;   49.000
212.291;  -16.950; -210.000; -186.000
212.436;  -26.025; -280.000;   -6.000
212.581;  -81.475; -685.000; -653.000
212.726;  -77.450; -487.000; -538.000
212.871;  -39.325; -552.000; -217.000
213.016; -147.325;-1172.000;-1029.000
213.161;   70.025;  406.000;  291.000
213.306;  -65.925; -435.000; -577.000
213.451; -100.000; -778.000; -689.000
213.596;  -43.950; -455.000; -347.000
213.741;  -57.525; -448.000; -538.000
213.886;  -72.475; -498.000; -517.000
214.031;  -22.575; -294.000; -124.000
214.176;  -53.500; -408.000; -341.000
214.321;  -15.800; -296.000; -157.000
214.466;  -22.650; -163.000;  -43.000
214.611;   -7.575;  -61.000;  -10.000
214.756; -122.625; -948.000; -858.000
214.901;  -30.550; -388.000; -226.000
215.046; -113.600; -797.000; -825.000
215.191;   16.375;  128.000;   35.000
215.336;  -10.750; -157.000;  -19.000
215.480;  -74.400; -684.000; -505.000
215.625;  -22.850; -175.000;  -19.000
215.770;  -82.725; -757.000; -662.000
215.915;  -12.525;   -5.000;  -97.000
216.060;    2.450; -113.000;  -21.000
216.205; -107.475; -731.000; -779.000
216.349;  -63.525; -470.000; -533.000
216.494; -121.725; -939.000; -867.000
216.639;  -93.575; -823.000; -888.000
216.784;  -76.550; -577.000; -525.000
216.929;   34.250;  392.000;  281.000
217.073;    0.850; -244.000;  -31.000
217.218;    7.375;   78.000;  -47.000
217.363;  -97.600; -656.000; -618.000
217.507;  -75.925; -623.000; -588.000
217.652; -124.900; -845.000; -874.000
217.797;  -76.225; -708.000; -659.000
217.942; -102.300; -856.000; -720.000
218.086;   73.050;  608.000;  539.000
218.231;  -14.150; -174.000;  -26.000
218.376;  -28.050; -337.000; -229.000
218.520;   11.125;  -41.000;   96.000
218.665;  -24.400; -338.000; -204.000
218.810;  -31.900; -275.000; -233.000
218.954;    8.225;  201.000;   35.000
219.099;  -97.050; -713.000; -963.000
219.243;  -66.000; -589.000; -554.000
219.388;  -23.625; -264.000; -136.000
219.532;    0.050; -116.000; -116.000
219.677;  -67.600; -564.000; -521.000
219.822;   18.100;   33.000;   89.000
219.966;   -2.950;   17.000;  -99.000
220.111;  -49.675; -328.000;  -40.000
220.255; -110.550; -797.000; -750.000
220.400;   -7.225; -180.000; -146.000
220.544;  -67.175; -516.000; -450.000
220.689;  -54.225; -422.000; -451.000
220.833;  -23.500; -123.000;  -58.000
220.978;  -43.275; -393.000; -563.000
221.122;    6.600;  319.000;  307.000
221.267; -106.050; -906.000; -837.000
221.411;  -63.250; -478.000; -394.000
221.555;   -3.950; -104.000;  -23.000
221.700;  -35.350; -329.000; -222.000
221.844;   41.350;  255.000;  272.000
221.989;  -28.475; -328.000; -311.000
222.133;  -43.400; -289.000; -307.000
222.277;   -5.275;    5.000;   78.000
222.422;   14.900;  227.000;  113.000
222.566;  -36.775; -381.000; -214.000
222.711;  -46.300; -414.000; -479.000
222.855;  -78.625; -643.000; -586.000
222.999;  -78.875; -642.000; -717.000
223.144;  -29.075; -195.000; -194.000
223.288;   40.375;  423.000;  251.000
223.432;   35.675;  184.000;  230.000
223.576;   19.575;  152.000;  -21.000
223.721;   33.125;  364.000;  273.000
223.865;  -57.575; -472.000; -475.000
224.009;  236.850; 1673.000; 1631.000
224.153;  -72.300; -660.000; -671.000
224.298;  -66.550; -531.000; -489.000
224.442;  -11.200;  -74.000;  -33.000
224.586;   -6.700; -169.000; -106.000
224.730;  -92.900; -858.000; -670.000
224.875;  -93.725; -739.000; -688.000
225.019;    2.450;  102.000;  188.000
225.163;   49.250;  208.000;  341.000
225.307;   26.300;   97.000;  -91.000
225.451;   49.850;  360.000;  481.000
225.595;   29.875;  264.000;  176.000
225.739;   -5.750; -170.000;  -94.000
225.884;    3.275;   86.000;    5.000
226.028;  -92.050; -760.000; -626.000
226.172;  -28.300; -260.000; -273.000
226.316; -112.950; -941.000; -902.000
226.460;  -67.750; -645.000; -493.000
226.604;  -44.275; -406.000; -400.000
226.748; -100.200; -836.000; -733.000
226.892;  -32.825; -227.000; -181.000
227.036;  -40.800; -537.000; -447.000
227.180;  -47.200; -551.000; -375.000
227.324;  -61.275; -561.000; -580.000
227.468;  -93.200; -819.000; -717.000
227.612;    1.850;  242.000;  -28.000
227.756;  -87.925; -845.000; -698.000
227.900;   34.600;  342.000;  441.000
228.044;  -55.050; -509.000; -290.000
228.188;   37.750;  448.000;  568.000
228.332;  -83.075; -546.000; -472.000
228.476;   -7.725; -223.000; -149.000
228.620;  -40.125; -210.000; -150.000
228.764;   61.425;  431.000;  349.000
228.908;  -23.925; -155.000;   30.000
229.052;  -49.425; -615.000; -528.000
229.195;  -26.400; -172.000;   13.000
229.339;  -26.500; -235.000; -305.000
229.483;  -20.500;    5.000; -162.000
229.627;  -12.450; -156.000;  139.000
229.771;  -62.650; -218.000; -294.000
229.915;   17.700;  230.000;   79.000
230.059;  -91.950; -648.000; -663.000
230.202;  -32.425; -370.000; -317.000
230.346;  -23.525; -107.000;  107.000
230.490;  -62.050; -489.000; -521.000
230.634;  -99.975; -736.000; -553.000
230.777;   78.800;  478.000;  509.000
230.921;  -42.175; -450.000; -359.000
231.065;  -40.050; -246.000; -286.000
231.209;   22.425;  261.000;  265.000
231.352;   15.025;   54.000;   40.000
231.496;   17.000;  568.000;  188.000
231.640;  -77.775; -693.000; -621.000
231.783;   63.000;  546.000;  525.000
231.927;  -45.850; -294.000; -365.000
232.071; -117.225; -962.000; -736.000
232.214;  -98.200; -980.000; -764.000
232.358;  -93.200; -683.000; -599.000
232.502;    1.725;  -19.000;    7.000
232.645; -141.150;-1090.000; -927.000
232.789;  -22.200; -257.000; -218.000
232.933;  -34.325; -407.000; -224.000
233.076; -109.800;-1038.000; -897.000
233.220; -106.375; -752.000; -777.000
233.363;  -65.975; -669.000; -477.000
233.507;   48.500;  371.000;  129.000
233.650;  -89.150; -764.000; -834.000
233.794;   34.425;  438.000;  461.000
233.938;  -59.075; -530.000; -362.000
234.081;  -22.150;  -93.000;   31.000
234.225;  -58.075; -631.000; -539.000
234.368;  -96.800; -773.000; -723.000
234.512;  -51.050; -385.000; -299.000
234.655;  -84.825; -582.000; -555.000
234.798;  -70.950; -493.000; -466.000
234.942; -126.300; -884.000;-1002.000
235.085;  -52.700; -651.000; -443.000
235.229;  -69.825; -405.000; -410.000
235.372;  -50.550; -247.000; -191.000
235.516;  -52.325; -397.000; -321.000
235.659;    6.950;   92.000;  121.000
235.802;   -7.025;  -38.000;  -22.000
235.946;   16.550;  335.000;  215.000
236.089;   19.525;  126.000;  250.000
236.233;   49.250;  275.000;  298.000
236.376;  -48.350; -235.000; -378.000
236.519;  -51.500; -297.000; -319.000
236.663;  -19.975; -215.000; -117.000
236.806; -135.725;-1029.000; -999.000
236.949;   56.625;  543.000;  431.000
237.092;   62.275;  412.000;  391.000
237.236;  -78.925; -589.000; -502.000
237.379;   56.150;  352.000;  428.000
237.522; -117.200; -879.000; -768.000
237.666;  -23.950; -271.000;   18.000
237.809; -114.175; -851.000; -823.000
237.952;   23.900;  469.000;  271.000
238.095;  -62.875; -447.000; -442.000
238.238;   83.075;  688.000;  700.000
238.382;    4.500;  166.000;  103.000
238.525;  -72.350; -598.000; -511.000
238.668; -140.350;-1060.000; -985.000
238.811;  -83.475; -638.000; -643.000
238.954;  -61.950; -483.000; -334.000
239.097;   97.675;  617.000;  664.000
239.241;   20.700;  394.000;  326.000
239.384;  -39.825; -254.000; -214.000
239.527;  -64.325; -424.000; -224.000
239.670; -138.175; -994.000;-1091.000
239.813; -108.000; -696.000; -658.000
239.956;   66.925;  579.000;  473.000
240.099; -119.500; -778.000; -725.000
240.242;   51.300;  428.000;  432.000
240.385;   44.325;  466.000;  450.000
240.528;  -77.225; -706.000; -473.000
240.671;    4.800;  189.000;  134.000
240.814;  -38.475; -441.000; -158.000
240.957;  -95.250; -767.000; -578.000
241.100;  -91.100; -779.000; -755.000
241.243; -134.650;-1234.000; -893.000
241.386;  -62.050; -508.000; -379.000
241.529;  -90.025; -735.000; -547.000
241.672;  -62.975; -566.000; -495.000
241.815; -116.550; -832.000; -808.000
241.958;  -29.925; -125.000; -182.000
242.101;  -78.475; -545.000; -390.000
242.244;  -33.825; -270.000; -325.000
242.387;  -46.000; -304.000; -246.000
242.530;   64.875;  470.000;  134.000
242.673;  -42.975; -381.000; -309.000
242.815; -104.275; -925.000; -899.000
242.958;  -65.700; -482.000; -381.000
243.101;   14.150;  132.000;  187.000
243.244;  -81.900; -564.000; -521.000
243.387;  -38.400; -313.000; -316.000
243.530;  -90.525; -657.000; -674.000
243.672;    4.475;   43.000;  -92.000
243.815;  -52.225; -355.000; -283.000
243.958;   -0.650;   98.000;  -26.000
244.101;   -8.800;   59.000;  -16.000
244.243;  -16.300;  -47.000;  101.000
244.386; -100.650; -761.000; -630.000
244.529;  -25.950; -132.000; -139.000
244.672; -142.450;-1154.000; -951.000
244.814;  -93.425; -621.000; -794.000
244.957;  -49.475; -380.000; -304.000
245.100;  -72.800; -489.000; -489.000
245.242;  -56.025; -387.000; -374.000
245.385;   -8.625;  -59.000;  -39.000
245.528; -117.000; -871.000; -705.000
245.670;   83.950;  612.000;  634.000
245.813;  -85.375; -599.000; -547.000
245.956;  -24.825; -324.000; -275.000
246.098;  -59.300; -508.000; -650.000
246.241;    2.025;  194.000;   48.000
246.383;  -20.400; -119.000;  -73.000
246.526;  -73.000; -454.000; -525.000
246.669; -107.050; -889.000; -780.000
246.811;   16.575;  172.000;   -1.000
246.954;  -68.250; -512.000; -426.000
247.096;  -27.275;  -84.000;   -6.000
247.239;  -81.300; -482.000; -445.000
247.381;  -65.425; -647.000; -488.000
247.524;   89.375;  645.000;  679.000
247.666;   -8.150;   58.000;   11.000
247.809; -108.625; -887.000; -691.000
247.951;  -18.375;  -75.000;  138.000
248.094;    6.100;  432.000;  308.000
248.236; -156.600;-1262.000;-1238.000
248.378;  -14.225; -356.000;  -81.000
248.521;  -36.050; -334.000; -337.000
248.663;  -46.025; -236.000; -267.000
248.806;  -17.875; -300.000; -266.000
248.948; -106.475; -886.000; -763.000
249.090;  -41.075; -428.000; -398.000
249.233;  -63.425; -344.000; -381.000
249.375;  -68.100; -474.000; -451.000
249.518;  -15.850;  -83.000; -133.000
249.660;   -2.850; -103.000;    3.000
249.802; -159.950;-1303.000;-1189.000
249.945;  -81.425; -612.000; -540.000
250.087; -114.225; -834.000; -768.000
250.229;  -50.975; -362.000; -480.000
250.371;  -60.200; -494.000; -439.000
250.514;  -49.875; -310.000; -244.000
250.656;   -1.075;   69.000;  102.000
250.798; -114.000; -849.000; -800.000
250.940;  -68.275; -322.000; -322.000
251.083;  -28.400; -335.000; -111.000
251.225;   49.225;  338.000;  310.000
251.367;  -43.475; -274.000; -373.000
251.509;  -22.175; -265.000; -210.000
251.651;  -92.100; -731.000; -671.000
251.794;   51.350;  538.000;  632.000
251.936;  -90.750; -821.000; -747.000
252.078;  -81.200; -540.000; -461.000
252.220;  -76.850; -645.000; -477.000
252.362;   61.425;  344.000;  462.000
252.504;  -69.025; -677.000; -584.000
252.646; -111.300; -875.000; -722.000
252.788;  -16.975;   14.000; -128.000
252.931;  -50.025; -257.000; -253.000
253.073;  -49.925; -376.000; -317.000
253.215;   -0.300;  141.000;  122.000
253.357;  -17.625;   82.000; -153.000
253.499;  -51.400; -374.000; -234.000
253.641;  -82.200; -749.000; -594.000
253.783;  -95.975; -609.000; -527.000
253.925;  -83.800; -586.000; -591.000
254.067; -104.625; -744.000; -667.000
254.209;  -35.175; -391.000; -259.000
254.351; -125.550; -865.000; -883.000
254.493;  -66.700; -441.000; -417.000
254.635; -126.550; -936.000; -818.000
254.777;  -88.625; -752.000; -687.000
254.918;  -56.250; -512.000; -430.000
255.060;  -61.075; -551.000; -395.000
255.202;  -57.575; -473.000; -261.000
255.344;  -70.000; -658.000; -455.000
255.486;  -66.950; -471.000; -406.000
255.628; -102.525; -780.000; -781.000
255.770;  -80.625; -676.000; -536.000
255.912;  -64.800; -559.000; -468.000
256.053;  -99.725; -730.000; -508.000
256.195;  152.275; 1008.000;  903.000
256.337; -106.450; -861.000; -595.000
256.479;   64.450;  532.000;  416.000
256.621;  -46.250; -394.000; -212.000
256.762;  -84.950; -789.000; -742.000
256.904;   40.975;  485.000;  487.000
257.046;  -36.600; -381.000; -271.000
257.188;  -47.200; -351.000; -264.000
257.329;  -68.200; -525.000; -464.000
257.471; -112.175; -939.000; -807.000
257.613;  -62.625; -584.000; -498.000
257.755; -137.200;-1073.000; -982.000
257.896;   32.975;  286.000;  392.000
258.038;  -57.925; -403.000; -352.000
258.180;  -34.425; -354.000; -279.000
258.321;  -75.225; -581.000; -457.000
258.463;   -8.550;  -71.000;  133.000
258.605;  -83.100; -562.000; -570.000
258.746; -102.150; -886.000; -772.000
258.888; -144.600;-1026.000;-1020.000
259.029;   12.550;  121.000;   -8.000
259.171;  -88.925; -614.000; -550.000
259.313;   -5.100;  -49.000;  -47.000
259.454;  -73.425; -536.000; -414.000
259.596;  -50.775; -483.000; -390.000
259.737;  -80.900; -590.000; -474.000
259.879;   36.600;  217.000;  311.000
260.020;   71.300;  901.000;  636.000
260.162;  -31.950; -146.000; -253.000
260.303; -108.275; -768.000; -687.000
260.445;  -78.725; -609.000; -613.000
260.586;   31.250;  392.000;  157.000
260.728;  -36.975; -360.000; -248.000
260.869;  -67.875; -350.000; -343.000
261.011;   81.700;  706.000;  537.000
261.152;  -53.125; -479.000; -319.000
261.293;  -85.125; -576.000; -595.000
261.435;  -31.625; -219.000; -184.000
261.576;  -51.125; -455.000; -325.000
261.718;   43.700;  420.000;  470.000
261.859; -125.525; -940.000; -949.000
262.000; -131.375; -951.000;-1016.000
262.142;  -15.750;  -52.000;  -60.000
262.283; -113.800; -808.000; -691.000
262.424;  -89.950; -666.000; -625.000
262.566; -149.650;-1161.000; -983.000
262.707; -101.500; -840.000; -830.000
262.848; -115.225; -769.000; -726.000
262.990;  -53.625; -362.000; -345.000
263.131;   75.150;  650.000;  681.000
263.272;   -5.100;  -61.000;  -41.000
263.413;  -86.000; -589.000; -561.000
263.555;  -66.175; -669.000; -143.000
263.696;  -86.375; -550.000; -641.000
263.837;  -57.750; -449.000; -551.000
263.978;  -11.675;   -5.000;  -77.000
264.119;  -47.350; -283.000; -264.000
264.261; -119.575; -847.000; -630.000
264.402;   -8.250;   33.000;   40.000
264.543;  -73.750; -509.000; -524.000
264.684;  -16.050;   61.000;  -50.000
264.825;  -61.450; -816.000; -538.000
264.966;  -19.850;  -84.000;  -67.000
265.107; -100.825; -646.000; -670.000
265.248; -112.400; -825.000; -812.000
265.390;  -13.850;  152.000;   -9.000
265.531;  -27.925; -238.000; -107.000
265.672;  -84.875; -557.000; -630.000
265.813;   53.300;  563.000;  439.000
265.954; -123.400; -959.000; -940.000
266.095;   -2.125; -372.000; -322.000
266.236;  -94.125; -686.000; -548.000
266.377;  -33.325; -243.000; -297.000
266.518;  -63.000; -619.000; -547.000
266.659;   14.025;  170.000;  268.000
266.800;    8.950;   83.000;   85.000
266.941;  -73.700; -487.000; -478.000
267.082;   12.175;  354.000;   99.000
267.223;  -53.275; -344.000; -273.000
267.364;  -95.250; -892.000; -686.000
267.504;  -10.375;    3.000;  135.000
267.645;  -15.875;  160.000;   67.000
267.786;  -42.625; -147.000;  -86.000
267.927;  -70.175; -473.000; -379.000
268.068;  -16.050; -186.000;  -61.000
268.209;  -51.350; -175.000; -413.000
268.350;  -53.300; -388.000; -532.000
268.490;  -80.725; -648.000; -521.000
268.631;   24.700;  127.000;  225.000
268.772; -103.050; -874.000; -647.000
268.913;  -64.950; -328.000; -476.000
269.054;   -7.700; -117.000;   12.000
269.194;  -56.050; -418.000; -402.000
269.335; -153.300;-1137.000;-1074.000
269.476;  -21.675;   33.000;  -35.000
269.617;  -52.600; -347.000; -392.000
269.757; -101.800; -713.000; -646.000
269.898; -111.500; -856.000; -613.000
270.039;  -57.900; -415.000; -405.000
270.180; -131.825; -952.000; -816.000
270.320;  -32.975; -190.000; -250.000
270.461;  -42.675; -277.000; -249.000
270.602;  -15.400; -186.000; -156.000
270.742; -137.425; -868.000; -943.000
270.883;  -64.625; -442.000; -390.000
271.023;  -58.375; -358.000; -357.000
271.164;  -64.775; -607.000; -528.000
271.305;  -96.500; -666.000; -654.000
271.445;  -97.275; -722.000; -683.000
271.586;  -70.500; -462.000; -283.000
271.726;  -55.850; -397.000; -322.000
271.867;  -60.525; -594.000; -534.000
272.008;   74.075; -473.000; -285.000
272.148;   77.175;  462.000;  468.000
272.289;    0.750; -113.000; -181.000
272.429;    4.325;   19.000;  185.000
272.570; -107.075; -633.000; -737.000
272.710; -109.925; -825.000; -775.000
272.851;  -20.350;  113.000; -130.000
272.991; -153.650;-1173.000;-1077.000
273.131;  -54.000; -419.000; -459.000
273.272;  -94.950; -683.000; -723.000
273.412;  -17.675; -143.000;  -31.000
273.553;  -58.650; -488.000; -507.000
273.693;  116.725;  913.000;  858.000
273.834; -107.025; -894.000; -692.000
273.974;  -75.350; -664.000; -615.000
274.114; -107.350; -772.000; -560.000
274.255;   44.050;  414.000;  373.000
274.395;  -24.600; -180.000; -125.000
274.535;   32.900;  199.000;  350.000
274.676;   13.650;  225.000;   94.000
274.816;   -6.050;  110.000;   34.000
274.956;  -92.075; -624.000; -690.000
275.097;  -90.675;-1014.000; -922.000
275.237; -130.550; -913.000; -803.000
275.377; -107.875; -778.000; -689.000
275.517; -137.875; -878.000; -937.000
275.658;  -53.850; -590.000; -555.000
275.798;  -88.300; -606.000; -413.000
275.938;   23.775;  215.000;  323.000
276.078;  -70.200; -626.000; -395.000
276.218;   -8.275;   99.000;  104.000
276.359; -124.275;-1026.000;-1024.000
276.499;  -67.725; -605.000; -446.000
276.639;  -29.225; -305.000; -151.000
276.779;  -50.675; -475.000; -357.000
276.919; -104.875; -783.000; -624.000
277.059;  -33.100; -261.000; -212.000
277.199;  -51.650; -357.000; -259.000
277.340;   38.875;  287.000;  175.000
277.480; -107.675; -840.000; -693.000
277.620;   29.050;  192.000;   16.000
277.760; -182.225;-1533.000;-1294.000
277.900;   -5.050;  113.000;   33.000
278.040;    4.050;  137.000;  159.000
278.180;   25.825;  270.000;  170.000
278.320;    9.175;   21.000;   56.000
278.460;  -65.200; -443.000; -469.000
278.600;  -86.425; -708.000; -598.000
278.740;   52.050;  448.000;  224.000
278.880; -109.400; -768.000; -791.000
279.020;  -14.250; -194.000; -144.000
279.160;  -85.275; -672.000; -595.000
279.300; -114.325; -926.000; -873.000
279.440;  -90.425; -709.000; -622.000
279.579;  -62.125;-1014.000; -929.000
279.719;  -65.125; -410.000; -394.000
279.859;   33.700;   -4.000;   41.000
279.999;    6.475; -208.000;  101.000
280.139;  -48.975; -435.000; -387.000
280.279;  -98.600; -708.000; -745.000
280.419;  -16.000; -229.000; -147.000
280.559;  -29.650; -259.000; -180.000
280.698;  -78.800; -790.000; -639.000
280.838;  -92.925; -778.000; -800.000
280.978;  -93.875; -846.000; -790.000
281.118; -100.425; -811.000; -704.000
281.257;    2.800;   24.000;    6.000
281.397; -138.300;-1094.000; -960.000
281.537;  -99.500; -599.000; -712.000
281.677;  -26.025; -150.000; -101.000
281.816;  -81.225; -700.000; -630.000
281.956;  -25.875; -193.000; -257.000
282.096;  -55.775; -539.000; -396.000
282.235; -106.750; -672.000; -638.000
282.375;  -27.625; -243.000;  -98.000
282.515;  -96.700; -715.000; -707.000
282.654;   14.900;   29.000;  106.000
282.794;   18.175;  388.000;  244.000
282.934;  -65.775; -530.000; -491.000
283.073; -118.175;-1030.000; -857.000
283.213;  -59.850; -460.000; -467.000
283.353;  -40.825; -408.000; -349.000
283.492;  -52.725; -264.000; -296.000
283.632;  -44.250; -254.000; -168.000
283.771;  -92.750; -859.000; -730.000
283.911;  -51.200; -369.000; -260.000
284.050;  -92.025; -794.000; -748.000
284.190; -142.800;-1229.000;-1096.000
284.329; -140.325;-1055.000; -964.000
284.469;  -82.900; -516.000; -591.000
284.608;  -57.725; -559.000; -598.000
284.748;  -70.300; -614.000; -570.000
284.887;  -12.225;  -87.000;  -20.000
285.027; -122.550; -844.000; -892.000
285.166;  -31.000; -192.000; -249.000
285.306;  -14.150; -116.000;  -33.000
285.445;  -38.750; -229.000; -343.000
285.584;  -92.200; -630.000; -494.000
285.724;  -49.900; -282.000; -322.000
285.863; -109.725; -857.000; -507.000
286.002;  -58.325; -366.000; -276.000
286.142;  -97.800; -715.000; -622.000
286.281;  -67.075; -525.000; -493.000
286.420;  -74.925; -554.000; -417.000
286.560;   96.400;  653.000;  623.000
286.699; -133.275; -958.000; -912.000
286.838;  -77.275; -590.000; -591.000
286.978;  -86.700; -533.000; -537.000
287.117; -125.425;-1085.000; -950.000
287.256;  -33.725; -228.000; -211.000
287.395;  -49.525; -197.000; -378.000
287.535;  -40.400; -370.000; -298.000
287.674;  -71.625; -509.000; -484.000
287.813;   54.250;  661.000;  533.000
287.952; -117.075;-1010.000; -871.000
288.091; -128.700;-1049.000; -915.000
288.231;    2.350;   13.000;   15.000
288.370; -160.350;-1217.000;-1200.000
288.509;  -83.900; -728.000; -645.000
288.648;  -92.775; -770.000; -548.000
288.787;  -22.550; -243.000;  -87.000
288.926;  -59.750; -454.000; -475.000
289.065;   92.425;  859.000;  672.000
289.204;  -46.375; -377.000; -217.000
289.344;  -86.350; -791.000; -690.000
289.483;   16.075;  416.000;  304.000
289.622;  -17.100; -291.000; -149.000
289.761;  -23.875; -309.000; -166.000
289.900;  -99.550; -785.000; -626.000
290.039;  -10.025;  -12.000;  -95.000
290.178;  -43.300; -274.000; -180.000
290.317;  -83.875; -618.000; -479.000
290.456;  -58.575; -463.000; -451.000
290.595; -119.500; -961.000; -833.000
290.734; -125.550; -904.000; -891.000
290.873;  -58.950; -456.000; -420.000
291.011; -107.475; -833.000; -843.000
291.150; -104.550; -770.000; -682.000
291.289;  -41.700; -343.000; -110.000
291.428;  -93.800; -599.000; -480.000
291.567;  -51.400; -370.000; -442.000
291.706;   10.400;  109.000;  154.000
291.845;  -88.400; -597.000; -505.000
291.984; -143.475;-1234.000;-1061.000
292.122;   72.500;  602.000;  582.000
292.261;   46.600;  620.000;  463.000
292.400;   11.850; -144.000;  211.000
292.539; -124.475; -959.000; -813.000
292.678;  -40.375; -325.000; -300.000
292.816; -151.400;-1136.000; -965.000
292.955;  -86.475; -844.000; -684.000
293.094;  -30.200; -173.000; -337.000
293.233;  -47.475; -556.000; -400.000
293.371;  -44.350; -225.000;  -84.000
293.510; -105.900; -866.000; -780.000
293.649; -123.825; -959.000; -924.000
293.787; -110.425;-1083.000;-1012.000
293.926;  -24.750; -113.000;  -32.000
294.065;  -40.325; -379.000; -290.000
294.203;   41.625;  298.000;  406.000
294.342;   32.300;   74.000;  156.000
294.481; 6598.400;51180.000; -836.000
294.619;  -24.000; -425.000; -582.000
294.758; -148.525;-1230.000;-1137.000
294.896;   18.850; -125.000;    5.000
295.035; -127.850;-1040.000;-1006.000
295.174; -126.450;-1082.000; -954.000
295.312;  -46.375; -323.000; -203.000
295.451;  -33.975; -307.000; -428.000
295.589;  -50.750; -389.000; -518.000
295.728;    9.525; -292.000; -165.000
295.866;   -1.425;  -36.000;  -51.000
296.005;  -59.150; -584.000; -341.000
296.143;  -68.600; -558.000; -596.000
296.282;  -95.225; -957.000; -881.000
296.420;  -79.800; -657.000; -557.000
296.559;  -90.700; -892.000; -633.000
296.697;  -48.875; -847.000; -665.000
296.835;  -53.575;-1141.000;-1002.000
296.974;   24.875;  -23.000;   39.000
297.112;  -34.450; -443.000; -504.000
297.251;  -89.875; -815.000; -755.000
297.389;    6.050; -576.000; -438.000
297.527;   19.100; -145.000;  -83.000
297.666;  -51.075; -486.000; -438.000
297.804;  -34.500; -404.000; -264.000
297.942;    7.550; -136.000; -161.000
298.081;   -2.325; -183.000;   63.000
298.219;   28.775;  -17.000;  -19.000
298.357;   -1.150; -144.000;  -71.000
298.495;  -47.325; -810.000; -812.000
298.634;   23.925;  245.000;  219.000
298.772;  -13.500; -220.000; -338.000
298.910;  -59.175; -309.000; -182.000
299.048;  -19.650; -130.000; -153.000
299.187;  -47.900; -350.000; -250.000
299.325;   -1.700;   52.000;  122.000
299.463;   -7.675; -389.000; -299.000
299.601;   25.050; -327.000; -271.000
299.739; -119.725; -908.000; -883.000
299.877;  -83.675; -791.000; -703.000
300.016;  -78.900;-1095.000; -935.000
300.154;   59.575;  -19.000; -161.000
300.292;  -17.875; -428.000; -348.000
300.430;    1.925; -408.000; -291.000
300.568; -116.825; -940.000; -874.000
300.706;  -73.050; -366.000; -469.000
300.844; -110.475;-1108.000; -979.000
300.982;   79.350;  246.000;  282.000
301.120; -113.075; -965.000; -866.000
301.258;  -91.275; -812.000; -705.000
301.396;    3.075;  104.000;  -41.000
301.534;   -8.150; -218.000; -293.000
301.672;  -74.075; -664.000; -521.000
301.810;  -41.850; -613.000; -545.000
301.948;   40.175;   53.000;  149.000
302.086;  276.025; -250.000;  -32.000
302.224;  351.075; -610.000; -585.000
302.362;  -33.025; -558.000; -622.000
302.500;  -89.050; -923.000; -893.000
302.638;   48.600;  128.000;  245.000
302.776;  -27.900; -352.000; -408.000
302.913;   41.000;  447.000;  236.000
303.051;  -23.975;  -86.000;  -23.000
303.189;   24.350;   90.000;  118.000
303.327;  -41.925; -341.000; -256.000
303.465;  -85.225; -832.000; -588.000
303.603;  -95.175; -805.000; -604.000
303.740;   70.125;  417.000;  241.000
303.878;  -48.775; -800.000; -759.000
304.016;  -93.825; -915.000; -790.000
304.154; -132.000;-1123.000;-1152.000
304.291;  -45.300; -505.000; -554.000
304.429;    0.900;  102.000;   74.000
304.567; -124.175; -908.000; -893.000
304.705;  -51.775; -408.000; -515.000
304.842;   -2.925; -616.000; -540.000
304.980;   18.250;  215.000;   35.000
305.118;   -3.600; -367.000; -365.000
305.255; -102.450; -945.000; -927.000
305.393;   51.450;  178.000;  239.000
305.531; -132.050;-1173.000; -956.000
305.668;  -67.625; -663.000; -582.000
305.806;   13.850; -358.000; -439.000
305.943;    3.900; -629.000; -637.000
306.081;    4.700; -378.000; -267.000
306.219;  -98.450; -863.000; -748.000
306.356;   12.150;  158.000;   27.000
306.494;  148.050;  981.000;  761.000
306.631;    8.150;  -11.000;  -55.000
306.769;   -3.550; -613.000; -485.000
306.906;  -16.275; -284.000; -258.000
307.044;  -54.100; -473.000; -488.000
307.181;  -46.950; -410.000; -332.000
307.319;   -2.325;  112.000;   87.000
307.456; -153.500;-1191.000;-1153.000
307.594;  -89.975; -980.000; -727.000
307.731;  -16.600; -371.000; -164.000
307.868;   10.525;  -15.000;   20.000
308.006; -118.750; -961.000; -847.000
308.143;  -71.425; -618.000; -330.000
308.281;   72.700;  -37.000; -254.000
308.418;  -47.250; -748.000; -640.000
308.555;  -51.925; -400.000; -250.000
308.693;  -66.475; -577.000; -573.000
308.830;  -90.975; -712.000; -657.000
308.967;   -0.700; -215.000;  -95.000
309.105;  -13.550; -507.000; -396.000
309.242;   20.000; -468.000; -367.000
309.379;  114.975; -577.000; -655.000
309.517;  -76.950; -936.000; -948.000
309.654;  -82.225; -910.000; -734.000
309.791;  -65.350; -662.000; -580.000
309.928;  -97.650; -977.000; -914.000
310.065;  143.750;  819.000;  697.000
310.203;  -50.025; -825.000; -850.000
310.340;  -19.700; -465.000; -321.000
310.477;  -61.275; -412.000; -516.000
310.614;  -50.925; -383.000; -473.000
310.751;  -40.350; -427.000; -518.000
310.889;  -13.925;    1.000;   11.000
311.026; -134.400;-1161.000; -939.000
311.163;  -38.625; -386.000; -380.000
311.300;  -70.850; -512.000; -479.000
311.437;  -52.300; -658.000; -619.000
311.574; -140.325;-1226.000; -985.000
311.711;  -57.075; -595.000; -433.000
311.848;  -28.850; -380.000; -388.000
311.985;   27.675;  270.000;   93.000
312.122; -110.850; -932.000; -762.000
312.259;  -92.075; -941.000; -994.000
312.396;  -68.450; -508.000; -551.000
312.533;  -66.100; -812.000; -790.000
312.670; -116.450;-1070.000; -898.000
312.807;  -28.825; -352.000; -367.000
312.944;  -51.525; -513.000; -611.000
313.081;   -5.225; -150.000; -415.000
313.218;  -84.800;-1111.000; -867.000
313.355;   -1.800; -531.000; -449.000
313.492;    1.800; -455.000; -292.000
313.629;  146.100;  815.000;  735.000
313.766; -133.575;-1176.000;-1008.000
313.902;  -10.700; -186.000;   21.000
314.039;  -36.550; -372.000; -289.000
314.176;   37.475;  286.000;  192.000
314.313;  -59.600; -569.000; -473.000
314.450;  -58.200; -788.000; -684.000
314.587;  -46.925; -468.000; -480.000
314.723;   23.875;  -78.000;  130.000
314.860;   58.525;  318.000;  332.000
314.997;   44.850;  223.000;  142.000
315.134;  -13.950; -385.000; -368.000
315.270;   -9.175; -480.000; -496.000
315.407;  -82.750;-1094.000; -967.000
315.544;  -22.100; -657.000; -538.000
315.681;  -30.100; -681.000; -565.000
315.817;   68.625; -133.000; -176.000
315.954;   84.400; -613.000; -392.000
316.091;  -97.025;-1045.000;-1023.000
316.227;  -20.950;  -71.000; -179.000
316.364;   -3.325;   23.000;    6.000
316.500;  -31.350; -113.000; -300.000
316.637;  -32.400; -181.000; -302.000
316.774;  -81.800; -625.000; -358.000
316.910;  -79.600; -598.000; -629.000
317.047;  -54.575; -487.000; -351.000
317.183;  -46.800; -435.000; -566.000
317.320;   30.825; -367.000; -321.000
317.456;  -25.050; -733.000; -805.000
317.593;  -78.675; -598.000; -641.000
317.729;    5.075;  168.000;  -67.000
317.866; -181.900;-1434.000;-1285.000
318.002;  -88.775; -708.000; -948.000
318.139;  -91.600; -883.000; -867.000
318.275; -104.250;-1003.000; -738.000
318.412;  -62.475; -517.000; -336.000
318.548;  -53.600; -751.000; -720.000
318.685;  -97.750; -985.000; -888.000
318.821;  -75.025; -762.000; -735.000
318.957;  -16.975;   34.000;  -23.000
319.094;   45.875;  297.000;  154.000
319.230;  -87.250; -756.000; -742.000
319.367;   25.325; -471.000; -520.000
319.503;   -4.750; -538.000; -436.000
319.639;  -87.150; -877.000; -793.000
319.775;  -76.500; -750.000; -685.000
319.912;  -52.200; -424.000; -519.000
320.048; -103.100;-1184.000;-1184.000
320.184;   96.850;   59.000;   70.000
320.321;  -41.300; -497.000; -467.000
320.457;   64.875;  475.000;  662.000
320.593;  -70.900; -375.000; -382.000
320.729;  -95.400; -732.000; -734.000
320.866;  -69.125; -577.000; -635.000
321.002;  -88.800; -759.000; -809.000
321.138;  -21.000; -135.000; -211.000
321.274;   25.550; -148.000; -115.000
321.410;  -55.575; -585.000; -353.000
321.546;  -80.150;-1011.000; -911.000
321.683;   39.725;  400.000;  185.000
321.819;    0.600;  -48.000; -117.000
321.955; -115.500; -743.000; -722.000
322.091;  -56.825; -585.000; -540.000
322.227;  -14.900; -382.000; -202.000
322.363;  -34.500; -320.000; -215.000
322.499;  -47.500; -343.000; -331.000
322.635;  101.800;  636.000;  443.000
322.771;  -13.650; -139.000;   12.000
322.907;   60.500;  129.000;  327.000
323.043;  -39.225; -115.000; -206.000
323.179;  -31.800; -394.000; -363.000
323.315;  -31.275; -401.000; -371.000
323.451;   35.575; -328.000; -236.000
323.587;   60.475;  -60.000;  -77.000
323.723;  -35.800; -682.000; -601.000
323.859;  -13.675; -258.000;  -76.000
323.995;  -52.850; -467.000; -409.000
324.131; -119.075; -967.000; -892.000
324.267;  -43.025; -254.000; -276.000
324.402; -129.200; -960.000; -983.000
324.538;  -20.900; -279.000; -104.000
324.674;    3.750;  164.000;   77.000
324.810;   63.525;  226.000;  308.000
324.946;  -18.825; -810.000; -658.000
325.082;  -60.450; -568.000; -475.000
325.217;   -3.925;  -62.000;   16.000
325.353; -105.950; -764.000; -659.000
325.489;  -80.650; -540.000; -506.000
325.625;  -67.200; -579.000; -525.000
325.760;   72.775;  517.000;  376.000
325.896;   12.350; -515.000; -702.000
326.032;  -47.150; -403.000; -352.000
326.168;  -60.650; -462.000; -369.000
326.303;  -50.250; -352.000; -461.000
326.439;   -4.700; -336.000; -276.000
326.575;   -4.950; -190.000;  -29.000
326.710;  -11.575; -156.000;  -30.000
326.846;   -4.375;  146.000;  103.000
326.982;  -76.075; -530.000; -548.000
327.117;  -67.050; -481.000; -442.000
327.253;  -73.700; -745.000; -742.000
327.388; -121.625;-1137.000;-1153.000
327.524;  -62.175; -811.000; -578.000
327.659;  -26.650;  -58.000;  -22.000
327.795;  -11.825;   69.000;   45.000
327.931;  -71.300; -723.000; -499.000
328.066;  -30.550; -417.000; -276.000
328.202;  -16.125;   12.000; -129.000
328.337;   79.425;  957.000;  713.000
328.473;   48.775;  -12.000;  -74.000
328.608;   -7.675; -256.000; -267.000
328.743; -100.200; -799.000; -664.000
328.879;   20.650;  214.000;  114.000
329.014;  -11.425; -102.000; -122.000
329.150;  -76.075; -358.000; -483.000
329.285;  -73.175; -465.000; -466.000
329.421;  -50.500; -548.000; -246.000
329.556;  -31.325;  -36.000;   85.000
329.691;  -89.425; -633.000; -615.000
329.827;  -76.000; -626.000; -480.000
329.962;  -31.675;  131.000; -301.000
330.097;  -72.300; -673.000; -585.000
330.233;  -42.625; -410.000; -223.000
330.368; -121.625; -839.000; -628.000
330.503;    0.125;    3.000;   98.000
330.638;   -3.225;  -93.000; -125.000
330.774;  -80.950; -609.000; -530.000
330.909;  -42.600; -434.000; -244.000
331.044;  -95.050; -714.000; -708.000
331.179; -165.425;-1217.000;-1109.000
331.315;    3.525;   77.000;   20.000
331.450;   14.500;  157.000;  285.000
331.585;  -86.850; -805.000; -706.000
331.720;  -80.900; -510.000; -460.000
331.855;   -6.925;  -35.000; -102.000
331.990;  380.675;   62.000;  138.000
332.126;  190.925; -110.000;   71.000
332.261;   -1.050; -379.000; -265.000
332.396;   25.325; -135.000; -242.000
332.531;  -53.225;-1074.000;-1031.000
332.666;   85.500; -519.000; -363.000
332.801;  -85.825; -726.000; -807.000
332.936;  -10.150; -192.000; -122.000
333.071; -108.800; -870.000; -817.000
333.206;   24.375;  307.000;  379.000
333.341;   39.725;  344.000;  418.000
333.476;  -75.325; -627.000; -623.000
333.611;  -35.725; -251.000; -173.000
333.746;  -31.925; -381.000; -464.000
333.881; -112.350; -973.000; -935.000
334.016; -108.175; -936.000; -917.000
334.151; -105.100; -746.000; -702.000
334.286;   30.875;  152.000;  186.000
334.421;    0.425; -125.000; -178.000
334.556;  -63.675; -611.000; -567.000
334.690;  -69.300; -631.000; -577.000
334.825;   75.375;  381.000;   83.000
334.960;  -36.450; -285.000; -413.000
335.095;   30.225;  135.000;  -91.000
335.230;  -67.650; -722.000; -738.000
335.365;  -93.850;-1084.000; -990.000
335.499; -102.975;-1108.000;-1037.000
335.634;   46.700;    9.000;  534.000
335.769;  -63.575; -755.000; -720.000
335.904;  -17.725; -603.000; -561.000
336.038;  -16.075; -735.000; -657.000
336.173;  -64.150;-1206.000;-1194.000
336.308;   49.300; -116.000; -189.000
336.443;  105.625; -544.000; -634.000
336.577;   16.025; -936.000; -787.000
336.712;  127.100;   -4.000;  -12.000
336.847;   43.600; -724.000; -607.000
336.981;  135.850; -272.000; -208.000
337.116;  413.750;  615.000;  501.000
337.250;  218.675; -434.000; -421.000
337.385;  403.125; -297.000; -208.000
337.520;  190.375; -632.000; -603.000
337.654;  -29.900; -215.000; -126.000
337.789; -117.000; -989.000; -933.000
337.923;  -46.150; -104.000; -205.000
338.058;  -99.425; -673.000; -738.000
338.192;  -56.600; -611.000; -488.000
338.327;  -14.100;  -18.000; -155.000
338.461;  -76.025; -299.000; -469.000
338.596;  -84.950; -780.000; -638.000
338.730;  -81.100; -767.000; -803.000
338.865;  148.650;  -46.000; -140.000
338.999;    0.650; -846.000; -702.000
339.134;   -3.175; -634.000; -536.000
339.268;   30.300; -741.000; -603.000
339.403;  494.600; -740.000; -775.000
339.537;  233.550; -894.000; -820.000
339.671; -105.950; -829.000; -813.000
339.806;  -18.750; -556.000; -512.000
339.940;   32.575; -261.000; -235.000
340.074; -102.725; -685.000; -510.000
340.209;  -35.625; -351.000; -230.000
340.343;  -81.350; -517.000; -573.000
340.477;  123.475;  998.000; 1036.000
340.612;  -26.000;-1033.000; -900.000
340.746;  193.875; -199.000; -243.000
340.880;  -93.250; -924.000; -785.000
341.014;  -31.925;  -45.000; -154.000
341.149; -109.125; -756.000; -718.000
341.283; -111.150; -839.000; -754.000
341.417; -124.775;-1124.000; -938.000
341.551;    8.300; -768.000; -708.000
341.685;  -52.175; -633.000; -611.000
341.820;  -42.975; -562.000; -493.000
341.954;  -56.425; -218.000; -349.000
342.088; -155.925;-1102.000;-1019.000
342.222;   41.325;  565.000;  618.000
342.356;  -62.600; -395.000; -335.000
342.490; -106.400; -880.000; -841.000
342.624;  -43.800; -339.000; -242.000
342.758;  -49.675; -364.000; -312.000
342.892;  -71.175; -710.000; -585.000
343.026;  -31.350;  -58.000; -116.000
343.160;  -60.875; -426.000; -376.000
343.294;  -82.500; -474.000; -337.000
343.428;  -62.700; -488.000; -448.000
343.562;  -23.200; -172.000;  -23.000
343.696;  -50.925; -385.000; -314.000
343.830;  -38.100; -362.000; -356.000
343.964;  -17.175; -231.000; -168.000
344.098;  417.325;  199.000;   70.000
344.232;  364.950; -266.000; -127.000
344.366;   67.675; -567.000; -453.000
344.500;  -23.625; -665.000; -744.000
344.634;  -32.450; -324.000; -164.000
344.768;  -38.150; -531.000; -341.000
344.902;    4.900;  278.000;  256.000
345.035;  -59.700; -556.000; -496.000
345.169; -121.325; -933.000; -656.000
345.303;  -43.075; -308.000; -482.000
345.437; -100.850; -826.000; -717.000
345.571;  -53.075; -675.000; -594.000
345.704;  -63.850; -309.000; -532.000
345.838;  -21.575; -331.000; -284.000
345.972;  -57.275; -543.000; -495.000
346.106;  227.950; -179.000; -190.000
346.239;  450.950; -312.000; -243.000
346.373;   -5.300; -343.000; -302.000
346.507; -136.600; -950.000; -962.000
346.640;   58.575;  -30.000;   13.000
346.774;  -89.275; -650.000; -797.000
346.908;  -21.575; -138.000;  -11.000
347.041; -103.575; -646.000; -593.000
347.175;    7.100;  259.000;   27.000
347.309;  -93.925; -698.000; -628.000
347.442; -112.200; -883.000; -732.000
347.576;  159.075;  670.000;  668.000
347.709;   67.275; -123.000;  -52.000
347.843; -102.500; -933.000; -825.000
347.976;   37.050;  235.000;  294.000
348.110; -176.650;-1268.000;-1186.000
348.243;  -85.175; -679.000; -772.000
348.377;   12.825;  -26.000;   60.000
348.510;   50.950;  403.000;  540.000
348.644;  -32.200;  -37.000; -159.000
348.777;    6.575;  180.000;  191.000
348.911;  -46.075; -142.000; -112.000
349.044;   94.700;  471.000;  448.000
349.178;   -5.950;-1069.000;-1006.000
349.311;  123.225;  141.000;  255.000
349.444;   26.525; -927.000; -813.000
349.578;  -16.675; -347.000; -200.000
349.711; -127.800; -959.000; -862.000
349.845;  -41.925; -661.000; -591.000
349.978; -142.425;-1224.000;-1137.000
350.111;  -83.675; -546.000; -612.000
350.244;  -94.225; -596.000; -700.000
350.378;  -30.225; -392.000; -393.000
350.511;  -74.200; -393.000; -426.000
350.644; -101.400; -808.000; -806.000
350.778;   15.375;  168.000;  104.000
350.911;    5.575;  134.000;  140.000
351.044;  -84.350; -685.000; -615.000
351.177;  -37.275; -321.000; -281.000
351.310;  -20.250;    3.000; -131.000
351.444;  -92.500; -888.000; -788.000
351.577;   55.500;  140.000;   90.000
351.710;   82.600;  593.000;  417.000
351.843;  -27.300; -165.000;  -77.000
351.976;    2.150;  149.000;  -79.000
352.109;  -81.900; -621.000; -612.000
352.242;  -45.500; -464.000; -419.000
352.376;  -75.000; -580.000; -636.000
352.509;   54.425; -437.000; -356.000
352.642;  -49.950; -654.000; -604.000
352.775;   19.550; -141.000;  -98.000
352.908; -109.025; -933.000; -904.000
353.041;  -89.925; -814.000; -824.000
353.174;  -48.925; -551.000; -424.000
353.307;  -71.200; -753.000; -764.000
353.440;   90.150;  541.000;  453.000
353.573;  -89.075; -957.000;-1008.000
353.706;   -6.925; -384.000; -558.000
353.839;  -12.375; -264.000; -220.000
353.971;  -66.175; -657.000; -512.000
354.104;  -91.550; -896.000; -835.000
354.237;  -65.500; -627.000; -662.000
354.370;  -74.750; -846.000; -879.000
354.503; -150.200;-1231.000;-1308.000
354.636;  -11.800; -529.000; -348.000
354.769; -102.475; -937.000; -860.000
354.902;    4.350; -230.000; -139.000
355.034;   -0.025; -164.000; -220.000
355.167;   16.500; -262.000; -162.000
355.300;  -58.075;-1061.000; -880.000
355.433; 1416.175;  -71.000;  -14.000
355.565; 2185.375; -402.000; -384.000
355.698;  554.250; -356.000; -296.000
355.831;   17.075; -882.000; -801.000
355.964;   63.975; -285.000; -170.000
356.096;  -53.100; -856.000; -843.000
356.229;   35.775; -523.000; -530.000
356.362;  520.100; -373.000; -266.000
356.494;  874.300; -229.000; -162.000
356.627;  385.300;  269.000;  377.000
356.760;  867.475;  120.000;   53.000
356.892; 1419.325; -286.000; -601.000
357.025;  434.325;  403.000;  389.000
357.157;  330.400; -167.000; -179.000
357.290; 1044.725; -856.000; -713.000
357.423;  327.425; -667.000; -556.000
357.555;  160.850; -217.000; -228.000
357.688;  219.800; -483.000; -364.000
357.820;  277.150; -870.000; -877.000
357.953; 2038.150; -563.000; -589.000
358.085;  364.725; -632.000; -612.000
358.218;  280.000;-1131.000; -932.000
358.350;   74.400;  -58.000;  312.000
358.483; -149.250;-1300.000;-1187.000
358.615; -107.625;-1182.000;-1078.000
358.747; -115.975;-1187.000;-1058.000
358.880;  -23.550; -810.000; -744.000
359.012;  -22.125; -376.000; -202.000
359.145;  -50.750; -480.000; -511.000
359.277;  -28.100; -962.000; -913.000
359.409; 1687.600;  536.000;  231.000
359.542;  420.550; -738.000; -688.000
359.674;   41.675;   46.000;   13.000
359.806;  -69.200; -565.000; -438.000
359.939;  -51.975; -617.000; -516.000
360.071;   30.100; -583.000; -579.000
360.203;  -21.950; -411.000; -364.000
360.335;   26.875;  164.000;  -16.000
360.468;  114.650; -249.000; -307.000
360.600; 1591.050; -547.000; -454.000
360.732; 3806.175; -546.000; -423.000
360.864;  579.225;-1216.000;-1044.000
360.996;  113.775; -516.000; -554.000
361.129;  -18.825; -389.000; -598.000
361.261;    8.150;  110.000; -113.000
361.393;  -47.250; -252.000; -214.000
361.525;    8.825;   94.000;  244.000
361.657; -111.550; -821.000; -703.000
361.789;  -24.200; -139.000; -155.000
361.921;   -9.425; -642.000; -593.000
362.053;  124.675;  524.000;  541.000
362.185;    5.225;  288.000;   72.000
362.318;  -94.725; -709.000; -705.000
362.450;   57.175;  294.000;  444.000
362.582;  -21.375; -913.000; -870.000
362.714;  -52.225; -353.000; -332.000
362.846;  -71.775; -606.000; -490.000
362.978; -133.900; -941.000; -811.000
363.109;  -11.800; -161.000; -260.000
363.241;  200.225; -739.000; -749.000
363.373;  597.450; -649.000; -564.000
363.505;  937.925; -186.000;  -91.000
363.637;  203.700; -787.000; -601.000
363.769; -114.150;-1067.000;-1080.000
363.901;  -68.725; -596.000; -654.000
364.033; -145.725;-1103.000;-1062.000
364.165;  -14.375; -283.000; -283.000
364.296;   98.350; -316.000; -177.000
364.428;  184.200;-1344.000;-1220.000
364.560;  -68.225; -679.000; -661.000
364.692;  -82.250; -738.000; -835.000
364.824;   47.075; -588.000; -456.000
364.955;  449.975; -402.000; -564.000
365.087; 1424.850;-1097.000; -852.000
365.219;   82.100; -686.000; -816.000
365.351;  -72.975; -526.000; -572.000
365.482;   31.250;  300.000;  240.000
365.614;  -49.225; -402.000; -314.000
365.746;  -97.500; -729.000; -752.000
365.877;  -85.050; -706.000; -672.000
366.009;  381.375;  -35.000;  -62.000
366.141;  -35.425;-1249.000;-1134.000
366.272;  -91.400; -803.000; -719.000
366.404; -130.450;-1005.000; -874.000
366.535;  -11.475; -139.000;  -12.000
366.667;  -91.875; -644.000; -649.000
366.799;   23.700;  353.000;  203.000
366.930; -130.950; -862.000; -996.000
367.062;  182.125; -639.000; -613.000
367.193;  300.250; -872.000; -842.000
367.325;  -45.575; -580.000; -684.000
367.456;   23.475; -246.000;   31.000
367.588;  229.650; -371.000; -318.000
367.719;   35.600;  -44.000;  -45.000
367.851;  -23.300; -222.000; -241.000
367.982;  -92.875; -875.000; -732.000
368.113;   23.475; -475.000; -358.000
368.245; -130.275; -960.000; -841.000
368.376;  -32.100; -254.000; -302.000
368.508;  -47.600; -188.000; -263.000
368.639; -146.825;-1166.000;-1034.000
368.770;  -77.425; -670.000; -589.000
368.902;  -91.450; -836.000; -926.000
369.033; -121.100; -906.000; -855.000
369.164;  -21.850; -720.000; -653.000
369.296; -111.400; -452.000; -601.000
369.427;  -27.550; -209.000; -144.000
369.558;  -70.200; -593.000; -377.000
369.689;  -74.300; -721.000; -569.000
369.821; -120.650; -951.000; -845.000
369.952;  -23.700;   42.000; -108.000
370.083;  -60.925; -229.000; -108.000
370.214;  -93.325; -735.000; -650.000
370.345;  -15.325;   65.000;   81.000
370.477; -100.550; -810.000; -790.000
370.608;   70.050; -328.000; -264.000
370.739; -107.525;-1233.000;-1292.000
370.870;  -94.450;-1102.000; -923.000
371.001;   10.525; -378.000; -467.000
371.132;  -86.650; -754.000; -735.000
371.263;  -25.875;  -42.000; -148.000
371.394; -127.750; -841.000; -748.000
371.525;   26.250;  345.000;  225.000
371.657; -103.550; -808.000; -670.000
371.788;   45.150;  103.000;  199.000
371.919;   52.700; -384.000; -304.000
372.050; 1742.025;  -91.000; -156.000
372.181;  534.075; -188.000; -294.000
372.311;  169.300;   42.000; -127.000
372.442;  -20.175; -457.000; -451.000
372.573;  -31.850; -444.000; -340.000
372.704; -130.325;-1008.000; -980.000
372.835;   -9.150; -228.000; -289.000
372.966;  -65.750; -646.000; -554.000
373.097;  -74.825; -575.000; -711.000
373.228;  -75.100; -717.000; -542.000
373.359;   -6.125; -824.000; -536.000
373.490;  312.250; -881.000; -727.000
373.620;  412.350;-1001.000; -803.000
373.751;  812.875; -332.000; -396.000
373.882;  358.225; -663.000; -733.000
374.013;   16.450; -449.000; -262.000
374.143;  -62.425; -581.000; -659.000
374.274; -112.000; -987.000; -908.000
374.405;   92.650; -388.000; -276.000
374.536;  202.200; -526.000; -387.000
374.666;  484.250; -759.000; -807.000
374.797;   56.525; -817.000; -868.000
374.928;  341.725; -710.000; -560.000
375.058;  330.500; -535.000; -500.000
375.189;   32.250;  -59.000;  -93.000
375.320;  -87.625; -928.000;-1034.000
375.450;  -38.575; -625.000; -616.000
375.581;  -19.700; -526.000; -436.000
375.712;  -30.125; -574.000; -250.000
375.842;   64.125; -438.000; -415.000
375.973;   29.850; -554.000; -513.000
376.103;  -83.375; -665.000; -648.000
376.234;  -77.275; -531.000; -552.000
376.364;  -86.700; -944.000; -867.000
376.495;  182.300;  925.000;  529.000
376.625;  -41.425; -472.000; -485.000
376.756;  -15.875; -709.000; -678.000
376.886; -123.825;-1178.000;-1026.000
377.017;  134.300;-1048.000;-1061.000
377.147;  611.100; -786.000; -782.000
377.278;   95.900;  174.000;  228.000
377.408; -122.900; -801.000; -815.000
377.538; -109.450; -707.000; -693.000
377.669;  -78.000; -537.000; -613.000
377.799;  -86.025; -645.000; -635.000
377.929;  -69.525; -610.000; -428.000
378.060; -121.375; -781.000; -847.000
378.190;  -23.975; -726.000; -531.000
378.320;  -32.475; -401.000; -406.000
378.451;  -18.675; -131.000;  -22.000
378.581;  -24.950;  -67.000; -110.000
378.711;  103.075; 1035.000;  866.000
378.841;  -64.850; -533.000; -675.000
378.972;  -95.625; -871.000; -751.000
379.102;  -45.200; -652.000; -579.000
379.232;  -30.025; -126.000;  -73.000
379.362;  -99.875;-1001.000; -885.000
379.492;  -32.325; -373.000; -424.000
379.623;   58.725;    0.000;  111.000
379.753; -103.150;-1107.000; -974.000
379.883;  115.675;   59.000;  156.000
380.013;  -59.100;-1081.000;-1017.000
380.143; -106.275;-1097.000;-1056.000
380.273;  -79.025; -985.000; -861.000
380.403;   39.100; -344.000; -257.000
380.533;   -6.175; -651.000; -664.000
380.663;   27.525;  173.000;  128.000
380.793; -146.650;-1027.000;-1074.000
380.923;  -22.325; -103.000;  -34.000
381.053;  -91.775; -613.000; -623.000
381.183;  -38.250; -106.000; -248.000
381.313;  -49.725; -656.000; -470.000
381.443;  -20.975; -692.000; -473.000
381.573;    0.025; -402.000; -409.000
381.703;  -23.125;-1249.000;-1095.000
381.833; -164.250;-1454.000;-1336.000
381.963;   50.675; -134.000;  -87.000
382.093;  562.350; -925.000; -909.000
382.223;  154.550; -713.000; -602.000
382.353;  -79.250; -801.000; -608.000
382.482;   77.650;-1091.000; -964.000
382.612;  287.550; -872.000; -644.000
382.742;  138.400; -695.000; -622.000
382.872;   16.050; -565.000; -551.000
383.002;   36.075;  347.000; -132.000
383.131;  -27.925; -226.000; -160.000
383.261;  -41.400; -706.000; -768.000
383.391;  296.725; -552.000; -377.000
383.521; 4444.700;  451.000;  263.000
383.650; 1286.825; -947.000; -904.000
383.780;   25.950; -783.000; -656.000
383.910;  102.225;  880.000;  802.000
384.039;  -58.650; -794.000; -656.000
384.169;  -48.175;-1205.000;-1017.000
384.299;  -77.250; -650.000; -662.000
384.428; -105.700; -764.000; -680.000
384.558;  -41.950; -308.000; -275.000
384.687;  -60.000; -414.000; -334.000
384.817;   -5.400;   75.000;   -2.000
384.947;  -40.850; -234.000; -141.000
385.076;  174.100;  982.000;  912.000
385.206;   76.000;  369.000;  480.000
385.335;  -50.750; -549.000; -417.000
385.465;  -84.875; -655.000; -663.000
385.594;   48.250;  -53.000;  -44.000
385.724;  127.175; -868.000; -838.000
385.853;   18.475; -296.000; -270.000
385.982;  554.850; -743.000; -787.000
386.112;  970.750;-1052.000; -871.000
386.241;   42.475; -307.000; -312.000
386.371;  -11.925; -174.000;  -87.000
386.500;  -20.900; -825.000; -789.000
386.629;    3.725; -874.000; -817.000
386.759;   54.950;  -43.000;   68.000
386.888;   -2.475; -170.000; -250.000
387.017;  -88.550; -648.000; -620.000
387.147;  -87.975; -771.000; -798.000
387.276;  -53.075; -410.000; -397.000
387.405;  -38.925; -398.000; -342.000
387.535;  -70.725; -452.000; -361.000
387.664;  -64.300; -692.000; -620.000
387.793;    1.425; -198.000; -113.000
387.922;  237.800;  255.000;  200.000
388.052;  -34.375; -576.000; -423.000
388.181;  -28.200; -342.000; -472.000
388.310;  -69.650; -889.000; -710.000
388.439;  -89.250; -749.000; -742.000
388.568;   65.700;  365.000;  244.000
388.697;  418.750; -756.000; -653.000
388.826;   52.075; -768.000; -666.000
388.956;  -14.625; -285.000; -307.000
389.085;  -49.675; -347.000; -287.000
389.214; -113.725; -842.000; -872.000
389.343;  -63.075; -645.000; -413.000
389.472;  515.800;  126.000;  149.000
389.601;  603.350;   91.000;    0.000
389.730;   -4.975; -568.000; -687.000
389.859;   30.150;  226.000;   46.000
389.988;   73.525; -423.000; -408.000
390.117;   58.075; -168.000; -146.000
390.246;  -41.475; -331.000; -320.000
390.375;  -28.125; -673.000; -626.000
390.504;  -78.025; -703.000; -621.000
390.633; -121.725; -672.000; -726.000
390.761;  -93.775; -732.000; -645.000
390.890;  -14.950;   -4.000; -130.000
391.019;  -54.525; -421.000; -441.000
391.148; -135.275; -826.000; -855.000
391.277;  -73.075; -576.000; -493.000
391.406; -113.425; -821.000; -805.000
391.534;   12.000;  574.000; -301.000
391.663;  -88.900; -583.000; -645.000
391.792; -102.525; -673.000; -701.000
391.921;   12.350;   -3.000;   15.000
392.050;   40.500; -287.000; -228.000
392.178; -110.625;-1206.000;-1061.000
392.307;    0.075; -758.000; -712.000
392.436;  -14.300; -427.000; -641.000
392.564;   13.950;  166.000;   -6.000
392.693;  -99.925; -860.000; -682.000
392.822;   35.125; -529.000; -534.000
392.950;  -10.175; -880.000; -714.000
393.079;  137.325; -188.000; -328.000
393.208;  -24.025; -488.000; -511.000
393.336;  -17.850; -170.000; -145.000
393.465;  -50.075; -317.000; -199.000
393.593;   -7.750;   62.000;   79.000
393.722; -143.900;-1121.000; -916.000
393.850;  -26.600; -188.000;  -61.000
393.979; -130.925; -926.000; -805.000
394.107;  -61.925; -517.000; -537.000
394.236;  -50.325; -570.000; -507.000
394.364;  128.575;  383.000;  206.000
394.493;  136.800; -911.000; -767.000
394.621;   14.650; -955.000; -916.000
394.750; 1094.575; -873.000; -923.000
394.878; 4281.250; -247.000; -149.000
395.007; 6215.725; -721.000; -807.000
395.135;  550.725; -790.000; -721.000
395.263;  -58.125;-1038.000;-1040.000
395.392;    9.225;  -25.000; -107.000
395.520; -120.275; -818.000; -679.000
395.648; -117.375; -865.000; -915.000
395.777;  -57.850; -366.000; -405.000
395.905;  -79.750; -449.000; -564.000
396.033;   -0.175;  217.000;  172.000
396.162;  213.775; -399.000; -453.000
396.290;  237.825;  -17.000;   -2.000
396.418;  -27.225; -555.000; -514.000
396.546;  -76.375; -571.000; -466.000
396.674; -128.875; -850.000; -878.000
396.803;  -23.400;  -72.000;  -23.000
396.931;   -4.125; -179.000; -199.000
397.059;  -91.750;-1026.000; -989.000
397.187; -128.350;-1026.000; -975.000
397.315; -137.800; -884.000; -649.000
397.443;  -99.175; -592.000; -443.000
397.572;  -91.075; -578.000; -424.000
397.700;  -72.650; -607.000; -614.000
397.828;   -8.950;  120.000;  -90.000
397.956;  -29.950; -508.000; -478.000
398.084;  -20.150; -767.000; -626.000
398.212;   31.400;  137.000;  124.000
398.340;  -12.225;  -56.000;  159.000
398.468;  -53.350; -390.000; -169.000
398.596; -133.800; -993.000; -953.000
398.724; -125.375; -762.000; -767.000
398.852; -149.025;-1024.000; -976.000
398.980;  -82.925; -560.000; -560.000
399.108;  -87.850; -982.000; -735.000
399.236;    0.650;   13.000;    8.000
399.363;   11.875;  222.000;  196.000
399.491;  -58.650; -404.000; -398.000
399.619; -116.650; -829.000; -800.000
399.747;  -95.350; -859.000; -771.000
399.875;   45.800;  220.000;  234.000
400.003;  -47.650; -359.000; -284.000
400.130;  -87.500; -421.000; -341.000
400.258;  -28.825;  -83.000;   38.000
400.386;  -73.150; -352.000; -168.000
400.514;  -76.150; -526.000; -587.000
400.641; -136.900; -928.000; -802.000
400.769; -140.425; -979.000; -888.000
400.897; -129.425; -838.000; -793.000
401.025;  -28.600; -166.000; -152.000
401.152;   -6.350;  220.000;   38.000
401.280;  -87.600; -430.000; -429.000
401.408; -111.325; -712.000; -576.000
401.535; -101.600; -735.000; -758.000
401.663; -176.300;-1134.000;-1054.000
401.790;  -84.875; -514.000; -525.000
401.918;   33.950;  436.000;  405.000
402.046;  -19.375;  134.000;  122.000
402.173;  -42.725;  -18.000;    7.000
402.301;  -60.100; -519.000; -397.000
402.428;   36.725;  528.000;  383.000
402.556; -151.325;-1188.000; -913.000
402.683;  -39.175;  -20.000;   -1.000
402.811;  -27.750;  -37.000; -206.000
402.938;   -8.825;   20.000;   27.000
403.066;   46.775; -574.000; -558.000
403.193;  182.375;  299.000;  239.000
403.321;   92.550; -396.000; -574.000
403.448;  177.050;   83.000;   27.000
403.575;   63.675;  -90.000;  -46.000
403.703;  -94.500; -732.000; -557.000
403.830;  -47.450; -531.000; -496.000
403.957; -122.950;-1117.000;-1023.000
404.085;   20.225;  -61.000; -172.000
404.212;  124.650;  -50.000;   63.000
404.339;  418.100; -566.000; -306.000
404.467; 8542.425; -612.000; -524.000
404.594; 5248.750; -287.000; -227.000
404.721;  958.225; -869.000; -764.000
404.848;  105.875; -113.000; -202.000
404.976;  -92.725; -856.000; -783.000
405.103;   -3.450;  -14.000;  -82.000
405.230;   11.375;  190.000;  226.000
405.357;   54.000;  117.000;   44.000
405.484;  388.700;  -49.000;    5.000
405.612;  110.625; -548.000; -563.000
405.739;  -51.675; -488.000; -243.000
405.866;   72.750;  669.000;  385.000
405.993;  -45.000; -398.000; -102.000
406.120; -123.475; -801.000; -887.000
406.247;  -67.500; -323.000; -342.000
406.374;  154.700;  540.000;  629.000
406.501;  -36.425; -632.000; -702.000
406.628; -102.050; -621.000; -589.000
406.755; -114.050; -803.000; -620.000
406.882;  -41.025; -228.000; -277.000
407.009; -116.525; -719.000; -628.000
407.136;  -25.850; -480.000; -401.000
407.263;   -9.025; -939.000; -829.000
407.390;  -79.800; -692.000; -614.000
407.517; -181.450;-1139.000;-1187.000
407.644;  -70.600; -332.000; -256.000
407.771;  -87.500; -249.000; -287.000
407.898;    2.925;  168.000;  328.000
408.025;  -72.925; -421.000; -313.000
408.151;    0.025;   82.000;  153.000
408.278;  -64.225; -267.000; -216.000
408.405; -120.500; -931.000; -899.000
408.532;  -88.350; -549.000; -542.000
408.659; -114.200; -677.000; -648.000
408.785; -187.700;-1298.000;-1170.000
408.912;  -73.000; -412.000; -296.000
409.039; -119.475; -610.000; -686.000
409.166; -109.700; -591.000; -555.000
409.292; -108.325; -571.000; -534.000
409.419; -109.050; -665.000; -649.000
409.546;  -74.125; -431.000; -192.000
409.672; -113.450; -713.000; -545.000
409.799;  -28.350;  -36.000;   34.000
409.926;  -55.950; -180.000; -179.000
410.052; -184.075;-1127.000;-1091.000
410.179;  -69.525; -368.000; -392.000
410.305;  -92.075; -375.000; -493.000
410.432;  -26.425; -220.000; -333.000
410.558;  -88.775; -305.000; -380.000
410.685; -108.075; -688.000; -431.000
410.812; -103.550; -409.000; -588.000
410.938; -129.075; -964.000; -808.000
411.065; -120.675; -671.000; -645.000
411.191;  -28.375; -189.000; -174.000
411.317; -121.550; -823.000; -742.000
411.444;  -62.725; -317.000; -246.000
411.570;  -88.025; -339.000; -294.000
411.697; -140.000; -758.000; -752.000
411.823; -176.050; -989.000; -999.000
411.949;  -44.250;  -56.000;   17.000
412.076; -108.050; -539.000; -519.000
412.202; -117.525; -758.000; -757.000
412.329; -129.550; -798.000; -752.000
412.455; -122.725; -821.000; -657.000
412.581;  -24.775;  -15.000;  172.000
412.707;  -85.225; -540.000; -457.000
412.834;   -5.750;  156.000;  219.000
412.960;  -85.525; -785.000; -784.000
413.086; -101.900; -743.000; -701.000
413.212;  130.250;  604.000;  578.000
413.339;  -87.225; -685.000; -701.000
413.465;  -38.700; -364.000; -310.000
413.591; -111.300; -757.000; -474.000
413.717;  -48.700; -358.000; -366.000
413.843; -136.675; -839.000; -861.000
413.969;  -66.625;  -47.000; -292.000
414.096;  -86.950; -679.000; -679.000
414.222;   -3.100;  -33.000;   85.000
414.348;  -71.025; -652.000; -385.000
414.474;   19.500;   38.000;  -52.000
414.600;  -16.450; -126.000; -144.000
414.726;   -8.575;  -96.000;  -55.000
414.852;  -38.625; -365.000; -342.000
414.978;   54.425;  104.000;  -18.000
415.104;   65.275;   38.000;   80.000
415.230;   50.775; -329.000; -330.000
415.356;   72.425; -409.000; -514.000
415.482;  227.175;   13.000;  -35.000
415.608;  408.250; -247.000; -323.000
415.734; 1317.100;   67.000;   38.000
415.860;27345.250; -875.000; -767.000
415.986;22298.150; -685.000; -607.000
416.111; 2051.275; -798.000; -652.000
416.237;  450.150; -424.000; -571.000
416.363; 1603.575; -765.000; -733.000
416.489; 6374.775; -324.000; -251.000
416.615;  849.550; -707.000; -742.000
416.741;   47.525; -677.000; -784.000
416.866;  -59.025; -673.000; -736.000
416.992; -114.175; -801.000; -818.000
417.118;  -18.625;  -41.000;  -80.000
417.244;  -71.700; -798.000; -531.000
417.369;  -89.975; -801.000; -612.000
417.495;  -13.900; -325.000; -254.000
417.621;  -79.200;-1015.000; -803.000
417.746;   13.525; -579.000; -572.000
417.872;   47.975; -254.000; -144.000
417.998;  106.450; -515.000; -530.000
418.123; 1472.775;-1073.000; -845.000
418.249; 8205.400; -512.000; -601.000
418.374; 1375.100; -916.000; -824.000
418.500;  239.825; -383.000; -482.000
418.626;  168.450;   70.000;  -59.000
418.751;  156.450; -549.000; -448.000
418.877;  303.000; -637.000; -643.000
419.002; 2472.600; -688.000; -560.000
419.128;18487.900; -930.000; -721.000
419.253; 5178.200; -967.000; -837.000
419.379;  719.025; -391.000; -338.000
419.504;  551.600;  325.000;  415.000
419.629;  762.975; -393.000; -212.000
419.755; 4993.125; -317.000; -254.000
419.880;32295.025;  -98.000;   67.000
420.006;16568.725; -280.000; -221.000
420.131;41683.375; -662.000; -775.000
420.256; 6645.825; -315.000; -316.000
420.382;  891.675; -665.000; -687.000
420.507;  148.050; -649.000; -778.000
420.632;   62.250; -337.000; -339.000
420.758;  114.650; -251.000; -425.000
420.883;  -84.275; -876.000; -672.000
421.008;  -92.625; -775.000; -619.000
421.133;  -93.275; -509.000; -467.000
421.259;  -32.700; -325.000; -259.000
421.384; -119.575; -834.000; -693.000
421.509; -109.700;-1052.000; -862.000
421.634;  390.950; -936.000; -820.000
421.759;  194.700; -359.000; -327.000
421.885;  -93.275; -717.000; -656.000
422.010;  -84.750; -673.000; -542.000
422.135; -136.850; -695.000; -727.000
422.260;   20.600;  340.000;  280.000
422.385;  -42.450;   12.000;  -98.000
422.510;   -2.300;  151.000;  -26.000
422.635;    3.150;  -87.000;  -43.000
422.760;    2.350; -766.000; -791.000
422.885;   34.725;  -57.000;  -80.000
423.010;  -32.500; -112.000; -169.000
423.135;  -91.025; -481.000; -561.000
423.260;  -31.675; -150.000; -245.000
423.385;   30.200;  476.000;  222.000
423.510;   10.225;   71.000;  -22.000
423.635;   27.050;  133.000;   45.000
423.760;   62.975;  383.000;  328.000
423.885;   29.350;  336.000;  391.000
424.010;   14.475;  -68.000;  -13.000
424.135;  -21.075;    5.000;  -33.000
424.259;  -72.175; -654.000; -457.000
424.384;  -48.275; -279.000; -272.000
424.509;  -17.025; -260.000; -186.000
424.634;  -78.600; -761.000; -623.000
424.759;  -33.200; -688.000; -544.000
424.883;    2.725; -506.000; -527.000
425.008;  203.325; -502.000; -410.000
425.133; 2789.225; -679.000; -653.000
425.258; 1463.900; -517.000; -381.000
425.382;  619.725; -867.000; -774.000
425.507; 1511.600; -487.000; -543.000
425.632;  402.950; -802.000; -663.000
425.756;  639.300; -256.000; -146.000
425.881; 9065.100; -831.000; -857.000
426.006;27718.200; -604.000; -355.000
426.130; 4554.275; -696.000; -508.000
426.255;  641.250; -611.000; -491.000
426.379;  257.350; -189.000; -577.000
426.504;  490.825;  660.000;  544.000
426.629; 5736.250; -519.000; -466.000
426.753; 4408.875;   64.000;  -46.000
426.878;  559.075; -252.000; -288.000
427.002;  280.125; -651.000; -668.000
427.127; 2016.675;  -35.000; -158.000
427.251;16439.850;  372.000;  401.000
427.375; 5255.800; -191.000; -173.000
427.500; 1582.325; -616.000; -610.000
427.624;  527.325; -234.000; -400.000
427.749;  111.325; -216.000; -225.000
427.873;   -4.200; -499.000; -412.000
427.997;  -34.675; -222.000; -230.000
428.122;   69.025;  795.000;  703.000
428.246;   38.975;  433.000;  434.000
428.371; -123.725; -869.000; -773.000
428.495; -101.975; -624.000; -646.000
428.619;  -32.875; -186.000; -117.000
428.743;   12.200;   65.000;  132.000
428.868;  -50.000; -732.000; -643.000
428.992;  696.850; -219.000; -326.000
429.116;  289.625; -329.000; -357.000
429.240;  154.550;  419.000;  426.000
429.365;  -32.175; -454.000; -574.000
429.489;  -51.475; -638.000; -647.000
429.613;   36.725; -236.000; -177.000
429.737;   74.975; -563.000; -432.000
429.861;  358.625; -247.000; -133.000
429.985; 7678.325; -425.000; -305.000
430.109; 9646.950; -770.000; -908.000
430.234; 1184.700;   76.000;  -50.000
430.358;  144.800; -250.000; -160.000
430.482;  -42.275; -672.000; -564.000
430.606;  -79.450; -655.000; -375.000
430.730;  -50.900; -437.000; -388.000
430.854;  -54.725; -909.000; -835.000
430.978;  -71.325; -795.000; -764.000
431.102;  -92.425; -499.000; -422.000
431.226; -108.400; -874.000; -815.000
431.350;   23.325;  345.000;  422.000
431.474;  -81.325; -661.000; -373.000
431.597; -154.650;-1060.000; -848.000
431.721;  -71.325; -276.000; -267.000
431.845; -117.850; -704.000; -472.000
431.969;  -75.350; -304.000; -349.000
432.093;  -83.950; -395.000; -317.000
432.217;  -14.600;   32.000;   82.000
432.341;  -68.150; -523.000; -518.000
432.464;   -8.650;   96.000;   40.000
432.588;   -0.775; -401.000; -329.000
432.712;   38.550;  -52.000;  -52.000
432.836;   65.950;  213.000;  263.000
432.959;    4.175; -372.000; -311.000
433.083;  156.100;   11.000;    2.000
433.207;  547.125;  285.000;  930.000
433.330; 7242.625; -391.000; -200.000
433.454;10038.000; -654.000; -638.000
433.578; 5553.425;  583.000;  278.000
433.701; 1187.875; -623.000; -675.000
433.825;  156.700; -292.000; -299.000
433.949;   87.975;   28.000;  -72.000
434.072;    0.725; -410.000; -323.000
434.196;   -4.800; -309.000; -117.000
434.319; 3571.175;25482.000;25124.000
434.443;  841.050; -656.000; -603.000
434.566; 3854.750;  281.000;   62.000
434.690;  827.950; -637.000; -383.000
434.813;  133.050; -251.000; -173.000
434.937;  -43.100; -569.000; -696.000
435.060;  -74.325; -423.000; -332.000
435.184;   44.000; -492.000; -217.000
435.307;   40.200;  159.000;  102.000
435.431;  -24.400;  -40.000;   24.000
435.554;  -76.675; -399.000; -240.000
435.677;  -83.850; -350.000; -258.000
435.801;  -45.025;  -25.000;   49.000
435.924;  -39.975;    1.000;  -67.000
436.048; -146.625;-1019.000; -732.000
436.171;  -72.700; -240.000;  -66.000
436.294;  -21.225; -248.000; -229.000
436.417;  210.600; -963.000; -849.000
436.541;  -24.975; -814.000; -840.000
436.664;  -53.000; -242.000; -316.000
436.787;  -23.825;   13.000;  113.000
436.910; -118.350; -792.000; -422.000
437.034;    7.425;  142.000;  143.000
437.157;   25.875;  -11.000;    0.000
437.280;  -73.125; -392.000; -292.000
437.403; -109.375; -982.000; -869.000
437.526;  171.975; -903.000; -865.000
437.649;  941.250; -505.000; -332.000
437.772;  104.050; -692.000; -540.000
437.896;   89.700;  700.000;  544.000
438.019;  -88.275; -758.000; -503.000
438.142;  -81.225; -596.000; -506.000
438.265;  -93.100; -639.000; -670.000
438.388;   74.700; -520.000; -410.000
438.511;  -39.100; -597.000; -394.000
438.634;  -68.550; -247.000; -125.000
438.757; -143.200; -693.000; -619.000
438.880;  -36.475;  -34.000;  -57.000
439.003;  -97.975; -417.000; -437.000
439.126;  -64.725; -287.000; -167.000
439.248;  -52.350;  -98.000; -139.000
439.371;  -47.375;    9.000;  -53.000
439.494;   23.450;  510.000;  439.000
439.617;  -47.075;   65.000;  -88.000
439.740; -171.400; -968.000; -816.000
439.863; -127.300; -755.000; -595.000
439.986; -125.950; -476.000; -431.000
440.108;  -52.050; -161.000; -112.000
440.231; -155.975; -950.000; -836.000
440.354;  -44.025;  -64.000; -150.000
440.477; -100.450; -566.000; -542.000
440.599;  -69.375; -200.000; -225.000
440.722; -131.400; -709.000; -586.000
440.845;   57.925;  751.000;  928.000
440.968; -105.875; -415.000; -311.000
441.090;  -76.025; -199.000;  -33.000
441.213; -160.900;-1021.000; -825.000
441.336;  -64.550; -159.000;   -5.000
441.458; -109.525; -549.000; -396.000
441.581; -129.175; -628.000; -629.000
441.703;  -81.750; -152.000;   13.000
441.826; -103.825; -557.000; -400.000
441.948;  -58.850;   56.000;   51.000
442.071;   27.050;  555.000;  424.000
442.193; -122.450; -531.000; -485.000
442.316;    1.075;  152.000;   97.000
442.438;   73.200; -233.000;  -10.000
442.561;   70.150;  272.000;  262.000
442.683;  158.350; -809.000; -522.000
442.806;  486.250;   -8.000;   74.000
442.928;  -59.500; -859.000; -604.000
443.051;  -71.825; -577.000; -373.000
443.173;  -89.225; -341.000; -339.000
443.295;  -82.850; -263.000; -371.000
443.418;  -66.150; -321.000;  -29.000
443.540;  -40.125; -106.000;   -4.000
443.662; -134.825; -563.000; -465.000
443.785;  -19.925;  335.000;  199.000
443.907;  -99.300; -362.000; -208.000
444.029; -117.175; -767.000; -494.000
444.152; -144.725; -644.000; -554.000
444.274;  -40.475;  -18.000;  -24.000
444.396; -117.875; -461.000; -221.000
444.518; -119.200; -691.000; -454.000
444.640; -104.400; -268.000; -111.000
444.763;  -29.800;  388.000;  249.000
444.885; -116.050; -432.000; -392.000
445.007;  -35.375;   35.000;   86.000
445.129; -123.625; -610.000; -515.000
445.251; -107.850; -372.000; -439.000
445.373; -160.300; -537.000; -386.000
445.495;   -7.500;  242.000;  350.000
445.617;   35.875;  853.000;  753.000
445.739;  -78.875; -215.000;  -97.000
445.861;  -55.550; -245.000; -112.000
445.984;  -69.250; -267.000; -101.000
446.105;    7.450; -418.000; -251.000
446.227;  222.400; -176.000;  -19.000
446.349;  -73.800; -358.000; -249.000
446.471; -115.125; -615.000; -448.000
446.593;  -78.650; -316.000;   19.000
446.715;  -40.300;  -67.000;   41.000
446.837;   50.275;  697.000;  832.000
446.959;  -99.475; -457.000; -478.000
447.081; -151.575; -628.000; -518.000
447.203;   52.025;  862.000;  834.000
447.325;  -86.400; -270.000;   42.000
447.446;   -3.275;  286.000;  530.000
447.568; -156.625; -921.000; -803.000
447.690;  -84.675; -236.000; -245.000
447.812; -141.050; -798.000; -519.000
447.933;  -43.350;  155.000;  127.000
448.055;  -66.450; -306.000; -261.000
448.177;   35.975;   31.000;   79.000
448.299;  -47.050; -935.000; -727.000
448.420;   -6.925;  -25.000;  159.000
448.542;  -57.775;   -3.000;   33.000
448.664;  -22.475;  109.000;  322.000
448.785;  -46.350;  265.000;   83.000
448.907;  -99.650; -614.000; -353.000
449.028; -103.075; -771.000; -471.000
449.150;   51.825;  492.000;  589.000
449.272; -174.575;-1044.000; -913.000
449.393;   20.400;  612.000;  694.000
449.515; -142.775; -634.000; -581.000
449.636;  -65.875; -264.000; -155.000
449.758;   62.000;  763.000;  622.000
449.879;  -87.300; -498.000; -396.000
450.001;  -89.900; -149.000;  -49.000
450.122;  -41.400;  -95.000;  162.000
450.244;   -9.375;   37.000;  364.000
450.365;  -75.025; -495.000; -301.000
450.486;   -6.250;   80.000;  268.000
450.608;   26.275;  393.000;  326.000
450.729;  105.600;  578.000;  645.000
450.850;   82.975; -574.000; -466.000
450.972; 1133.175; -552.000; -389.000
451.093; 7422.975;  190.000;  588.000
451.214; 3751.525; -516.000; -337.000
451.336;  654.875;  773.000;  579.000
451.457;  106.700;  264.000;  393.000
451.578;  -26.425; -118.000;  -74.000
451.699; -121.025; -546.000; -540.000
451.821;  -53.325; -284.000;  -50.000
451.942;   -9.550;  278.000;  285.000
452.063;   53.875;  228.000;  419.000
452.184;  781.425;  -54.000;  -49.000
452.305; 1655.400;  103.000;  170.000
452.427;  295.225; -549.000; -301.000
452.548;    4.775;   23.000;   79.000
452.669;  -62.850; -257.000;  -89.000
452.790;  -52.850;    3.000;  -18.000
452.911;  -16.400;  195.000;  259.000
453.032;  -69.375; -289.000;  -60.000
453.153;  -63.875;  -29.000;   81.000
453.274;   46.650;  737.000;  868.000
453.395;  -67.200;  -51.000;  175.000
453.516;  112.975; 1317.000; 1388.000
453.637;  -91.825; -205.000; -150.000
453.758;  -62.275;   15.000;   69.000
453.879; -116.575; -462.000; -250.000
454.000;   60.650; 1086.000;  948.000
454.121; -116.150; -554.000; -326.000
454.242; -112.000; -599.000; -383.000
454.362;  -39.275;  -99.000;  114.000
454.483;  -10.775; -309.000; -229.000
454.604;   63.800;  512.000;  580.000
454.725; -114.650; -627.000; -555.000
454.846; -143.225; -474.000; -406.000
454.967;  -33.900;  230.000;  539.000
455.087;  -46.725;  179.000;  153.000
455.208;    9.900;  554.000;  856.000
455.329;  -74.025;  -22.000;   82.000
455.450;   52.625;  473.000;  633.000
455.570;  -79.900; -234.000; -211.000
455.691;  -47.625;  201.000;  407.000
455.812; -104.500; -270.000;  -92.000
455.932;  -59.950;  107.000;  -97.000
456.053;  -82.450;   36.000;   24.000
456.173; -110.050; -433.000; -355.000
456.294; -128.850; -476.000; -303.000
456.415;  -62.375;  -73.000;   70.000
456.535;  -34.275;  297.000;  273.000
456.656;  -45.075;  132.000;  240.000
456.776;  -69.400;    3.000;  298.000
456.897;  -17.475;  308.000;  513.000
457.017;  -61.650; -153.000;   -3.000
457.138; -102.375; -402.000; -249.000
457.258;  -29.375;  263.000;  224.000
457.379;   -6.475;  509.000;  521.000
457.499;  -29.675;  443.000;  432.000
457.620; -116.300; -407.000; -231.000
457.740;  -97.800; -132.000;  -11.000
457.860;  -64.175;   87.000;   44.000
457.981;  -51.550;  132.000;  124.000
458.101;  -78.750;  -89.000;   40.000
458.221;  -20.025;  336.000;  402.000
458.342;  -52.150;   -4.000;  -37.000
458.462;   47.550;  617.000;  352.000
458.582;   -7.400; -302.000; -294.000
458.703;   40.950;  303.000;  154.000
458.823;    2.650;   22.000;  163.000
458.943;   59.675;  341.000;  467.000
459.063;   20.075; 1124.000;  192.000
459.183;  -20.300;  328.000;  313.000
459.304;    4.025;  315.000;  517.000
459.424;  -33.900; -246.000;  -89.000
459.544;  430.350;  388.000;  764.000
459.664; 1227.850;  499.000;  506.000
459.784;  471.925; 1004.000; 1175.000
459.904;   78.625;  867.000;  744.000
460.024;   63.175;  867.000;  684.000
460.144;   -6.675;  449.000;  554.000
460.264;  -11.575;  515.000;  327.000
460.385;  -84.800; -145.000; -119.000
460.505;   27.700;  905.000;  858.000
460.625;  -87.525;  -17.000;  -68.000
460.745;  -24.700;  396.000;  541.000
460.864;  -37.325;  153.000;  469.000
460.984;   37.300;  499.000;  573.000
461.104;  144.775; 1656.000; 1775.000
461.224;   23.525;  657.000;  650.000
461.344;  -43.275;  431.000;  360.000
461.464;  -34.450;  258.000;  513.000
461.584;  -26.650;  283.000;  466.000
461.704;  -63.125;   58.000;  108.000
461.824;  -54.325;  238.000;  259.000
461.943;  -52.650;  191.000;  130.000
462.063;  -73.550;    2.000;  324.000
462.183;   18.850;  639.000;  717.000
462.303;   98.900; 1678.000; 1230.000
462.422;   30.225;  781.000;  840.000
462.542;  -36.450;  271.000;  391.000
462.662;   40.625;  353.000;  380.000
462.782;  325.875;  833.000;  572.000
462.901;  721.800;  545.000;  717.000
463.021;  384.500; 1702.000; 1638.000
463.141;    6.675;  337.000;  770.000
463.260;  -29.175;  614.000;  474.000
463.380;   12.350;  902.000;  884.000
463.499;  -28.900;  342.000;  332.000
463.619;  -32.625;  581.000;  559.000
463.738;  107.350; 1644.000;  903.000
463.858;   12.450;  657.000;  811.000
463.978;  -33.500;  542.000;  396.000
464.097;   44.725;  921.000; 1114.000
464.217;  151.750; 1196.000; 1143.000
464.336;  155.100; 1068.000; 1130.000
464.455;  -35.600;  328.000;  659.000
464.575;   12.050;  597.000;  602.000
464.694;  141.850; 1204.000; 1179.000
464.814;  142.875; 1190.000; 1138.000
464.933;   92.275; 1095.000; 1027.000
465.052;   96.425; 1412.000; 1054.000
465.172;   65.075;  922.000;  799.000
465.291;  111.375; 1376.000; 1320.000
465.410;    5.025;  462.000;  735.000
465.530;   79.750; 1355.000; 1310.000
465.649;   64.100; 1209.000; 1273.000
465.768;  133.200; 1673.000; 1508.000
465.888;   64.600;  941.000; 1174.000
466.007;   95.600; 1335.000; 1440.000
466.126;   -0.450;  721.000;  641.000
466.245;   47.350; 1176.000; 1187.000
466.364;    7.525;  950.000; 1060.000
466.484;   51.500; 1024.000; 1213.000
466.603;   38.250; 1101.000; 1222.000
466.722;  104.625; 1490.000; 1769.000
466.841;   62.275; 1151.000; 1401.000
466.960;   39.150; 1069.000;  972.000
467.079;  117.300; 1971.000; 1786.000
467.198;   57.300; 1238.000; 1181.000
467.317;   82.375; 1768.000; 1162.000
467.436;   72.175; 1709.000; 1261.000
467.555;  114.150; 1796.000; 1746.000
467.674;   81.225; 1227.000; 1329.000
467.793;   45.775; 1376.000; 1374.000
467.912;   91.850; 1658.000; 1539.000
468.031;  122.925; 2038.000; 1930.000
468.150;  127.525; 1842.000; 1837.000
468.269;  203.250; 2313.000; 2090.000
468.388;  187.775; 2168.000; 2339.000
468.507;  248.575; 2884.000; 2903.000
468.626;  265.400; 2555.000; 2541.000
468.744;  154.075; 2018.000; 2174.000
468.863;  213.300; 2312.000; 2523.000
468.982;   90.350; 1503.000; 1555.000
469.101;  220.750; 2788.000; 2692.000
469.220;  160.425; 2333.000; 2176.000
469.338;  257.850; 2935.000; 3051.000
469.457;  214.100; 2719.000; 2545.000
469.576;  346.350; 3953.000; 3784.000
469.695;  241.900; 2877.000; 3066.000
469.813;  429.975; 4148.000; 4192.000
469.932;  392.400; 4255.000; 4485.000
470.051;  446.725; 4075.000; 4161.000
470.169;  992.975; 4470.000; 4338.000
470.288; 1944.350; 4700.000; 4809.000
470.406; 1153.725; 5059.000; 5194.000
470.525;  655.350; 6101.000; 5787.000
470.644;  675.925; 6847.000; 6794.000
470.762;  799.150; 8397.000; 7873.000
470.881;  899.325; 8651.000; 8464.000
470.999; 1076.600; 9685.000; 9151.000
471.118; 1099.425;11174.000;10711.000

