
Integration time [ms]: 200.000
Averaging Nr. [scans]: 10
Smoothing Nr. [pixels]: 0
Data measured with spectrometer [name]: 2101012U2
Wave   ;Sample   ;Dark     ;Reference
[nm]   ;[counts] ;[counts] ;[counts] 

197.733;  117.100;  516.000;  404.000
197.879; -187.000; -610.000; -634.000
198.025;  -95.000; -475.000; -420.000
198.171; -180.800; -602.000; -612.000
198.317;  -93.900; -401.000; -316.000
198.463; -125.900; -655.000; -404.000
198.609;   66.900;  181.000; -137.000
198.755; -165.100; -644.000; -410.000
198.901; -139.400; -505.000; -424.000
199.047; -167.400; -615.000; -488.000
199.193;  -32.100; -230.000; -468.000
199.339;  -85.000; -222.000; -369.000
199.485;   77.500;  330.000;  271.000
199.631;   42.600;  227.000;  310.000
199.777; -122.000; -466.000; -398.000
199.923; -148.500; -610.000; -424.000
200.069;   21.400; -141.000;  -58.000
200.215;  123.900;  128.000;  453.000
200.361;  120.600;  243.000;  477.000
200.507; -126.900; -600.000; -373.000
200.653;  -42.700; -371.000; -194.000
200.798;  -90.500; -215.000; -125.000
200.944;  -16.500; -146.000;  -41.000
201.090;   55.300;   61.000;  222.000
201.236;  -18.200; -116.000; -158.000
201.382;  281.600;  874.000;  903.000
201.528;   32.300;  -58.000;  -48.000
201.674; -111.400; -386.000; -293.000
201.819; -127.900; -540.000; -439.000
201.965; -194.900; -699.000; -447.000
202.111;  -60.100; -273.000; -226.000
202.257; -100.600; -250.000; -238.000
202.402;    0.000;   13.000;  -36.000
202.548;  -40.100; -169.000; -116.000
202.694;  181.300;  410.000; -183.000
202.840; -158.200; -603.000; -531.000
202.985; -147.600; -681.000; -639.000
203.131; -244.300; -832.000; -666.000
203.277;  -48.400; -199.000; -262.000
203.423; -113.600; -434.000; -520.000
203.568;  -85.300; -462.000; -237.000
203.714; -101.200; -535.000; -542.000
203.860; -142.800; -682.000; -641.000
204.005;   30.000;  112.000;  167.000
204.151;  165.200;  561.000;  556.000
204.296; -121.100; -354.000; -221.000
204.442; -110.900; -600.000; -547.000
204.588; -155.000; -592.000; -579.000
204.733;   52.200;  178.000;  168.000
204.879; -293.700;-1018.000; -822.000
205.025;   11.100;  -99.000;  126.000
205.170;   22.100;  -17.000;   94.000
205.316;  180.500;  438.000;  661.000
205.461; -185.800; -698.000; -554.000
205.607;  170.500;  609.000;  665.000
205.752; -190.300; -626.000; -551.000
205.898; -125.500; -501.000; -391.000
206.043; -128.700; -578.000; -506.000
206.189;  -94.300; -243.000; -285.000
206.334;  185.100;  554.000;  606.000
206.480;  177.000;  409.000;  239.000
206.625; -144.500; -529.000; -552.000
206.771;  -93.400; -451.000; -373.000
206.916;  -60.100; -210.000; -537.000
207.062; -157.800; -545.000; -591.000
207.207; -131.200; -546.000; -443.000
207.353;   97.200;  185.000;  460.000
207.498;   27.200;  196.000;   85.000
207.643; -107.100; -501.000; -370.000
207.789; -260.900;-1069.000; -910.000
207.934; -217.500; -665.000; -713.000
208.080;  -55.500; -154.000;   66.000
208.225;  -24.900;  -22.000;  -57.000
208.370; -188.200; -727.000; -619.000
208.516; -135.200; -741.000; -487.000
208.661;  -52.400; -127.000;  -69.000
208.806;  -48.400; -165.000; -171.000
208.952; -286.100;-1044.000; -731.000
209.097;  170.100;  378.000;  349.000
209.242; -118.500; -307.000; -382.000
209.387;  104.600;  392.000;  350.000
209.533; -104.700; -321.000; -350.000
209.678;  146.500;  472.000;  543.000
209.823; -130.700; -408.000; -310.000
209.969; -213.900; -860.000; -757.000
210.114; -234.600; -907.000; -719.000
210.259; -242.100; -939.000; -889.000
210.404;   -4.100; -171.000;  103.000
210.549;   24.300;  108.000;    3.000
210.695;  -26.100;   -3.000;  -95.000
210.840;   61.700;   94.000;   67.000
210.985; -120.000; -484.000; -303.000
211.130;  159.500;  268.000;  406.000
211.275;   29.900;  207.000;  199.000
211.420;  -85.200; -300.000; -289.000
211.566; -148.400; -536.000; -489.000
211.711;   44.900;  218.000;  157.000
211.856; -109.000; -545.000; -519.000
212.001;    8.400;  151.000;   44.000
212.146;   22.800;  153.000;   49.000
212.291;  -33.100; -210.000; -186.000
212.436;  -51.600; -280.000;   -6.000
212.581; -167.500; -685.000; -653.000
212.726; -160.500; -487.000; -538.000
212.871;  -69.800; -552.000; -217.000
213.016; -310.000;-1172.000;-1029.000
213.161;  151.200;  406.000;  291.000
213.306; -143.800; -435.000; -577.000
213.451; -198.400; -778.000; -689.000
213.596;  -71.900; -455.000; -347.000
213.741;  -83.300; -448.000; -538.000
213.886; -159.300; -498.000; -517.000
214.031;  -41.600; -294.000; -124.000
214.176;  -79.200; -408.000; -341.000
214.321;  -20.200; -296.000; -157.000
214.466;  -59.300; -163.000;  -43.000
214.611;  -15.600;  -61.000;  -10.000
214.756; -238.600; -948.000; -858.000
214.901;  -62.200; -388.000; -226.000
215.046; -225.900; -797.000; -825.000
215.191;   85.400;  128.000;   35.000
215.336;  -25.800; -157.000;  -19.000
215.480; -137.100; -684.000; -505.000
215.625;  -29.300; -175.000;  -19.000
215.770; -157.100; -757.000; -662.000
215.915;    1.100;   -5.000;  -97.000
216.060;   21.000; -113.000;  -21.000
216.205; -234.200; -731.000; -779.000
216.349; -157.700; -470.000; -533.000
216.494; -265.100; -939.000; -867.000
216.639; -239.000; -823.000; -888.000
216.784; -144.400; -577.000; -525.000
216.929;  121.500;  392.000;  281.000
217.073;  -41.000; -244.000;  -31.000
217.218;   35.100;   78.000;  -47.000
217.363; -208.200; -656.000; -618.000
217.507; -149.300; -623.000; -588.000
217.652; -247.200; -845.000; -874.000
217.797; -177.400; -708.000; -659.000
217.942; -221.300; -856.000; -720.000
218.086;  179.300;  608.000;  539.000
218.231;  -27.600; -174.000;  -26.000
218.376;  -81.800; -337.000; -229.000
218.520;   32.300;  -41.000;   96.000
218.665;  -48.800; -338.000; -204.000
218.810;  -90.200; -275.000; -233.000
218.954;   68.700;  201.000;   35.000
219.099; -238.500; -713.000; -963.000
219.243; -147.500; -589.000; -554.000
219.388;  -44.600; -264.000; -136.000
219.532;  -12.800; -116.000; -116.000
219.677; -154.400; -564.000; -521.000
219.822;   38.600;   33.000;   89.000
219.966;    0.000;   17.000;  -99.000
220.111;  -48.200; -328.000;  -40.000
220.255; -193.300; -797.000; -750.000
220.400;  -12.900; -180.000; -146.000
220.544; -137.000; -516.000; -450.000
220.689; -111.700; -422.000; -451.000
220.833;    6.400; -123.000;  -58.000
220.978;  -51.600; -393.000; -563.000
221.122;   58.500;  319.000;  307.000
221.267; -235.300; -906.000; -837.000
221.411; -130.900; -478.000; -394.000
221.555;   -2.300; -104.000;  -23.000
221.700;  -66.100; -329.000; -222.000
221.844;   91.400;  255.000;  272.000
221.989;  -81.900; -328.000; -311.000
222.133;  -70.000; -289.000; -307.000
222.277;    6.600;    5.000;   78.000
222.422;   70.300;  227.000;  113.000
222.566;  -81.600; -381.000; -214.000
222.711;  -95.300; -414.000; -479.000
222.855; -169.000; -643.000; -586.000
222.999; -144.000; -642.000; -717.000
223.144;  -51.100; -195.000; -194.000
223.288;  133.000;  423.000;  251.000
223.432;   27.200;  184.000;  230.000
223.576;   64.900;  152.000;  -21.000
223.721;  114.300;  364.000;  273.000
223.865; -106.800; -472.000; -475.000
224.009;  474.800; 1673.000; 1631.000
224.153; -160.200; -660.000; -671.000
224.298; -100.900; -531.000; -489.000
224.442;  -31.100;  -74.000;  -33.000
224.586;  -19.000; -169.000; -106.000
224.730; -208.600; -858.000; -670.000
224.875; -218.500; -739.000; -688.000
225.019;   69.300;  102.000;  188.000
225.163;  124.100;  208.000;  341.000
225.307;   75.100;   97.000;  -91.000
225.451;  122.500;  360.000;  481.000
225.595;  111.200;  264.000;  176.000
225.739;   -6.300; -170.000;  -94.000
225.884;   24.700;   86.000;    5.000
226.028; -197.200; -760.000; -626.000
226.172;  -88.800; -260.000; -273.000
226.316; -232.500; -941.000; -902.000
226.460; -142.400; -645.000; -493.000
226.604; -115.700; -406.000; -400.000
226.748; -195.600; -836.000; -733.000
226.892; -113.600; -227.000; -181.000
227.036;  -81.600; -537.000; -447.000
227.180; -135.200; -551.000; -375.000
227.324; -142.700; -561.000; -580.000
227.468; -218.400; -819.000; -717.000
227.612;   41.100;  242.000;  -28.000
227.756; -215.500; -845.000; -698.000
227.900;  122.900;  342.000;  441.000
228.044; -112.300; -509.000; -290.000
228.188;  119.900;  448.000;  568.000
228.332; -164.800; -546.000; -472.000
228.476;  -41.400; -223.000; -149.000
228.620;  -47.500; -210.000; -150.000
228.764;  147.300;  431.000;  349.000
228.908;  -36.700; -155.000;   30.000
229.052; -111.600; -615.000; -528.000
229.195;  -20.900; -172.000;   13.000
229.339;  -52.100; -235.000; -305.000
229.483;  -44.900;    5.000; -162.000
229.627;   29.600; -156.000;  139.000
229.771; -134.200; -218.000; -294.000
229.915;    3.900;  230.000;   79.000
230.059; -170.500; -648.000; -663.000
230.202;  -82.700; -370.000; -317.000
230.346;   -4.300; -107.000;  107.000
230.490; -145.300; -489.000; -521.000
230.634; -184.100; -736.000; -553.000
230.777;  165.500;  478.000;  509.000
230.921;  -78.100; -450.000; -359.000
231.065; -108.700; -246.000; -286.000
231.209;   88.900;  261.000;  265.000
231.352;   75.600;   54.000;   40.000
231.496;   60.600;  568.000;  188.000
231.640; -160.300; -693.000; -621.000
231.783;  151.100;  546.000;  525.000
231.927; -105.500; -294.000; -365.000
232.071; -253.600; -962.000; -736.000
232.214; -210.100; -980.000; -764.000
232.358; -192.500; -683.000; -599.000
232.502;   36.800;  -19.000;    7.000
232.645; -281.600;-1090.000; -927.000
232.789;  -31.900; -257.000; -218.000
232.933;  -89.800; -407.000; -224.000
233.076; -248.000;-1038.000; -897.000
233.220; -203.400; -752.000; -777.000
233.363; -116.700; -669.000; -477.000
233.507;  114.500;  371.000;  129.000
233.650; -186.200; -764.000; -834.000
233.794;  111.500;  438.000;  461.000
233.938; -128.200; -530.000; -362.000
234.081;  -37.300;  -93.000;   31.000
234.225; -124.800; -631.000; -539.000
234.368; -212.900; -773.000; -723.000
234.512;  -71.700; -385.000; -299.000
234.655; -151.600; -582.000; -555.000
234.798; -132.000; -493.000; -466.000
234.942; -241.600; -884.000;-1002.000
235.085; -122.300; -651.000; -443.000
235.229; -154.600; -405.000; -410.000
235.372; -105.400; -247.000; -191.000
235.516; -112.300; -397.000; -321.000
235.659;   78.400;   92.000;  121.000
235.802;  -31.200;  -38.000;  -22.000
235.946;   96.000;  335.000;  215.000
236.089;   53.500;  126.000;  250.000
236.233;  131.800;  275.000;  298.000
236.376;  -91.400; -235.000; -378.000
236.519;  -83.500; -297.000; -319.000
236.663;  -31.800; -215.000; -117.000
236.806; -265.000;-1029.000; -999.000
236.949;  133.100;  543.000;  431.000
237.092;  139.900;  412.000;  391.000
237.236; -180.800; -589.000; -502.000
237.379;  125.900;  352.000;  428.000
237.522; -242.600; -879.000; -768.000
237.666;  -17.800; -271.000;   18.000
237.809; -252.300; -851.000; -823.000
237.952;  106.700;  469.000;  271.000
238.095; -111.200; -447.000; -442.000
238.238;  186.900;  688.000;  700.000
238.382;   -9.500;  166.000;  103.000
238.525; -127.200; -598.000; -511.000
238.668; -291.300;-1060.000; -985.000
238.811; -172.400; -638.000; -643.000
238.954; -118.700; -483.000; -334.000
239.097;  209.100;  617.000;  664.000
239.241;   78.200;  394.000;  326.000
239.384;  -51.200; -254.000; -214.000
239.527;  -88.300; -424.000; -224.000
239.670; -290.800; -994.000;-1091.000
239.813; -218.900; -696.000; -658.000
239.956;  172.000;  579.000;  473.000
240.099; -209.100; -778.000; -725.000
240.242;  144.700;  428.000;  432.000
240.385;  114.500;  466.000;  450.000
240.528; -122.000; -706.000; -473.000
240.671;   30.800;  189.000;  134.000
240.814;  -81.000; -441.000; -158.000
240.957; -210.500; -767.000; -578.000
241.100; -194.300; -779.000; -755.000
241.243; -286.900;-1234.000; -893.000
241.386; -111.200; -508.000; -379.000
241.529; -183.500; -735.000; -547.000
241.672; -120.800; -566.000; -495.000
241.815; -226.900; -832.000; -808.000
241.958;  -22.100; -125.000; -182.000
242.101; -162.000; -545.000; -390.000
242.244;  -73.200; -270.000; -325.000
242.387;  -80.100; -304.000; -246.000
242.530;  140.100;  470.000;  134.000
242.673;  -84.300; -381.000; -309.000
242.815; -234.800; -925.000; -899.000
242.958; -118.200; -482.000; -381.000
243.101;   55.100;  132.000;  187.000
243.244; -160.400; -564.000; -521.000
243.387; -104.400; -313.000; -316.000
243.530; -190.400; -657.000; -674.000
243.672;   17.100;   43.000;  -92.000
243.815; -106.000; -355.000; -283.000
243.958;    8.300;   98.000;  -26.000
244.101;    7.400;   59.000;  -16.000
244.243;  -17.100;  -47.000;  101.000
244.386; -244.200; -761.000; -630.000
244.529;  -34.100; -132.000; -139.000
244.672; -321.900;-1154.000; -951.000
244.814; -222.100; -621.000; -794.000
244.957;  -64.600; -380.000; -304.000
245.100; -146.800; -489.000; -489.000
245.242; -110.300; -387.000; -374.000
245.385;    8.300;  -59.000;  -39.000
245.528; -259.300; -871.000; -705.000
245.670;  216.500;  612.000;  634.000
245.813; -169.600; -599.000; -547.000
245.956;  -59.900; -324.000; -275.000
246.098; -156.000; -508.000; -650.000
246.241;   40.600;  194.000;   48.000
246.383;  -23.700; -119.000;  -73.000
246.526; -153.800; -454.000; -525.000
246.669; -259.600; -889.000; -780.000
246.811;   62.500;  172.000;   -1.000
246.954; -115.900; -512.000; -426.000
247.096;  -41.900;  -84.000;   -6.000
247.239; -146.600; -482.000; -445.000
247.381; -153.100; -647.000; -488.000
247.524;  157.000;  645.000;  679.000
247.666;    7.700;   58.000;   11.000
247.809; -223.300; -887.000; -691.000
247.951;   -7.900;  -75.000;  138.000
248.094;   95.600;  432.000;  308.000
248.236; -333.700;-1262.000;-1238.000
248.378;   11.300; -356.000;  -81.000
248.521;  -22.700; -334.000; -337.000
248.663;  -62.600; -236.000; -267.000
248.806;  -25.000; -300.000; -266.000
248.948; -183.200; -886.000; -763.000
249.090;  -75.000; -428.000; -398.000
249.233;  -82.600; -344.000; -381.000
249.375; -113.800; -474.000; -451.000
249.518;  -17.100;  -83.000; -133.000
249.660;  -23.000; -103.000;    3.000
249.802; -346.500;-1303.000;-1189.000
249.945; -136.000; -612.000; -540.000
250.087; -222.200; -834.000; -768.000
250.229; -102.100; -362.000; -480.000
250.371; -151.000; -494.000; -439.000
250.514; -124.800; -310.000; -244.000
250.656;  -15.200;   69.000;  102.000
250.798; -228.500; -849.000; -800.000
250.940; -119.500; -322.000; -322.000
251.083;  -40.300; -335.000; -111.000
251.225;  133.800;  338.000;  310.000
251.367;  -68.800; -274.000; -373.000
251.509;  -65.300; -265.000; -210.000
251.651; -163.700; -731.000; -671.000
251.794;  136.200;  538.000;  632.000
251.936; -186.900; -821.000; -747.000
252.078; -125.200; -540.000; -461.000
252.220; -114.400; -645.000; -477.000
252.362;  188.500;  344.000;  462.000
252.504; -140.600; -677.000; -584.000
252.646; -238.600; -875.000; -722.000
252.788;    7.800;   14.000; -128.000
252.931;  -40.000; -257.000; -253.000
253.073;  -45.300; -376.000; -317.000
253.215;    8.500;  141.000;  122.000
253.357;   -8.000;   82.000; -153.000
253.499;  -73.700; -374.000; -234.000
253.641; -153.000; -749.000; -594.000
253.783; -195.800; -609.000; -527.000
253.925; -179.700; -586.000; -591.000
254.067; -236.000; -744.000; -667.000
254.209;  -40.100; -391.000; -259.000
254.351; -286.800; -865.000; -883.000
254.493; -133.900; -441.000; -417.000
254.635; -200.500; -936.000; -818.000
254.777; -179.500; -752.000; -687.000
254.918; -151.500; -512.000; -430.000
255.060;  -89.200; -551.000; -395.000
255.202; -120.400; -473.000; -261.000
255.344; -159.000; -658.000; -455.000
255.486; -119.100; -471.000; -406.000
255.628; -209.600; -780.000; -781.000
255.770; -192.900; -676.000; -536.000
255.912; -116.500; -559.000; -468.000
256.053; -146.500; -730.000; -508.000
256.195;  353.300; 1008.000;  903.000
256.337; -206.400; -861.000; -595.000
256.479;  153.000;  532.000;  416.000
256.621;  -80.100; -394.000; -212.000
256.762; -153.700; -789.000; -742.000
256.904;  141.300;  485.000;  487.000
257.046;  -57.600; -381.000; -271.000
257.188;  -56.100; -351.000; -264.000
257.329; -133.100; -525.000; -464.000
257.471; -220.400; -939.000; -807.000
257.613; -106.500; -584.000; -498.000
257.755; -298.100;-1073.000; -982.000
257.896;  112.500;  286.000;  392.000
258.038; -145.700; -403.000; -352.000
258.180;  -49.700; -354.000; -279.000
258.321; -119.000; -581.000; -457.000
258.463;   17.700;  -71.000;  133.000
258.605; -159.600; -562.000; -570.000
258.746; -186.600; -886.000; -772.000
258.888; -287.200;-1026.000;-1020.000
259.029;   57.400;  121.000;   -8.000
259.171; -164.000; -614.000; -550.000
259.313;   30.800;  -49.000;  -47.000
259.454; -139.600; -536.000; -414.000
259.596; -131.900; -483.000; -390.000
259.737; -123.900; -590.000; -474.000
259.879;  111.900;  217.000;  311.000
260.020;  211.800;  901.000;  636.000
260.162;  -33.900; -146.000; -253.000
260.303; -222.500; -768.000; -687.000
260.445; -173.000; -609.000; -613.000
260.586;   98.500;  392.000;  157.000
260.728;  -56.600; -360.000; -248.000
260.869; -132.100; -350.000; -343.000
261.011;  215.500;  706.000;  537.000
261.152; -102.700; -479.000; -319.000
261.293; -139.000; -576.000; -595.000
261.435;  -40.800; -219.000; -184.000
261.576; -108.800; -455.000; -325.000
261.718;  122.000;  420.000;  470.000
261.859; -235.800; -940.000; -949.000
262.000; -273.000; -951.000;-1016.000
262.142;   -8.800;  -52.000;  -60.000
262.283; -220.100; -808.000; -691.000
262.424; -166.400; -666.000; -625.000
262.566; -303.300;-1161.000; -983.000
262.707; -223.500; -840.000; -830.000
262.848; -262.800; -769.000; -726.000
262.990;  -74.900; -362.000; -345.000
263.131;  173.400;  650.000;  681.000
263.272;   -6.200;  -61.000;  -41.000
263.413; -153.300; -589.000; -561.000
263.555; -123.000; -669.000; -143.000
263.696; -170.500; -550.000; -641.000
263.837;  -69.300; -449.000; -551.000
263.978;  -28.400;   -5.000;  -77.000
264.119;  -66.400; -283.000; -264.000
264.261; -224.200; -847.000; -630.000
264.402;   38.700;   33.000;   40.000
264.543;  -99.400; -509.000; -524.000
264.684;   -0.500;   61.000;  -50.000
264.825; -129.700; -816.000; -538.000
264.966;   30.800;  -84.000;  -67.000
265.107; -223.100; -646.000; -670.000
265.248; -224.200; -825.000; -812.000
265.390;    7.000;  152.000;   -9.000
265.531;   -2.800; -238.000; -107.000
265.672; -162.400; -557.000; -630.000
265.813;  145.800;  563.000;  439.000
265.954; -279.900; -959.000; -940.000
266.095;   12.600; -372.000; -322.000
266.236; -172.600; -686.000; -548.000
266.377;  -73.600; -243.000; -297.000
266.518; -112.100; -619.000; -547.000
266.659;   95.800;  170.000;  268.000
266.800;   64.200;   83.000;   85.000
266.941; -119.200; -487.000; -478.000
267.082;   18.900;  354.000;   99.000
267.223;  -70.900; -344.000; -273.000
267.364; -224.800; -892.000; -686.000
267.504;   -1.100;    3.000;  135.000
267.645;   27.100;  160.000;   67.000
267.786;  -38.500; -147.000;  -86.000
267.927; -141.500; -473.000; -379.000
268.068;   -8.600; -186.000;  -61.000
268.209;  -62.100; -175.000; -413.000
268.350; -116.300; -388.000; -532.000
268.490; -130.300; -648.000; -521.000
268.631;  114.100;  127.000;  225.000
268.772; -212.500; -874.000; -647.000
268.913;  -48.600; -328.000; -476.000
269.054;   -8.800; -117.000;   12.000
269.194;  -88.400; -418.000; -402.000
269.335; -320.300;-1137.000;-1074.000
269.476;  -15.700;   33.000;  -35.000
269.617;  -61.600; -347.000; -392.000
269.757; -161.200; -713.000; -646.000
269.898; -214.100; -856.000; -613.000
270.039;  -95.900; -415.000; -405.000
270.180; -257.400; -952.000; -816.000
270.320;  -22.700; -190.000; -250.000
270.461;  -45.500; -277.000; -249.000
270.602;    9.200; -186.000; -156.000
270.742; -247.300; -868.000; -943.000
270.883;  -96.300; -442.000; -390.000
271.023;  -92.100; -358.000; -357.000
271.164; -125.700; -607.000; -528.000
271.305; -197.300; -666.000; -654.000
271.445; -181.600; -722.000; -683.000
271.586; -129.600; -462.000; -283.000
271.726;  -92.800; -397.000; -322.000
271.867; -137.500; -594.000; -534.000
272.008;  331.300; -473.000; -285.000
272.148;  265.200;  462.000;  468.000
272.289;   19.100; -113.000; -181.000
272.429;   35.800;   19.000;  185.000
272.570; -154.100; -633.000; -737.000
272.710; -211.700; -825.000; -775.000
272.851;    5.300;  113.000; -130.000
272.991; -307.700;-1173.000;-1077.000
273.131; -109.500; -419.000; -459.000
273.272; -169.100; -683.000; -723.000
273.412;   30.200; -143.000;  -31.000
273.553;  -95.300; -488.000; -507.000
273.693;  294.000;  913.000;  858.000
273.834; -175.700; -894.000; -692.000
273.974; -119.800; -664.000; -615.000
274.114; -193.400; -772.000; -560.000
274.255;  220.600;  414.000;  373.000
274.395;   43.500; -180.000; -125.000
274.535;  114.300;  199.000;  350.000
274.676;   69.600;  225.000;   94.000
274.816;    5.500;  110.000;   34.000
274.956; -138.800; -624.000; -690.000
275.097; -105.700;-1014.000; -922.000
275.237; -205.900; -913.000; -803.000
275.377; -189.000; -778.000; -689.000
275.517; -262.000; -878.000; -937.000
275.658; -102.300; -590.000; -555.000
275.798; -116.700; -606.000; -413.000
275.938;  102.700;  215.000;  323.000
276.078; -127.700; -626.000; -395.000
276.218;   54.800;   99.000;  104.000
276.359; -174.100;-1026.000;-1024.000
276.499; -125.700; -605.000; -446.000
276.639;  -30.700; -305.000; -151.000
276.779;  -34.900; -475.000; -357.000
276.919; -182.400; -783.000; -624.000
277.059;  -20.300; -261.000; -212.000
277.199;  -70.300; -357.000; -259.000
277.340;  109.100;  287.000;  175.000
277.480; -207.400; -840.000; -693.000
277.620;  104.100;  192.000;   16.000
277.760; -366.100;-1533.000;-1294.000
277.900;   48.400;  113.000;   33.000
278.040;   75.400;  137.000;  159.000
278.180;  105.300;  270.000;  170.000
278.320;   47.700;   21.000;   56.000
278.460;  -85.400; -443.000; -469.000
278.600; -152.400; -708.000; -598.000
278.740;  127.200;  448.000;  224.000
278.880;  -58.000; -768.000; -791.000
279.020;   49.900; -194.000; -144.000
279.160; -142.900; -672.000; -595.000
279.300; -211.700; -926.000; -873.000
279.440; -167.700; -709.000; -622.000
279.579;  -93.000;-1014.000; -929.000
279.719;  -99.800; -410.000; -394.000
279.859;  144.400;   -4.000;   41.000
279.999;   35.400; -208.000;  101.000
280.139;   -6.000; -435.000; -387.000
280.279; -124.900; -708.000; -745.000
280.419;   14.300; -229.000; -147.000
280.559;  -51.600; -259.000; -180.000
280.698; -152.800; -790.000; -639.000
280.838; -150.300; -778.000; -800.000
280.978; -189.200; -846.000; -790.000
281.118; -210.000; -811.000; -704.000
281.257;   46.400;   24.000;    6.000
281.397; -223.800;-1094.000; -960.000
281.537; -140.000; -599.000; -712.000
281.677;   -1.200; -150.000; -101.000
281.816; -154.500; -700.000; -630.000
281.956;  -25.900; -193.000; -257.000
282.096;  -76.500; -539.000; -396.000
282.235; -193.800; -672.000; -638.000
282.375;   -7.300; -243.000;  -98.000
282.515; -175.100; -715.000; -707.000
282.654;   80.500;   29.000;  106.000
282.794;  100.000;  388.000;  244.000
282.934;  -73.700; -530.000; -491.000
283.073; -230.500;-1030.000; -857.000
283.213;  -71.400; -460.000; -467.000
283.353;  -44.800; -408.000; -349.000
283.492;  -11.900; -264.000; -296.000
283.632;  -35.700; -254.000; -168.000
283.771; -181.300; -859.000; -730.000
283.911;  -63.900; -369.000; -260.000
284.050; -162.800; -794.000; -748.000
284.190; -315.300;-1229.000;-1096.000
284.329; -259.300;-1055.000; -964.000
284.469; -125.300; -516.000; -591.000
284.608;  -90.800; -559.000; -598.000
284.748; -124.900; -614.000; -570.000
284.887;   35.900;  -87.000;  -20.000
285.027; -227.600; -844.000; -892.000
285.166;  -47.700; -192.000; -249.000
285.306;   56.600; -116.000;  -33.000
285.445;  -52.600; -229.000; -343.000
285.584; -145.500; -630.000; -494.000
285.724;  -33.300; -282.000; -322.000
285.863; -200.400; -857.000; -507.000
286.002;  -70.600; -366.000; -276.000
286.142; -188.100; -715.000; -622.000
286.281; -125.000; -525.000; -493.000
286.420; -128.600; -554.000; -417.000
286.560;  260.200;  653.000;  623.000
286.699; -268.800; -958.000; -912.000
286.838; -127.500; -590.000; -591.000
286.978; -161.700; -533.000; -537.000
287.117; -242.900;-1085.000; -950.000
287.256;   -7.100; -228.000; -211.000
287.395;  -72.200; -197.000; -378.000
287.535;  -71.200; -370.000; -298.000
287.674; -120.700; -509.000; -484.000
287.813;  176.300;  661.000;  533.000
287.952; -237.000;-1010.000; -871.000
288.091; -275.300;-1049.000; -915.000
288.231;   71.200;   13.000;   15.000
288.370; -323.000;-1217.000;-1200.000
288.509; -150.000; -728.000; -645.000
288.648; -131.300; -770.000; -548.000
288.787;    1.900; -243.000;  -87.000
288.926; -122.100; -454.000; -475.000
289.065;  284.700;  859.000;  672.000
289.204;  -67.300; -377.000; -217.000
289.344; -196.800; -791.000; -690.000
289.483;   95.900;  416.000;  304.000
289.622;   20.100; -291.000; -149.000
289.761;   49.700; -309.000; -166.000
289.900; -177.900; -785.000; -626.000
290.039;    0.600;  -12.000;  -95.000
290.178;  -52.300; -274.000; -180.000
290.317; -142.900; -618.000; -479.000
290.456; -113.700; -463.000; -451.000
290.595; -243.000; -961.000; -833.000
290.734; -245.000; -904.000; -891.000
290.873; -115.400; -456.000; -420.000
291.011; -187.600; -833.000; -843.000
291.150; -205.700; -770.000; -682.000
291.289;  -28.700; -343.000; -110.000
291.428; -141.100; -599.000; -480.000
291.567;  -74.100; -370.000; -442.000
291.706;   15.400;  109.000;  154.000
291.845; -126.500; -597.000; -505.000
291.984; -335.200;-1234.000;-1061.000
292.122;  183.600;  602.000;  582.000
292.261;  148.100;  620.000;  463.000
292.400;   40.300; -144.000;  211.000
292.539; -212.900; -959.000; -813.000
292.678;  -21.800; -325.000; -300.000
292.816; -276.600;-1136.000; -965.000
292.955; -163.600; -844.000; -684.000
293.094;  -15.200; -173.000; -337.000
293.233;  -79.200; -556.000; -400.000
293.371;  -33.500; -225.000;  -84.000
293.510; -181.100; -866.000; -780.000
293.649; -222.000; -959.000; -924.000
293.787;  -99.900;-1083.000;-1012.000
293.926;   40.200; -113.000;  -32.000
294.065;  -46.000; -379.000; -290.000
294.203;  149.400;  298.000;  406.000
294.342;  127.300;   74.000;  156.000
294.481;11408.200;51180.000; -836.000
294.619;  -23.400; -425.000; -582.000
294.758; -270.400;-1230.000;-1137.000
294.896;  203.200; -125.000;    5.000
295.035; -238.200;-1040.000;-1006.000
295.174; -201.400;-1082.000; -954.000
295.312;  -54.100; -323.000; -203.000
295.451;   25.100; -307.000; -428.000
295.589;  -47.000; -389.000; -518.000
295.728;  106.500; -292.000; -165.000
295.866;   42.600;  -36.000;  -51.000
296.005;  -76.700; -584.000; -341.000
296.143;  -98.900; -558.000; -596.000
296.282; -169.000; -957.000; -881.000
296.420; -156.600; -657.000; -557.000
296.559; -142.500; -892.000; -633.000
296.697;   93.700; -847.000; -665.000
296.835;  186.800;-1141.000;-1002.000
296.974;  122.600;  -23.000;   39.000
297.112;   47.400; -443.000; -504.000
297.251; -120.800; -815.000; -755.000
297.389;  202.900; -576.000; -438.000
297.527;  141.300; -145.000;  -83.000
297.666;  -78.400; -486.000; -438.000
297.804;  -61.800; -404.000; -264.000
297.942;   47.000; -136.000; -161.000
298.081;   22.100; -183.000;   63.000
298.219;  188.400;  -17.000;  -19.000
298.357;  153.600; -144.000;  -71.000
298.495;   94.100; -810.000; -812.000
298.634;  190.500;  245.000;  219.000
298.772;  155.600; -220.000; -338.000
298.910;  -43.800; -309.000; -182.000
299.048;   22.500; -130.000; -153.000
299.187;  -18.100; -350.000; -250.000
299.325;   75.800;   52.000;  122.000
299.463;  124.600; -389.000; -299.000
299.601;  280.600; -327.000; -271.000
299.739; -178.600; -908.000; -883.000
299.877; -135.600; -791.000; -703.000
300.016;  -75.800;-1095.000; -935.000
300.154;  367.300;  -19.000; -161.000
300.292;  171.700; -428.000; -348.000
300.430;  106.900; -408.000; -291.000
300.568; -163.000; -940.000; -874.000
300.706;  -56.800; -366.000; -469.000
300.844; -146.600;-1108.000; -979.000
300.982;  259.900;  246.000;  282.000
301.120; -191.800; -965.000; -866.000
301.258;  -88.400; -812.000; -705.000
301.396;  140.700;  104.000;  -41.000
301.534;  218.000; -218.000; -293.000
301.672;    8.600; -664.000; -521.000
301.810;   99.200; -613.000; -545.000
301.948;  372.600;   53.000;  149.000
302.086; 1121.800; -250.000;  -32.000
302.224; 1886.800; -610.000; -585.000
302.362;  109.000; -558.000; -622.000
302.500;  -20.200; -923.000; -893.000
302.638;  287.700;  128.000;  245.000
302.776;   58.500; -352.000; -408.000
302.913;  139.200;  447.000;  236.000
303.051;   36.700;  -86.000;  -23.000
303.189;  134.900;   90.000;  118.000
303.327;  -17.400; -341.000; -256.000
303.465;  -98.300; -832.000; -588.000
303.603; -154.400; -805.000; -604.000
303.740;  267.100;  417.000;  241.000
303.878;   99.000; -800.000; -759.000
304.016;  -92.500; -915.000; -790.000
304.154; -221.100;-1123.000;-1152.000
304.291;  -13.800; -505.000; -554.000
304.429;   47.100;  102.000;   74.000
304.567; -225.000; -908.000; -893.000
304.705;  -76.300; -408.000; -515.000
304.842;  214.700; -616.000; -540.000
304.980;  178.100;  215.000;   35.000
305.118;  194.600; -367.000; -365.000
305.255;  -93.100; -945.000; -927.000
305.393;  155.000;  178.000;  239.000
305.531; -169.500;-1173.000; -956.000
305.668; -110.300; -663.000; -582.000
305.806;  213.400; -358.000; -439.000
305.943;  233.200; -629.000; -637.000
306.081;  110.500; -378.000; -267.000
306.219; -169.000; -863.000; -748.000
306.356;   61.100;  158.000;   27.000
306.494;  356.400;  981.000;  761.000
306.631;   93.200;  -11.000;  -55.000
306.769;   28.900; -613.000; -485.000
306.906;   36.600; -284.000; -258.000
307.044;  -55.500; -473.000; -488.000
307.181;  -60.100; -410.000; -332.000
307.319;  146.600;  112.000;   87.000
307.456; -298.900;-1191.000;-1153.000
307.594; -155.900; -980.000; -727.000
307.731;   23.000; -371.000; -164.000
307.868;   82.200;  -15.000;   20.000
308.006; -236.200; -961.000; -847.000
308.143;  -55.100; -618.000; -330.000
308.281;  442.900;  -37.000; -254.000
308.418;   27.100; -748.000; -640.000
308.555;  -82.400; -400.000; -250.000
308.693;  -77.000; -577.000; -573.000
308.830; -196.900; -712.000; -657.000
308.967;   14.500; -215.000;  -95.000
309.105;   16.100; -507.000; -396.000
309.242;  134.600; -468.000; -367.000
309.379;  759.200; -577.000; -655.000
309.517;  -53.700; -936.000; -948.000
309.654; -152.500; -910.000; -734.000
309.791;  -62.200; -662.000; -580.000
309.928; -156.100; -977.000; -914.000
310.065;  419.300;  819.000;  697.000
310.203;    9.100; -825.000; -850.000
310.340;   72.000; -465.000; -321.000
310.477; -135.300; -412.000; -516.000
310.614;  -76.000; -383.000; -473.000
310.751; -115.100; -427.000; -518.000
310.889;   15.100;    1.000;   11.000
311.026; -244.400;-1161.000; -939.000
311.163;  -37.700; -386.000; -380.000
311.300;  -78.600; -512.000; -479.000
311.437;  -81.500; -658.000; -619.000
311.574; -288.200;-1226.000; -985.000
311.711;  -82.500; -595.000; -433.000
311.848;   -9.100; -380.000; -388.000
311.985;   96.300;  270.000;   93.000
312.122; -167.200; -932.000; -762.000
312.259; -190.100; -941.000; -994.000
312.396;  -51.400; -508.000; -551.000
312.533; -100.000; -812.000; -790.000
312.670; -218.800;-1070.000; -898.000
312.807;    3.600; -352.000; -367.000
312.944;  -73.500; -513.000; -611.000
313.081;   28.000; -150.000; -415.000
313.218; -165.600;-1111.000; -867.000
313.355;   71.100; -531.000; -449.000
313.492;   85.100; -455.000; -292.000
313.629;  344.500;  815.000;  735.000
313.766; -238.600;-1176.000;-1008.000
313.902;   75.800; -186.000;   21.000
314.039;  -27.500; -372.000; -289.000
314.176;  148.000;  286.000;  192.000
314.313; -131.800; -569.000; -473.000
314.450;  -86.500; -788.000; -684.000
314.587;  -90.400; -468.000; -480.000
314.723;  104.300;  -78.000;  130.000
314.860;  163.300;  318.000;  332.000
314.997;  117.900;  223.000;  142.000
315.134;    4.000; -385.000; -368.000
315.270;    2.400; -480.000; -496.000
315.407; -217.000;-1094.000; -967.000
315.544;  -57.600; -657.000; -538.000
315.681; -100.200; -681.000; -565.000
315.817;  103.800; -133.000; -176.000
315.954;   76.800; -613.000; -392.000
316.091; -212.600;-1045.000;-1023.000
316.227;    4.300;  -71.000; -179.000
316.364;   81.000;   23.000;    6.000
316.500;  -25.600; -113.000; -300.000
316.637;  -31.500; -181.000; -302.000
316.774; -121.800; -625.000; -358.000
316.910; -139.500; -598.000; -629.000
317.047;  -86.500; -487.000; -351.000
317.183;  -71.400; -435.000; -566.000
317.320;   13.300; -367.000; -321.000
317.456; -101.600; -733.000; -805.000
317.593; -140.300; -598.000; -641.000
317.729;   31.700;  168.000;  -67.000
317.866; -353.700;-1434.000;-1285.000
318.002; -119.300; -708.000; -948.000
318.139; -157.600; -883.000; -867.000
318.275; -159.500;-1003.000; -738.000
318.412;  -75.000; -517.000; -336.000
318.548;   -1.600; -751.000; -720.000
318.685; -138.700; -985.000; -888.000
318.821; -131.400; -762.000; -735.000
318.957;    2.700;   34.000;  -23.000
319.094;  164.000;  297.000;  154.000
319.230;  -95.400; -756.000; -742.000
319.367;  258.400; -471.000; -520.000
319.503;  144.500; -538.000; -436.000
319.639; -158.200; -877.000; -793.000
319.775;  -88.100; -750.000; -685.000
319.912;  -49.700; -424.000; -519.000
320.048; -151.700;-1184.000;-1184.000
320.184;  167.600;   59.000;   70.000
320.321;  -77.100; -497.000; -467.000
320.457;  182.100;  475.000;  662.000
320.593;  -87.000; -375.000; -382.000
320.729; -179.200; -732.000; -734.000
320.866; -117.600; -577.000; -635.000
321.002; -133.600; -759.000; -809.000
321.138;   20.400; -135.000; -211.000
321.274;  169.000; -148.000; -115.000
321.410;   -9.400; -585.000; -353.000
321.546;   -6.800;-1011.000; -911.000
321.683;  152.100;  400.000;  185.000
321.819;   76.800;  -48.000; -117.000
321.955; -183.800; -743.000; -722.000
322.091;  -37.700; -585.000; -540.000
322.227;    0.700; -382.000; -202.000
322.363;   22.900; -320.000; -215.000
322.499;  -37.800; -343.000; -331.000
322.635;  398.200;  636.000;  443.000
322.771;  123.800; -139.000;   12.000
322.907;  224.000;  129.000;  327.000
323.043;   25.200; -115.000; -206.000
323.179;  -20.700; -394.000; -363.000
323.315;  107.500; -401.000; -371.000
323.451;  311.000; -328.000; -236.000
323.587;  152.100;  -60.000;  -77.000
323.723;   67.700; -682.000; -601.000
323.859;  -17.600; -258.000;  -76.000
323.995;  -21.600; -467.000; -409.000
324.131; -209.100; -967.000; -892.000
324.267;  -30.800; -254.000; -276.000
324.402; -224.700; -960.000; -983.000
324.538;   43.200; -279.000; -104.000
324.674;   80.600;  164.000;   77.000
324.810;  385.400;  226.000;  308.000
324.946;   91.900; -810.000; -658.000
325.082;  -86.600; -568.000; -475.000
325.217;   37.600;  -62.000;   16.000
325.353; -128.500; -764.000; -659.000
325.489; -109.400; -540.000; -506.000
325.625;  -85.900; -579.000; -525.000
325.760;  156.200;  517.000;  376.000
325.896;  -19.400; -515.000; -702.000
326.032;  -66.300; -403.000; -352.000
326.168;  -90.900; -462.000; -369.000
326.303;  -48.200; -352.000; -461.000
326.439;   -1.800; -336.000; -276.000
326.575;   16.900; -190.000;  -29.000
326.710;   34.000; -156.000;  -30.000
326.846;   44.700;  146.000;  103.000
326.982; -138.500; -530.000; -548.000
327.117; -121.900; -481.000; -442.000
327.253; -133.600; -745.000; -742.000
327.388; -321.800;-1137.000;-1153.000
327.524;  -35.100; -811.000; -578.000
327.659;   -1.300;  -58.000;  -22.000
327.795;   16.300;   69.000;   45.000
327.931; -126.000; -723.000; -499.000
328.066;   16.800; -417.000; -276.000
328.202;   70.300;   12.000; -129.000
328.337;  300.600;  957.000;  713.000
328.473;   48.700;  -12.000;  -74.000
328.608;   21.900; -256.000; -267.000
328.743; -106.800; -799.000; -664.000
328.879;  104.200;  214.000;  114.000
329.014;  -75.700; -102.000; -122.000
329.150; -109.700; -358.000; -483.000
329.285;  -91.300; -465.000; -466.000
329.421;  -49.900; -548.000; -246.000
329.556;   -7.700;  -36.000;   85.000
329.691; -145.200; -633.000; -615.000
329.827; -125.600; -626.000; -480.000
329.962;  -27.600;  131.000; -301.000
330.097; -122.800; -673.000; -585.000
330.233;  -27.300; -410.000; -223.000
330.368; -185.600; -839.000; -628.000
330.503;   32.200;    3.000;   98.000
330.638;   81.200;  -93.000; -125.000
330.774;  -70.300; -609.000; -530.000
330.909;  -56.800; -434.000; -244.000
331.044; -120.300; -714.000; -708.000
331.179; -329.100;-1217.000;-1109.000
331.315;   81.200;   77.000;   20.000
331.450;  111.000;  157.000;  285.000
331.585; -154.600; -805.000; -706.000
331.720; -108.300; -510.000; -460.000
331.855;   39.300;  -35.000; -102.000
331.990;  418.300;   62.000;  138.000
332.126;  230.100; -110.000;   71.000
332.261;   -9.200; -379.000; -265.000
332.396;   29.200; -135.000; -242.000
332.531; -180.900;-1074.000;-1031.000
332.666;   69.700; -519.000; -363.000
332.801; -149.600; -726.000; -807.000
332.936;   -1.100; -192.000; -122.000
333.071; -259.300; -870.000; -817.000
333.206;   76.100;  307.000;  379.000
333.341;   99.100;  344.000;  418.000
333.476; -116.600; -627.000; -623.000
333.611;  -43.600; -251.000; -173.000
333.746;  -45.100; -381.000; -464.000
333.881; -166.300; -973.000; -935.000
334.016; -195.100; -936.000; -917.000
334.151; -205.300; -746.000; -702.000
334.286;  127.600;  152.000;  186.000
334.421;   28.600; -125.000; -178.000
334.556; -126.100; -611.000; -567.000
334.690; -122.200; -631.000; -577.000
334.825;  152.300;  381.000;   83.000
334.960;  -55.200; -285.000; -413.000
335.095;   71.600;  135.000;  -91.000
335.230; -150.400; -722.000; -738.000
335.365; -230.500;-1084.000; -990.000
335.499; -213.100;-1108.000;-1037.000
335.634;  141.500;    9.000;  534.000
335.769; -142.900; -755.000; -720.000
335.904;  -68.600; -603.000; -561.000
336.038;  -33.500; -735.000; -657.000
336.173; -174.900;-1206.000;-1194.000
336.308;   54.300; -116.000; -189.000
336.443;   16.900; -544.000; -634.000
336.577; -111.200; -936.000; -787.000
336.712;  202.200;   -4.000;  -12.000
336.847;  -43.400; -724.000; -607.000
336.981;  168.700; -272.000; -208.000
337.116;  607.300;  615.000;  501.000
337.250;  364.700; -434.000; -421.000
337.385;  364.200; -297.000; -208.000
337.520;   99.000; -632.000; -603.000
337.654;  -52.900; -215.000; -126.000
337.789; -204.100; -989.000; -933.000
337.923;  -17.000; -104.000; -205.000
338.058; -115.000; -673.000; -738.000
338.192;  -15.800; -611.000; -488.000
338.327;   33.500;  -18.000; -155.000
338.461;  -58.200; -299.000; -469.000
338.596; -146.900; -780.000; -638.000
338.730; -154.300; -767.000; -803.000
338.865;  201.900;  -46.000; -140.000
338.999; -127.700; -846.000; -702.000
339.134;  -68.000; -634.000; -536.000
339.268;   37.600; -741.000; -603.000
339.403;  563.600; -740.000; -775.000
339.537;  162.200; -894.000; -820.000
339.671; -177.900; -829.000; -813.000
339.806;  -63.200; -556.000; -512.000
339.940;   74.300; -261.000; -235.000
340.074; -163.600; -685.000; -510.000
340.209;  -32.900; -351.000; -230.000
340.343; -136.800; -517.000; -573.000
340.477;  407.700;  998.000; 1036.000
340.612;  -93.700;-1033.000; -900.000
340.746;  186.500; -199.000; -243.000
340.880;  -92.300; -924.000; -785.000
341.014;  -17.900;  -45.000; -154.000
341.149; -173.600; -756.000; -718.000
341.283; -173.500; -839.000; -754.000
341.417; -124.500;-1124.000; -938.000
341.551;  361.100; -768.000; -708.000
341.685;  -23.100; -633.000; -611.000
341.820;  -46.700; -562.000; -493.000
341.954;  -69.700; -218.000; -349.000
342.088; -237.300;-1102.000;-1019.000
342.222;  146.800;  565.000;  618.000
342.356;  -82.700; -395.000; -335.000
342.490; -134.900; -880.000; -841.000
342.624;    0.700; -339.000; -242.000
342.758;   35.700; -364.000; -312.000
342.892;  -73.700; -710.000; -585.000
343.026;  -29.400;  -58.000; -116.000
343.160;  -40.700; -426.000; -376.000
343.294; -138.000; -474.000; -337.000
343.428;   16.100; -488.000; -448.000
343.562;   35.500; -172.000;  -23.000
343.696;   26.500; -385.000; -314.000
343.830;    0.700; -362.000; -356.000
343.964;   84.800; -231.000; -168.000
344.098; 1765.200;  199.000;   70.000
344.232; 1542.000; -266.000; -127.000
344.366;  190.500; -567.000; -453.000
344.500;  221.500; -665.000; -744.000
344.634;  150.900; -324.000; -164.000
344.768;   65.000; -531.000; -341.000
344.902;  132.100;  278.000;  256.000
345.035; -101.800; -556.000; -496.000
345.169; -207.800; -933.000; -656.000
345.303;   13.400; -308.000; -482.000
345.437; -111.500; -826.000; -717.000
345.571; -118.700; -675.000; -594.000
345.704;  -97.100; -309.000; -532.000
345.838;   58.000; -331.000; -284.000
345.972;  -52.800; -543.000; -495.000
346.106;  298.200; -179.000; -190.000
346.239;  802.400; -312.000; -243.000
346.373;   88.100; -343.000; -302.000
346.507; -241.100; -950.000; -962.000
346.640;  358.900;  -30.000;   13.000
346.774;  -44.700; -650.000; -797.000
346.908;   28.700; -138.000;  -11.000
347.041; -130.600; -646.000; -593.000
347.175;   80.300;  259.000;   27.000
347.309;  -77.600; -698.000; -628.000
347.442; -157.900; -883.000; -732.000
347.576;  600.000;  670.000;  668.000
347.709;  436.100; -123.000;  -52.000
347.843; -143.100; -933.000; -825.000
347.976;  162.300;  235.000;  294.000
348.110; -313.700;-1268.000;-1186.000
348.243; -130.300; -679.000; -772.000
348.377;   63.200;  -26.000;   60.000
348.510;  187.900;  403.000;  540.000
348.644;  -17.800;  -37.000; -159.000
348.777;   53.300;  180.000;  191.000
348.911;  -32.400; -142.000; -112.000
349.044;  416.100;  471.000;  448.000
349.178;  370.100;-1069.000;-1006.000
349.311;  243.500;  141.000;  255.000
349.444;    9.400; -927.000; -813.000
349.578;   11.900; -347.000; -200.000
349.711; -128.300; -959.000; -862.000
349.845;   41.200; -661.000; -591.000
349.978; -243.800;-1224.000;-1137.000
350.111;  -93.000; -546.000; -612.000
350.244;  -91.200; -596.000; -700.000
350.378;   79.700; -392.000; -393.000
350.511;  -95.600; -393.000; -426.000
350.644; -152.500; -808.000; -806.000
350.778;   63.100;  168.000;  104.000
350.911;   66.100;  134.000;  140.000
351.044; -124.900; -685.000; -615.000
351.177;   -7.400; -321.000; -281.000
351.310;   51.800;    3.000; -131.000
351.444; -105.000; -888.000; -788.000
351.577;  308.000;  140.000;   90.000
351.710;  243.100;  593.000;  417.000
351.843;   -8.000; -165.000;  -77.000
351.976;   64.900;  149.000;  -79.000
352.109; -128.700; -621.000; -612.000
352.242;  -10.500; -464.000; -419.000
352.376;  -58.200; -580.000; -636.000
352.509;  453.200; -437.000; -356.000
352.642;   80.100; -654.000; -604.000
352.775;  182.600; -141.000;  -98.000
352.908; -179.000; -933.000; -904.000
353.041; -152.900; -814.000; -824.000
353.174;  -64.300; -551.000; -424.000
353.307; -114.500; -753.000; -764.000
353.440;  214.700;  541.000;  453.000
353.573; -176.900; -957.000;-1008.000
353.706;  -75.300; -384.000; -558.000
353.839;   13.700; -264.000; -220.000
353.971; -125.900; -657.000; -512.000
354.104; -128.500; -896.000; -835.000
354.237;  -50.800; -627.000; -662.000
354.370; -117.700; -846.000; -879.000
354.503; -308.700;-1231.000;-1308.000
354.636;   -9.900; -529.000; -348.000
354.769; -216.100; -937.000; -860.000
354.902;   36.900; -230.000; -139.000
355.034;  -26.300; -164.000; -220.000
355.167;   34.300; -262.000; -162.000
355.300; -136.600;-1061.000; -880.000
355.433; 1584.100;  -71.000;  -14.000
355.565; 2374.300; -402.000; -384.000
355.698;  644.400; -356.000; -296.000
355.831;   19.100; -882.000; -801.000
355.964;  248.600; -285.000; -170.000
356.096; -133.200; -856.000; -843.000
356.229;   93.300; -523.000; -530.000
356.362;  493.900; -373.000; -266.000
356.494;  989.600; -229.000; -162.000
356.627;  966.500;  269.000;  377.000
356.760; 1112.600;  120.000;   53.000
356.892; 1485.900; -286.000; -601.000
357.025; 1368.600;  403.000;  389.000
357.157; 1260.400; -167.000; -179.000
357.290;  947.600; -856.000; -713.000
357.423;  289.300; -667.000; -556.000
357.555;  270.700; -217.000; -228.000
357.688;  270.700; -483.000; -364.000
357.820;  843.800; -870.000; -877.000
357.953; 6592.500; -563.000; -589.000
358.085; 1493.000; -632.000; -612.000
358.218; 2491.600;-1131.000; -932.000
358.350;  534.000;  -58.000;  312.000
358.483; -170.500;-1300.000;-1187.000
358.615;   46.200;-1182.000;-1078.000
358.747;  -53.300;-1187.000;-1058.000
358.880;  133.100; -810.000; -744.000
359.012;   32.500; -376.000; -202.000
359.145;  -36.800; -480.000; -511.000
359.277;  111.400; -962.000; -913.000
359.409; 5591.400;  536.000;  231.000
359.542; 1419.900; -738.000; -688.000
359.674;  161.900;   46.000;   13.000
359.806;  -90.400; -565.000; -438.000
359.939;  -54.100; -617.000; -516.000
360.071;   -6.300; -583.000; -579.000
360.203;    3.300; -411.000; -364.000
360.335;  168.200;  164.000;  -16.000
360.468;  402.900; -249.000; -307.000
360.600; 4291.400; -547.000; -454.000
360.732; 4151.300; -546.000; -423.000
360.864;  520.100;-1216.000;-1044.000
360.996;  635.300; -516.000; -554.000
361.129;  108.700; -389.000; -598.000
361.261;  115.500;  110.000; -113.000
361.393;   -4.200; -252.000; -214.000
361.525;  150.800;   94.000;  244.000
361.657;  -60.600; -821.000; -703.000
361.789;   98.200; -139.000; -155.000
361.921;  595.800; -642.000; -593.000
362.053;  601.700;  524.000;  541.000
362.185;  147.400;  288.000;   72.000
362.318;  -75.300; -709.000; -705.000
362.450;  369.800;  294.000;  444.000
362.582;  396.900; -913.000; -870.000
362.714;   -4.700; -353.000; -332.000
362.846; -106.200; -606.000; -490.000
362.978; -230.300; -941.000; -811.000
363.109;  191.100; -161.000; -260.000
363.241;  941.200; -739.000; -749.000
363.373;  712.400; -649.000; -564.000
363.505; 1062.000; -186.000;  -91.000
363.637;  232.300; -787.000; -601.000
363.769; -216.700;-1067.000;-1080.000
363.901;  -96.300; -596.000; -654.000
364.033; -194.500;-1103.000;-1062.000
364.165;   32.800; -283.000; -283.000
364.296;  162.600; -316.000; -177.000
364.428;   60.300;-1344.000;-1220.000
364.560; -101.800; -679.000; -661.000
364.692;  -47.800; -738.000; -835.000
364.824;  628.900; -588.000; -456.000
364.955;  732.100; -402.000; -564.000
365.087; 1241.900;-1097.000; -852.000
365.219;   29.100; -686.000; -816.000
365.351; -128.600; -526.000; -572.000
365.482;  170.900;  300.000;  240.000
365.614;  -37.100; -402.000; -314.000
365.746; -164.000; -729.000; -752.000
365.877; -144.300; -706.000; -672.000
366.009;  452.400;  -35.000;  -62.000
366.141; -195.300;-1249.000;-1134.000
366.272; -155.700; -803.000; -719.000
366.404; -203.600;-1005.000; -874.000
366.535;   66.700; -139.000;  -12.000
366.667; -124.200; -644.000; -649.000
366.799;  142.500;  353.000;  203.000
366.930; -167.500; -862.000; -996.000
367.062;  216.500; -639.000; -613.000
367.193;  187.400; -872.000; -842.000
367.325;  -75.800; -580.000; -684.000
367.456;  223.700; -246.000;   31.000
367.588;  313.400; -371.000; -318.000
367.719;   83.500;  -44.000;  -45.000
367.851;   14.500; -222.000; -241.000
367.982;  -75.400; -875.000; -732.000
368.113;  273.800; -475.000; -358.000
368.245; -187.600; -960.000; -841.000
368.376;   53.400; -254.000; -302.000
368.508;  -25.500; -188.000; -263.000
368.639; -223.800;-1166.000;-1034.000
368.770;    9.700; -670.000; -589.000
368.902;  -39.300; -836.000; -926.000
369.033; -156.200; -906.000; -855.000
369.164;  -53.000; -720.000; -653.000
369.296; -167.100; -452.000; -601.000
369.427;   85.600; -209.000; -144.000
369.558;  -88.200; -593.000; -377.000
369.689; -127.900; -721.000; -569.000
369.821; -207.100; -951.000; -845.000
369.952;   17.900;   42.000; -108.000
370.083;  -59.400; -229.000; -108.000
370.214; -124.700; -735.000; -650.000
370.345;   44.300;   65.000;   81.000
370.477; -135.400; -810.000; -790.000
370.608;  543.400; -328.000; -264.000
370.739;  -43.600;-1233.000;-1292.000
370.870;  -16.300;-1102.000; -923.000
371.001;  240.700; -378.000; -467.000
371.132; -110.800; -754.000; -735.000
371.263;   27.400;  -42.000; -148.000
371.394; -187.000; -841.000; -748.000
371.525;  158.000;  345.000;  225.000
371.657; -128.400; -808.000; -670.000
371.788;  212.600;  103.000;  199.000
371.919;  387.700; -384.000; -304.000
372.050; 6930.300;  -91.000; -156.000
372.181; 2003.300; -188.000; -294.000
372.311;  810.600;   42.000; -127.000
372.442;  110.100; -457.000; -451.000
372.573;    1.000; -444.000; -340.000
372.704; -208.600;-1008.000; -980.000
372.835;  230.900; -228.000; -289.000
372.966;  -67.600; -646.000; -554.000
373.097;  -66.000; -575.000; -711.000
373.228;  -15.900; -717.000; -542.000
373.359;  332.600; -824.000; -536.000
373.490; 1912.000; -881.000; -727.000
373.620; 2338.900;-1001.000; -803.000
373.751; 3664.200; -332.000; -396.000
373.882; 1577.300; -663.000; -733.000
374.013;  185.900; -449.000; -262.000
374.143;  -48.100; -581.000; -659.000
374.274; -126.600; -987.000; -908.000
374.405;  385.800; -388.000; -276.000
374.536;  975.900; -526.000; -387.000
374.666; 2309.000; -759.000; -807.000
374.797;  482.200; -817.000; -868.000
374.928; 1884.900; -710.000; -560.000
375.058; 1792.400; -535.000; -500.000
375.189;  202.500;  -59.000;  -93.000
375.320; -182.100; -928.000;-1034.000
375.450;  -14.900; -625.000; -616.000
375.581;  -49.300; -526.000; -436.000
375.712;   -9.000; -574.000; -250.000
375.842;  678.300; -438.000; -415.000
375.973;  467.400; -554.000; -513.000
376.103;   16.500; -665.000; -648.000
376.234;  -90.800; -531.000; -552.000
376.364;  -24.100; -944.000; -867.000
376.495;  702.400;  925.000;  529.000
376.625;   51.500; -472.000; -485.000
376.756;  197.900; -709.000; -678.000
376.886;  -77.100;-1178.000;-1026.000
377.017;   74.300;-1048.000;-1061.000
377.147;  499.200; -786.000; -782.000
377.278;  174.700;  174.000;  228.000
377.408; -203.700; -801.000; -815.000
377.538; -138.200; -707.000; -693.000
377.669;  -79.300; -537.000; -613.000
377.799;  -94.200; -645.000; -635.000
377.929;  -31.900; -610.000; -428.000
378.060; -222.900; -781.000; -847.000
378.190;  -62.100; -726.000; -531.000
378.320;  -34.500; -401.000; -406.000
378.451;   76.100; -131.000;  -22.000
378.581;   69.900;  -67.000; -110.000
378.711;  415.900; 1035.000;  866.000
378.841;   23.500; -533.000; -675.000
378.972; -105.400; -871.000; -751.000
379.102;   45.300; -652.000; -579.000
379.232;   49.200; -126.000;  -73.000
379.362; -143.100;-1001.000; -885.000
379.492;  106.600; -373.000; -424.000
379.623;  277.600;    0.000;  111.000
379.753; -135.600;-1107.000; -974.000
379.883;  456.000;   59.000;  156.000
380.013;   82.400;-1081.000;-1017.000
380.143; -152.400;-1097.000;-1056.000
380.273; -163.500; -985.000; -861.000
380.403;   54.400; -344.000; -257.000
380.533;  -49.300; -651.000; -664.000
380.663;  277.100;  173.000;  128.000
380.793; -101.200;-1027.000;-1074.000
380.923;   46.400; -103.000;  -34.000
381.053; -153.000; -613.000; -623.000
381.183;   13.600; -106.000; -248.000
381.313;  136.300; -656.000; -470.000
381.443;  147.600; -692.000; -473.000
381.573;  524.300; -402.000; -409.000
381.703;  630.000;-1249.000;-1095.000
381.833; -149.200;-1454.000;-1336.000
381.963;  275.800; -134.000;  -87.000
382.093; 2697.400; -925.000; -909.000
382.223;  771.500; -713.000; -602.000
382.353;   39.600; -801.000; -608.000
382.482;  778.200;-1091.000; -964.000
382.612; 1503.800; -872.000; -644.000
382.742;  854.800; -695.000; -622.000
382.872;  622.900; -565.000; -551.000
383.002;  236.400;  347.000; -132.000
383.131;   48.000; -226.000; -160.000
383.261;  -14.400; -706.000; -768.000
383.391;  531.800; -552.000; -377.000
383.521; 4779.800;  451.000;  263.000
383.650;  936.300; -947.000; -904.000
383.780;  -13.900; -783.000; -656.000
383.910;  322.600;  880.000;  802.000
384.039;  147.000; -794.000; -656.000
384.169;  425.800;-1205.000;-1017.000
384.299;   21.400; -650.000; -662.000
384.428;  -98.800; -764.000; -680.000
384.558;  -14.500; -308.000; -275.000
384.687;   16.900; -414.000; -334.000
384.817;  124.500;   75.000;   -2.000
384.947;  136.900; -234.000; -141.000
385.076;  730.500;  982.000;  912.000
385.206;  286.900;  369.000;  480.000
385.335;   38.200; -549.000; -417.000
385.465;  -82.000; -655.000; -663.000
385.594;  364.200;  -53.000;  -44.000
385.724;  941.400; -868.000; -838.000
385.853;  326.600; -296.000; -270.000
385.982; 2817.500; -743.000; -787.000
386.112; 4225.700;-1052.000; -871.000
386.241;  352.500; -307.000; -312.000
386.371;  141.200; -174.000;  -87.000
386.500;   65.400; -825.000; -789.000
386.629;  123.900; -874.000; -817.000
386.759;  200.100;  -43.000;   68.000
386.888;  154.500; -170.000; -250.000
387.017;  -60.000; -648.000; -620.000
387.147;  -31.000; -771.000; -798.000
387.276;  111.700; -410.000; -397.000
387.405;  139.700; -398.000; -342.000
387.535;    1.400; -452.000; -361.000
387.664;  -47.100; -692.000; -620.000
387.793;  206.900; -198.000; -113.000
387.922; 1193.200;  255.000;  200.000
388.052;  167.300; -576.000; -423.000
388.181;  185.300; -342.000; -472.000
388.310;  203.800; -889.000; -710.000
388.439;    7.500; -749.000; -742.000
388.568;  482.700;  365.000;  244.000
388.697; 2204.600; -756.000; -653.000
388.826;  431.400; -768.000; -666.000
388.956;  171.300; -285.000; -307.000
389.085;    5.000; -347.000; -287.000
389.214; -146.900; -842.000; -872.000
389.343;  -38.800; -645.000; -413.000
389.472;  772.800;  126.000;  149.000
389.601;  958.800;   91.000;    0.000
389.730;  105.300; -568.000; -687.000
389.859;  202.800;  226.000;   46.000
389.988;  457.900; -423.000; -408.000
390.117;  311.300; -168.000; -146.000
390.246;   56.700; -331.000; -320.000
390.375;  321.500; -673.000; -626.000
390.504;  -24.800; -703.000; -621.000
390.633; -125.700; -672.000; -726.000
390.761;  -65.400; -732.000; -645.000
390.890;  126.100;   -4.000; -130.000
391.019;   56.000; -421.000; -441.000
391.148; -199.500; -826.000; -855.000
391.277;  -64.200; -576.000; -493.000
391.406;  -89.300; -821.000; -805.000
391.534;  168.400;  574.000; -301.000
391.663;  -30.200; -583.000; -645.000
391.792;  -79.200; -673.000; -701.000
391.921;  347.500;   -3.000;   15.000
392.050;  493.100; -287.000; -228.000
392.178;  -20.200;-1206.000;-1061.000
392.307;  334.600; -758.000; -712.000
392.436;  198.200; -427.000; -641.000
392.564;  142.500;  166.000;   -6.000
392.693; -110.700; -860.000; -682.000
392.822;  509.100; -529.000; -534.000
392.950;  259.500; -880.000; -714.000
393.079;  716.700; -188.000; -328.000
393.208;   85.700; -488.000; -511.000
393.336;   57.700; -170.000; -145.000
393.465;  -29.300; -317.000; -199.000
393.593;   80.100;   62.000;   79.000
393.722; -254.400;-1121.000; -916.000
393.850;   -1.900; -188.000;  -61.000
393.979; -246.200; -926.000; -805.000
394.107;  -58.300; -517.000; -537.000
394.236;   34.600; -570.000; -507.000
394.364;  567.500;  383.000;  206.000
394.493;  860.300; -911.000; -767.000
394.621;   14.900; -955.000; -916.000
394.750; 1161.600; -873.000; -923.000
394.878; 4821.700; -247.000; -149.000
395.007; 6176.900; -721.000; -807.000
395.135;  445.100; -790.000; -721.000
395.263; -100.400;-1038.000;-1040.000
395.392;   89.300;  -25.000; -107.000
395.520; -160.400; -818.000; -679.000
395.648; -147.900; -865.000; -915.000
395.777;   13.300; -366.000; -405.000
395.905;  -24.800; -449.000; -564.000
396.033;  148.100;  217.000;  172.000
396.162; 1435.600; -399.000; -453.000
396.290; 1182.300;  -17.000;   -2.000
396.418;  291.400; -555.000; -514.000
396.546; -116.000; -571.000; -466.000
396.674; -153.200; -850.000; -878.000
396.803;  109.400;  -72.000;  -23.000
396.931;  286.300; -179.000; -199.000
397.059;  145.000;-1026.000; -989.000
397.187; -161.500;-1026.000; -975.000
397.315; -203.700; -884.000; -649.000
397.443; -118.900; -592.000; -443.000
397.572; -138.400; -578.000; -424.000
397.700;   52.400; -607.000; -614.000
397.828;  107.300;  120.000;  -90.000
397.956;  -50.700; -508.000; -478.000
398.084;  -88.600; -767.000; -626.000
398.212;  156.200;  137.000;  124.000
398.340;   75.800;  -56.000;  159.000
398.468;  134.700; -390.000; -169.000
398.596; -185.100; -993.000; -953.000
398.724; -164.800; -762.000; -767.000
398.852; -268.100;-1024.000; -976.000
398.980;  -87.100; -560.000; -560.000
399.108;  -53.000; -982.000; -735.000
399.236;  154.500;   13.000;    8.000
399.363;   88.900;  222.000;  196.000
399.491;  -56.700; -404.000; -398.000
399.619; -211.300; -829.000; -800.000
399.747; -155.700; -859.000; -771.000
399.875;  267.500;  220.000;  234.000
400.003;  -37.500; -359.000; -284.000
400.130; -108.100; -421.000; -341.000
400.258;   -3.300;  -83.000;   38.000
400.386;  -93.600; -352.000; -168.000
400.514;   10.500; -526.000; -587.000
400.641; -142.700; -928.000; -802.000
400.769; -221.300; -979.000; -888.000
400.897;  -99.300; -838.000; -793.000
401.025;   83.100; -166.000; -152.000
401.152;   33.600;  220.000;   38.000
401.280;  -88.300; -430.000; -429.000
401.408; -168.600; -712.000; -576.000
401.535; -120.000; -735.000; -758.000
401.663; -332.500;-1134.000;-1054.000
401.790;  -91.200; -514.000; -525.000
401.918;  170.700;  436.000;  405.000
402.046;   39.600;  134.000;  122.000
402.173;   17.700;  -18.000;    7.000
402.301;  -76.300; -519.000; -397.000
402.428;   86.500;  528.000;  383.000
402.556; -229.400;-1188.000; -913.000
402.683;   20.300;  -20.000;   -1.000
402.811;   29.000;  -37.000; -206.000
402.938;   59.100;   20.000;   27.000
403.066;  430.200; -574.000; -558.000
403.193;  661.800;  299.000;  239.000
403.321;  547.000; -396.000; -574.000
403.448;  628.300;   83.000;   27.000
403.575;  319.100;  -90.000;  -46.000
403.703; -115.500; -732.000; -557.000
403.830;  -66.200; -531.000; -496.000
403.957; -242.000;-1117.000;-1023.000
404.085;   77.200;  -61.000; -172.000
404.212;  241.200;  -50.000;   63.000
404.339;  531.600; -566.000; -306.000
404.467; 9354.500; -612.000; -524.000
404.594; 6175.400; -287.000; -227.000
404.721; 1554.600; -869.000; -764.000
404.848;  200.700; -113.000; -202.000
404.976; -155.400; -856.000; -783.000
405.103;   60.400;  -14.000;  -82.000
405.230;   92.800;  190.000;  226.000
405.357;  163.300;  117.000;   44.000
405.484;  486.100;  -49.000;    5.000
405.612;  124.900; -548.000; -563.000
405.739;  -43.800; -488.000; -243.000
405.866;  242.700;  669.000;  385.000
405.993;  -22.700; -398.000; -102.000
406.120; -225.500; -801.000; -887.000
406.247;  -35.400; -323.000; -342.000
406.374; 1076.300;  540.000;  629.000
406.501;  261.400; -632.000; -702.000
406.628; -113.700; -621.000; -589.000
406.755; -109.800; -803.000; -620.000
406.882;   -9.700; -228.000; -277.000
407.009; -136.700; -719.000; -628.000
407.136;  166.200; -480.000; -401.000
407.263;  351.200; -939.000; -829.000
407.390;  -65.000; -692.000; -614.000
407.517; -235.100;-1139.000;-1187.000
407.644;  -40.400; -332.000; -256.000
407.771;  -66.900; -249.000; -287.000
407.898;   82.400;  168.000;  328.000
408.025;  -60.000; -421.000; -313.000
408.151;   45.500;   82.000;  153.000
408.278;  -54.000; -267.000; -216.000
408.405; -163.100; -931.000; -899.000
408.532; -103.000; -549.000; -542.000
408.659; -154.000; -677.000; -648.000
408.785; -338.300;-1298.000;-1170.000
408.912;  -27.300; -412.000; -296.000
409.039; -145.800; -610.000; -686.000
409.166; -149.800; -591.000; -555.000
409.292; -138.600; -571.000; -534.000
409.419; -144.700; -665.000; -649.000
409.546; -111.400; -431.000; -192.000
409.672; -163.100; -713.000; -545.000
409.799;    9.900;  -36.000;   34.000
409.926;  -16.200; -180.000; -179.000
410.052; -301.600;-1127.000;-1091.000
410.179;  -30.100; -368.000; -392.000
410.305;  -72.800; -375.000; -493.000
410.432;  -20.800; -220.000; -333.000
410.558; -129.400; -305.000; -380.000
410.685; -139.700; -688.000; -431.000
410.812; -117.700; -409.000; -588.000
410.938; -223.400; -964.000; -808.000
411.065; -121.900; -671.000; -645.000
411.191;   18.500; -189.000; -174.000
411.317; -178.400; -823.000; -742.000
411.444;  -61.000; -317.000; -246.000
411.570;  -67.300; -339.000; -294.000
411.697; -205.700; -758.000; -752.000
411.823; -302.500; -989.000; -999.000
411.949;    7.300;  -56.000;   17.000
412.076; -153.400; -539.000; -519.000
412.202; -182.500; -758.000; -757.000
412.329; -190.900; -798.000; -752.000
412.455; -141.700; -821.000; -657.000
412.581;   35.700;  -15.000;  172.000
412.707;  -51.200; -540.000; -457.000
412.834;   90.000;  156.000;  219.000
412.960; -144.000; -785.000; -784.000
413.086; -153.700; -743.000; -701.000
413.212;  380.000;  604.000;  578.000
413.339;  -85.400; -685.000; -701.000
413.465;   74.900; -364.000; -310.000
413.591; -127.000; -757.000; -474.000
413.717;  -58.000; -358.000; -366.000
413.843; -229.700; -839.000; -861.000
413.969;  -86.400;  -47.000; -292.000
414.096; -155.700; -679.000; -679.000
414.222;   56.900;  -33.000;   85.000
414.348;   20.700; -652.000; -385.000
414.474;  243.300;   38.000;  -52.000
414.600;   22.400; -126.000; -144.000
414.726;   44.000;  -96.000;  -55.000
414.852;  -53.000; -365.000; -342.000
414.978;  152.600;  104.000;  -18.000
415.104;  123.100;   38.000;   80.000
415.230;   74.500; -329.000; -330.000
415.356;  106.900; -409.000; -514.000
415.482;  414.500;   13.000;  -35.000
415.608;  529.400; -247.000; -323.000
415.734; 1758.100;   67.000;   38.000
415.860;34933.800; -875.000; -767.000
415.986;22737.200; -685.000; -607.000
416.111; 1860.100; -798.000; -652.000
416.237;  412.000; -424.000; -571.000
416.363; 1961.300; -765.000; -733.000
416.489; 6557.000; -324.000; -251.000
416.615;  595.100; -707.000; -742.000
416.741;  -37.400; -677.000; -784.000
416.866; -166.200; -673.000; -736.000
416.992; -211.200; -801.000; -818.000
417.118;    3.800;  -41.000;  -80.000
417.244;  -56.000; -798.000; -531.000
417.369; -109.600; -801.000; -612.000
417.495;   65.500; -325.000; -254.000
417.621; -120.400;-1015.000; -803.000
417.746;   92.800; -579.000; -572.000
417.872;  146.200; -254.000; -144.000
417.998;  135.300; -515.000; -530.000
418.123; 1862.800;-1073.000; -845.000
418.249; 8461.000; -512.000; -601.000
418.374; 1049.800; -916.000; -824.000
418.500;  203.000; -383.000; -482.000
418.626;  239.000;   70.000;  -59.000
418.751;  259.600; -549.000; -448.000
418.877;  368.700; -637.000; -643.000
419.002; 3209.000; -688.000; -560.000
419.128;20205.400; -930.000; -721.000
419.253; 4351.300; -967.000; -837.000
419.379;  612.400; -391.000; -338.000
419.504;  710.900;  325.000;  415.000
419.629;  834.300; -393.000; -212.000
419.755; 5933.900; -317.000; -254.000
419.880;31867.300;  -98.000;   67.000
420.006;18642.600; -280.000; -221.000
420.131;46889.500; -662.000; -775.000
420.256; 6207.900; -315.000; -316.000
420.382;  891.300; -665.000; -687.000
420.507;  129.200; -649.000; -778.000
420.632;  357.800; -337.000; -339.000
420.758;  610.900; -251.000; -425.000
420.883; -127.700; -876.000; -672.000
421.008; -131.400; -775.000; -619.000
421.133;  -97.600; -509.000; -467.000
421.259;   -1.800; -325.000; -259.000
421.384; -115.700; -834.000; -693.000
421.509;  -12.400;-1052.000; -862.000
421.634; 2663.600; -936.000; -820.000
421.759; 1073.200; -359.000; -327.000
421.885;  -42.500; -717.000; -656.000
422.010; -101.400; -673.000; -542.000
422.135; -243.100; -695.000; -727.000
422.260;  152.700;  340.000;  280.000
422.385;   18.300;   12.000;  -98.000
422.510;  107.300;  151.000;  -26.000
422.635;  118.700;  -87.000;  -43.000
422.760;  231.100; -766.000; -791.000
422.885;  154.100;  -57.000;  -80.000
423.010;   21.400; -112.000; -169.000
423.135;  -98.200; -481.000; -561.000
423.260;   87.100; -150.000; -245.000
423.385;  197.000;  476.000;  222.000
423.510;  121.600;   71.000;  -22.000
423.635;  220.400;  133.000;   45.000
423.760;  178.200;  383.000;  328.000
423.885;  185.000;  336.000;  391.000
424.010;   40.700;  -68.000;  -13.000
424.135;   28.200;    5.000;  -33.000
424.259; -125.200; -654.000; -457.000
424.384;  -57.100; -279.000; -272.000
424.509;   55.100; -260.000; -186.000
424.634; -153.800; -761.000; -623.000
424.759;   -3.200; -688.000; -544.000
424.883;   -3.000; -506.000; -527.000
425.008;  338.600; -502.000; -410.000
425.133; 3334.200; -679.000; -653.000
425.258; 1395.600; -517.000; -381.000
425.382; 2121.900; -867.000; -774.000
425.507; 4820.600; -487.000; -543.000
425.632;  673.100; -802.000; -663.000
425.756;  748.700; -256.000; -146.000
425.881;10321.000; -831.000; -857.000
426.006;24783.800; -604.000; -355.000
426.130; 3753.900; -696.000; -508.000
426.255;  468.800; -611.000; -491.000
426.379;  267.000; -189.000; -577.000
426.504;  788.400;  660.000;  544.000
426.629; 7171.700; -519.000; -466.000
426.753; 4399.700;   64.000;  -46.000
426.878;  585.100; -252.000; -288.000
427.002;  371.200; -651.000; -668.000
427.127; 2913.700;  -35.000; -158.000
427.251;18425.700;  372.000;  401.000
427.375; 4684.500; -191.000; -173.000
427.500; 4292.900; -616.000; -610.000
427.624; 1345.600; -234.000; -400.000
427.749;  258.200; -216.000; -225.000
427.873;  -12.700; -499.000; -412.000
427.997;   -5.600; -222.000; -230.000
428.122;  215.800;  795.000;  703.000
428.246;  189.600;  433.000;  434.000
428.371; -194.600; -869.000; -773.000
428.495; -142.200; -624.000; -646.000
428.619;   14.300; -186.000; -117.000
428.743;  116.300;   65.000;  132.000
428.868;  122.700; -732.000; -643.000
428.992; 2767.600; -219.000; -326.000
429.116; 1121.500; -329.000; -357.000
429.240;  636.300;  419.000;  426.000
429.365;    8.000; -454.000; -574.000
429.489;   -3.700; -638.000; -647.000
429.613;  118.000; -236.000; -177.000
429.737;  152.100; -563.000; -432.000
429.861;  542.100; -247.000; -133.000
429.985; 9677.200; -425.000; -305.000
430.109; 9438.600; -770.000; -908.000
430.234; 1106.800;   76.000;  -50.000
430.358;  177.400; -250.000; -160.000
430.482;  -38.700; -672.000; -564.000
430.606;  -33.900; -655.000; -375.000
430.730;  141.600; -437.000; -388.000
430.854;  359.700; -909.000; -835.000
430.978;  -48.900; -795.000; -764.000
431.102;  -52.500; -499.000; -422.000
431.226;  -90.200; -874.000; -815.000
431.350;  207.800;  345.000;  422.000
431.474;  -55.500; -661.000; -373.000
431.597; -233.000;-1060.000; -848.000
431.721;  -94.900; -276.000; -267.000
431.845; -210.300; -704.000; -472.000
431.969;  -77.400; -304.000; -349.000
432.093; -106.300; -395.000; -317.000
432.217;   13.800;   32.000;   82.000
432.341; -113.400; -523.000; -518.000
432.464;  114.500;   96.000;   40.000
432.588;  507.500; -401.000; -329.000
432.712;  249.000;  -52.000;  -52.000
432.836;  156.400;  213.000;  263.000
432.959;   -2.900; -372.000; -311.000
433.083;  162.100;   11.000;    2.000
433.207;  717.900;  285.000;  930.000
433.330; 8475.800; -391.000; -200.000
433.454; 9404.000; -654.000; -638.000
433.578; 5705.100;  583.000;  278.000
433.701;  986.000; -623.000; -675.000
433.825;  359.200; -292.000; -299.000
433.949;  472.500;   28.000;  -72.000
434.072;  200.000; -410.000; -323.000
434.196;   37.200; -309.000; -117.000
434.319; 7918.300;25482.000;25124.000
434.443; 1386.900; -656.000; -603.000
434.566; 4222.700;  281.000;   62.000
434.690;  611.400; -637.000; -383.000
434.813;  134.900; -251.000; -173.000
434.937; -102.300; -569.000; -696.000
435.060;   18.500; -423.000; -332.000
435.184;  839.600; -492.000; -217.000
435.307;  429.600;  159.000;  102.000
435.431;   54.200;  -40.000;   24.000
435.554;  -58.600; -399.000; -240.000
435.677;  -92.600; -350.000; -258.000
435.801;   29.200;  -25.000;   49.000
435.924;   74.900;    1.000;  -67.000
436.048; -141.200;-1019.000; -732.000
436.171;  -53.500; -240.000;  -66.000
436.294;   22.100; -248.000; -229.000
436.417;  140.800; -963.000; -849.000
436.541; -125.100; -814.000; -840.000
436.664;  -11.600; -242.000; -316.000
436.787;   54.700;   13.000;  113.000
436.910; -146.600; -792.000; -422.000
437.034;  117.300;  142.000;  143.000
437.157;  237.700;  -11.000;    0.000
437.280;  -47.800; -392.000; -292.000
437.403;  -79.900; -982.000; -869.000
437.526; 1630.700; -903.000; -865.000
437.649; 5104.800; -505.000; -332.000
437.772;  706.600; -692.000; -540.000
437.896;  345.100;  700.000;  544.000
438.019; -115.600; -758.000; -503.000
438.142; -108.100; -596.000; -506.000
438.265;   73.100; -639.000; -670.000
438.388; 1294.000; -520.000; -410.000
438.511;  258.700; -597.000; -394.000
438.634;    7.700; -247.000; -125.000
438.757; -219.500; -693.000; -619.000
438.880;   29.700;  -34.000;  -57.000
439.003;  -84.100; -417.000; -437.000
439.126;  -42.800; -287.000; -167.000
439.248;  -69.100;  -98.000; -139.000
439.371;  -17.900;    9.000;  -53.000
439.494;  117.800;  510.000;  439.000
439.617;  -41.900;   65.000;  -88.000
439.740; -304.800; -968.000; -816.000
439.863; -227.600; -755.000; -595.000
439.986; -180.300; -476.000; -431.000
440.108;  -15.800; -161.000; -112.000
440.231; -252.100; -950.000; -836.000
440.354;   -7.200;  -64.000; -150.000
440.477;  168.000; -566.000; -542.000
440.599;  107.000; -200.000; -225.000
440.722; -165.300; -709.000; -586.000
440.845;  228.700;  751.000;  928.000
440.968; -154.700; -415.000; -311.000
441.090;  -65.400; -199.000;  -33.000
441.213; -274.500;-1021.000; -825.000
441.336;  -51.600; -159.000;   -5.000
441.458;  -65.600; -549.000; -396.000
441.581;  -97.400; -628.000; -629.000
441.703;  -88.700; -152.000;   13.000
441.826; -152.300; -557.000; -400.000
441.948;    2.500;   56.000;   51.000
442.071;  111.200;  555.000;  424.000
442.193; -180.900; -531.000; -485.000
442.316;  141.800;  152.000;   97.000
442.438;  115.800; -233.000;  -10.000
442.561;  213.400;  272.000;  262.000
442.683; 1356.900; -809.000; -522.000
442.806; 2525.000;   -8.000;   74.000
442.928;   65.600; -859.000; -604.000
443.051;  -61.300; -577.000; -373.000
443.173; -108.500; -341.000; -339.000
443.295; -108.900; -263.000; -371.000
443.418;  -60.800; -321.000;  -29.000
443.540;   59.900; -106.000;   -4.000
443.662; -170.600; -563.000; -465.000
443.785;   35.300;  335.000;  199.000
443.907; -163.500; -362.000; -208.000
444.029; -214.700; -767.000; -494.000
444.152; -213.500; -644.000; -554.000
444.274;   -3.700;  -18.000;  -24.000
444.396; -139.600; -461.000; -221.000
444.518; -182.100; -691.000; -454.000
444.640; -142.600; -268.000; -111.000
444.763;   25.700;  388.000;  249.000
444.885; -151.300; -432.000; -392.000
445.007;   13.500;   35.000;   86.000
445.129; -150.700; -610.000; -515.000
445.251; -129.300; -372.000; -439.000
445.373; -235.400; -537.000; -386.000
445.495;   77.200;  242.000;  350.000
445.617;  157.300;  853.000;  753.000
445.739;  -62.400; -215.000;  -97.000
445.861;   16.400; -245.000; -112.000
445.984;    2.700; -267.000; -101.000
446.105;  526.800; -418.000; -251.000
446.227; 1314.200; -176.000;  -19.000
446.349;   29.600; -358.000; -249.000
446.471; -152.700; -615.000; -448.000
446.593;  -56.300; -316.000;   19.000
446.715;   69.900;  -67.000;   41.000
446.837;  188.700;  697.000;  832.000
446.959; -131.600; -457.000; -478.000
447.081; -186.400; -628.000; -518.000
447.203;  174.400;  862.000;  834.000
447.325; -116.400; -270.000;   42.000
447.446;   83.500;  286.000;  530.000
447.568; -214.900; -921.000; -803.000
447.690;  -84.100; -236.000; -245.000
447.812; -224.500; -798.000; -519.000
447.933;   20.000;  155.000;  127.000
448.055;  -62.800; -306.000; -261.000
448.177;  386.900;   31.000;   79.000
448.299;  200.700; -935.000; -727.000
448.420;  104.200;  -25.000;  159.000
448.542;  -26.500;   -3.000;   33.000
448.664;    6.600;  109.000;  322.000
448.785;   10.900;  265.000;   83.000
448.907;  -96.200; -614.000; -353.000
449.028;   -8.800; -771.000; -471.000
449.150;  208.300;  492.000;  589.000
449.272; -298.600;-1044.000; -913.000
449.393;  148.700;  612.000;  694.000
449.515; -252.700; -634.000; -581.000
449.636;  -35.700; -264.000; -155.000
449.758;  224.000;  763.000;  622.000
449.879;  -98.100; -498.000; -396.000
450.001; -112.700; -149.000;  -49.000
450.122;   -4.500;  -95.000;  162.000
450.244;   26.200;   37.000;  364.000
450.365; -118.900; -495.000; -301.000
450.486;  -31.100;   80.000;  268.000
450.608;  102.700;  393.000;  326.000
450.729;  202.200;  578.000;  645.000
450.850;   -4.800; -574.000; -466.000
450.972; 1161.400; -552.000; -389.000
451.093; 7759.600;  190.000;  588.000
451.214; 2898.100; -516.000; -337.000
451.336;  675.100;  773.000;  579.000
451.457;  167.600;  264.000;  393.000
451.578;  -27.300; -118.000;  -74.000
451.699; -176.300; -546.000; -540.000
451.821;  -51.600; -284.000;  -50.000
451.942;   80.900;  278.000;  285.000
452.063;  154.100;  228.000;  419.000
452.184; 1020.300;  -54.000;  -49.000
452.305; 1797.900;  103.000;  170.000
452.427;  171.400; -549.000; -301.000
452.548;   29.800;   23.000;   79.000
452.669;  -37.100; -257.000;  -89.000
452.790;   -7.500;    3.000;  -18.000
452.911;   65.800;  195.000;  259.000
453.032;  -52.400; -289.000;  -60.000
453.153;   -5.100;  -29.000;   81.000
453.274;  214.700;  737.000;  868.000
453.395;   -5.200;  -51.000;  175.000
453.516;  352.300; 1317.000; 1388.000
453.637;  -59.600; -205.000; -150.000
453.758;  -17.000;   15.000;   69.000
453.879; -163.800; -462.000; -250.000
454.000;  238.300; 1086.000;  948.000
454.121; -132.900; -554.000; -326.000
454.242; -168.400; -599.000; -383.000
454.362;  -52.300;  -99.000;  114.000
454.483;    1.400; -309.000; -229.000
454.604;  179.100;  512.000;  580.000
454.725; -166.600; -627.000; -555.000
454.846; -184.800; -474.000; -406.000
454.967;   63.000;  230.000;  539.000
455.087;  -30.400;  179.000;  153.000
455.208;  111.900;  554.000;  856.000
455.329;  -51.900;  -22.000;   82.000
455.450;  134.700;  473.000;  633.000
455.570; -107.500; -234.000; -211.000
455.691;  -18.500;  201.000;  407.000
455.812; -136.500; -270.000;  -92.000
455.932;  -53.100;  107.000;  -97.000
456.053;  -58.700;   36.000;   24.000
456.173; -158.600; -433.000; -355.000
456.294; -213.800; -476.000; -303.000
456.415;  -70.200;  -73.000;   70.000
456.535;  -19.000;  297.000;  273.000
456.656;    4.500;  132.000;  240.000
456.776;  -80.600;    3.000;  298.000
456.897;   64.400;  308.000;  513.000
457.017;  -96.300; -153.000;   -3.000
457.138; -158.700; -402.000; -249.000
457.258;   21.600;  263.000;  224.000
457.379;   72.100;  509.000;  521.000
457.499;   -0.700;  443.000;  432.000
457.620; -191.100; -407.000; -231.000
457.740; -136.500; -132.000;  -11.000
457.860;  -87.700;   87.000;   44.000
457.981;  -29.000;  132.000;  124.000
458.101;  -92.700;  -89.000;   40.000
458.221;   32.900;  336.000;  402.000
458.342;  -29.600;   -4.000;  -37.000
458.462;   98.900;  617.000;  352.000
458.582;  -72.200; -302.000; -294.000
458.703;   47.500;  303.000;  154.000
458.823;  -15.300;   22.000;  163.000
458.943;  107.800;  341.000;  467.000
459.063;   68.100; 1124.000;  192.000
459.183;   22.500;  328.000;  313.000
459.304;   92.300;  315.000;  517.000
459.424;  -78.100; -246.000;  -89.000
459.544;  677.200;  388.000;  764.000
459.664; 1373.500;  499.000;  506.000
459.784;  529.300; 1004.000; 1175.000
459.904;  207.900;  867.000;  744.000
460.024;  207.800;  867.000;  684.000
460.144;   88.300;  449.000;  554.000
460.264;   81.900;  515.000;  327.000
460.385; -124.100; -145.000; -119.000
460.505;  144.000;  905.000;  858.000
460.625; -109.600;  -17.000;  -68.000
460.745;   24.000;  396.000;  541.000
460.864;  -47.500;  153.000;  469.000
460.984;  109.800;  499.000;  573.000
461.104;  390.300; 1656.000; 1775.000
461.224;  127.300;  657.000;  650.000
461.344;  -15.400;  431.000;  360.000
461.464;   48.200;  258.000;  513.000
461.584;   24.700;  283.000;  466.000
461.704;  -52.600;   58.000;  108.000
461.824;  -60.900;  238.000;  259.000
461.943;  -28.900;  191.000;  130.000
462.063;  -72.500;    2.000;  324.000
462.183;  120.300;  639.000;  717.000
462.303;  291.100; 1678.000; 1230.000
462.422;  135.800;  781.000;  840.000
462.542;   -1.600;  271.000;  391.000
462.662;  144.300;  353.000;  380.000
462.782;  500.100;  833.000;  572.000
462.901;  858.200;  545.000;  717.000
463.021;  564.600; 1702.000; 1638.000
463.141;   72.900;  337.000;  770.000
463.260;   34.800;  614.000;  474.000
463.380;   85.300;  902.000;  884.000
463.499;  -29.800;  342.000;  332.000
463.619;   -9.200;  581.000;  559.000
463.738;  312.000; 1644.000;  903.000
463.858;  126.000;  657.000;  811.000
463.978;    2.900;  542.000;  396.000
464.097;  167.100;  921.000; 1114.000
464.217;  257.100; 1196.000; 1143.000
464.336;  254.600; 1068.000; 1130.000
464.455;  -11.200;  328.000;  659.000
464.575;  162.800;  597.000;  602.000
464.694;  402.400; 1204.000; 1179.000
464.814;  312.200; 1190.000; 1138.000
464.933;  222.500; 1095.000; 1027.000
465.052;  277.700; 1412.000; 1054.000
465.172;  198.200;  922.000;  799.000
465.291;  340.000; 1376.000; 1320.000
465.410;  129.600;  462.000;  735.000
465.530;  262.600; 1355.000; 1310.000
465.649;  191.400; 1209.000; 1273.000
465.768;  390.800; 1673.000; 1508.000
465.888;  204.100;  941.000; 1174.000
466.007;  279.300; 1335.000; 1440.000
466.126;   60.200;  721.000;  641.000
466.245;  183.000; 1176.000; 1187.000
466.364;  109.400;  950.000; 1060.000
466.484;  173.800; 1024.000; 1213.000
466.603;  187.600; 1101.000; 1222.000
466.722;  341.900; 1490.000; 1769.000
466.841;  203.400; 1151.000; 1401.000
466.960;  164.300; 1069.000;  972.000
467.079;  353.200; 1971.000; 1786.000
467.198;  179.100; 1238.000; 1181.000
467.317;  241.300; 1768.000; 1162.000
467.436;  221.800; 1709.000; 1261.000
467.555;  351.400; 1796.000; 1746.000
467.674;  217.900; 1227.000; 1329.000
467.793;  196.100; 1376.000; 1374.000
467.912;  267.700; 1658.000; 1539.000
468.031;  363.400; 2038.000; 1930.000
468.150;  370.600; 1842.000; 1837.000
468.269;  476.700; 2313.000; 2090.000
468.388;  481.600; 2168.000; 2339.000
468.507;  590.000; 2884.000; 2903.000
468.626;  655.500; 2555.000; 2541.000
468.744;  345.300; 2018.000; 2174.000
468.863;  491.300; 2312.000; 2523.000
468.982;  308.200; 1503.000; 1555.000
469.101;  550.000; 2788.000; 2692.000
469.220;  389.900; 2333.000; 2176.000
469.338;  603.300; 2935.000; 3051.000
469.457;  484.500; 2719.000; 2545.000
469.576;  822.300; 3953.000; 3784.000
469.695;  552.600; 2877.000; 3066.000
469.813;  935.500; 4148.000; 4192.000
469.932;  928.300; 4255.000; 4485.000
470.051;  960.800; 4075.000; 4161.000
470.169; 1669.400; 4470.000; 4338.000
470.288; 2620.200; 4700.000; 4809.000
470.406; 1581.800; 5059.000; 5194.000
470.525; 1280.300; 6101.000; 5787.000
470.644; 1399.600; 6847.000; 6794.000
470.762; 1769.700; 8397.000; 7873.000
470.881; 1914.300; 8651.000; 8464.000
470.999; 2132.000; 9685.000; 9151.000
471.118; 2311.900;11174.000;10711.000

