
Integration time [ms]: 100.000
Averaging Nr. [scans]: 40
Smoothing Nr. [pixels]: 0
Data measured with spectrometer [name]: 2101012U2
Wave   ;Sample   ;Dark     ;Reference
[nm]   ;[counts] ;[counts] ;[counts] 

197.733;   53.225;  516.000;  404.000
197.879;  -74.350; -610.000; -634.000
198.025;  -44.550; -475.000; -420.000
198.171;  -69.225; -602.000; -612.000
198.317;  -15.925; -401.000; -316.000
198.463;  -53.000; -655.000; -404.000
198.609;   45.200;  181.000; -137.000
198.755;  -59.875; -644.000; -410.000
198.901;  -66.300; -505.000; -424.000
199.047;  -48.675; -615.000; -488.000
199.193;  -40.125; -230.000; -468.000
199.339;  -43.675; -222.000; -369.000
199.485;   44.775;  330.000;  271.000
199.631;    3.750;  227.000;  310.000
199.777;  -49.325; -466.000; -398.000
199.923;  -52.250; -610.000; -424.000
200.069;    0.600; -141.000;  -58.000
200.215;   52.750;  128.000;  453.000
200.361;   44.675;  243.000;  477.000
200.507;  -54.400; -600.000; -373.000
200.653;  -24.525; -371.000; -194.000
200.798;  -32.525; -215.000; -125.000
200.944;   -9.675; -146.000;  -41.000
201.090;   29.075;   61.000;  222.000
201.236;   10.175; -116.000; -158.000
201.382;  126.325;  874.000;  903.000
201.528;   21.350;  -58.000;  -48.000
201.674;  -38.025; -386.000; -293.000
201.819;  -57.450; -540.000; -439.000
201.965;  -68.125; -699.000; -447.000
202.111;  -12.775; -273.000; -226.000
202.257;  -29.950; -250.000; -238.000
202.402;    0.475;   13.000;  -36.000
202.548;  -35.650; -169.000; -116.000
202.694;   86.225;  410.000; -183.000
202.840;  -63.650; -603.000; -531.000
202.985;  -73.175; -681.000; -639.000
203.131; -101.300; -832.000; -666.000
203.277;  -24.625; -199.000; -262.000
203.423;  -52.950; -434.000; -520.000
203.568;  -31.150; -462.000; -237.000
203.714;  -48.325; -535.000; -542.000
203.860;  -75.050; -682.000; -641.000
204.005;   14.575;  112.000;  167.000
204.151;   68.550;  561.000;  556.000
204.296;  -46.825; -354.000; -221.000
204.442;  -75.625; -600.000; -547.000
204.588;  -80.025; -592.000; -579.000
204.733;   15.100;  178.000;  168.000
204.879; -127.275;-1018.000; -822.000
205.025;   13.000;  -99.000;  126.000
205.170;   10.250;  -17.000;   94.000
205.316;   78.325;  438.000;  661.000
205.461;  -83.125; -698.000; -554.000
205.607;   88.275;  609.000;  665.000
205.752;  -75.950; -626.000; -551.000
205.898;  -46.350; -501.000; -391.000
206.043;  -61.500; -578.000; -506.000
206.189;  -35.200; -243.000; -285.000
206.334;   92.100;  554.000;  606.000
206.480;   73.400;  409.000;  239.000
206.625;  -61.000; -529.000; -552.000
206.771;  -32.725; -451.000; -373.000
206.916;  -41.275; -210.000; -537.000
207.062;  -76.075; -545.000; -591.000
207.207;  -59.150; -546.000; -443.000
207.353;   57.300;  185.000;  460.000
207.498;   21.400;  196.000;   85.000
207.643;  -41.725; -501.000; -370.000
207.789; -132.750;-1069.000; -910.000
207.934;  -86.500; -665.000; -713.000
208.080;  -30.325; -154.000;   66.000
208.225;  -14.300;  -22.000;  -57.000
208.370;  -71.725; -727.000; -619.000
208.516;  -65.325; -741.000; -487.000
208.661;  -28.950; -127.000;  -69.000
208.806;  -16.500; -165.000; -171.000
208.952; -123.950;-1044.000; -731.000
209.097;   76.100;  378.000;  349.000
209.242;  -36.350; -307.000; -382.000
209.387;   59.825;  392.000;  350.000
209.533;  -39.975; -321.000; -350.000
209.678;   69.875;  472.000;  543.000
209.823;  -54.825; -408.000; -310.000
209.969;  -87.550; -860.000; -757.000
210.114;  -98.950; -907.000; -719.000
210.259; -112.350; -939.000; -889.000
210.404;    0.100; -171.000;  103.000
210.549;   17.250;  108.000;    3.000
210.695;   -9.100;   -3.000;  -95.000
210.840;   23.350;   94.000;   67.000
210.985;  -46.025; -484.000; -303.000
211.130;   63.375;  268.000;  406.000
211.275;    8.475;  207.000;  199.000
211.420;  -34.775; -300.000; -289.000
211.566;  -59.650; -536.000; -489.000
211.711;   24.375;  218.000;  157.000
211.856;  -63.625; -545.000; -519.000
212.001;   16.950;  151.000;   44.000
212.146;   19.200;  153.000;   49.000
212.291;  -14.625; -210.000; -186.000
212.436;  -32.675; -280.000;   -6.000
212.581;  -75.550; -685.000; -653.000
212.726;  -76.250; -487.000; -538.000
212.871;  -43.550; -552.000; -217.000
213.016; -140.225;-1172.000;-1029.000
213.161;   62.750;  406.000;  291.000
213.306;  -69.600; -435.000; -577.000
213.451;  -98.600; -778.000; -689.000
213.596;  -42.175; -455.000; -347.000
213.741;  -50.225; -448.000; -538.000
213.886;  -62.125; -498.000; -517.000
214.031;  -14.775; -294.000; -124.000
214.176;  -41.850; -408.000; -341.000
214.321;  -12.400; -296.000; -157.000
214.466;  -30.600; -163.000;  -43.000
214.611;   -8.925;  -61.000;  -10.000
214.756; -125.550; -948.000; -858.000
214.901;  -19.325; -388.000; -226.000
215.046; -110.075; -797.000; -825.000
215.191;   28.425;  128.000;   35.000
215.336;  -12.250; -157.000;  -19.000
215.480;  -57.625; -684.000; -505.000
215.625;  -18.900; -175.000;  -19.000
215.770;  -81.675; -757.000; -662.000
215.915;    1.300;   -5.000;  -97.000
216.060;   -4.250; -113.000;  -21.000
216.205; -116.250; -731.000; -779.000
216.349;  -59.375; -470.000; -533.000
216.494; -127.475; -939.000; -867.000
216.639; -102.050; -823.000; -888.000
216.784;  -83.550; -577.000; -525.000
216.929;   59.350;  392.000;  281.000
217.073;   -9.900; -244.000;  -31.000
217.218;    1.775;   78.000;  -47.000
217.363;  -77.700; -656.000; -618.000
217.507;  -77.450; -623.000; -588.000
217.652; -117.200; -845.000; -874.000
217.797;  -81.300; -708.000; -659.000
217.942; -113.625; -856.000; -720.000
218.086;   72.100;  608.000;  539.000
218.231;  -21.175; -174.000;  -26.000
218.376;  -30.200; -337.000; -229.000
218.520;   16.250;  -41.000;   96.000
218.665;  -32.575; -338.000; -204.000
218.810;  -37.450; -275.000; -233.000
218.954;   30.400;  201.000;   35.000
219.099; -113.350; -713.000; -963.000
219.243;  -64.275; -589.000; -554.000
219.388;  -36.550; -264.000; -136.000
219.532;    1.200; -116.000; -116.000
219.677;  -77.950; -564.000; -521.000
219.822;   -2.275;   33.000;   89.000
219.966;    3.300;   17.000;  -99.000
220.111;  -23.700; -328.000;  -40.000
220.255;  -77.275; -797.000; -750.000
220.400;   -6.400; -180.000; -146.000
220.544;  -77.225; -516.000; -450.000
220.689;  -58.225; -422.000; -451.000
220.833;  -16.250; -123.000;  -58.000
220.978;  -49.725; -393.000; -563.000
221.122;   15.600;  319.000;  307.000
221.267; -112.975; -906.000; -837.000
221.411;  -63.000; -478.000; -394.000
221.555;  -23.100; -104.000;  -23.000
221.700;  -36.375; -329.000; -222.000
221.844;   28.625;  255.000;  272.000
221.989;  -39.975; -328.000; -311.000
222.133;  -38.825; -289.000; -307.000
222.277;  -18.750;    5.000;   78.000
222.422;   13.250;  227.000;  113.000
222.566;  -38.275; -381.000; -214.000
222.711;  -52.975; -414.000; -479.000
222.855;  -80.550; -643.000; -586.000
222.999;  -87.650; -642.000; -717.000
223.144;  -24.725; -195.000; -194.000
223.288;   57.375;  423.000;  251.000
223.432;   21.125;  184.000;  230.000
223.576;   17.225;  152.000;  -21.000
223.721;   44.700;  364.000;  273.000
223.865;  -49.625; -472.000; -475.000
224.009;  258.725; 1673.000; 1631.000
224.153;  -71.575; -660.000; -671.000
224.298;  -61.500; -531.000; -489.000
224.442;   -2.500;  -74.000;  -33.000
224.586;  -14.600; -169.000; -106.000
224.730; -106.925; -858.000; -670.000
224.875; -112.125; -739.000; -688.000
225.019;   14.800;  102.000;  188.000
225.163;   49.600;  208.000;  341.000
225.307;    6.525;   97.000;  -91.000
225.451;   58.200;  360.000;  481.000
225.595;   32.900;  264.000;  176.000
225.739;  -24.575; -170.000;  -94.000
225.884;   17.650;   86.000;    5.000
226.028;  -89.475; -760.000; -626.000
226.172;  -34.750; -260.000; -273.000
226.316; -108.725; -941.000; -902.000
226.460;  -60.000; -645.000; -493.000
226.604;  -48.600; -406.000; -400.000
226.748;  -97.425; -836.000; -733.000
226.892;  -27.400; -227.000; -181.000
227.036;  -41.975; -537.000; -447.000
227.180;  -57.125; -551.000; -375.000
227.324;  -69.050; -561.000; -580.000
227.468; -110.650; -819.000; -717.000
227.612;    8.450;  242.000;  -28.000
227.756;  -90.600; -845.000; -698.000
227.900;   52.600;  342.000;  441.000
228.044;  -62.650; -509.000; -290.000
228.188;   65.675;  448.000;  568.000
228.332;  -77.550; -546.000; -472.000
228.476;  -32.275; -223.000; -149.000
228.620;  -27.375; -210.000; -150.000
228.764;   64.175;  431.000;  349.000
228.908;  -17.125; -155.000;   30.000
229.052;  -57.025; -615.000; -528.000
229.195;  -15.750; -172.000;   13.000
229.339;  -10.200; -235.000; -305.000
229.483;  -16.100;    5.000; -162.000
229.627;   -6.150; -156.000;  139.000
229.771;  -63.725; -218.000; -294.000
229.915;    8.975;  230.000;   79.000
230.059;  -87.175; -648.000; -663.000
230.202;  -35.450; -370.000; -317.000
230.346;  -10.025; -107.000;  107.000
230.490;  -52.125; -489.000; -521.000
230.634;  -99.950; -736.000; -553.000
230.777;   82.250;  478.000;  509.000
230.921;  -42.625; -450.000; -359.000
231.065;  -44.075; -246.000; -286.000
231.209;   19.775;  261.000;  265.000
231.352;   23.550;   54.000;   40.000
231.496;   26.775;  568.000;  188.000
231.640;  -61.550; -693.000; -621.000
231.783;   64.325;  546.000;  525.000
231.927;  -35.150; -294.000; -365.000
232.071; -107.525; -962.000; -736.000
232.214;  -97.525; -980.000; -764.000
232.358;  -99.050; -683.000; -599.000
232.502;   -3.350;  -19.000;    7.000
232.645; -142.850;-1090.000; -927.000
232.789;  -10.025; -257.000; -218.000
232.933;  -43.800; -407.000; -224.000
233.076; -122.950;-1038.000; -897.000
233.220;  -90.500; -752.000; -777.000
233.363;  -80.350; -669.000; -477.000
233.507;   48.275;  371.000;  129.000
233.650;  -89.125; -764.000; -834.000
233.794;   46.975;  438.000;  461.000
233.938;  -63.700; -530.000; -362.000
234.081;  -11.875;  -93.000;   31.000
234.225;  -56.150; -631.000; -539.000
234.368; -101.500; -773.000; -723.000
234.512;  -34.200; -385.000; -299.000
234.655;  -92.575; -582.000; -555.000
234.798;  -65.350; -493.000; -466.000
234.942; -123.250; -884.000;-1002.000
235.085;  -68.650; -651.000; -443.000
235.229;  -62.150; -405.000; -410.000
235.372;  -43.625; -247.000; -191.000
235.516;  -52.125; -397.000; -321.000
235.659;   20.700;   92.000;  121.000
235.802;  -22.450;  -38.000;  -22.000
235.946;   28.900;  335.000;  215.000
236.089;   23.525;  126.000;  250.000
236.233;   56.525;  275.000;  298.000
236.376;  -43.950; -235.000; -378.000
236.519;  -43.625; -297.000; -319.000
236.663;  -24.550; -215.000; -117.000
236.806; -124.900;-1029.000; -999.000
236.949;   51.250;  543.000;  431.000
237.092;   63.450;  412.000;  391.000
237.236;  -76.775; -589.000; -502.000
237.379;   75.850;  352.000;  428.000
237.522; -116.775; -879.000; -768.000
237.666;  -18.500; -271.000;   18.000
237.809; -104.800; -851.000; -823.000
237.952;   24.975;  469.000;  271.000
238.095;  -67.925; -447.000; -442.000
238.238;   87.700;  688.000;  700.000
238.382;   -5.025;  166.000;  103.000
238.525;  -66.100; -598.000; -511.000
238.668; -132.000;-1060.000; -985.000
238.811;  -73.275; -638.000; -643.000
238.954;  -43.400; -483.000; -334.000
239.097;  106.000;  617.000;  664.000
239.241;   18.850;  394.000;  326.000
239.384;  -38.100; -254.000; -214.000
239.527;  -75.725; -424.000; -224.000
239.670; -145.975; -994.000;-1091.000
239.813; -115.750; -696.000; -658.000
239.956;   72.025;  579.000;  473.000
240.099; -107.300; -778.000; -725.000
240.242;   52.975;  428.000;  432.000
240.385;   48.850;  466.000;  450.000
240.528;  -73.625; -706.000; -473.000
240.671;   17.100;  189.000;  134.000
240.814;  -35.200; -441.000; -158.000
240.957;  -93.975; -767.000; -578.000
241.100;  -78.825; -779.000; -755.000
241.243; -146.600;-1234.000; -893.000
241.386;  -64.225; -508.000; -379.000
241.529;  -82.025; -735.000; -547.000
241.672;  -59.950; -566.000; -495.000
241.815; -105.225; -832.000; -808.000
241.958;  -21.875; -125.000; -182.000
242.101;  -61.925; -545.000; -390.000
242.244;  -38.475; -270.000; -325.000
242.387;  -31.800; -304.000; -246.000
242.530;   49.175;  470.000;  134.000
242.673;  -44.850; -381.000; -309.000
242.815; -118.650; -925.000; -899.000
242.958;  -59.675; -482.000; -381.000
243.101;   11.125;  132.000;  187.000
243.244;  -76.700; -564.000; -521.000
243.387;  -46.750; -313.000; -316.000
243.530;  -90.550; -657.000; -674.000
243.672;    9.800;   43.000;  -92.000
243.815;  -39.600; -355.000; -283.000
243.958;  -11.575;   98.000;  -26.000
244.101;   -1.175;   59.000;  -16.000
244.243;  -14.400;  -47.000;  101.000
244.386; -106.225; -761.000; -630.000
244.529;  -16.325; -132.000; -139.000
244.672; -154.825;-1154.000; -951.000
244.814;  -96.525; -621.000; -794.000
244.957;  -49.275; -380.000; -304.000
245.100;  -59.425; -489.000; -489.000
245.242;  -55.250; -387.000; -374.000
245.385;   -3.975;  -59.000;  -39.000
245.528; -122.050; -871.000; -705.000
245.670;   96.725;  612.000;  634.000
245.813;  -88.600; -599.000; -547.000
245.956;  -31.925; -324.000; -275.000
246.098;  -62.025; -508.000; -650.000
246.241;   18.800;  194.000;   48.000
246.383;  -17.675; -119.000;  -73.000
246.526;  -57.450; -454.000; -525.000
246.669; -106.100; -889.000; -780.000
246.811;    8.975;  172.000;   -1.000
246.954;  -74.325; -512.000; -426.000
247.096;  -19.400;  -84.000;   -6.000
247.239;  -72.700; -482.000; -445.000
247.381;  -59.175; -647.000; -488.000
247.524;   80.025;  645.000;  679.000
247.666;   -7.725;   58.000;   11.000
247.809; -100.100; -887.000; -691.000
247.951;  -11.225;  -75.000;  138.000
248.094;   22.275;  432.000;  308.000
248.236; -147.525;-1262.000;-1238.000
248.378;   18.550; -356.000;  -81.000
248.521;  -28.175; -334.000; -337.000
248.663;  -34.000; -236.000; -267.000
248.806;  -17.800; -300.000; -266.000
248.948;  -99.200; -886.000; -763.000
249.090;  -35.150; -428.000; -398.000
249.233;  -60.425; -344.000; -381.000
249.375;  -60.875; -474.000; -451.000
249.518;  -20.725;  -83.000; -133.000
249.660;    3.400; -103.000;    3.000
249.802; -154.225;-1303.000;-1189.000
249.945;  -72.225; -612.000; -540.000
250.087; -107.000; -834.000; -768.000
250.229;  -51.425; -362.000; -480.000
250.371;  -70.250; -494.000; -439.000
250.514;  -36.825; -310.000; -244.000
250.656;  -61.350;   69.000;  102.000
250.798; -115.550; -849.000; -800.000
250.940;  -73.500; -322.000; -322.000
251.083;  -27.675; -335.000; -111.000
251.225;   50.325;  338.000;  310.000
251.367;  -33.650; -274.000; -373.000
251.509;  -37.000; -265.000; -210.000
251.651;  -90.525; -731.000; -671.000
251.794;   56.100;  538.000;  632.000
251.936; -101.275; -821.000; -747.000
252.078;  -73.700; -540.000; -461.000
252.220;  -58.725; -645.000; -477.000
252.362;   80.150;  344.000;  462.000
252.504;  -67.800; -677.000; -584.000
252.646;  -99.550; -875.000; -722.000
252.788;    4.100;   14.000; -128.000
252.931;  -26.525; -257.000; -253.000
253.073;  -42.525; -376.000; -317.000
253.215;   -3.975;  141.000;  122.000
253.357;   -9.425;   82.000; -153.000
253.499;  -41.150; -374.000; -234.000
253.641;  -81.650; -749.000; -594.000
253.783;  -94.800; -609.000; -527.000
253.925;  -83.325; -586.000; -591.000
254.067; -106.100; -744.000; -667.000
254.209;  -27.750; -391.000; -259.000
254.351; -130.450; -865.000; -883.000
254.493;  -61.375; -441.000; -417.000
254.635; -121.400; -936.000; -818.000
254.777;  -91.475; -752.000; -687.000
254.918;  -64.025; -512.000; -430.000
255.060;  -50.050; -551.000; -395.000
255.202;  -52.700; -473.000; -261.000
255.344;  -63.300; -658.000; -455.000
255.486;  -66.300; -471.000; -406.000
255.628; -111.525; -780.000; -781.000
255.770;  -96.400; -676.000; -536.000
255.912;  -59.575; -559.000; -468.000
256.053;  -79.850; -730.000; -508.000
256.195;  152.000; 1008.000;  903.000
256.337; -100.900; -861.000; -595.000
256.479;   53.375;  532.000;  416.000
256.621;  -48.550; -394.000; -212.000
256.762;  -90.900; -789.000; -742.000
256.904;   60.400;  485.000;  487.000
257.046;  -43.400; -381.000; -271.000
257.188;  -61.425; -351.000; -264.000
257.329;  -75.675; -525.000; -464.000
257.471; -110.250; -939.000; -807.000
257.613;  -66.400; -584.000; -498.000
257.755; -144.675;-1073.000; -982.000
257.896;   25.550;  286.000;  392.000
258.038;  -64.825; -403.000; -352.000
258.180;  -37.325; -354.000; -279.000
258.321;  -75.750; -581.000; -457.000
258.463;   -7.600;  -71.000;  133.000
258.605;  -87.975; -562.000; -570.000
258.746; -101.500; -886.000; -772.000
258.888; -131.125;-1026.000;-1020.000
259.029;   20.650;  121.000;   -8.000
259.171;  -79.150; -614.000; -550.000
259.313;   -4.375;  -49.000;  -47.000
259.454;  -65.800; -536.000; -414.000
259.596;  -54.600; -483.000; -390.000
259.737;  -67.725; -590.000; -474.000
259.879;   36.525;  217.000;  311.000
260.020;   90.450;  901.000;  636.000
260.162;  -33.875; -146.000; -253.000
260.303; -110.650; -768.000; -687.000
260.445;  -91.300; -609.000; -613.000
260.586;   24.325;  392.000;  157.000
260.728;  -33.800; -360.000; -248.000
260.869;  -53.025; -350.000; -343.000
261.011;   76.025;  706.000;  537.000
261.152;  -66.150; -479.000; -319.000
261.293;  -75.675; -576.000; -595.000
261.435;  -31.225; -219.000; -184.000
261.576;  -57.600; -455.000; -325.000
261.718;   37.675;  420.000;  470.000
261.859; -123.275; -940.000; -949.000
262.000; -133.200; -951.000;-1016.000
262.142;  -31.350;  -52.000;  -60.000
262.283; -112.425; -808.000; -691.000
262.424;  -76.375; -666.000; -625.000
262.566; -150.075;-1161.000; -983.000
262.707;  -99.475; -840.000; -830.000
262.848; -125.625; -769.000; -726.000
262.990;  -59.000; -362.000; -345.000
263.131;   71.425;  650.000;  681.000
263.272;   -3.775;  -61.000;  -41.000
263.413;  -95.400; -589.000; -561.000
263.555;  -75.825; -669.000; -143.000
263.696;  -79.125; -550.000; -641.000
263.837;  -48.825; -449.000; -551.000
263.978;  -23.450;   -5.000;  -77.000
264.119;  -43.675; -283.000; -264.000
264.261; -113.625; -847.000; -630.000
264.402;   -5.675;   33.000;   40.000
264.543;  -71.775; -509.000; -524.000
264.684;   -9.275;   61.000;  -50.000
264.825;  -69.575; -816.000; -538.000
264.966;    5.825;  -84.000;  -67.000
265.107; -101.125; -646.000; -670.000
265.248; -112.500; -825.000; -812.000
265.390;  -24.375;  152.000;   -9.000
265.531;  -21.800; -238.000; -107.000
265.672;  -80.800; -557.000; -630.000
265.813;   54.225;  563.000;  439.000
265.954; -137.575; -959.000; -940.000
266.095;  -10.000; -372.000; -322.000
266.236;  -85.875; -686.000; -548.000
266.377;  -31.325; -243.000; -297.000
266.518;  -61.075; -619.000; -547.000
266.659;   18.425;  170.000;  268.000
266.800;   11.575;   83.000;   85.000
266.941;  -86.650; -487.000; -478.000
267.082;    6.950;  354.000;   99.000
267.223;  -47.375; -344.000; -273.000
267.364; -116.525; -892.000; -686.000
267.504;   -4.850;    3.000;  135.000
267.645;   -7.125;  160.000;   67.000
267.786;  -37.125; -147.000;  -86.000
267.927;  -62.625; -473.000; -379.000
268.068;  -26.175; -186.000;  -61.000
268.209;  -50.325; -175.000; -413.000
268.350;  -44.850; -388.000; -532.000
268.490;  -65.225; -648.000; -521.000
268.631;   40.450;  127.000;  225.000
268.772; -117.525; -874.000; -647.000
268.913;  -44.875; -328.000; -476.000
269.054;  -11.500; -117.000;   12.000
269.194;  -48.725; -418.000; -402.000
269.335; -151.425;-1137.000;-1074.000
269.476;  -16.675;   33.000;  -35.000
269.617;  -39.000; -347.000; -392.000
269.757;  -86.825; -713.000; -646.000
269.898;  -92.825; -856.000; -613.000
270.039;  -58.250; -415.000; -405.000
270.180; -120.850; -952.000; -816.000
270.320;  -32.175; -190.000; -250.000
270.461;  -45.900; -277.000; -249.000
270.602;  -12.925; -186.000; -156.000
270.742; -114.425; -868.000; -943.000
270.883;  -65.875; -442.000; -390.000
271.023;  -50.200; -358.000; -357.000
271.164;  -69.325; -607.000; -528.000
271.305;  -96.225; -666.000; -654.000
271.445;  -89.300; -722.000; -683.000
271.586;  -69.025; -462.000; -283.000
271.726;  -58.250; -397.000; -322.000
271.867;  -51.600; -594.000; -534.000
272.008;  172.725; -473.000; -285.000
272.148;  127.175;  462.000;  468.000
272.289;    0.025; -113.000; -181.000
272.429;   15.925;   19.000;  185.000
272.570;  -94.150; -633.000; -737.000
272.710; -102.250; -825.000; -775.000
272.851;   -8.275;  113.000; -130.000
272.991; -150.625;-1173.000;-1077.000
273.131;  -73.975; -419.000; -459.000
273.272; -100.500; -683.000; -723.000
273.412;    9.875; -143.000;  -31.000
273.553;  -62.725; -488.000; -507.000
273.693;  125.200;  913.000;  858.000
273.834;  -96.725; -894.000; -692.000
273.974;  -76.000; -664.000; -615.000
274.114;  -93.200; -772.000; -560.000
274.255;   73.975;  414.000;  373.000
274.395;    0.575; -180.000; -125.000
274.535;   40.525;  199.000;  350.000
274.676;   25.175;  225.000;   94.000
274.816;    0.550;  110.000;   34.000
274.956;  -87.625; -624.000; -690.000
275.097;  -58.425;-1014.000; -922.000
275.237; -112.850; -913.000; -803.000
275.377; -107.650; -778.000; -689.000
275.517; -139.375; -878.000; -937.000
275.658;  -48.300; -590.000; -555.000
275.798;  -65.350; -606.000; -413.000
275.938;   24.825;  215.000;  323.000
276.078;  -75.000; -626.000; -395.000
276.218;    2.100;   99.000;  104.000
276.359; -122.300;-1026.000;-1024.000
276.499;  -58.625; -605.000; -446.000
276.639;  -23.675; -305.000; -151.000
276.779;  -57.775; -475.000; -357.000
276.919;  -95.075; -783.000; -624.000
277.059;  -20.050; -261.000; -212.000
277.199;  -49.725; -357.000; -259.000
277.340;   45.725;  287.000;  175.000
277.480; -105.250; -840.000; -693.000
277.620;   23.500;  192.000;   16.000
277.760; -190.075;-1533.000;-1294.000
277.900;   11.650;  113.000;   33.000
278.040;   28.325;  137.000;  159.000
278.180;   24.275;  270.000;  170.000
278.320;  -11.475;   21.000;   56.000
278.460;  -60.000; -443.000; -469.000
278.600;  -81.775; -708.000; -598.000
278.740;   61.425;  448.000;  224.000
278.880;  -65.275; -768.000; -791.000
279.020;  -19.225; -194.000; -144.000
279.160;  -94.275; -672.000; -595.000
279.300; -110.875; -926.000; -873.000
279.440;  -89.200; -709.000; -622.000
279.579;   -6.450;-1014.000; -929.000
279.719;  -49.800; -410.000; -394.000
279.859;   69.450;   -4.000;   41.000
279.999;   20.125; -208.000;  101.000
280.139;   -9.700; -435.000; -387.000
280.279;  -78.925; -708.000; -745.000
280.419;  -13.125; -229.000; -147.000
280.559;  -26.275; -259.000; -180.000
280.698;  -78.350; -790.000; -639.000
280.838;  -99.125; -778.000; -800.000
280.978;  -95.275; -846.000; -790.000
281.118; -109.800; -811.000; -704.000
281.257;    4.225;   24.000;    6.000
281.397; -116.100;-1094.000; -960.000
281.537;  -85.350; -599.000; -712.000
281.677;  -35.675; -150.000; -101.000
281.816;  -95.975; -700.000; -630.000
281.956;  -43.300; -193.000; -257.000
282.096;  -72.425; -539.000; -396.000
282.235; -109.425; -672.000; -638.000
282.375;  -19.275; -243.000;  -98.000
282.515; -102.900; -715.000; -707.000
282.654;   21.150;   29.000;  106.000
282.794;   25.300;  388.000;  244.000
282.934;  -64.125; -530.000; -491.000
283.073; -134.000;-1030.000; -857.000
283.213;  -51.525; -460.000; -467.000
283.353;  -37.400; -408.000; -349.000
283.492;  -30.925; -264.000; -296.000
283.632;  -32.950; -254.000; -168.000
283.771;  -85.050; -859.000; -730.000
283.911;  -61.975; -369.000; -260.000
284.050; -113.375; -794.000; -748.000
284.190; -150.025;-1229.000;-1096.000
284.329; -135.875;-1055.000; -964.000
284.469;  -67.900; -516.000; -591.000
284.608;  -52.125; -559.000; -598.000
284.748;  -86.575; -614.000; -570.000
284.887;    7.450;  -87.000;  -20.000
285.027; -121.825; -844.000; -892.000
285.166;  -32.975; -192.000; -249.000
285.306;    1.875; -116.000;  -33.000
285.445;  -31.400; -229.000; -343.000
285.584;  -90.900; -630.000; -494.000
285.724;  -43.000; -282.000; -322.000
285.863; -100.200; -857.000; -507.000
286.002;  -42.150; -366.000; -276.000
286.142; -105.125; -715.000; -622.000
286.281;  -66.400; -525.000; -493.000
286.420;  -65.950; -554.000; -417.000
286.560;  105.950;  653.000;  623.000
286.699; -140.300; -958.000; -912.000
286.838;  -82.625; -590.000; -591.000
286.978;  -83.525; -533.000; -537.000
287.117; -126.600;-1085.000; -950.000
287.256;  -35.950; -228.000; -211.000
287.395;  -52.425; -197.000; -378.000
287.535;  -45.100; -370.000; -298.000
287.674;  -77.425; -509.000; -484.000
287.813;   56.275;  661.000;  533.000
287.952; -125.075;-1010.000; -871.000
288.091; -148.975;-1049.000; -915.000
288.231;    4.125;   13.000;   15.000
288.370; -164.050;-1217.000;-1200.000
288.509;  -85.250; -728.000; -645.000
288.648;  -83.500; -770.000; -548.000
288.787;  -32.500; -243.000;  -87.000
288.926;  -60.975; -454.000; -475.000
289.065;  125.825;  859.000;  672.000
289.204;  -54.000; -377.000; -217.000
289.344;  -83.775; -791.000; -690.000
289.483;   27.625;  416.000;  304.000
289.622;  -30.300; -291.000; -149.000
289.761;   -8.925; -309.000; -166.000
289.900;  -96.350; -785.000; -626.000
290.039;   -6.950;  -12.000;  -95.000
290.178;  -40.425; -274.000; -180.000
290.317;  -64.550; -618.000; -479.000
290.456;  -65.425; -463.000; -451.000
290.595; -114.675; -961.000; -833.000
290.734; -123.400; -904.000; -891.000
290.873;  -76.975; -456.000; -420.000
291.011; -114.250; -833.000; -843.000
291.150; -108.325; -770.000; -682.000
291.289;  -25.925; -343.000; -110.000
291.428;  -88.850; -599.000; -480.000
291.567;  -58.500; -370.000; -442.000
291.706;   -3.050;  109.000;  154.000
291.845;  -89.975; -597.000; -505.000
291.984; -153.000;-1234.000;-1061.000
292.122;   67.100;  602.000;  582.000
292.261;   45.775;  620.000;  463.000
292.400;   12.525; -144.000;  211.000
292.539; -111.575; -959.000; -813.000
292.678;  -31.375; -325.000; -300.000
292.816; -146.325;-1136.000; -965.000
292.955;  -69.750; -844.000; -684.000
293.094;  -31.675; -173.000; -337.000
293.233;  -47.025; -556.000; -400.000
293.371;  -33.475; -225.000;  -84.000
293.510;  -94.600; -866.000; -780.000
293.649; -129.075; -959.000; -924.000
293.787;  -54.825;-1083.000;-1012.000
293.926;   -4.525; -113.000;  -32.000
294.065;  -39.650; -379.000; -290.000
294.203;   53.000;  298.000;  406.000
294.342;   24.375;   74.000;  156.000
294.481; 5519.075;51180.000; -836.000
294.619;  -26.650; -425.000; -582.000
294.758; -137.250;-1230.000;-1137.000
294.896;   74.300; -125.000;    5.000
295.035; -114.425;-1040.000;-1006.000
295.174; -118.975;-1082.000; -954.000
295.312;  -35.725; -323.000; -203.000
295.451;    0.500; -307.000; -428.000
295.589;  -51.600; -389.000; -518.000
295.728;    5.425; -292.000; -165.000
295.866;   -2.775;  -36.000;  -51.000
296.005;  -56.050; -584.000; -341.000
296.143;  -63.925; -558.000; -596.000
296.282; -111.325; -957.000; -881.000
296.420;  -72.450; -657.000; -557.000
296.559;  -84.700; -892.000; -633.000
296.697;   38.075; -847.000; -665.000
296.835;   37.325;-1141.000;-1002.000
296.974;   26.250;  -23.000;   39.000
297.112;   -3.100; -443.000; -504.000
297.251;  -69.700; -815.000; -755.000
297.389;   81.575; -576.000; -438.000
297.527;   30.600; -145.000;  -83.000
297.666;  -50.525; -486.000; -438.000
297.804;  -49.100; -404.000; -264.000
297.942;   -4.250; -136.000; -161.000
298.081;  -15.600; -183.000;   63.000
298.219;   63.300;  -17.000;  -19.000
298.357;   37.400; -144.000;  -71.000
298.495;   30.950; -810.000; -812.000
298.634;   66.100;  245.000;  219.000
298.772;   53.475; -220.000; -338.000
298.910;  -47.400; -309.000; -182.000
299.048;  -15.075; -130.000; -153.000
299.187;  -22.325; -350.000; -250.000
299.325;   22.625;   52.000;  122.000
299.463;   59.975; -389.000; -299.000
299.601;  102.450; -327.000; -271.000
299.739; -100.325; -908.000; -883.000
299.877;  -87.450; -791.000; -703.000
300.016;  -44.325;-1095.000; -935.000
300.154;  155.550;  -19.000; -161.000
300.292;   42.300; -428.000; -348.000
300.430;   16.400; -408.000; -291.000
300.568; -103.825; -940.000; -874.000
300.706;  -43.850; -366.000; -469.000
300.844;  -73.900;-1108.000; -979.000
300.982;  118.375;  246.000;  282.000
301.120; -113.650; -965.000; -866.000
301.258;  -66.225; -812.000; -705.000
301.396;   31.675;  104.000;  -41.000
301.534;   68.975; -218.000; -293.000
301.672;   -4.075; -664.000; -521.000
301.810;   23.650; -613.000; -545.000
301.948;   99.125;   53.000;  149.000
302.086;  613.650; -250.000;  -32.000
302.224;  897.875; -610.000; -585.000
302.362;   25.450; -558.000; -622.000
302.500;  -33.425; -923.000; -893.000
302.638;   85.050;  128.000;  245.000
302.776;    3.775; -352.000; -408.000
302.913;   34.750;  447.000;  236.000
303.051;   -8.300;  -86.000;  -23.000
303.189;   55.000;   90.000;  118.000
303.327;  -40.775; -341.000; -256.000
303.465;  -81.550; -832.000; -588.000
303.603;  -82.250; -805.000; -604.000
303.740;   92.075;  417.000;  241.000
303.878;    4.125; -800.000; -759.000
304.016;  -89.875; -915.000; -790.000
304.154; -119.275;-1123.000;-1152.000
304.291;  -42.250; -505.000; -554.000
304.429;    7.025;  102.000;   74.000
304.567; -117.500; -908.000; -893.000
304.705;  -57.025; -408.000; -515.000
304.842;   81.500; -616.000; -540.000
304.980;   44.625;  215.000;   35.000
305.118;   69.350; -367.000; -365.000
305.255;  -81.150; -945.000; -927.000
305.393;   49.550;  178.000;  239.000
305.531; -103.600;-1173.000; -956.000
305.668;  -71.000; -663.000; -582.000
305.806;  107.500; -358.000; -439.000
305.943;   99.300; -629.000; -637.000
306.081;   48.675; -378.000; -267.000
306.219;  -91.600; -863.000; -748.000
306.356;   10.900;  158.000;   27.000
306.494;  122.125;  981.000;  761.000
306.631;   -7.525;  -11.000;  -55.000
306.769;   13.675; -613.000; -485.000
306.906;  -17.400; -284.000; -258.000
307.044;  -70.300; -473.000; -488.000
307.181;  -70.225; -410.000; -332.000
307.319;    6.900;  112.000;   87.000
307.456; -170.375;-1191.000;-1153.000
307.594;  -85.600; -980.000; -727.000
307.731;  -10.500; -371.000; -164.000
307.868;   -2.000;  -15.000;   20.000
308.006; -122.150; -961.000; -847.000
308.143;  -65.550; -618.000; -330.000
308.281;  163.675;  -37.000; -254.000
308.418;    4.300; -748.000; -640.000
308.555;  -57.375; -400.000; -250.000
308.693;  -67.775; -577.000; -573.000
308.830; -100.175; -712.000; -657.000
308.967;  -18.075; -215.000;  -95.000
309.105;  -52.300; -507.000; -396.000
309.242;   54.325; -468.000; -367.000
309.379;  328.625; -577.000; -655.000
309.517;  -48.025; -936.000; -948.000
309.654; -103.450; -910.000; -734.000
309.791;  -68.600; -662.000; -580.000
309.928; -105.200; -977.000; -914.000
310.065;  183.600;  819.000;  697.000
310.203;  -23.475; -825.000; -850.000
310.340;  -14.925; -465.000; -321.000
310.477;  -79.300; -412.000; -516.000
310.614;  -70.650; -383.000; -473.000
310.751;  -65.375; -427.000; -518.000
310.889;  -22.900;    1.000;   11.000
311.026; -140.175;-1161.000; -939.000
311.163;  -45.225; -386.000; -380.000
311.300;  -79.600; -512.000; -479.000
311.437;  -85.175; -658.000; -619.000
311.574; -154.950;-1226.000; -985.000
311.711;  -48.775; -595.000; -433.000
311.848;  -36.050; -380.000; -388.000
311.985;    6.675;  270.000;   93.000
312.122; -112.900; -932.000; -762.000
312.259; -113.025; -941.000; -994.000
312.396;  -80.375; -508.000; -551.000
312.533;  -87.250; -812.000; -790.000
312.670; -126.250;-1070.000; -898.000
312.807;  -40.700; -352.000; -367.000
312.944; -100.350; -513.000; -611.000
313.081;  -42.025; -150.000; -415.000
313.218;  -91.750;-1111.000; -867.000
313.355;    2.750; -531.000; -449.000
313.492;   14.075; -455.000; -292.000
313.629;  121.050;  815.000;  735.000
313.766; -161.375;-1176.000;-1008.000
313.902;  -12.475; -186.000;   21.000
314.039;  -48.550; -372.000; -289.000
314.176;   27.825;  286.000;  192.000
314.313;  -76.075; -569.000; -473.000
314.450;  -75.425; -788.000; -684.000
314.587;  -74.500; -468.000; -480.000
314.723;    6.150;  -78.000;  130.000
314.860;   19.600;  318.000;  332.000
314.997;   15.200;  223.000;  142.000
315.134;  -49.500; -385.000; -368.000
315.270;  -30.200; -480.000; -496.000
315.407; -123.425;-1094.000; -967.000
315.544;  -61.825; -657.000; -538.000
315.681;  -64.350; -681.000; -565.000
315.817;   34.750; -133.000; -176.000
315.954;   20.975; -613.000; -392.000
316.091; -120.850;-1045.000;-1023.000
316.227;  -19.975;  -71.000; -179.000
316.364;    9.325;   23.000;    6.000
316.500;  -38.125; -113.000; -300.000
316.637;  -41.375; -181.000; -302.000
316.774;  -86.650; -625.000; -358.000
316.910;  -93.625; -598.000; -629.000
317.047;  -62.425; -487.000; -351.000
317.183;  -43.425; -435.000; -566.000
317.320;   -3.625; -367.000; -321.000
317.456;  -62.700; -733.000; -805.000
317.593;  -86.950; -598.000; -641.000
317.729;    7.300;  168.000;  -67.000
317.866; -193.000;-1434.000;-1285.000
318.002;  -96.125; -708.000; -948.000
318.139;  -91.425; -883.000; -867.000
318.275; -114.075;-1003.000; -738.000
318.412;  -58.300; -517.000; -336.000
318.548;  -36.050; -751.000; -720.000
318.685; -103.625; -985.000; -888.000
318.821;  -92.350; -762.000; -735.000
318.957;  -21.725;   34.000;  -23.000
319.094;   30.975;  297.000;  154.000
319.230;  -67.550; -756.000; -742.000
319.367;  119.075; -471.000; -520.000
319.503;   48.450; -538.000; -436.000
319.639;  -94.875; -877.000; -793.000
319.775;  -59.300; -750.000; -685.000
319.912;  -53.625; -424.000; -519.000
320.048;  -91.225;-1184.000;-1184.000
320.184;   81.550;   59.000;   70.000
320.321;  -56.075; -497.000; -467.000
320.457;   65.750;  475.000;  662.000
320.593;  -53.450; -375.000; -382.000
320.729;  -93.300; -732.000; -734.000
320.866;  -68.275; -577.000; -635.000
321.002;  -70.250; -759.000; -809.000
321.138;  -11.100; -135.000; -211.000
321.274;   81.850; -148.000; -115.000
321.410;  -23.800; -585.000; -353.000
321.546;  -28.950;-1011.000; -911.000
321.683;   47.525;  400.000;  185.000
321.819;    5.775;  -48.000; -117.000
321.955; -110.550; -743.000; -722.000
322.091;  -55.875; -585.000; -540.000
322.227;  -24.575; -382.000; -202.000
322.363;   -9.875; -320.000; -215.000
322.499;  -42.350; -343.000; -331.000
322.635;  160.400;  636.000;  443.000
322.771;   18.100; -139.000;   12.000
322.907;   89.750;  129.000;  327.000
323.043;  -27.975; -115.000; -206.000
323.179;  -44.875; -394.000; -363.000
323.315;   16.175; -401.000; -371.000
323.451;   81.850; -328.000; -236.000
323.587;   59.525;  -60.000;  -77.000
323.723;    4.450; -682.000; -601.000
323.859;  -17.500; -258.000;  -76.000
323.995;  -44.425; -467.000; -409.000
324.131; -110.775; -967.000; -892.000
324.267;  -38.000; -254.000; -276.000
324.402; -128.925; -960.000; -983.000
324.538;  -20.175; -279.000; -104.000
324.674;   13.200;  164.000;   77.000
324.810;  119.300;  226.000;  308.000
324.946;    0.225; -810.000; -658.000
325.082;  -69.925; -568.000; -475.000
325.217;    3.875;  -62.000;   16.000
325.353;  -84.800; -764.000; -659.000
325.489;  -81.650; -540.000; -506.000
325.625;  -73.200; -579.000; -525.000
325.760;   58.350;  517.000;  376.000
325.896;  -21.925; -515.000; -702.000
326.032;  -51.050; -403.000; -352.000
326.168;  -70.700; -462.000; -369.000
326.303;  -57.250; -352.000; -461.000
326.439;  -15.300; -336.000; -276.000
326.575;   -9.875; -190.000;  -29.000
326.710;   -0.250; -156.000;  -30.000
326.846;   -9.975;  146.000;  103.000
326.982;  -88.575; -530.000; -548.000
327.117;  -71.800; -481.000; -442.000
327.253;  -84.875; -745.000; -742.000
327.388; -154.925;-1137.000;-1153.000
327.524;  -53.525; -811.000; -578.000
327.659;  -31.325;  -58.000;  -22.000
327.795;   -8.150;   69.000;   45.000
327.931;  -97.325; -723.000; -499.000
328.066;  -21.550; -417.000; -276.000
328.202;  -29.150;   12.000; -129.000
328.337;  102.250;  957.000;  713.000
328.473;   37.950;  -12.000;  -74.000
328.608;  -17.250; -256.000; -267.000
328.743;  -84.975; -799.000; -664.000
328.879;   14.500;  214.000;  114.000
329.014;  -27.375; -102.000; -122.000
329.150;  -73.125; -358.000; -483.000
329.285;  -68.050; -465.000; -466.000
329.421;  -44.675; -548.000; -246.000
329.556;  -21.750;  -36.000;   85.000
329.691;  -95.125; -633.000; -615.000
329.827;  -89.800; -626.000; -480.000
329.962;  -42.925;  131.000; -301.000
330.097;  -80.825; -673.000; -585.000
330.233;  -34.175; -410.000; -223.000
330.368; -118.475; -839.000; -628.000
330.503;  -16.800;    3.000;   98.000
330.638;   11.575;  -93.000; -125.000
330.774;  -62.600; -609.000; -530.000
330.909;  -44.925; -434.000; -244.000
331.044;  -92.150; -714.000; -708.000
331.179; -169.025;-1217.000;-1109.000
331.315;   -0.550;   77.000;   20.000
331.450;   14.675;  157.000;  285.000
331.585;  -79.175; -805.000; -706.000
331.720;  -88.200; -510.000; -460.000
331.855;   -2.975;  -35.000; -102.000
331.990;  255.750;   62.000;  138.000
332.126;  137.025; -110.000;   71.000
332.261;  -27.025; -379.000; -265.000
332.396;   -2.675; -135.000; -242.000
332.531; -110.450;-1074.000;-1031.000
332.666;   29.450; -519.000; -363.000
332.801;  -95.450; -726.000; -807.000
332.936;  -28.400; -192.000; -122.000
333.071; -140.225; -870.000; -817.000
333.206;   10.700;  307.000;  379.000
333.341;   32.125;  344.000;  418.000
333.476;  -89.600; -627.000; -623.000
333.611;  -33.625; -251.000; -173.000
333.746;  -41.450; -381.000; -464.000
333.881; -117.550; -973.000; -935.000
334.016; -114.650; -936.000; -917.000
334.151; -127.800; -746.000; -702.000
334.286;   14.200;  152.000;  186.000
334.421;  -22.150; -125.000; -178.000
334.556;  -85.525; -611.000; -567.000
334.690;  -88.975; -631.000; -577.000
334.825;   53.175;  381.000;   83.000
334.960;  -56.650; -285.000; -413.000
335.095;   11.450;  135.000;  -91.000
335.230; -108.725; -722.000; -738.000
335.365; -149.150;-1084.000; -990.000
335.499; -125.450;-1108.000;-1037.000
335.634;   13.600;    9.000;  534.000
335.769; -106.700; -755.000; -720.000
335.904;  -59.075; -603.000; -561.000
336.038;  -67.950; -735.000; -657.000
336.173; -124.275;-1206.000;-1194.000
336.308;    2.400; -116.000; -189.000
336.443;   29.950; -544.000; -634.000
336.577;  -73.400; -936.000; -787.000
336.712;   65.400;   -4.000;  -12.000
336.847;  -44.925; -724.000; -607.000
336.981;   48.950; -272.000; -208.000
337.116;  276.475;  615.000;  501.000
337.250;  134.525; -434.000; -421.000
337.385;  259.775; -297.000; -208.000
337.520;   82.800; -632.000; -603.000
337.654;  -32.850; -215.000; -126.000
337.789; -116.100; -989.000; -933.000
337.923;  -29.350; -104.000; -205.000
338.058;  -80.750; -673.000; -738.000
338.192;  -43.025; -611.000; -488.000
338.327;  -13.625;  -18.000; -155.000
338.461;  -55.325; -299.000; -469.000
338.596;  -93.500; -780.000; -638.000
338.730;  -89.925; -767.000; -803.000
338.865;  102.500;  -46.000; -140.000
338.999;  -51.925; -846.000; -702.000
339.134;  -11.800; -634.000; -536.000
339.268;    9.400; -741.000; -603.000
339.403;  380.175; -740.000; -775.000
339.537;  129.600; -894.000; -820.000
339.671; -106.925; -829.000; -813.000
339.806;  -67.050; -556.000; -512.000
339.940;   16.575; -261.000; -235.000
340.074; -105.200; -685.000; -510.000
340.209;  -41.475; -351.000; -230.000
340.343; -104.400; -517.000; -573.000
340.477;  130.750;  998.000; 1036.000
340.612;  -35.650;-1033.000; -900.000
340.746;  158.900; -199.000; -243.000
340.880;  -75.725; -924.000; -785.000
341.014;   -4.625;  -45.000; -154.000
341.149; -112.600; -756.000; -718.000
341.283; -112.300; -839.000; -754.000
341.417;  -91.150;-1124.000; -938.000
341.551;  116.500; -768.000; -708.000
341.685;  -43.625; -633.000; -611.000
341.820;  -52.700; -562.000; -493.000
341.954;  -46.100; -218.000; -349.000
342.088; -141.700;-1102.000;-1019.000
342.222;   54.625;  565.000;  618.000
342.356;  -61.125; -395.000; -335.000
342.490;  -77.775; -880.000; -841.000
342.624;  -37.950; -339.000; -242.000
342.758;   -6.700; -364.000; -312.000
342.892;  -50.600; -710.000; -585.000
343.026;  -31.800;  -58.000; -116.000
343.160;  -58.050; -426.000; -376.000
343.294;  -83.600; -474.000; -337.000
343.428;  -18.825; -488.000; -448.000
343.562;  -13.450; -172.000;  -23.000
343.696;  -27.425; -385.000; -314.000
343.830;  -20.750; -362.000; -356.000
343.964;   13.350; -231.000; -168.000
344.098;  857.025;  199.000;   70.000
344.232;  695.300; -266.000; -127.000
344.366;   90.600; -567.000; -453.000
344.500;   60.025; -665.000; -744.000
344.634;   21.200; -324.000; -164.000
344.768;  -18.475; -531.000; -341.000
344.902;   12.975;  278.000;  256.000
345.035;  -70.900; -556.000; -496.000
345.169; -138.000; -933.000; -656.000
345.303;  -31.800; -308.000; -482.000
345.437;  -66.700; -826.000; -717.000
345.571;  -65.050; -675.000; -594.000
345.704;  -56.650; -309.000; -532.000
345.838;  -15.750; -331.000; -284.000
345.972;  -38.625; -543.000; -495.000
346.106;  175.725; -179.000; -190.000
346.239;  405.075; -312.000; -243.000
346.373;    5.550; -343.000; -302.000
346.507; -128.325; -950.000; -962.000
346.640;  127.500;  -30.000;   13.000
346.774;  -38.950; -650.000; -797.000
346.908;  -13.875; -138.000;  -11.000
347.041;  -90.575; -646.000; -593.000
347.175;   -4.025;  259.000;   27.000
347.309;  -83.075; -698.000; -628.000
347.442;  -96.425; -883.000; -732.000
347.576;  253.775;  670.000;  668.000
347.709;  198.300; -123.000;  -52.000
347.843;  -89.425; -933.000; -825.000
347.976;   21.025;  235.000;  294.000
348.110; -178.900;-1268.000;-1186.000
348.243; -110.850; -679.000; -772.000
348.377;   -2.825;  -26.000;   60.000
348.510;   53.525;  403.000;  540.000
348.644;  -47.225;  -37.000; -159.000
348.777;   -3.225;  180.000;  191.000
348.911;  -41.700; -142.000; -112.000
349.044;  147.150;  471.000;  448.000
349.178;  150.150;-1069.000;-1006.000
349.311;  111.250;  141.000;  255.000
349.444;   -2.175; -927.000; -813.000
349.578;  -31.250; -347.000; -200.000
349.711; -102.025; -959.000; -862.000
349.845;   -3.725; -661.000; -591.000
349.978; -144.800;-1224.000;-1137.000
350.111;  -77.350; -546.000; -612.000
350.244;  -86.025; -596.000; -700.000
350.378;   -7.775; -392.000; -393.000
350.511;  -87.375; -393.000; -426.000
350.644; -106.000; -808.000; -806.000
350.778;   -7.075;  168.000;  104.000
350.911;    9.675;  134.000;  140.000
351.044;  -87.075; -685.000; -615.000
351.177;  -36.150; -321.000; -281.000
351.310;  -32.175;    3.000; -131.000
351.444;  -78.250; -888.000; -788.000
351.577;  101.100;  140.000;   90.000
351.710;   86.825;  593.000;  417.000
351.843;  -39.900; -165.000;  -77.000
351.976;   -8.450;  149.000;  -79.000
352.109;  -90.100; -621.000; -612.000
352.242;  -40.925; -464.000; -419.000
352.376;  -67.850; -580.000; -636.000
352.509;  146.575; -437.000; -356.000
352.642;   -1.850; -654.000; -604.000
352.775;   58.575; -141.000;  -98.000
352.908; -113.175; -933.000; -904.000
353.041;  -95.650; -814.000; -824.000
353.174;  -69.975; -551.000; -424.000
353.307;  -80.650; -753.000; -764.000
353.440;   64.900;  541.000;  453.000
353.573; -111.950; -957.000;-1008.000
353.706;  -29.525; -384.000; -558.000
353.839;  -23.125; -264.000; -220.000
353.971;  -72.300; -657.000; -512.000
354.104;  -85.850; -896.000; -835.000
354.237;  -34.625; -627.000; -662.000
354.370;  -66.650; -846.000; -879.000
354.503; -173.125;-1231.000;-1308.000
354.636;  -36.375; -529.000; -348.000
354.769; -129.575; -937.000; -860.000
354.902;  -20.625; -230.000; -139.000
355.034;  -24.400; -164.000; -220.000
355.167;  -23.500; -262.000; -162.000
355.300;  -86.425;-1061.000; -880.000
355.433; 1014.800;  -71.000;  -14.000
355.565; 1565.450; -402.000; -384.000
355.698;  421.450; -356.000; -296.000
355.831;    1.025; -882.000; -801.000
355.964;   82.125; -285.000; -170.000
356.096;  -85.775; -856.000; -843.000
356.229;   -8.100; -523.000; -530.000
356.362;  343.775; -373.000; -266.000
356.494;  614.200; -229.000; -162.000
356.627;  473.550;  269.000;  377.000
356.760;  667.100;  120.000;   53.000
356.892; 1001.925; -286.000; -601.000
357.025;  620.050;  403.000;  389.000
357.157;  565.275; -167.000; -179.000
357.290;  716.275; -856.000; -713.000
357.423;  201.250; -667.000; -556.000
357.555;  106.225; -217.000; -228.000
357.688;  113.450; -483.000; -364.000
357.820;  444.025; -870.000; -877.000
357.953; 3511.000; -563.000; -589.000
358.085;  785.600; -632.000; -612.000
358.218; 1039.625;-1131.000; -932.000
358.350;  204.275;  -58.000;  312.000
358.483; -118.075;-1300.000;-1187.000
358.615;  -29.350;-1182.000;-1078.000
358.747;  -72.750;-1187.000;-1058.000
358.880;   23.900; -810.000; -744.000
359.012;  -10.300; -376.000; -202.000
359.145;  -41.350; -480.000; -511.000
359.277;   71.375; -962.000; -913.000
359.409; 2889.850;  536.000;  231.000
359.542;  780.575; -738.000; -688.000
359.674;   83.650;   46.000;   13.000
359.806;  -55.450; -565.000; -438.000
359.939;  -57.025; -617.000; -516.000
360.071;   -8.350; -583.000; -579.000
360.203;  -28.625; -411.000; -364.000
360.335;   48.475;  164.000;  -16.000
360.468;  178.875; -249.000; -307.000
360.600; 2357.300; -547.000; -454.000
360.732; 2962.300; -546.000; -423.000
360.864;  432.800;-1216.000;-1044.000
360.996;  268.125; -516.000; -554.000
361.129;   42.425; -389.000; -598.000
361.261;   17.950;  110.000; -113.000
361.393;  -25.800; -252.000; -214.000
361.525;   31.850;   94.000;  244.000
361.657;  -45.400; -821.000; -703.000
361.789;   12.850; -139.000; -155.000
361.921;  184.425; -642.000; -593.000
362.053;  246.475;  524.000;  541.000
362.185;   48.650;  288.000;   72.000
362.318;  -67.025; -709.000; -705.000
362.450;  104.000;  294.000;  444.000
362.582;   78.600; -913.000; -870.000
362.714;  -44.425; -353.000; -332.000
362.846;  -85.475; -606.000; -490.000
362.978; -124.025; -941.000; -811.000
363.109;   46.550; -161.000; -260.000
363.241;  395.975; -739.000; -749.000
363.373;  478.050; -649.000; -564.000
363.505;  694.150; -186.000;  -91.000
363.637;  178.550; -787.000; -601.000
363.769; -118.400;-1067.000;-1080.000
363.901;  -67.350; -596.000; -654.000
364.033; -111.750;-1103.000;-1062.000
364.165;    4.025; -283.000; -283.000
364.296;   78.850; -316.000; -177.000
364.428;   87.400;-1344.000;-1220.000
364.560;  -63.475; -679.000; -661.000
364.692;  -61.675; -738.000; -835.000
364.824;  227.850; -588.000; -456.000
364.955;  437.400; -402.000; -564.000
365.087; 1014.975;-1097.000; -852.000
365.219;   52.675; -686.000; -816.000
365.351;  -61.750; -526.000; -572.000
365.482;   49.025;  300.000;  240.000
365.614;  -43.075; -402.000; -314.000
365.746; -109.150; -729.000; -752.000
365.877;  -98.700; -706.000; -672.000
366.009;  260.550;  -35.000;  -62.000
366.141;  -66.825;-1249.000;-1134.000
366.272; -109.300; -803.000; -719.000
366.404; -115.625;-1005.000; -874.000
366.535;   -3.750; -139.000;  -12.000
366.667;  -93.525; -644.000; -649.000
366.799;   33.025;  353.000;  203.000
366.930; -116.925; -862.000; -996.000
367.062;  121.750; -639.000; -613.000
367.193;  164.725; -872.000; -842.000
367.325;  -56.775; -580.000; -684.000
367.456;   40.675; -246.000;   31.000
367.588;  161.400; -371.000; -318.000
367.719;   32.625;  -44.000;  -45.000
367.851;  -17.700; -222.000; -241.000
367.982;  -49.325; -875.000; -732.000
368.113;  102.400; -475.000; -358.000
368.245; -122.125; -960.000; -841.000
368.376;  -28.425; -254.000; -302.000
368.508;  -28.475; -188.000; -263.000
368.639; -135.575;-1166.000;-1034.000
368.770;  -22.450; -670.000; -589.000
368.902;  -50.750; -836.000; -926.000
369.033; -104.250; -906.000; -855.000
369.164;  -44.375; -720.000; -653.000
369.296;  -96.050; -452.000; -601.000
369.427;  -11.250; -209.000; -144.000
369.558;  -64.100; -593.000; -377.000
369.689;  -87.025; -721.000; -569.000
369.821; -129.550; -951.000; -845.000
369.952;  -15.450;   42.000; -108.000
370.083;  -47.425; -229.000; -108.000
370.214;  -86.475; -735.000; -650.000
370.345;    0.600;   65.000;   81.000
370.477;  -82.150; -810.000; -790.000
370.608;  212.525; -328.000; -264.000
370.739;  -51.650;-1233.000;-1292.000
370.870;  -46.500;-1102.000; -923.000
371.001;   85.800; -378.000; -467.000
371.132;  -70.250; -754.000; -735.000
371.263;  -22.625;  -42.000; -148.000
371.394; -137.450; -841.000; -748.000
371.525;   26.175;  345.000;  225.000
371.657;  -92.250; -808.000; -670.000
371.788;   75.700;  103.000;  199.000
371.919;  162.200; -384.000; -304.000
372.050; 3353.700;  -91.000; -156.000
372.181; 1062.125; -188.000; -294.000
372.311;  350.275;   42.000; -127.000
372.442;   24.400; -457.000; -451.000
372.573;  -21.250; -444.000; -340.000
372.704; -119.975;-1008.000; -980.000
372.835;   81.575; -228.000; -289.000
372.966;  -72.375; -646.000; -554.000
373.097;  -74.850; -575.000; -711.000
373.228;  -41.125; -717.000; -542.000
373.359;  119.350; -824.000; -536.000
373.490;  846.975; -881.000; -727.000
373.620; 1117.925;-1001.000; -803.000
373.751; 1617.525; -332.000; -396.000
373.882;  750.900; -663.000; -733.000
374.013;   62.775; -449.000; -262.000
374.143;  -37.350; -581.000; -659.000
374.274;  -99.525; -987.000; -908.000
374.405;  173.550; -388.000; -276.000
374.536;  398.700; -526.000; -387.000
374.666; 1039.375; -759.000; -807.000
374.797;  206.500; -817.000; -868.000
374.928;  786.525; -710.000; -560.000
375.058;  843.650; -535.000; -500.000
375.189;   77.300;  -59.000;  -93.000
375.320;  -95.625; -928.000;-1034.000
375.450;  -38.700; -625.000; -616.000
375.581;  -50.325; -526.000; -436.000
375.712;  -31.300; -574.000; -250.000
375.842;  272.650; -438.000; -415.000
375.973;  214.100; -554.000; -513.000
376.103;  -42.725; -665.000; -648.000
376.234;  -75.400; -531.000; -552.000
376.364;  -51.150; -944.000; -867.000
376.495;  294.325;  925.000;  529.000
376.625;  -20.850; -472.000; -485.000
376.756;   64.450; -709.000; -678.000
376.886;  -69.075;-1178.000;-1026.000
377.017;   41.400;-1048.000;-1061.000
377.147;  372.650; -786.000; -782.000
377.278;   55.250;  174.000;  228.000
377.408; -117.775; -801.000; -815.000
377.538; -102.775; -707.000; -693.000
377.669;  -82.675; -537.000; -613.000
377.799;  -90.050; -645.000; -635.000
377.929;  -63.450; -610.000; -428.000
378.060; -120.825; -781.000; -847.000
378.190;  -83.525; -726.000; -531.000
378.320;  -58.775; -401.000; -406.000
378.451;   -6.500; -131.000;  -22.000
378.581;  -19.950;  -67.000; -110.000
378.711;  145.075; 1035.000;  866.000
378.841;  -17.150; -533.000; -675.000
378.972;  -81.400; -871.000; -751.000
379.102;  -15.525; -652.000; -579.000
379.232;  -23.525; -126.000;  -73.000
379.362; -112.375;-1001.000; -885.000
379.492;   -1.125; -373.000; -424.000
379.623;  102.325;    0.000;  111.000
379.753;  -94.375;-1107.000; -974.000
379.883;  187.375;   59.000;  156.000
380.013;    3.875;-1081.000;-1017.000
380.143; -100.400;-1097.000;-1056.000
380.273;  -95.650; -985.000; -861.000
380.403;    1.550; -344.000; -257.000
380.533;  -38.050; -651.000; -664.000
380.663;   61.050;  173.000;  128.000
380.793; -104.150;-1027.000;-1074.000
380.923;  -18.475; -103.000;  -34.000
381.053;  -81.150; -613.000; -623.000
381.183;  -36.500; -106.000; -248.000
381.313;   24.700; -656.000; -470.000
381.443;   31.400; -692.000; -473.000
381.573;  172.925; -402.000; -409.000
381.703;  257.425;-1249.000;-1095.000
381.833; -121.675;-1454.000;-1336.000
381.963;  109.825; -134.000;  -87.000
382.093; 1314.300; -925.000; -909.000
382.223;  453.200; -713.000; -602.000
382.353;  -16.175; -801.000; -608.000
382.482;  337.625;-1091.000; -964.000
382.612;  717.525; -872.000; -644.000
382.742;  416.975; -695.000; -622.000
382.872;  241.475; -565.000; -551.000
383.002;   51.300;  347.000; -132.000
383.131;  -27.700; -226.000; -160.000
383.261;  -31.800; -706.000; -768.000
383.391;  293.225; -552.000; -377.000
383.521; 3365.525;  451.000;  263.000
383.650;  894.125; -947.000; -904.000
383.780;   -2.800; -783.000; -656.000
383.910;  100.875;  880.000;  802.000
384.039;   17.175; -794.000; -656.000
384.169;  180.100;-1205.000;-1017.000
384.299;  -21.175; -650.000; -662.000
384.428;  -86.550; -764.000; -680.000
384.558;  -33.350; -308.000; -275.000
384.687;  -51.750; -414.000; -334.000
384.817;    5.175;   75.000;   -2.000
384.947;   31.900; -234.000; -141.000
385.076;  267.250;  982.000;  912.000
385.206;   94.875;  369.000;  480.000
385.335;  -25.250; -549.000; -417.000
385.465;  -81.350; -655.000; -663.000
385.594;  113.075;  -53.000;  -44.000
385.724;  368.625; -868.000; -838.000
385.853;  109.800; -296.000; -270.000
385.982; 1211.950; -743.000; -787.000
386.112; 2035.300;-1052.000; -871.000
386.241;  144.700; -307.000; -312.000
386.371;   16.550; -174.000;  -87.000
386.500;  -11.150; -825.000; -789.000
386.629;   19.150; -874.000; -817.000
386.759;   68.275;  -43.000;   68.000
386.888;   -2.825; -170.000; -250.000
387.017;  -86.325; -648.000; -620.000
387.147;  -89.275; -771.000; -798.000
387.276;  -14.050; -410.000; -397.000
387.405;    3.225; -398.000; -342.000
387.535;  -41.550; -452.000; -361.000
387.664;  -62.850; -692.000; -620.000
387.793;   38.175; -198.000; -113.000
387.922;  464.075;  255.000;  200.000
388.052;   15.325; -576.000; -423.000
388.181;   -2.375; -342.000; -472.000
388.310;   -9.025; -889.000; -710.000
388.439;  -60.625; -749.000; -742.000
388.568;  143.450;  365.000;  244.000
388.697;  963.525; -756.000; -653.000
388.826;  198.950; -768.000; -666.000
388.956;   48.300; -285.000; -307.000
389.085;  -45.475; -347.000; -287.000
389.214; -124.375; -842.000; -872.000
389.343;  -63.975; -645.000; -413.000
389.472;  402.825;  126.000;  149.000
389.601;  528.650;   91.000;    0.000
389.730;   18.150; -568.000; -687.000
389.859;   47.800;  226.000;   46.000
389.988;  163.875; -423.000; -408.000
390.117;  135.750; -168.000; -146.000
390.246;  -13.925; -331.000; -320.000
390.375;   85.700; -673.000; -626.000
390.504;  -61.475; -703.000; -621.000
390.633;  -99.775; -672.000; -726.000
390.761;  -70.250; -732.000; -645.000
390.890;    8.000;   -4.000; -130.000
391.019;  -33.325; -421.000; -441.000
391.148; -127.425; -826.000; -855.000
391.277;  -68.875; -576.000; -493.000
391.406;  -95.300; -821.000; -805.000
391.534;   12.725;  574.000; -301.000
391.663;  -68.050; -583.000; -645.000
391.792;  -86.075; -673.000; -701.000
391.921;   78.475;   -3.000;   15.000
392.050;  165.250; -287.000; -228.000
392.178;  -39.000;-1206.000;-1061.000
392.307;  118.375; -758.000; -712.000
392.436;   73.100; -427.000; -641.000
392.564;   19.900;  166.000;   -6.000
392.693;  -89.500; -860.000; -682.000
392.822;  180.700; -529.000; -534.000
392.950;   92.175; -880.000; -714.000
393.079;  272.000; -188.000; -328.000
393.208;   23.200; -488.000; -511.000
393.336;  -13.550; -170.000; -145.000
393.465;  -37.275; -317.000; -199.000
393.593;   -7.175;   62.000;   79.000
393.722; -143.200;-1121.000; -916.000
393.850;  -45.275; -188.000;  -61.000
393.979; -150.200; -926.000; -805.000
394.107;  -52.650; -517.000; -537.000
394.236;  -29.100; -570.000; -507.000
394.364;  192.225;  383.000;  206.000
394.493;  394.000; -911.000; -767.000
394.621;   13.900; -955.000; -916.000
394.750;  729.325; -873.000; -923.000
394.878; 3005.825; -247.000; -149.000
395.007; 4343.450; -721.000; -807.000
395.135;  356.375; -790.000; -721.000
395.263;  -76.925;-1038.000;-1040.000
395.392;    7.125;  -25.000; -107.000
395.520; -120.100; -818.000; -679.000
395.648;  -82.375; -865.000; -915.000
395.777;  -18.950; -366.000; -405.000
395.905;  -52.075; -449.000; -564.000
396.033;   12.975;  217.000;  172.000
396.162;  587.100; -399.000; -453.000
396.290;  550.400;  -17.000;   -2.000
396.418;   96.700; -555.000; -514.000
396.546;  -70.575; -571.000; -466.000
396.674;  -95.275; -850.000; -878.000
396.803;    2.600;  -72.000;  -23.000
396.931;   74.125; -179.000; -199.000
397.059;   42.350;-1026.000; -989.000
397.187; -108.550;-1026.000; -975.000
397.315; -126.825; -884.000; -649.000
397.443;  -92.475; -592.000; -443.000
397.572; -100.275; -578.000; -424.000
397.700;  -26.550; -607.000; -614.000
397.828;    6.825;  120.000;  -90.000
397.956;  -33.325; -508.000; -478.000
398.084;  -59.675; -767.000; -626.000
398.212;   44.550;  137.000;  124.000
398.340;    9.900;  -56.000;  159.000
398.468;   10.925; -390.000; -169.000
398.596; -126.700; -993.000; -953.000
398.724; -113.250; -762.000; -767.000
398.852; -155.625;-1024.000; -976.000
398.980;  -59.575; -560.000; -560.000
399.108;  -54.350; -982.000; -735.000
399.236;   33.700;   13.000;    8.000
399.363;   17.050;  222.000;  196.000
399.491;  -68.100; -404.000; -398.000
399.619; -121.225; -829.000; -800.000
399.747; -104.425; -859.000; -771.000
399.875;   58.350;  220.000;  234.000
400.003;  -50.225; -359.000; -284.000
400.130;  -84.825; -421.000; -341.000
400.258;  -41.900;  -83.000;   38.000
400.386;  -80.250; -352.000; -168.000
400.514;  -31.700; -526.000; -587.000
400.641;  -88.825; -928.000; -802.000
400.769; -136.225; -979.000; -888.000
400.897; -108.400; -838.000; -793.000
401.025;  -17.100; -166.000; -152.000
401.152;  -11.550;  220.000;   38.000
401.280; -101.625; -430.000; -429.000
401.408; -116.575; -712.000; -576.000
401.535; -109.525; -735.000; -758.000
401.663; -177.075;-1134.000;-1054.000
401.790;  -91.150; -514.000; -525.000
401.918;   25.125;  436.000;  405.000
402.046;  -29.050;  134.000;  122.000
402.173;  -41.100;  -18.000;    7.000
402.301;  -71.575; -519.000; -397.000
402.428;   24.450;  528.000;  383.000
402.556; -142.250;-1188.000; -913.000
402.683;  -36.275;  -20.000;   -1.000
402.811;  -20.375;  -37.000; -206.000
402.938;  -20.475;   20.000;   27.000
403.066;  163.725; -574.000; -558.000
403.193;  309.750;  299.000;  239.000
403.321;  213.950; -396.000; -574.000
403.448;  308.700;   83.000;   27.000
403.575;  145.050;  -90.000;  -46.000
403.703; -100.975; -732.000; -557.000
403.830;  -67.850; -531.000; -496.000
403.957; -134.200;-1117.000;-1023.000
404.085;   -2.050;  -61.000; -172.000
404.212;   93.300;  -50.000;   63.000
404.339;  274.700; -566.000; -306.000
404.467; 5957.525; -612.000; -524.000
404.594; 4127.150; -287.000; -227.000
404.721;  954.925; -869.000; -764.000
404.848;   95.300; -113.000; -202.000
404.976;  -92.625; -856.000; -783.000
405.103;   -7.825;  -14.000;  -82.000
405.230;  -14.825;  190.000;  226.000
405.357;   19.825;  117.000;   44.000
405.484;  275.925;  -49.000;    5.000
405.612;   60.900; -548.000; -563.000
405.739;  -71.050; -488.000; -243.000
405.866;   61.275;  669.000;  385.000
405.993;  -46.150; -398.000; -102.000
406.120; -129.850; -801.000; -887.000
406.247;  -59.400; -323.000; -342.000
406.374;  406.575;  540.000;  629.000
406.501;  111.100; -632.000; -702.000
406.628;  -87.575; -621.000; -589.000
406.755;  -95.475; -803.000; -620.000
406.882;  -33.350; -228.000; -277.000
407.009;  -96.375; -719.000; -628.000
407.136;   18.825; -480.000; -401.000
407.263;  115.250; -939.000; -829.000
407.390;  -70.725; -692.000; -614.000
407.517; -161.750;-1139.000;-1187.000
407.644;  -63.550; -332.000; -256.000
407.771;  -56.750; -249.000; -287.000
407.898;   -8.475;  168.000;  328.000
408.025;  -78.400; -421.000; -313.000
408.151;  -14.025;   82.000;  153.000
408.278;  -74.375; -267.000; -216.000
408.405; -115.800; -931.000; -899.000
408.532;  -60.350; -549.000; -542.000
408.659; -117.175; -677.000; -648.000
408.785; -187.525;-1298.000;-1170.000
408.912;  -60.625; -412.000; -296.000
409.039; -113.900; -610.000; -686.000
409.166; -105.600; -591.000; -555.000
409.292; -110.725; -571.000; -534.000
409.419; -112.050; -665.000; -649.000
409.546;  -84.175; -431.000; -192.000
409.672;  -99.625; -713.000; -545.000
409.799;  -16.975;  -36.000;   34.000
409.926;  -31.175; -180.000; -179.000
410.052; -166.225;-1127.000;-1091.000
410.179;  -64.425; -368.000; -392.000
410.305;  -89.800; -375.000; -493.000
410.432;  -42.325; -220.000; -333.000
410.558;  -97.550; -305.000; -380.000
410.685; -112.000; -688.000; -431.000
410.812;  -99.975; -409.000; -588.000
410.938; -138.950; -964.000; -808.000
411.065;  -91.975; -671.000; -645.000
411.191;  -21.575; -189.000; -174.000
411.317; -118.300; -823.000; -742.000
411.444;  -66.275; -317.000; -246.000
411.570;  -76.950; -339.000; -294.000
411.697; -123.000; -758.000; -752.000
411.823; -172.200; -989.000; -999.000
411.949;  -30.750;  -56.000;   17.000
412.076;  -98.575; -539.000; -519.000
412.202; -119.375; -758.000; -757.000
412.329; -131.650; -798.000; -752.000
412.455; -118.675; -821.000; -657.000
412.581;  -25.850;  -15.000;  172.000
412.707;  -60.475; -540.000; -457.000
412.834;    0.075;  156.000;  219.000
412.960;  -85.875; -785.000; -784.000
413.086; -100.000; -743.000; -701.000
413.212;  136.025;  604.000;  578.000
413.339;  -62.200; -685.000; -701.000
413.465;   -5.175; -364.000; -310.000
413.591;  -79.625; -757.000; -474.000
413.717;  -53.175; -358.000; -366.000
413.843; -138.450; -839.000; -861.000
413.969;  -70.825;  -47.000; -292.000
414.096;  -91.225; -679.000; -679.000
414.222;   -7.125;  -33.000;   85.000
414.348;  -39.150; -652.000; -385.000
414.474;   91.925;   38.000;  -52.000
414.600;  -18.700; -126.000; -144.000
414.726;   -6.075;  -96.000;  -55.000
414.852;  -43.300; -365.000; -342.000
414.978;   34.350;  104.000;  -18.000
415.104;   41.275;   38.000;   80.000
415.230;   21.225; -329.000; -330.000
415.356;   28.950; -409.000; -514.000
415.482;  194.100;   13.000;  -35.000
415.608;  272.025; -247.000; -323.000
415.734;  953.050;   67.000;   38.000
415.860;20119.600; -875.000; -767.000
415.986;16219.625; -685.000; -607.000
416.111; 1472.900; -798.000; -652.000
416.237;  278.350; -424.000; -571.000
416.363; 1115.225; -765.000; -733.000
416.489; 4462.600; -324.000; -251.000
416.615;  561.400; -707.000; -742.000
416.741;  -13.625; -677.000; -784.000
416.866;  -90.425; -673.000; -736.000
416.992; -119.550; -801.000; -818.000
417.118;  -33.950;  -41.000;  -80.000
417.244;  -67.575; -798.000; -531.000
417.369;  -87.100; -801.000; -612.000
417.495;   -0.600; -325.000; -254.000
417.621;  -78.800;-1015.000; -803.000
417.746;    2.175; -579.000; -572.000
417.872;   59.075; -254.000; -144.000
417.998;   67.400; -515.000; -530.000
418.123; 1016.375;-1073.000; -845.000
418.249; 5734.800; -512.000; -601.000
418.374;  914.575; -916.000; -824.000
418.500;  139.475; -383.000; -482.000
418.626;  121.125;   70.000;  -59.000
418.751;  121.625; -549.000; -448.000
418.877;  219.475; -637.000; -643.000
419.002; 1759.225; -688.000; -560.000
419.128;13247.725; -930.000; -721.000
419.253; 3620.325; -967.000; -837.000
419.379;  458.675; -391.000; -338.000
419.504;  421.225;  325.000;  415.000
419.629;  548.600; -393.000; -212.000
419.755; 3491.325; -317.000; -254.000
419.880;22350.600;  -98.000;   67.000
420.006;12048.375; -280.000; -221.000
420.131;31561.625; -662.000; -775.000
420.256; 5017.925; -315.000; -316.000
420.382;  652.850; -665.000; -687.000
420.507;   96.100; -649.000; -778.000
420.632;  100.300; -337.000; -339.000
420.758;  233.275; -251.000; -425.000
420.883;  -87.575; -876.000; -672.000
421.008;  -99.000; -775.000; -619.000
421.133;  -85.200; -509.000; -467.000
421.259;  -58.225; -325.000; -259.000
421.384; -107.550; -834.000; -693.000
421.509;  -63.275;-1052.000; -862.000
421.634;  960.725; -936.000; -820.000
421.759;  483.225; -359.000; -327.000
421.885;  -58.125; -717.000; -656.000
422.010;  -80.425; -673.000; -542.000
422.135; -146.975; -695.000; -727.000
422.260;   28.225;  340.000;  280.000
422.385;  -39.000;   12.000;  -98.000
422.510;    7.625;  151.000;  -26.000
422.635;   11.350;  -87.000;  -43.000
422.760;   91.450; -766.000; -791.000
422.885;   60.375;  -57.000;  -80.000
423.010;  -34.850; -112.000; -169.000
423.135; -109.200; -481.000; -561.000
423.260;  -21.700; -150.000; -245.000
423.385;   56.550;  476.000;  222.000
423.510;   24.400;   71.000;  -22.000
423.635;   60.700;  133.000;   45.000
423.760;   53.225;  383.000;  328.000
423.885;   46.900;  336.000;  391.000
424.010;   16.825;  -68.000;  -13.000
424.135;  -22.075;    5.000;  -33.000
424.259;  -81.400; -654.000; -457.000
424.384;  -52.975; -279.000; -272.000
424.509;  -11.550; -260.000; -186.000
424.634;  -89.775; -761.000; -623.000
424.759;  -41.625; -688.000; -544.000
424.883;  -13.125; -506.000; -527.000
425.008;  157.475; -502.000; -410.000
425.133; 2080.050; -679.000; -653.000
425.258; 1075.225; -517.000; -381.000
425.382;  911.000; -867.000; -774.000
425.507; 2533.475; -487.000; -543.000
425.632;  467.225; -802.000; -663.000
425.756;  482.025; -256.000; -146.000
425.881; 6479.375; -831.000; -857.000
426.006;19406.950; -604.000; -355.000
426.130; 3302.725; -696.000; -508.000
426.255;  416.775; -611.000; -491.000
426.379;  187.925; -189.000; -577.000
426.504;  383.000;  660.000;  544.000
426.629; 4101.725; -519.000; -466.000
426.753; 3107.050;   64.000;  -46.000
426.878;  365.925; -252.000; -288.000
427.002;  175.275; -651.000; -668.000
427.127; 1552.775;  -35.000; -158.000
427.251;11857.450;  372.000;  401.000
427.375; 3796.850; -191.000; -173.000
427.500; 2177.875; -616.000; -610.000
427.624;  784.600; -234.000; -400.000
427.749;   83.825; -216.000; -225.000
427.873;  -39.050; -499.000; -412.000
427.997;  -45.075; -222.000; -230.000
428.122;   70.800;  795.000;  703.000
428.246;   56.300;  433.000;  434.000
428.371; -119.425; -869.000; -773.000
428.495; -113.200; -624.000; -646.000
428.619;  -33.975; -186.000; -117.000
428.743;   18.550;   65.000;  132.000
428.868;   11.875; -732.000; -643.000
428.992; 1260.025; -219.000; -326.000
429.116;  544.850; -329.000; -357.000
429.240;  281.100;  419.000;  426.000
429.365;  -16.775; -454.000; -574.000
429.489;  -45.950; -638.000; -647.000
429.613;   26.500; -236.000; -177.000
429.737;   36.975; -563.000; -432.000
429.861;  270.750; -247.000; -133.000
429.985; 5533.550; -425.000; -305.000
430.109; 6772.050; -770.000; -908.000
430.234;  846.775;   76.000;  -50.000
430.358;   87.625; -250.000; -160.000
430.482;  -69.750; -672.000; -564.000
430.606;  -54.150; -655.000; -375.000
430.730;    8.100; -437.000; -388.000
430.854;   93.700; -909.000; -835.000
430.978;  -71.925; -795.000; -764.000
431.102;  -82.725; -499.000; -422.000
431.226; -113.125; -874.000; -815.000
431.350;   23.450;  345.000;  422.000
431.474;  -77.550; -661.000; -373.000
431.597; -149.400;-1060.000; -848.000
431.721;  -85.375; -276.000; -267.000
431.845; -134.575; -704.000; -472.000
431.969;  -78.150; -304.000; -349.000
432.093;  -86.675; -395.000; -317.000
432.217;  -11.925;   32.000;   82.000
432.341;  -87.825; -523.000; -518.000
432.464;   -9.625;   96.000;   40.000
432.588;  160.275; -401.000; -329.000
432.712;  107.125;  -52.000;  -52.000
432.836;   47.650;  213.000;  263.000
432.959;  -17.500; -372.000; -311.000
433.083;   93.650;   11.000;    2.000
433.207;  392.775;  285.000;  930.000
433.330; 5052.150; -391.000; -200.000
433.454; 6914.100; -654.000; -638.000
433.578; 3865.825;  583.000;  278.000
433.701;  797.650; -623.000; -675.000
433.825;  151.450; -292.000; -299.000
433.949;  134.750;   28.000;  -72.000
434.072;   38.050; -410.000; -323.000
434.196;  -13.050; -309.000; -117.000
434.319; 3470.450;25482.000;25124.000
434.443;  693.550; -656.000; -603.000
434.566; 2839.300;  281.000;   62.000
434.690;  551.775; -637.000; -383.000
434.813;   70.725; -251.000; -173.000
434.937;  -74.725; -569.000; -696.000
435.060;  -53.800; -423.000; -332.000
435.184;  222.875; -492.000; -217.000
435.307;  140.625;  159.000;  102.000
435.431;   -4.525;  -40.000;   24.000
435.554;  -76.450; -399.000; -240.000
435.677;  -91.800; -350.000; -258.000
435.801;  -46.050;  -25.000;   49.000
435.924;  -15.950;    1.000;  -67.000
436.048; -105.675;-1019.000; -732.000
436.171;  -63.975; -240.000;  -66.000
436.294;  -39.975; -248.000; -229.000
436.417;   96.675; -963.000; -849.000
436.541;  -68.675; -814.000; -840.000
436.664;  -59.900; -242.000; -316.000
436.787;  -31.825;   13.000;  113.000
436.910; -122.025; -792.000; -422.000
437.034;   -4.575;  142.000;  143.000
437.157;   35.375;  -11.000;    0.000
437.280;  -51.475; -392.000; -292.000
437.403;  -96.200; -982.000; -869.000
437.526;  443.700; -903.000; -865.000
437.649; 1914.150; -505.000; -332.000
437.772;  315.500; -692.000; -540.000
437.896;  118.025;  700.000;  544.000
438.019;  -96.225; -758.000; -503.000
438.142;  -85.950; -596.000; -506.000
438.265;  -26.450; -639.000; -670.000
438.388;  476.850; -520.000; -410.000
438.511;   96.600; -597.000; -394.000
438.634;  -62.125; -247.000; -125.000
438.757; -135.700; -693.000; -619.000
438.880;  -35.250;  -34.000;  -57.000
439.003;  -67.850; -417.000; -437.000
439.126;  -66.675; -287.000; -167.000
439.248;  -74.725;  -98.000; -139.000
439.371;  -56.200;    9.000;  -53.000
439.494;   17.325;  510.000;  439.000
439.617;  -65.425;   65.000;  -88.000
439.740; -187.500; -968.000; -816.000
439.863; -130.125; -755.000; -595.000
439.986; -124.925; -476.000; -431.000
440.108;  -39.200; -161.000; -112.000
440.231; -150.900; -950.000; -836.000
440.354;  -45.100;  -64.000; -150.000
440.477;   -2.225; -566.000; -542.000
440.599;    1.000; -200.000; -225.000
440.722; -123.950; -709.000; -586.000
440.845;   59.975;  751.000;  928.000
440.968; -104.900; -415.000; -311.000
441.090;  -71.350; -199.000;  -33.000
441.213; -172.225;-1021.000; -825.000
441.336;  -58.700; -159.000;   -5.000
441.458;  -71.525; -549.000; -396.000
441.581;  -89.675; -628.000; -629.000
441.703;  -69.100; -152.000;   13.000
441.826; -107.900; -557.000; -400.000
441.948;  -50.450;   56.000;   51.000
442.071;   32.125;  555.000;  424.000
442.193; -124.375; -531.000; -485.000
442.316;   -2.025;  152.000;   97.000
442.438;   44.975; -233.000;  -10.000
442.561;   66.725;  272.000;  262.000
442.683;  400.575; -809.000; -522.000
442.806;  999.825;   -8.000;   74.000
442.928;   18.800; -859.000; -604.000
443.051;  -62.350; -577.000; -373.000
443.173;  -91.950; -341.000; -339.000
443.295;  -89.875; -263.000; -371.000
443.418;  -79.825; -321.000;  -29.000
443.540;  -23.425; -106.000;   -4.000
443.662; -121.925; -563.000; -465.000
443.785;  -14.875;  335.000;  199.000
443.907; -100.925; -362.000; -208.000
444.029; -121.325; -767.000; -494.000
444.152; -150.300; -644.000; -554.000
444.274;  -46.825;  -18.000;  -24.000
444.396; -108.575; -461.000; -221.000
444.518; -124.700; -691.000; -454.000
444.640;  -93.950; -268.000; -111.000
444.763;  -32.750;  388.000;  249.000
444.885; -117.100; -432.000; -392.000
445.007;  -24.750;   35.000;   86.000
445.129; -112.075; -610.000; -515.000
445.251; -102.675; -372.000; -439.000
445.373; -140.925; -537.000; -386.000
445.495;   10.125;  242.000;  350.000
445.617;   60.050;  853.000;  753.000
445.739;  -71.450; -215.000;  -97.000
445.861;  -44.500; -245.000; -112.000
445.984;  -36.350; -267.000; -101.000
446.105;  132.800; -418.000; -251.000
446.227;  557.950; -176.000;  -19.000
446.349;    4.025; -358.000; -249.000
446.471; -111.875; -615.000; -448.000
446.593;  -67.225; -316.000;   19.000
446.715;  -12.625;  -67.000;   41.000
446.837;   53.650;  697.000;  832.000
446.959; -103.375; -457.000; -478.000
447.081; -126.675; -628.000; -518.000
447.203;   41.575;  862.000;  834.000
447.325;  -93.450; -270.000;   42.000
447.446;  -11.600;  286.000;  530.000
447.568; -167.675; -921.000; -803.000
447.690;  -74.425; -236.000; -245.000
447.812; -133.300; -798.000; -519.000
447.933;  -34.850;  155.000;  127.000
448.055;  -65.950; -306.000; -261.000
448.177;  103.975;   31.000;   79.000
448.299;   62.450; -935.000; -727.000
448.420;   19.500;  -25.000;  159.000
448.542;  -54.150;   -3.000;   33.000
448.664;  -15.225;  109.000;  322.000
448.785;  -45.225;  265.000;   83.000
448.907;  -82.025; -614.000; -353.000
449.028;  -38.200; -771.000; -471.000
449.150;   61.300;  492.000;  589.000
449.272; -169.600;-1044.000; -913.000
449.393;   19.675;  612.000;  694.000
449.515; -149.200; -634.000; -581.000
449.636;  -67.125; -264.000; -155.000
449.758;   68.925;  763.000;  622.000
449.879;  -77.950; -498.000; -396.000
450.001;  -84.950; -149.000;  -49.000
450.122;  -52.950;  -95.000;  162.000
450.244;  -19.075;   37.000;  364.000
450.365; -102.500; -495.000; -301.000
450.486;  -28.375;   80.000;  268.000
450.608;   22.550;  393.000;  326.000
450.729;   68.350;  578.000;  645.000
450.850;   27.150; -574.000; -466.000
450.972;  728.425; -552.000; -389.000
451.093; 5117.775;  190.000;  588.000
451.214; 2530.450; -516.000; -337.000
451.336;  442.850;  773.000;  579.000
451.457;   73.300;  264.000;  393.000
451.578;  -29.350; -118.000;  -74.000
451.699; -120.400; -546.000; -540.000
451.821;  -62.150; -284.000;  -50.000
451.942;   -6.800;  278.000;  285.000
452.063;   39.600;  228.000;  419.000
452.184;  532.725;  -54.000;  -49.000
452.305; 1210.700;  103.000;  170.000
452.427;  190.325; -549.000; -301.000
452.548;   -1.275;   23.000;   79.000
452.669;  -45.250; -257.000;  -89.000
452.790;  -52.950;    3.000;  -18.000
452.911;   -9.500;  195.000;  259.000
453.032;  -54.575; -289.000;  -60.000
453.153;  -55.700;  -29.000;   81.000
453.274;   78.250;  737.000;  868.000
453.395;  -48.625;  -51.000;  175.000
453.516;  111.650; 1317.000; 1388.000
453.637;  -65.750; -205.000; -150.000
453.758;  -57.700;   15.000;   69.000
453.879; -123.075; -462.000; -250.000
454.000;   72.750; 1086.000;  948.000
454.121; -102.100; -554.000; -326.000
454.242; -112.125; -599.000; -383.000
454.362;  -66.875;  -99.000;  114.000
454.483;  -46.425; -309.000; -229.000
454.604;   47.425;  512.000;  580.000
454.725; -127.075; -627.000; -555.000
454.846; -116.900; -474.000; -406.000
454.967;  -26.425;  230.000;  539.000
455.087;  -36.800;  179.000;  153.000
455.208;    7.925;  554.000;  856.000
455.329;  -50.325;  -22.000;   82.000
455.450;   27.950;  473.000;  633.000
455.570;  -74.300; -234.000; -211.000
455.691;  -37.050;  201.000;  407.000
455.812; -110.125; -270.000;  -92.000
455.932;  -59.175;  107.000;  -97.000
456.053;  -80.425;   36.000;   24.000
456.173; -107.275; -433.000; -355.000
456.294; -140.675; -476.000; -303.000
456.415;  -74.450;  -73.000;   70.000
456.535;  -47.950;  297.000;  273.000
456.656;  -47.625;  132.000;  240.000
456.776;  -74.475;    3.000;  298.000
456.897;   -3.175;  308.000;  513.000
457.017;  -86.450; -153.000;   -3.000
457.138;  -97.350; -402.000; -249.000
457.258;  -34.025;  263.000;  224.000
457.379;  -18.325;  509.000;  521.000
457.499;  -29.450;  443.000;  432.000
457.620; -110.825; -407.000; -231.000
457.740;  -97.400; -132.000;  -11.000
457.860;  -56.400;   87.000;   44.000
457.981;  -56.775;  132.000;  124.000
458.101;  -69.975;  -89.000;   40.000
458.221;  -13.400;  336.000;  402.000
458.342;  -56.950;   -4.000;  -37.000
458.462;   32.250;  617.000;  352.000
458.582;  -15.700; -302.000; -294.000
458.703;   14.500;  303.000;  154.000
458.823;  -23.775;   22.000;  163.000
458.943;   34.375;  341.000;  467.000
459.063;  -20.750; 1124.000;  192.000
459.183;  -18.250;  328.000;  313.000
459.304;    3.825;  315.000;  517.000
459.424;  -66.550; -246.000;  -89.000
459.544;  318.850;  388.000;  764.000
459.664;  888.500;  499.000;  506.000
459.784;  371.200; 1004.000; 1175.000
459.904;   52.425;  867.000;  744.000
460.024;   57.900;  867.000;  684.000
460.144;    2.425;  449.000;  554.000
460.264;    1.025;  515.000;  327.000
460.385;  -91.100; -145.000; -119.000
460.505;   43.075;  905.000;  858.000
460.625;  -89.675;  -17.000;  -68.000
460.745;  -34.450;  396.000;  541.000
460.864;  -59.075;  153.000;  469.000
460.984;    4.200;  499.000;  573.000
461.104;  119.500; 1656.000; 1775.000
461.224;   22.675;  657.000;  650.000
461.344;  -29.975;  431.000;  360.000
461.464;  -21.800;  258.000;  513.000
461.584;  -18.400;  283.000;  466.000
461.704;  -52.525;   58.000;  108.000
461.824;  -35.550;  238.000;  259.000
461.943;  -52.675;  191.000;  130.000
462.063;  -77.375;    2.000;  324.000
462.183;   30.525;  639.000;  717.000
462.303;   84.400; 1678.000; 1230.000
462.422;   24.425;  781.000;  840.000
462.542;  -34.200;  271.000;  391.000
462.662;   33.425;  353.000;  380.000
462.782;  242.200;  833.000;  572.000
462.901;  509.975;  545.000;  717.000
463.021;  311.425; 1702.000; 1638.000
463.141;  -15.525;  337.000;  770.000
463.260;    4.075;  614.000;  474.000
463.380;   13.075;  902.000;  884.000
463.499;  -49.775;  342.000;  332.000
463.619;  -49.700;  581.000;  559.000
463.738;  100.675; 1644.000;  903.000
463.858;   15.875;  657.000;  811.000
463.978;  -25.450;  542.000;  396.000
464.097;   48.675;  921.000; 1114.000
464.217;  112.600; 1196.000; 1143.000
464.336;  110.325; 1068.000; 1130.000
464.455;  -20.775;  328.000;  659.000
464.575;   23.450;  597.000;  602.000
464.694;  167.925; 1204.000; 1179.000
464.814;  120.350; 1190.000; 1138.000
464.933;   69.700; 1095.000; 1027.000
465.052;   96.075; 1412.000; 1054.000
465.172;   64.050;  922.000;  799.000
465.291;  140.300; 1376.000; 1320.000
465.410;   15.200;  462.000;  735.000
465.530;   74.950; 1355.000; 1310.000
465.649;   72.375; 1209.000; 1273.000
465.768;  135.300; 1673.000; 1508.000
465.888;   41.375;  941.000; 1174.000
466.007;   87.375; 1335.000; 1440.000
466.126;   -6.225;  721.000;  641.000
466.245;   46.050; 1176.000; 1187.000
466.364;   17.975;  950.000; 1060.000
466.484;   62.625; 1024.000; 1213.000
466.603;   41.125; 1101.000; 1222.000
466.722;  123.125; 1490.000; 1769.000
466.841;   77.500; 1151.000; 1401.000
466.960;   47.050; 1069.000;  972.000
467.079;  130.075; 1971.000; 1786.000
467.198;   44.175; 1238.000; 1181.000
467.317;   95.525; 1768.000; 1162.000
467.436;   58.350; 1709.000; 1261.000
467.555;  122.725; 1796.000; 1746.000
467.674;   50.925; 1227.000; 1329.000
467.793;   39.925; 1376.000; 1374.000
467.912;   77.125; 1658.000; 1539.000
468.031;  128.300; 2038.000; 1930.000
468.150;  144.925; 1842.000; 1837.000
468.269;  184.400; 2313.000; 2090.000
468.388;  186.375; 2168.000; 2339.000
468.507;  247.450; 2884.000; 2903.000
468.626;  278.575; 2555.000; 2541.000
468.744;  138.250; 2018.000; 2174.000
468.863;  203.650; 2312.000; 2523.000
468.982;   88.975; 1503.000; 1555.000
469.101;  229.075; 2788.000; 2692.000
469.220;  151.750; 2333.000; 2176.000
469.338;  249.675; 2935.000; 3051.000
469.457;  191.850; 2719.000; 2545.000
469.576;  356.050; 3953.000; 3784.000
469.695;  224.225; 2877.000; 3066.000
469.813;  431.850; 4148.000; 4192.000
469.932;  395.450; 4255.000; 4485.000
470.051;  418.850; 4075.000; 4161.000
470.169;  835.975; 4470.000; 4338.000
470.288; 1522.225; 4700.000; 4809.000
470.406;  933.700; 5059.000; 5194.000
470.525;  640.475; 6101.000; 5787.000
470.644;  635.700; 6847.000; 6794.000
470.762;  803.875; 8397.000; 7873.000
470.881;  902.350; 8651.000; 8464.000
470.999; 1034.650; 9685.000; 9151.000
471.118; 1097.050;11174.000;10711.000

