
Integration time [ms]: 100.000
Averaging Nr. [scans]: 40
Smoothing Nr. [pixels]: 0
Data measured with spectrometer [name]: 2101012U2
Wave   ;Sample   ;Dark     ;Reference
[nm]   ;[counts] ;[counts] ;[counts] 

197.733;   57.875;  516.000;  404.000
197.879;  -93.825; -610.000; -634.000
198.025;  -51.075; -475.000; -420.000
198.171;  -76.300; -602.000; -612.000
198.317;  -32.350; -401.000; -316.000
198.463;  -59.450; -655.000; -404.000
198.609;   41.900;  181.000; -137.000
198.755;  -84.825; -644.000; -410.000
198.901;  -57.200; -505.000; -424.000
199.047;  -68.350; -615.000; -488.000
199.193;  -26.250; -230.000; -468.000
199.339;  -41.675; -222.000; -369.000
199.485;   39.075;  330.000;  271.000
199.631;   13.500;  227.000;  310.000
199.777;  -49.150; -466.000; -398.000
199.923;  -56.975; -610.000; -424.000
200.069;    1.650; -141.000;  -58.000
200.215;   62.100;  128.000;  453.000
200.361;   45.125;  243.000;  477.000
200.507;  -75.525; -600.000; -373.000
200.653;  -15.200; -371.000; -194.000
200.798;  -35.100; -215.000; -125.000
200.944;   -5.575; -146.000;  -41.000
201.090;   34.650;   61.000;  222.000
201.236;    4.575; -116.000; -158.000
201.382;  137.675;  874.000;  903.000
201.528;   10.450;  -58.000;  -48.000
201.674;  -61.925; -386.000; -293.000
201.819;  -51.375; -540.000; -439.000
201.965;  -76.975; -699.000; -447.000
202.111;  -19.725; -273.000; -226.000
202.257;  -43.300; -250.000; -238.000
202.402;    2.500;   13.000;  -36.000
202.548;  -34.825; -169.000; -116.000
202.694;   89.850;  410.000; -183.000
202.840;  -88.350; -603.000; -531.000
202.985;  -79.500; -681.000; -639.000
203.131; -105.850; -832.000; -666.000
203.277;  -16.225; -199.000; -262.000
203.423;  -52.800; -434.000; -520.000
203.568;  -40.075; -462.000; -237.000
203.714;  -53.275; -535.000; -542.000
203.860;  -72.725; -682.000; -641.000
204.005;   27.875;  112.000;  167.000
204.151;   75.625;  561.000;  556.000
204.296;  -32.050; -354.000; -221.000
204.442;  -68.100; -600.000; -547.000
204.588;  -72.150; -592.000; -579.000
204.733;   29.775;  178.000;  168.000
204.879; -139.100;-1018.000; -822.000
205.025;   21.325;  -99.000;  126.000
205.170;   14.775;  -17.000;   94.000
205.316;   92.925;  438.000;  661.000
205.461;  -83.575; -698.000; -554.000
205.607;   97.300;  609.000;  665.000
205.752;  -77.850; -626.000; -551.000
205.898;  -49.175; -501.000; -391.000
206.043;  -50.450; -578.000; -506.000
206.189;  -41.950; -243.000; -285.000
206.334;   80.250;  554.000;  606.000
206.480;   77.750;  409.000;  239.000
206.625;  -81.750; -529.000; -552.000
206.771;  -54.650; -451.000; -373.000
206.916;  -36.800; -210.000; -537.000
207.062;  -69.700; -545.000; -591.000
207.207;  -58.800; -546.000; -443.000
207.353;   54.075;  185.000;  460.000
207.498;   10.625;  196.000;   85.000
207.643;  -50.400; -501.000; -370.000
207.789; -133.125;-1069.000; -910.000
207.934; -102.000; -665.000; -713.000
208.080;  -26.650; -154.000;   66.000
208.225;   -2.150;  -22.000;  -57.000
208.370;  -93.900; -727.000; -619.000
208.516;  -74.450; -741.000; -487.000
208.661;  -21.600; -127.000;  -69.000
208.806;  -22.700; -165.000; -171.000
208.952; -124.675;-1044.000; -731.000
209.097;   66.875;  378.000;  349.000
209.242;  -50.000; -307.000; -382.000
209.387;   76.825;  392.000;  350.000
209.533;  -56.575; -321.000; -350.000
209.678;   59.325;  472.000;  543.000
209.823;  -67.400; -408.000; -310.000
209.969; -101.175; -860.000; -757.000
210.114; -112.400; -907.000; -719.000
210.259; -117.575; -939.000; -889.000
210.404;  -19.350; -171.000;  103.000
210.549;   10.700;  108.000;    3.000
210.695;  -21.675;   -3.000;  -95.000
210.840;   35.425;   94.000;   67.000
210.985;  -63.600; -484.000; -303.000
211.130;   75.400;  268.000;  406.000
211.275;   20.250;  207.000;  199.000
211.420;  -45.700; -300.000; -289.000
211.566;  -58.950; -536.000; -489.000
211.711;   21.125;  218.000;  157.000
211.856;  -73.600; -545.000; -519.000
212.001;   10.825;  151.000;   44.000
212.146;   20.425;  153.000;   49.000
212.291;  -28.200; -210.000; -186.000
212.436;  -23.250; -280.000;   -6.000
212.581;  -81.725; -685.000; -653.000
212.726;  -69.350; -487.000; -538.000
212.871;  -51.700; -552.000; -217.000
213.016; -151.425;-1172.000;-1029.000
213.161;   59.375;  406.000;  291.000
213.306;  -73.125; -435.000; -577.000
213.451; -105.700; -778.000; -689.000
213.596;  -45.575; -455.000; -347.000
213.741;  -60.325; -448.000; -538.000
213.886;  -69.850; -498.000; -517.000
214.031;  -26.250; -294.000; -124.000
214.176;  -48.900; -408.000; -341.000
214.321;  -10.600; -296.000; -157.000
214.466;  -23.075; -163.000;  -43.000
214.611;    7.125;  -61.000;  -10.000
214.756; -127.050; -948.000; -858.000
214.901;  -25.100; -388.000; -226.000
215.046; -123.200; -797.000; -825.000
215.191;   15.000;  128.000;   35.000
215.336;  -14.300; -157.000;  -19.000
215.480;  -77.375; -684.000; -505.000
215.625;   -2.075; -175.000;  -19.000
215.770;  -91.625; -757.000; -662.000
215.915;  -14.150;   -5.000;  -97.000
216.060;   -7.375; -113.000;  -21.000
216.205; -116.750; -731.000; -779.000
216.349;  -49.200; -470.000; -533.000
216.494; -134.225; -939.000; -867.000
216.639; -118.550; -823.000; -888.000
216.784;  -89.600; -577.000; -525.000
216.929;   51.925;  392.000;  281.000
217.073;  -16.850; -244.000;  -31.000
217.218;    4.700;   78.000;  -47.000
217.363;  -90.475; -656.000; -618.000
217.507;  -89.075; -623.000; -588.000
217.652; -131.025; -845.000; -874.000
217.797;  -85.350; -708.000; -659.000
217.942;  -97.750; -856.000; -720.000
218.086;   84.750;  608.000;  539.000
218.231;  -17.525; -174.000;  -26.000
218.376;  -38.425; -337.000; -229.000
218.520;    9.000;  -41.000;   96.000
218.665;  -23.000; -338.000; -204.000
218.810;  -40.125; -275.000; -233.000
218.954;   35.200;  201.000;   35.000
219.099; -113.425; -713.000; -963.000
219.243;  -77.825; -589.000; -554.000
219.388;  -29.725; -264.000; -136.000
219.532;   -0.825; -116.000; -116.000
219.677;  -64.550; -564.000; -521.000
219.822;    8.575;   33.000;   89.000
219.966;    2.700;   17.000;  -99.000
220.111;  -38.675; -328.000;  -40.000
220.255; -104.650; -797.000; -750.000
220.400;  -21.975; -180.000; -146.000
220.544;  -79.350; -516.000; -450.000
220.689;  -55.100; -422.000; -451.000
220.833;   -6.875; -123.000;  -58.000
220.978;  -49.000; -393.000; -563.000
221.122;   41.375;  319.000;  307.000
221.267; -108.750; -906.000; -837.000
221.411;  -65.575; -478.000; -394.000
221.555;    3.750; -104.000;  -23.000
221.700;  -60.600; -329.000; -222.000
221.844;   26.900;  255.000;  272.000
221.989;  -39.750; -328.000; -311.000
222.133;  -31.775; -289.000; -307.000
222.277;   -3.175;    5.000;   78.000
222.422;   26.425;  227.000;  113.000
222.566;  -36.625; -381.000; -214.000
222.711;  -55.075; -414.000; -479.000
222.855;  -81.875; -643.000; -586.000
222.999;  -83.025; -642.000; -717.000
223.144;  -33.075; -195.000; -194.000
223.288;   55.850;  423.000;  251.000
223.432;   25.375;  184.000;  230.000
223.576;   18.800;  152.000;  -21.000
223.721;   43.375;  364.000;  273.000
223.865;  -52.025; -472.000; -475.000
224.009;  254.550; 1673.000; 1631.000
224.153;  -84.125; -660.000; -671.000
224.298;  -55.675; -531.000; -489.000
224.442;   -8.600;  -74.000;  -33.000
224.586;  -14.675; -169.000; -106.000
224.730; -108.900; -858.000; -670.000
224.875; -118.900; -739.000; -688.000
225.019;   24.900;  102.000;  188.000
225.163;   59.100;  208.000;  341.000
225.307;   14.900;   97.000;  -91.000
225.451;   46.025;  360.000;  481.000
225.595;   40.400;  264.000;  176.000
225.739;  -19.500; -170.000;  -94.000
225.884;   -0.275;   86.000;    5.000
226.028; -111.400; -760.000; -626.000
226.172;  -34.275; -260.000; -273.000
226.316; -123.300; -941.000; -902.000
226.460;  -70.550; -645.000; -493.000
226.604;  -65.600; -406.000; -400.000
226.748; -118.200; -836.000; -733.000
226.892;  -24.075; -227.000; -181.000
227.036;  -45.025; -537.000; -447.000
227.180;  -59.600; -551.000; -375.000
227.324;  -55.875; -561.000; -580.000
227.468; -103.200; -819.000; -717.000
227.612;   10.825;  242.000;  -28.000
227.756;  -92.950; -845.000; -698.000
227.900;   54.050;  342.000;  441.000
228.044;  -57.550; -509.000; -290.000
228.188;   54.900;  448.000;  568.000
228.332;  -90.900; -546.000; -472.000
228.476;  -38.475; -223.000; -149.000
228.620;  -31.175; -210.000; -150.000
228.764;   57.925;  431.000;  349.000
228.908;  -17.250; -155.000;   30.000
229.052;  -61.475; -615.000; -528.000
229.195;  -17.600; -172.000;   13.000
229.339;  -25.000; -235.000; -305.000
229.483;  -25.675;    5.000; -162.000
229.627;    8.725; -156.000;  139.000
229.771;  -47.075; -218.000; -294.000
229.915;   13.575;  230.000;   79.000
230.059;  -96.575; -648.000; -663.000
230.202;  -43.250; -370.000; -317.000
230.346;  -12.900; -107.000;  107.000
230.490;  -60.525; -489.000; -521.000
230.634; -109.625; -736.000; -553.000
230.777;   77.450;  478.000;  509.000
230.921;  -65.625; -450.000; -359.000
231.065;  -33.525; -246.000; -286.000
231.209;   19.325;  261.000;  265.000
231.352;   13.325;   54.000;   40.000
231.496;   21.200;  568.000;  188.000
231.640;  -81.350; -693.000; -621.000
231.783;   73.175;  546.000;  525.000
231.927;  -40.700; -294.000; -365.000
232.071; -130.025; -962.000; -736.000
232.214; -100.125; -980.000; -764.000
232.358; -110.325; -683.000; -599.000
232.502;    4.775;  -19.000;    7.000
232.645; -131.950;-1090.000; -927.000
232.789;  -36.700; -257.000; -218.000
232.933;  -39.875; -407.000; -224.000
233.076; -131.025;-1038.000; -897.000
233.220; -116.300; -752.000; -777.000
233.363;  -85.100; -669.000; -477.000
233.507;   64.525;  371.000;  129.000
233.650;  -97.725; -764.000; -834.000
233.794;   53.725;  438.000;  461.000
233.938;  -60.025; -530.000; -362.000
234.081;  -22.950;  -93.000;   31.000
234.225;  -61.025; -631.000; -539.000
234.368; -109.925; -773.000; -723.000
234.512;  -29.425; -385.000; -299.000
234.655;  -76.525; -582.000; -555.000
234.798;  -65.400; -493.000; -466.000
234.942; -134.650; -884.000;-1002.000
235.085;  -90.075; -651.000; -443.000
235.229;  -75.575; -405.000; -410.000
235.372;  -46.975; -247.000; -191.000
235.516;  -57.925; -397.000; -321.000
235.659;   22.975;   92.000;  121.000
235.802;   -6.125;  -38.000;  -22.000
235.946;   36.850;  335.000;  215.000
236.089;   33.700;  126.000;  250.000
236.233;   52.650;  275.000;  298.000
236.376;  -49.900; -235.000; -378.000
236.519;  -49.250; -297.000; -319.000
236.663;  -24.900; -215.000; -117.000
236.806; -137.000;-1029.000; -999.000
236.949;   48.675;  543.000;  431.000
237.092;   52.875;  412.000;  391.000
237.236;  -87.825; -589.000; -502.000
237.379;   72.025;  352.000;  428.000
237.522; -122.550; -879.000; -768.000
237.666;   -9.000; -271.000;   18.000
237.809; -115.750; -851.000; -823.000
237.952;   33.700;  469.000;  271.000
238.095;  -55.075; -447.000; -442.000
238.238;   84.075;  688.000;  700.000
238.382;    9.025;  166.000;  103.000
238.525;  -59.900; -598.000; -511.000
238.668; -130.400;-1060.000; -985.000
238.811;  -80.125; -638.000; -643.000
238.954;  -49.250; -483.000; -334.000
239.097;  106.950;  617.000;  664.000
239.241;   28.075;  394.000;  326.000
239.384;  -32.250; -254.000; -214.000
239.527;  -64.550; -424.000; -224.000
239.670; -145.725; -994.000;-1091.000
239.813; -117.300; -696.000; -658.000
239.956;   91.425;  579.000;  473.000
240.099; -102.475; -778.000; -725.000
240.242;   85.000;  428.000;  432.000
240.385;   33.425;  466.000;  450.000
240.528;  -69.825; -706.000; -473.000
240.671;   17.575;  189.000;  134.000
240.814;  -44.400; -441.000; -158.000
240.957; -101.675; -767.000; -578.000
241.100; -110.225; -779.000; -755.000
241.243; -151.925;-1234.000; -893.000
241.386;  -64.900; -508.000; -379.000
241.529;  -89.275; -735.000; -547.000
241.672;  -60.200; -566.000; -495.000
241.815; -121.825; -832.000; -808.000
241.958;  -17.125; -125.000; -182.000
242.101;  -86.300; -545.000; -390.000
242.244;  -43.775; -270.000; -325.000
242.387;  -51.050; -304.000; -246.000
242.530;   63.425;  470.000;  134.000
242.673;  -49.700; -381.000; -309.000
242.815; -117.825; -925.000; -899.000
242.958;  -68.200; -482.000; -381.000
243.101;   15.950;  132.000;  187.000
243.244;  -85.300; -564.000; -521.000
243.387;  -57.725; -313.000; -316.000
243.530; -103.800; -657.000; -674.000
243.672;   14.025;   43.000;  -92.000
243.815;  -59.675; -355.000; -283.000
243.958;    1.650;   98.000;  -26.000
244.101;   -4.200;   59.000;  -16.000
244.243;   -7.025;  -47.000;  101.000
244.386; -113.675; -761.000; -630.000
244.529;  -12.550; -132.000; -139.000
244.672; -156.100;-1154.000; -951.000
244.814; -106.950; -621.000; -794.000
244.957;  -54.075; -380.000; -304.000
245.100;  -77.975; -489.000; -489.000
245.242;  -57.550; -387.000; -374.000
245.385;   -0.375;  -59.000;  -39.000
245.528; -123.675; -871.000; -705.000
245.670;   86.850;  612.000;  634.000
245.813;  -86.425; -599.000; -547.000
245.956;  -23.800; -324.000; -275.000
246.098;  -63.175; -508.000; -650.000
246.241;    0.975;  194.000;   48.000
246.383;  -14.775; -119.000;  -73.000
246.526;  -82.550; -454.000; -525.000
246.669; -124.000; -889.000; -780.000
246.811;   26.650;  172.000;   -1.000
246.954;  -69.950; -512.000; -426.000
247.096;  -17.325;  -84.000;   -6.000
247.239;  -73.875; -482.000; -445.000
247.381;  -68.775; -647.000; -488.000
247.524;  101.925;  645.000;  679.000
247.666;   -0.125;   58.000;   11.000
247.809; -115.975; -887.000; -691.000
247.951;  -22.600;  -75.000;  138.000
248.094;   21.525;  432.000;  308.000
248.236; -169.450;-1262.000;-1238.000
248.378;    4.300; -356.000;  -81.000
248.521;  -14.375; -334.000; -337.000
248.663;  -44.750; -236.000; -267.000
248.806;  -14.775; -300.000; -266.000
248.948;  -97.800; -886.000; -763.000
249.090;  -40.250; -428.000; -398.000
249.233;  -44.775; -344.000; -381.000
249.375;  -69.575; -474.000; -451.000
249.518;  -25.075;  -83.000; -133.000
249.660;   -3.000; -103.000;    3.000
249.802; -167.525;-1303.000;-1189.000
249.945;  -76.100; -612.000; -540.000
250.087; -107.350; -834.000; -768.000
250.229;  -55.450; -362.000; -480.000
250.371;  -77.875; -494.000; -439.000
250.514;  -56.200; -310.000; -244.000
250.656;  -14.400;   69.000;  102.000
250.798; -123.725; -849.000; -800.000
250.940;  -72.150; -322.000; -322.000
251.083;  -37.700; -335.000; -111.000
251.225;   69.650;  338.000;  310.000
251.367;  -33.600; -274.000; -373.000
251.509;  -39.750; -265.000; -210.000
251.651;  -98.475; -731.000; -671.000
251.794;   68.550;  538.000;  632.000
251.936; -108.000; -821.000; -747.000
252.078;  -77.575; -540.000; -461.000
252.220;  -81.825; -645.000; -477.000
252.362;   90.650;  344.000;  462.000
252.504;  -77.150; -677.000; -584.000
252.646; -111.725; -875.000; -722.000
252.788;    3.300;   14.000; -128.000
252.931;  -31.300; -257.000; -253.000
253.073;  -31.850; -376.000; -317.000
253.215;   -7.200;  141.000;  122.000
253.357;  -27.800;   82.000; -153.000
253.499;  -53.575; -374.000; -234.000
253.641;  -79.575; -749.000; -594.000
253.783;  -80.800; -609.000; -527.000
253.925;  -94.975; -586.000; -591.000
254.067;  -94.800; -744.000; -667.000
254.209;  -25.525; -391.000; -259.000
254.351; -135.225; -865.000; -883.000
254.493;  -54.525; -441.000; -417.000
254.635; -133.300; -936.000; -818.000
254.777;  -87.450; -752.000; -687.000
254.918;  -75.850; -512.000; -430.000
255.060;  -64.625; -551.000; -395.000
255.202;  -61.550; -473.000; -261.000
255.344;  -81.850; -658.000; -455.000
255.486;  -81.350; -471.000; -406.000
255.628; -112.650; -780.000; -781.000
255.770;  -84.800; -676.000; -536.000
255.912;  -62.675; -559.000; -468.000
256.053;  -89.450; -730.000; -508.000
256.195;  170.250; 1008.000;  903.000
256.337; -106.550; -861.000; -595.000
256.479;   65.175;  532.000;  416.000
256.621;  -38.575; -394.000; -212.000
256.762; -104.800; -789.000; -742.000
256.904;   61.750;  485.000;  487.000
257.046;  -31.175; -381.000; -271.000
257.188;  -50.725; -351.000; -264.000
257.329;  -67.350; -525.000; -464.000
257.471; -118.700; -939.000; -807.000
257.613;  -66.600; -584.000; -498.000
257.755; -150.825;-1073.000; -982.000
257.896;   46.200;  286.000;  392.000
258.038;  -76.425; -403.000; -352.000
258.180;  -50.550; -354.000; -279.000
258.321;  -90.050; -581.000; -457.000
258.463;   -6.375;  -71.000;  133.000
258.605;  -95.775; -562.000; -570.000
258.746; -101.175; -886.000; -772.000
258.888; -153.200;-1026.000;-1020.000
259.029;   22.700;  121.000;   -8.000
259.171;  -84.500; -614.000; -550.000
259.313;   -5.075;  -49.000;  -47.000
259.454;  -81.575; -536.000; -414.000
259.596;  -56.600; -483.000; -390.000
259.737;  -80.975; -590.000; -474.000
259.879;   26.675;  217.000;  311.000
260.020;   81.475;  901.000;  636.000
260.162;  -18.475; -146.000; -253.000
260.303; -120.025; -768.000; -687.000
260.445;  -85.525; -609.000; -613.000
260.586;   24.375;  392.000;  157.000
260.728;  -41.750; -360.000; -248.000
260.869; -102.425; -350.000; -343.000
261.011;   89.825;  706.000;  537.000
261.152;  -71.275; -479.000; -319.000
261.293;  -86.000; -576.000; -595.000
261.435;  -30.300; -219.000; -184.000
261.576;  -44.025; -455.000; -325.000
261.718;   45.075;  420.000;  470.000
261.859; -124.400; -940.000; -949.000
262.000; -147.025; -951.000;-1016.000
262.142;  -31.750;  -52.000;  -60.000
262.283; -109.775; -808.000; -691.000
262.424;  -72.500; -666.000; -625.000
262.566; -153.825;-1161.000; -983.000
262.707; -117.625; -840.000; -830.000
262.848; -116.800; -769.000; -726.000
262.990;  -47.625; -362.000; -345.000
263.131;   82.625;  650.000;  681.000
263.272;   -1.575;  -61.000;  -41.000
263.413;  -94.100; -589.000; -561.000
263.555;  -69.525; -669.000; -143.000
263.696;  -74.150; -550.000; -641.000
263.837;  -49.750; -449.000; -551.000
263.978;   -0.250;   -5.000;  -77.000
264.119;  -45.525; -283.000; -264.000
264.261; -114.825; -847.000; -630.000
264.402;    2.250;   33.000;   40.000
264.543;  -77.025; -509.000; -524.000
264.684;   -1.225;   61.000;  -50.000
264.825;  -80.875; -816.000; -538.000
264.966;   -4.675;  -84.000;  -67.000
265.107; -111.500; -646.000; -670.000
265.248; -122.950; -825.000; -812.000
265.390;   -0.825;  152.000;   -9.000
265.531;  -19.950; -238.000; -107.000
265.672;  -95.975; -557.000; -630.000
265.813;   55.775;  563.000;  439.000
265.954; -140.650; -959.000; -940.000
266.095;  -24.075; -372.000; -322.000
266.236;  -95.200; -686.000; -548.000
266.377;  -43.150; -243.000; -297.000
266.518;  -73.175; -619.000; -547.000
266.659;   17.925;  170.000;  268.000
266.800;   13.775;   83.000;   85.000
266.941;  -78.375; -487.000; -478.000
267.082;   21.375;  354.000;   99.000
267.223;  -46.650; -344.000; -273.000
267.364; -110.675; -892.000; -686.000
267.504;  -15.425;    3.000;  135.000
267.645;   -8.350;  160.000;   67.000
267.786;  -36.075; -147.000;  -86.000
267.927;  -66.325; -473.000; -379.000
268.068;  -16.475; -186.000;  -61.000
268.209;  -55.375; -175.000; -413.000
268.350;  -77.500; -388.000; -532.000
268.490;  -82.050; -648.000; -521.000
268.631;   36.975;  127.000;  225.000
268.772; -124.625; -874.000; -647.000
268.913;  -45.425; -328.000; -476.000
269.054;   -6.850; -117.000;   12.000
269.194;  -47.375; -418.000; -402.000
269.335; -151.875;-1137.000;-1074.000
269.476;    0.125;   33.000;  -35.000
269.617;  -49.400; -347.000; -392.000
269.757;  -94.100; -713.000; -646.000
269.898; -104.075; -856.000; -613.000
270.039;  -56.525; -415.000; -405.000
270.180; -140.900; -952.000; -816.000
270.320;   -8.700; -190.000; -250.000
270.461;  -32.200; -277.000; -249.000
270.602;  -22.875; -186.000; -156.000
270.742; -118.800; -868.000; -943.000
270.883;  -42.275; -442.000; -390.000
271.023;  -45.550; -358.000; -357.000
271.164;  -68.300; -607.000; -528.000
271.305;  -95.100; -666.000; -654.000
271.445;  -88.150; -722.000; -683.000
271.586;  -75.675; -462.000; -283.000
271.726;  -41.925; -397.000; -322.000
271.867;  -51.875; -594.000; -534.000
272.008;  202.200; -473.000; -285.000
272.148;  137.875;  462.000;  468.000
272.289;   21.025; -113.000; -181.000
272.429;   35.900;   19.000;  185.000
272.570;  -81.450; -633.000; -737.000
272.710; -105.425; -825.000; -775.000
272.851;  -25.100;  113.000; -130.000
272.991; -164.400;-1173.000;-1077.000
273.131;  -66.650; -419.000; -459.000
273.272;  -89.600; -683.000; -723.000
273.412;   23.200; -143.000;  -31.000
273.553;  -50.725; -488.000; -507.000
273.693;  148.600;  913.000;  858.000
273.834;  -78.250; -894.000; -692.000
273.974;  -53.550; -664.000; -615.000
274.114; -101.425; -772.000; -560.000
274.255;   87.475;  414.000;  373.000
274.395;   17.675; -180.000; -125.000
274.535;   57.975;  199.000;  350.000
274.676;   24.175;  225.000;   94.000
274.816;   16.700;  110.000;   34.000
274.956;  -80.275; -624.000; -690.000
275.097;  -47.700;-1014.000; -922.000
275.237; -109.800; -913.000; -803.000
275.377;  -96.875; -778.000; -689.000
275.517; -139.750; -878.000; -937.000
275.658;  -67.550; -590.000; -555.000
275.798;  -72.100; -606.000; -413.000
275.938;   15.825;  215.000;  323.000
276.078;  -86.350; -626.000; -395.000
276.218;   15.600;   99.000;  104.000
276.359; -133.950;-1026.000;-1024.000
276.499;  -81.575; -605.000; -446.000
276.639;  -33.875; -305.000; -151.000
276.779;  -39.175; -475.000; -357.000
276.919; -106.500; -783.000; -624.000
277.059;  -29.850; -261.000; -212.000
277.199;  -38.325; -357.000; -259.000
277.340;   59.150;  287.000;  175.000
277.480;  -96.175; -840.000; -693.000
277.620;   23.125;  192.000;   16.000
277.760; -193.650;-1533.000;-1294.000
277.900;   35.050;  113.000;   33.000
278.040;   36.100;  137.000;  159.000
278.180;   57.550;  270.000;  170.000
278.320;   -0.850;   21.000;   56.000
278.460;  -70.125; -443.000; -469.000
278.600;  -88.200; -708.000; -598.000
278.740;   61.525;  448.000;  224.000
278.880;  -37.125; -768.000; -791.000
279.020;    6.250; -194.000; -144.000
279.160;  -78.550; -672.000; -595.000
279.300; -106.825; -926.000; -873.000
279.440;  -86.925; -709.000; -622.000
279.579;   -5.550;-1014.000; -929.000
279.719;  -45.225; -410.000; -394.000
279.859;   81.050;   -4.000;   41.000
279.999;   42.125; -208.000;  101.000
280.139;  -12.550; -435.000; -387.000
280.279;  -65.700; -708.000; -745.000
280.419;    0.175; -229.000; -147.000
280.559;  -35.775; -259.000; -180.000
280.698;  -84.525; -790.000; -639.000
280.838;  -86.950; -778.000; -800.000
280.978;  -94.700; -846.000; -790.000
281.118; -106.975; -811.000; -704.000
281.257;    0.775;   24.000;    6.000
281.397;  -98.750;-1094.000; -960.000
281.537;  -87.250; -599.000; -712.000
281.677;  -27.950; -150.000; -101.000
281.816;  -86.250; -700.000; -630.000
281.956;  -33.800; -193.000; -257.000
282.096;  -50.375; -539.000; -396.000
282.235; -100.625; -672.000; -638.000
282.375;   -8.275; -243.000;  -98.000
282.515;  -94.125; -715.000; -707.000
282.654;   29.175;   29.000;  106.000
282.794;   41.450;  388.000;  244.000
282.934;  -40.200; -530.000; -491.000
283.073; -116.975;-1030.000; -857.000
283.213;  -46.950; -460.000; -467.000
283.353;  -31.300; -408.000; -349.000
283.492;  -29.375; -264.000; -296.000
283.632;  -53.925; -254.000; -168.000
283.771;  -92.550; -859.000; -730.000
283.911;  -48.775; -369.000; -260.000
284.050; -105.800; -794.000; -748.000
284.190; -160.350;-1229.000;-1096.000
284.329; -131.650;-1055.000; -964.000
284.469;  -44.750; -516.000; -591.000
284.608;  -55.250; -559.000; -598.000
284.748;  -76.475; -614.000; -570.000
284.887;   -2.825;  -87.000;  -20.000
285.027; -116.650; -844.000; -892.000
285.166;  -20.650; -192.000; -249.000
285.306;   17.775; -116.000;  -33.000
285.445;  -37.300; -229.000; -343.000
285.584;  -85.550; -630.000; -494.000
285.724;  -40.675; -282.000; -322.000
285.863; -105.625; -857.000; -507.000
286.002;  -46.700; -366.000; -276.000
286.142; -107.350; -715.000; -622.000
286.281;  -77.525; -525.000; -493.000
286.420;  -68.900; -554.000; -417.000
286.560;  100.025;  653.000;  623.000
286.699; -133.675; -958.000; -912.000
286.838;  -75.825; -590.000; -591.000
286.978;  -80.400; -533.000; -537.000
287.117; -137.200;-1085.000; -950.000
287.256;  -29.850; -228.000; -211.000
287.395;  -46.250; -197.000; -378.000
287.535;  -35.000; -370.000; -298.000
287.674;  -88.275; -509.000; -484.000
287.813;   73.375;  661.000;  533.000
287.952; -132.050;-1010.000; -871.000
288.091; -160.200;-1049.000; -915.000
288.231;   23.100;   13.000;   15.000
288.370; -168.750;-1217.000;-1200.000
288.509;  -86.425; -728.000; -645.000
288.648;  -79.600; -770.000; -548.000
288.787;  -39.275; -243.000;  -87.000
288.926;  -53.825; -454.000; -475.000
289.065;  122.225;  859.000;  672.000
289.204;  -59.175; -377.000; -217.000
289.344;  -76.925; -791.000; -690.000
289.483;   32.650;  416.000;  304.000
289.622;  -17.650; -291.000; -149.000
289.761;   -7.650; -309.000; -166.000
289.900;  -96.550; -785.000; -626.000
290.039;  -13.375;  -12.000;  -95.000
290.178;  -29.850; -274.000; -180.000
290.317;  -68.925; -618.000; -479.000
290.456;  -51.175; -463.000; -451.000
290.595; -139.150; -961.000; -833.000
290.734; -130.500; -904.000; -891.000
290.873;  -59.725; -456.000; -420.000
291.011; -112.775; -833.000; -843.000
291.150;  -87.775; -770.000; -682.000
291.289;   -6.100; -343.000; -110.000
291.428;  -96.700; -599.000; -480.000
291.567;  -47.000; -370.000; -442.000
291.706;   -2.500;  109.000;  154.000
291.845;  -87.750; -597.000; -505.000
291.984; -169.250;-1234.000;-1061.000
292.122;   74.300;  602.000;  582.000
292.261;   38.950;  620.000;  463.000
292.400;   16.725; -144.000;  211.000
292.539; -112.525; -959.000; -813.000
292.678;  -27.350; -325.000; -300.000
292.816; -159.625;-1136.000; -965.000
292.955;  -72.425; -844.000; -684.000
293.094;  -21.175; -173.000; -337.000
293.233;  -60.075; -556.000; -400.000
293.371;  -34.025; -225.000;  -84.000
293.510; -106.025; -866.000; -780.000
293.649; -130.150; -959.000; -924.000
293.787;  -49.850;-1083.000;-1012.000
293.926;    7.200; -113.000;  -32.000
294.065;  -43.250; -379.000; -290.000
294.203;   65.075;  298.000;  406.000
294.342;   28.000;   74.000;  156.000
294.481; 5825.775;51180.000; -836.000
294.619;  -32.550; -425.000; -582.000
294.758; -129.450;-1230.000;-1137.000
294.896;   91.725; -125.000;    5.000
295.035; -122.750;-1040.000;-1006.000
295.174; -109.475;-1082.000; -954.000
295.312;  -32.450; -323.000; -203.000
295.451;   18.450; -307.000; -428.000
295.589;  -32.225; -389.000; -518.000
295.728;   26.925; -292.000; -165.000
295.866;   13.200;  -36.000;  -51.000
296.005;  -51.625; -584.000; -341.000
296.143;  -62.025; -558.000; -596.000
296.282;  -98.325; -957.000; -881.000
296.420;  -73.650; -657.000; -557.000
296.559;  -75.725; -892.000; -633.000
296.697;   57.525; -847.000; -665.000
296.835;  115.950;-1141.000;-1002.000
296.974;   70.925;  -23.000;   39.000
297.112;   43.025; -443.000; -504.000
297.251;  -69.175; -815.000; -755.000
297.389;  136.675; -576.000; -438.000
297.527;   56.325; -145.000;  -83.000
297.666;  -27.850; -486.000; -438.000
297.804;  -54.000; -404.000; -264.000
297.942;   -2.425; -136.000; -161.000
298.081;    3.300; -183.000;   63.000
298.219;  103.350;  -17.000;  -19.000
298.357;   74.125; -144.000;  -71.000
298.495;   63.425; -810.000; -812.000
298.634;  102.700;  245.000;  219.000
298.772;  104.600; -220.000; -338.000
298.910;  -22.450; -309.000; -182.000
299.048;  -10.125; -130.000; -153.000
299.187;  -22.650; -350.000; -250.000
299.325;   33.900;   52.000;  122.000
299.463;   96.375; -389.000; -299.000
299.601;  163.325; -327.000; -271.000
299.739;  -86.300; -908.000; -883.000
299.877;  -79.925; -791.000; -703.000
300.016;  -24.450;-1095.000; -935.000
300.154;  209.275;  -19.000; -161.000
300.292;   96.925; -428.000; -348.000
300.430;   78.175; -408.000; -291.000
300.568;  -99.350; -940.000; -874.000
300.706;  -38.950; -366.000; -469.000
300.844;  -52.325;-1108.000; -979.000
300.982;  126.475;  246.000;  282.000
301.120;  -92.900; -965.000; -866.000
301.258;  -60.925; -812.000; -705.000
301.396;   56.850;  104.000;  -41.000
301.534;  129.350; -218.000; -293.000
301.672;   35.650; -664.000; -521.000
301.810;   72.800; -613.000; -545.000
301.948;  152.725;   53.000;  149.000
302.086;  765.300; -250.000;  -32.000
302.224; 1195.100; -610.000; -585.000
302.362;   84.875; -558.000; -622.000
302.500;   18.700; -923.000; -893.000
302.638;  124.950;  128.000;  245.000
302.776;   14.950; -352.000; -408.000
302.913;   52.775;  447.000;  236.000
303.051;    5.625;  -86.000;  -23.000
303.189;   69.200;   90.000;  118.000
303.327;  -23.550; -341.000; -256.000
303.465;  -67.650; -832.000; -588.000
303.603;  -88.825; -805.000; -604.000
303.740;  130.150;  417.000;  241.000
303.878;   56.850; -800.000; -759.000
304.016;  -92.200; -915.000; -790.000
304.154; -117.050;-1123.000;-1152.000
304.291;  -26.575; -505.000; -554.000
304.429;   14.125;  102.000;   74.000
304.567; -125.125; -908.000; -893.000
304.705;  -44.975; -408.000; -515.000
304.842;  146.475; -616.000; -540.000
304.980;   94.425;  215.000;   35.000
305.118;   80.775; -367.000; -365.000
305.255;  -40.400; -945.000; -927.000
305.393;   61.325;  178.000;  239.000
305.531;  -83.450;-1173.000; -956.000
305.668;  -66.325; -663.000; -582.000
305.806;  116.075; -358.000; -439.000
305.943;  146.250; -629.000; -637.000
306.081;   71.125; -378.000; -267.000
306.219;  -93.925; -863.000; -748.000
306.356;   -4.325;  158.000;   27.000
306.494;  116.300;  981.000;  761.000
306.631;   -3.375;  -11.000;  -55.000
306.769;   12.125; -613.000; -485.000
306.906;   -5.950; -284.000; -258.000
307.044;  -46.950; -473.000; -488.000
307.181;  -54.600; -410.000; -332.000
307.319;   12.500;  112.000;   87.000
307.456; -157.625;-1191.000;-1153.000
307.594;  -93.600; -980.000; -727.000
307.731;    4.150; -371.000; -164.000
307.868;    3.275;  -15.000;   20.000
308.006; -128.600; -961.000; -847.000
308.143;  -70.625; -618.000; -330.000
308.281;  152.925;  -37.000; -254.000
308.418;   -1.925; -748.000; -640.000
308.555;  -76.025; -400.000; -250.000
308.693;  -75.600; -577.000; -573.000
308.830; -104.850; -712.000; -657.000
308.967;   -4.825; -215.000;  -95.000
309.105;  -49.500; -507.000; -396.000
309.242;   31.675; -468.000; -367.000
309.379;  302.825; -577.000; -655.000
309.517;  -59.100; -936.000; -948.000
309.654; -110.550; -910.000; -734.000
309.791;  -79.375; -662.000; -580.000
309.928;  -94.700; -977.000; -914.000
310.065;  196.700;  819.000;  697.000
310.203;   22.675; -825.000; -850.000
310.340;   29.175; -465.000; -321.000
310.477;  -71.775; -412.000; -516.000
310.614;  -55.475; -383.000; -473.000
310.751;  -58.850; -427.000; -518.000
310.889;  -23.475;    1.000;   11.000
311.026; -146.600;-1161.000; -939.000
311.163;  -35.050; -386.000; -380.000
311.300;  -71.800; -512.000; -479.000
311.437;  -66.100; -658.000; -619.000
311.574; -149.100;-1226.000; -985.000
311.711;  -58.250; -595.000; -433.000
311.848;  -42.225; -380.000; -388.000
311.985;   13.175;  270.000;   93.000
312.122; -100.000; -932.000; -762.000
312.259; -116.950; -941.000; -994.000
312.396;  -75.200; -508.000; -551.000
312.533;  -84.325; -812.000; -790.000
312.670; -116.725;-1070.000; -898.000
312.807;  -31.475; -352.000; -367.000
312.944;  -70.450; -513.000; -611.000
313.081;  -40.075; -150.000; -415.000
313.218;  -88.700;-1111.000; -867.000
313.355;   12.850; -531.000; -449.000
313.492;   27.125; -455.000; -292.000
313.629;  148.825;  815.000;  735.000
313.766; -154.575;-1176.000;-1008.000
313.902;    0.375; -186.000;   21.000
314.039;  -33.625; -372.000; -289.000
314.176;   42.525;  286.000;  192.000
314.313;  -77.775; -569.000; -473.000
314.450;  -78.325; -788.000; -684.000
314.587;  -46.250; -468.000; -480.000
314.723;   24.875;  -78.000;  130.000
314.860;   47.475;  318.000;  332.000
314.997;   31.750;  223.000;  142.000
315.134;  -20.800; -385.000; -368.000
315.270;  -25.850; -480.000; -496.000
315.407; -108.275;-1094.000; -967.000
315.544;  -33.300; -657.000; -538.000
315.681;  -61.325; -681.000; -565.000
315.817;   39.850; -133.000; -176.000
315.954;   40.325; -613.000; -392.000
316.091; -124.425;-1045.000;-1023.000
316.227;  -27.725;  -71.000; -179.000
316.364;    8.475;   23.000;    6.000
316.500;  -34.750; -113.000; -300.000
316.637;  -47.300; -181.000; -302.000
316.774;  -95.675; -625.000; -358.000
316.910;  -88.925; -598.000; -629.000
317.047;  -67.100; -487.000; -351.000
317.183;  -38.925; -435.000; -566.000
317.320;  -22.250; -367.000; -321.000
317.456;  -75.825; -733.000; -805.000
317.593; -105.725; -598.000; -641.000
317.729;    6.075;  168.000;  -67.000
317.866; -189.850;-1434.000;-1285.000
318.002;  -85.175; -708.000; -948.000
318.139;  -77.925; -883.000; -867.000
318.275;  -97.300;-1003.000; -738.000
318.412;  -60.275; -517.000; -336.000
318.548;   -8.225; -751.000; -720.000
318.685;  -92.875; -985.000; -888.000
318.821; -100.150; -762.000; -735.000
318.957;   -5.775;   34.000;  -23.000
319.094;   54.725;  297.000;  154.000
319.230;  -37.225; -756.000; -742.000
319.367;  169.325; -471.000; -520.000
319.503;   81.725; -538.000; -436.000
319.639;  -72.100; -877.000; -793.000
319.775;  -47.700; -750.000; -685.000
319.912;  -53.300; -424.000; -519.000
320.048;  -76.650;-1184.000;-1184.000
320.184;   84.475;   59.000;   70.000
320.321;  -61.925; -497.000; -467.000
320.457;   59.650;  475.000;  662.000
320.593;  -53.500; -375.000; -382.000
320.729; -108.650; -732.000; -734.000
320.866;  -70.375; -577.000; -635.000
321.002;  -72.625; -759.000; -809.000
321.138;  -21.050; -135.000; -211.000
321.274;   87.825; -148.000; -115.000
321.410;   -5.400; -585.000; -353.000
321.546;  -12.025;-1011.000; -911.000
321.683;   62.975;  400.000;  185.000
321.819;   25.200;  -48.000; -117.000
321.955; -123.550; -743.000; -722.000
322.091;  -32.375; -585.000; -540.000
322.227;   -6.075; -382.000; -202.000
322.363;  -21.775; -320.000; -215.000
322.499;  -37.750; -343.000; -331.000
322.635;  180.000;  636.000;  443.000
322.771;   41.775; -139.000;   12.000
322.907;   90.500;  129.000;  327.000
323.043;   -4.750; -115.000; -206.000
323.179;  -35.850; -394.000; -363.000
323.315;   72.025; -401.000; -371.000
323.451;  142.875; -328.000; -236.000
323.587;   82.175;  -60.000;  -77.000
323.723;   49.700; -682.000; -601.000
323.859;   -2.675; -258.000;  -76.000
323.995;  -32.750; -467.000; -409.000
324.131; -120.600; -967.000; -892.000
324.267;  -27.425; -254.000; -276.000
324.402; -121.325; -960.000; -983.000
324.538;    7.200; -279.000; -104.000
324.674;   37.350;  164.000;   77.000
324.810;  163.475;  226.000;  308.000
324.946;   31.075; -810.000; -658.000
325.082;  -60.425; -568.000; -475.000
325.217;    1.175;  -62.000;   16.000
325.353; -108.100; -764.000; -659.000
325.489;  -85.325; -540.000; -506.000
325.625;  -53.600; -579.000; -525.000
325.760;   68.700;  517.000;  376.000
325.896;  -32.225; -515.000; -702.000
326.032;  -54.050; -403.000; -352.000
326.168;  -59.750; -462.000; -369.000
326.303;  -53.125; -352.000; -461.000
326.439;   -8.800; -336.000; -276.000
326.575;    9.125; -190.000;  -29.000
326.710;    2.250; -156.000;  -30.000
326.846;    1.600;  146.000;  103.000
326.982;  -87.600; -530.000; -548.000
327.117;  -69.050; -481.000; -442.000
327.253;  -94.075; -745.000; -742.000
327.388; -114.325;-1137.000;-1153.000
327.524;  -27.875; -811.000; -578.000
327.659;  -17.425;  -58.000;  -22.000
327.795;   -4.375;   69.000;   45.000
327.931;  -96.175; -723.000; -499.000
328.066;  -12.850; -417.000; -276.000
328.202;   -1.950;   12.000; -129.000
328.337;  104.800;  957.000;  713.000
328.473;   52.900;  -12.000;  -74.000
328.608;  -21.550; -256.000; -267.000
328.743;  -80.200; -799.000; -664.000
328.879;   26.775;  214.000;  114.000
329.014;  -25.600; -102.000; -122.000
329.150;  -83.225; -358.000; -483.000
329.285;  -68.200; -465.000; -466.000
329.421;  -48.525; -548.000; -246.000
329.556;  -19.775;  -36.000;   85.000
329.691;  -96.900; -633.000; -615.000
329.827;  -79.150; -626.000; -480.000
329.962;  -32.100;  131.000; -301.000
330.097;  -80.750; -673.000; -585.000
330.233;  -31.750; -410.000; -223.000
330.368; -116.075; -839.000; -628.000
330.503;  -12.750;    3.000;   98.000
330.638;   14.850;  -93.000; -125.000
330.774;  -32.925; -609.000; -530.000
330.909;  -43.300; -434.000; -244.000
331.044;  -79.800; -714.000; -708.000
331.179; -168.825;-1217.000;-1109.000
331.315;   19.600;   77.000;   20.000
331.450;   20.600;  157.000;  285.000
331.585;  -73.475; -805.000; -706.000
331.720;  -81.850; -510.000; -460.000
331.855;    7.350;  -35.000; -102.000
331.990;  208.750;   62.000;  138.000
332.126;  117.700; -110.000;   71.000
332.261;  -10.525; -379.000; -265.000
332.396;   -2.350; -135.000; -242.000
332.531; -117.000;-1074.000;-1031.000
332.666;   19.775; -519.000; -363.000
332.801; -108.475; -726.000; -807.000
332.936;   -6.450; -192.000; -122.000
333.071; -145.750; -870.000; -817.000
333.206;   31.475;  307.000;  379.000
333.341;   31.925;  344.000;  418.000
333.476;  -78.925; -627.000; -623.000
333.611;  -20.250; -251.000; -173.000
333.746;  -42.275; -381.000; -464.000
333.881; -102.100; -973.000; -935.000
334.016; -106.275; -936.000; -917.000
334.151; -109.500; -746.000; -702.000
334.286;   48.525;  152.000;  186.000
334.421;   -9.200; -125.000; -178.000
334.556;  -68.625; -611.000; -567.000
334.690;  -75.400; -631.000; -577.000
334.825;   68.425;  381.000;   83.000
334.960;  -40.375; -285.000; -413.000
335.095;   23.725;  135.000;  -91.000
335.230;  -84.675; -722.000; -738.000
335.365; -107.225;-1084.000; -990.000
335.499; -105.950;-1108.000;-1037.000
335.634;   35.075;    9.000;  534.000
335.769;  -91.825; -755.000; -720.000
335.904;  -43.425; -603.000; -561.000
336.038;  -37.325; -735.000; -657.000
336.173;  -95.725;-1206.000;-1194.000
336.308;   31.775; -116.000; -189.000
336.443;   44.500; -544.000; -634.000
336.577;  -40.025; -936.000; -787.000
336.712;   97.675;   -4.000;  -12.000
336.847;   -5.075; -724.000; -607.000
336.981;  121.100; -272.000; -208.000
337.116;  361.525;  615.000;  501.000
337.250;  223.750; -434.000; -421.000
337.385;  207.025; -297.000; -208.000
337.520;   53.300; -632.000; -603.000
337.654;  -33.275; -215.000; -126.000
337.789; -121.650; -989.000; -933.000
337.923;  -29.500; -104.000; -205.000
338.058;  -70.200; -673.000; -738.000
338.192;  -17.750; -611.000; -488.000
338.327;   -6.575;  -18.000; -155.000
338.461;  -56.725; -299.000; -469.000
338.596;  -94.475; -780.000; -638.000
338.730; -106.900; -767.000; -803.000
338.865;   75.500;  -46.000; -140.000
338.999;  -66.400; -846.000; -702.000
339.134;  -31.725; -634.000; -536.000
339.268;   -1.850; -741.000; -603.000
339.403;  313.200; -740.000; -775.000
339.537;   56.850; -894.000; -820.000
339.671; -125.825; -829.000; -813.000
339.806;  -69.125; -556.000; -512.000
339.940;    7.500; -261.000; -235.000
340.074;  -96.450; -685.000; -510.000
340.209;  -32.950; -351.000; -230.000
340.343;  -85.525; -517.000; -573.000
340.477;  158.750;  998.000; 1036.000
340.612;  -71.425;-1033.000; -900.000
340.746;  105.550; -199.000; -243.000
340.880;  -58.250; -924.000; -785.000
341.014;  -12.000;  -45.000; -154.000
341.149; -107.250; -756.000; -718.000
341.283; -101.800; -839.000; -754.000
341.417;  -79.825;-1124.000; -938.000
341.551;  223.500; -768.000; -708.000
341.685;  -11.175; -633.000; -611.000
341.820;  -49.450; -562.000; -493.000
341.954;  -43.425; -218.000; -349.000
342.088; -143.200;-1102.000;-1019.000
342.222;   62.750;  565.000;  618.000
342.356;  -51.475; -395.000; -335.000
342.490;  -64.375; -880.000; -841.000
342.624;  -28.300; -339.000; -242.000
342.758;   26.575; -364.000; -312.000
342.892;  -52.025; -710.000; -585.000
343.026;  -37.975;  -58.000; -116.000
343.160;  -62.850; -426.000; -376.000
343.294;  -81.075; -474.000; -337.000
343.428;   -5.475; -488.000; -448.000
343.562;    0.825; -172.000;  -23.000
343.696;   -4.600; -385.000; -314.000
343.830;   -3.100; -362.000; -356.000
343.964;   26.000; -231.000; -168.000
344.098; 1167.350;  199.000;   70.000
344.232;  991.625; -266.000; -127.000
344.366;   99.925; -567.000; -453.000
344.500;  113.425; -665.000; -744.000
344.634;   58.025; -324.000; -164.000
344.768;    5.550; -531.000; -341.000
344.902;   33.925;  278.000;  256.000
345.035;  -70.650; -556.000; -496.000
345.169; -141.600; -933.000; -656.000
345.303;  -12.075; -308.000; -482.000
345.437;  -42.375; -826.000; -717.000
345.571;  -75.825; -675.000; -594.000
345.704;  -76.750; -309.000; -532.000
345.838;    0.775; -331.000; -284.000
345.972;   -7.575; -543.000; -495.000
346.106;  139.250; -179.000; -190.000
346.239;  450.150; -312.000; -243.000
346.373;   18.075; -343.000; -302.000
346.507; -144.675; -950.000; -962.000
346.640;  203.800;  -30.000;   13.000
346.774;  -13.775; -650.000; -797.000
346.908;   -4.450; -138.000;  -11.000
347.041;  -82.750; -646.000; -593.000
347.175;   35.500;  259.000;   27.000
347.309;  -47.025; -698.000; -628.000
347.442;  -94.100; -883.000; -732.000
347.576;  357.850;  670.000;  668.000
347.709;  279.350; -123.000;  -52.000
347.843;  -62.400; -933.000; -825.000
347.976;   62.600;  235.000;  294.000
348.110; -181.150;-1268.000;-1186.000
348.243;  -87.325; -679.000; -772.000
348.377;   15.975;  -26.000;   60.000
348.510;   67.450;  403.000;  540.000
348.644;  -35.075;  -37.000; -159.000
348.777;    7.475;  180.000;  191.000
348.911;  -37.150; -142.000; -112.000
349.044;  204.775;  471.000;  448.000
349.178;  241.025;-1069.000;-1006.000
349.311;  120.825;  141.000;  255.000
349.444;  -10.225; -927.000; -813.000
349.578;   -1.525; -347.000; -200.000
349.711;  -77.800; -959.000; -862.000
349.845;   50.850; -661.000; -591.000
349.978; -144.000;-1224.000;-1137.000
350.111;  -68.700; -546.000; -612.000
350.244;  -60.625; -596.000; -700.000
350.378;   32.225; -392.000; -393.000
350.511;  -63.200; -393.000; -426.000
350.644; -110.900; -808.000; -806.000
350.778;   19.250;  168.000;  104.000
350.911;    4.325;  134.000;  140.000
351.044;  -83.550; -685.000; -615.000
351.177;  -24.400; -321.000; -281.000
351.310;   -6.225;    3.000; -131.000
351.444;  -43.625; -888.000; -788.000
351.577;  165.000;  140.000;   90.000
351.710;  109.775;  593.000;  417.000
351.843;  -42.650; -165.000;  -77.000
351.976;   13.725;  149.000;  -79.000
352.109;  -75.450; -621.000; -612.000
352.242;   -1.300; -464.000; -419.000
352.376;  -28.800; -580.000; -636.000
352.509;  263.075; -437.000; -356.000
352.642;   63.375; -654.000; -604.000
352.775;   88.250; -141.000;  -98.000
352.908; -105.125; -933.000; -904.000
353.041;  -92.375; -814.000; -824.000
353.174;  -50.925; -551.000; -424.000
353.307;  -75.800; -753.000; -764.000
353.440;   83.850;  541.000;  453.000
353.573; -117.400; -957.000;-1008.000
353.706;  -35.975; -384.000; -558.000
353.839;  -16.900; -264.000; -220.000
353.971;  -83.600; -657.000; -512.000
354.104;  -77.875; -896.000; -835.000
354.237;  -12.050; -627.000; -662.000
354.370;  -77.650; -846.000; -879.000
354.503; -178.400;-1231.000;-1308.000
354.636;   -6.875; -529.000; -348.000
354.769; -122.425; -937.000; -860.000
354.902;    7.850; -230.000; -139.000
355.034;  -15.825; -164.000; -220.000
355.167;  -13.375; -262.000; -162.000
355.300;  -82.175;-1061.000; -880.000
355.433;  843.650;  -71.000;  -14.000
355.565; 1328.825; -402.000; -384.000
355.698;  335.925; -356.000; -296.000
355.831;   19.200; -882.000; -801.000
355.964;  110.575; -285.000; -170.000
356.096;  -69.825; -856.000; -843.000
356.229;   49.100; -523.000; -530.000
356.362;  289.375; -373.000; -266.000
356.494;  522.900; -229.000; -162.000
356.627;  588.625;  269.000;  377.000
356.760;  618.825;  120.000;   53.000
356.892;  803.750; -286.000; -601.000
357.025;  809.825;  403.000;  389.000
357.157;  779.400; -167.000; -179.000
357.290;  550.525; -856.000; -713.000
357.423;  177.925; -667.000; -556.000
357.555;  148.600; -217.000; -228.000
357.688;  172.925; -483.000; -364.000
357.820;  554.475; -870.000; -877.000
357.953; 4370.200; -563.000; -589.000
358.085; 1018.975; -632.000; -612.000
358.218; 1662.675;-1131.000; -932.000
358.350;  306.950;  -58.000;  312.000
358.483; -107.350;-1300.000;-1187.000
358.615;   35.175;-1182.000;-1078.000
358.747;   -1.550;-1187.000;-1058.000
358.880;   68.775; -810.000; -744.000
359.012;    8.550; -376.000; -202.000
359.145;  -20.575; -480.000; -511.000
359.277;  110.000; -962.000; -913.000
359.409; 3623.300;  536.000;  231.000
359.542;  954.825; -738.000; -688.000
359.674;  101.275;   46.000;   13.000
359.806;  -57.900; -565.000; -438.000
359.939;  -44.675; -617.000; -516.000
360.071;  -11.275; -583.000; -579.000
360.203;  -24.550; -411.000; -364.000
360.335;   66.250;  164.000;  -16.000
360.468;  234.375; -249.000; -307.000
360.600; 2840.850; -547.000; -454.000
360.732; 2418.325; -546.000; -423.000
360.864;  338.650;-1216.000;-1044.000
360.996;  400.475; -516.000; -554.000
361.129;   73.950; -389.000; -598.000
361.261;   41.825;  110.000; -113.000
361.393;  -28.475; -252.000; -214.000
361.525;   35.625;   94.000;  244.000
361.657;  -24.800; -821.000; -703.000
361.789;   14.750; -139.000; -155.000
361.921;  349.775; -642.000; -593.000
362.053;  342.150;  524.000;  541.000
362.185;   63.575;  288.000;   72.000
362.318;  -61.425; -709.000; -705.000
362.450;  184.600;  294.000;  444.000
362.582;  250.300; -913.000; -870.000
362.714;  -19.050; -353.000; -332.000
362.846;  -75.475; -606.000; -490.000
362.978; -144.100; -941.000; -811.000
363.109;   81.475; -161.000; -260.000
363.241;  578.675; -739.000; -749.000
363.373;  380.175; -649.000; -564.000
363.505;  547.950; -186.000;  -91.000
363.637;  125.100; -787.000; -601.000
363.769; -101.125;-1067.000;-1080.000
363.901;  -58.750; -596.000; -654.000
364.033; -102.225;-1103.000;-1062.000
364.165;    4.000; -283.000; -283.000
364.296;   64.100; -316.000; -177.000
364.428;   45.250;-1344.000;-1220.000
364.560;  -70.975; -679.000; -661.000
364.692;  -42.800; -738.000; -835.000
364.824;  412.500; -588.000; -456.000
364.955;  458.225; -402.000; -564.000
365.087;  690.625;-1097.000; -852.000
365.219;   18.025; -686.000; -816.000
365.351;  -57.200; -526.000; -572.000
365.482;   71.700;  300.000;  240.000
365.614;  -46.225; -402.000; -314.000
365.746;  -95.750; -729.000; -752.000
365.877;  -92.050; -706.000; -672.000
366.009;  224.900;  -35.000;  -62.000
366.141; -107.350;-1249.000;-1134.000
366.272; -111.250; -803.000; -719.000
366.404; -117.175;-1005.000; -874.000
366.535;   -8.450; -139.000;  -12.000
366.667;  -89.900; -644.000; -649.000
366.799;   35.975;  353.000;  203.000
366.930; -104.325; -862.000; -996.000
367.062;  133.300; -639.000; -613.000
367.193;   98.750; -872.000; -842.000
367.325;  -66.450; -580.000; -684.000
367.456;  109.125; -246.000;   31.000
367.588;  151.725; -371.000; -318.000
367.719;   32.150;  -44.000;  -45.000
367.851;    3.775; -222.000; -241.000
367.982;  -17.375; -875.000; -732.000
368.113;  148.950; -475.000; -358.000
368.245; -101.375; -960.000; -841.000
368.376;   -6.650; -254.000; -302.000
368.508;  -37.250; -188.000; -263.000
368.639; -131.475;-1166.000;-1034.000
368.770;   35.300; -670.000; -589.000
368.902;  -29.450; -836.000; -926.000
369.033;  -93.100; -906.000; -855.000
369.164;  -38.525; -720.000; -653.000
369.296; -105.375; -452.000; -601.000
369.427;   22.975; -209.000; -144.000
369.558;  -29.900; -593.000; -377.000
369.689;  -78.125; -721.000; -569.000
369.821; -123.075; -951.000; -845.000
369.952;  -13.525;   42.000; -108.000
370.083;  -42.425; -229.000; -108.000
370.214;  -78.450; -735.000; -650.000
370.345;   -7.625;   65.000;   81.000
370.477;  -71.650; -810.000; -790.000
370.608;  335.950; -328.000; -264.000
370.739;  -10.075;-1233.000;-1292.000
370.870;  -13.150;-1102.000; -923.000
371.001;  142.975; -378.000; -467.000
371.132;  -54.500; -754.000; -735.000
371.263;   -5.650;  -42.000; -148.000
371.394; -132.500; -841.000; -748.000
371.525;   34.975;  345.000;  225.000
371.657;  -87.750; -808.000; -670.000
371.788;   78.425;  103.000;  199.000
371.919;  233.375; -384.000; -304.000
372.050; 4598.600;  -91.000; -156.000
372.181; 1364.325; -188.000; -294.000
372.311;  501.550;   42.000; -127.000
372.442;   91.525; -457.000; -451.000
372.573;   13.975; -444.000; -340.000
372.704; -111.250;-1008.000; -980.000
372.835;  131.650; -228.000; -289.000
372.966;  -48.000; -646.000; -554.000
373.097;  -41.350; -575.000; -711.000
373.228;   -4.600; -717.000; -542.000
373.359;  220.500; -824.000; -536.000
373.490; 1259.250; -881.000; -727.000
373.620; 1533.225;-1001.000; -803.000
373.751; 2362.800; -332.000; -396.000
373.882; 1049.350; -663.000; -733.000
374.013;  121.475; -449.000; -262.000
374.143;  -27.025; -581.000; -659.000
374.274;  -81.475; -987.000; -908.000
374.405;  244.500; -388.000; -276.000
374.536;  619.300; -526.000; -387.000
374.666; 1512.100; -759.000; -807.000
374.797;  346.900; -817.000; -868.000
374.928; 1204.875; -710.000; -560.000
375.058; 1204.200; -535.000; -500.000
375.189;  118.000;  -59.000;  -93.000
375.320;  -98.725; -928.000;-1034.000
375.450;  -23.375; -625.000; -616.000
375.581;  -42.300; -526.000; -436.000
375.712;  -26.950; -574.000; -250.000
375.842;  426.575; -438.000; -415.000
375.973;  313.175; -554.000; -513.000
376.103;   -1.050; -665.000; -648.000
376.234;  -85.775; -531.000; -552.000
376.364;    2.250; -944.000; -867.000
376.495;  388.050;  925.000;  529.000
376.625;   47.800; -472.000; -485.000
376.756;  120.525; -709.000; -678.000
376.886;  -37.600;-1178.000;-1026.000
377.017;   15.600;-1048.000;-1061.000
377.147;  280.275; -786.000; -782.000
377.278;   49.550;  174.000;  228.000
377.408; -124.425; -801.000; -815.000
377.538;  -93.700; -707.000; -693.000
377.669;  -81.750; -537.000; -613.000
377.799;  -71.400; -645.000; -635.000
377.929;  -36.500; -610.000; -428.000
378.060; -126.575; -781.000; -847.000
378.190;  -59.300; -726.000; -531.000
378.320;  -36.950; -401.000; -406.000
378.451;    1.150; -131.000;  -22.000
378.581;   10.100;  -67.000; -110.000
378.711;  201.850; 1035.000;  866.000
378.841;   10.500; -533.000; -675.000
378.972;  -41.050; -871.000; -751.000
379.102;   39.425; -652.000; -579.000
379.232;    3.575; -126.000;  -73.000
379.362;  -86.125;-1001.000; -885.000
379.492;   53.175; -373.000; -424.000
379.623;  143.450;    0.000;  111.000
379.753;  -85.850;-1107.000; -974.000
379.883;  265.375;   59.000;  156.000
380.013;   52.400;-1081.000;-1017.000
380.143;  -74.475;-1097.000;-1056.000
380.273;  -75.275; -985.000; -861.000
380.403;    3.000; -344.000; -257.000
380.533;   -4.100; -651.000; -664.000
380.663;   99.200;  173.000;  128.000
380.793;  -74.100;-1027.000;-1074.000
380.923;   -8.650; -103.000;  -34.000
381.053;  -79.200; -613.000; -623.000
381.183;  -20.125; -106.000; -248.000
381.313;   80.175; -656.000; -470.000
381.443;   91.025; -692.000; -473.000
381.573;  311.900; -402.000; -409.000
381.703;  434.275;-1249.000;-1095.000
381.833; -114.550;-1454.000;-1336.000
381.963;  146.650; -134.000;  -87.000
382.093; 1735.775; -925.000; -909.000
382.223;  545.950; -713.000; -602.000
382.353;    8.000; -801.000; -608.000
382.482;  553.200;-1091.000; -964.000
382.612;  989.125; -872.000; -644.000
382.742;  559.325; -695.000; -622.000
382.872;  388.350; -565.000; -551.000
383.002;   93.550;  347.000; -132.000
383.131;   -4.400; -226.000; -160.000
383.261;  -31.475; -706.000; -768.000
383.391;  309.275; -552.000; -377.000
383.521; 2714.700;  451.000;  263.000
383.650;  573.600; -947.000; -904.000
383.780;  -31.275; -783.000; -656.000
383.910;  116.650;  880.000;  802.000
384.039;   63.300; -794.000; -656.000
384.169;  333.375;-1205.000;-1017.000
384.299;    9.200; -650.000; -662.000
384.428;  -84.875; -764.000; -680.000
384.558;  -38.925; -308.000; -275.000
384.687;  -29.525; -414.000; -334.000
384.817;   36.575;   75.000;   -2.000
384.947;   37.950; -234.000; -141.000
385.076;  355.525;  982.000;  912.000
385.206;  133.150;  369.000;  480.000
385.335;   -2.900; -549.000; -417.000
385.465;  -67.775; -655.000; -663.000
385.594;  204.800;  -53.000;  -44.000
385.724;  611.950; -868.000; -838.000
385.853;  171.900; -296.000; -270.000
385.982; 1863.725; -743.000; -787.000
386.112; 2772.300;-1052.000; -871.000
386.241;  202.925; -307.000; -312.000
386.371;   43.725; -174.000;  -87.000
386.500;   35.075; -825.000; -789.000
386.629;   38.375; -874.000; -817.000
386.759;   65.700;  -43.000;   68.000
386.888;   10.825; -170.000; -250.000
387.017;  -59.150; -648.000; -620.000
387.147;  -64.075; -771.000; -798.000
387.276;   25.875; -410.000; -397.000
387.405;   44.225; -398.000; -342.000
387.535;  -12.325; -452.000; -361.000
387.664;  -49.875; -692.000; -620.000
387.793;  108.325; -198.000; -113.000
387.922;  681.075;  255.000;  200.000
388.052;   61.525; -576.000; -423.000
388.181;   70.325; -342.000; -472.000
388.310;   72.800; -889.000; -710.000
388.439;   -5.575; -749.000; -742.000
388.568;  252.800;  365.000;  244.000
388.697; 1448.850; -756.000; -653.000
388.826;  298.075; -768.000; -666.000
388.956;  105.725; -285.000; -307.000
389.085;  -17.125; -347.000; -287.000
389.214; -100.025; -842.000; -872.000
389.343;  -59.325; -645.000; -413.000
389.472;  380.875;  126.000;  149.000
389.601;  519.025;   91.000;    0.000
389.730;   48.825; -568.000; -687.000
389.859;   88.075;  226.000;   46.000
389.988;  273.600; -423.000; -408.000
390.117;  190.900; -168.000; -146.000
390.246;   27.050; -331.000; -320.000
390.375;  174.000; -673.000; -626.000
390.504;  -48.725; -703.000; -621.000
390.633;  -85.900; -672.000; -726.000
390.761;  -41.075; -732.000; -645.000
390.890;   63.950;   -4.000; -130.000
391.019;   -6.425; -421.000; -441.000
391.148; -110.675; -826.000; -855.000
391.277;  -41.575; -576.000; -493.000
391.406;  -54.775; -821.000; -805.000
391.534;   32.975;  574.000; -301.000
391.663;  -41.500; -583.000; -645.000
391.792;  -69.000; -673.000; -701.000
391.921;  173.475;   -3.000;   15.000
392.050;  275.725; -287.000; -228.000
392.178;   17.350;-1206.000;-1061.000
392.307;  218.875; -758.000; -712.000
392.436;  128.150; -427.000; -641.000
392.564;   33.325;  166.000;   -6.000
392.693;  -73.200; -860.000; -682.000
392.822;  307.700; -529.000; -534.000
392.950;  168.125; -880.000; -714.000
393.079;  445.800; -188.000; -328.000
393.208;   57.900; -488.000; -511.000
393.336;    9.850; -170.000; -145.000
393.465;  -24.850; -317.000; -199.000
393.593;    8.950;   62.000;   79.000
393.722; -148.225;-1121.000; -916.000
393.850;  -20.600; -188.000;  -61.000
393.979; -151.100; -926.000; -805.000
394.107;  -60.100; -517.000; -537.000
394.236;   -5.850; -570.000; -507.000
394.364;  218.875;  383.000;  206.000
394.493;  329.825; -911.000; -767.000
394.621;  -14.850; -955.000; -916.000
394.750;  611.300; -873.000; -923.000
394.878; 2592.750; -247.000; -149.000
395.007; 3441.400; -721.000; -807.000
395.135;  234.675; -790.000; -721.000
395.263;  -95.025;-1038.000;-1040.000
395.392;    6.450;  -25.000; -107.000
395.520; -125.775; -818.000; -679.000
395.648;  -75.775; -865.000; -915.000
395.777;   -2.050; -366.000; -405.000
395.905;  -33.625; -449.000; -564.000
396.033;    7.100;  217.000;  172.000
396.162;  538.400; -399.000; -453.000
396.290;  464.250;  -17.000;   -2.000
396.418;  158.125; -555.000; -514.000
396.546;  -58.225; -571.000; -466.000
396.674;  -97.225; -850.000; -878.000
396.803;   28.250;  -72.000;  -23.000
396.931;  154.400; -179.000; -199.000
397.059;  126.650;-1026.000; -989.000
397.187;  -96.050;-1026.000; -975.000
397.315; -128.275; -884.000; -649.000
397.443;  -81.125; -592.000; -443.000
397.572;  -87.025; -578.000; -424.000
397.700;   11.400; -607.000; -614.000
397.828;   56.700;  120.000;  -90.000
397.956;  -48.200; -508.000; -478.000
398.084;  -79.025; -767.000; -626.000
398.212;   51.975;  137.000;  124.000
398.340;   27.400;  -56.000;  159.000
398.468;   68.225; -390.000; -169.000
398.596; -116.850; -993.000; -953.000
398.724; -112.775; -762.000; -767.000
398.852; -160.025;-1024.000; -976.000
398.980;  -40.825; -560.000; -560.000
399.108;  -26.675; -982.000; -735.000
399.236;   66.750;   13.000;    8.000
399.363;   31.325;  222.000;  196.000
399.491;  -66.750; -404.000; -398.000
399.619; -108.275; -829.000; -800.000
399.747;  -99.150; -859.000; -771.000
399.875;  111.825;  220.000;  234.000
400.003;  -41.125; -359.000; -284.000
400.130;  -98.825; -421.000; -341.000
400.258;  -32.800;  -83.000;   38.000
400.386;  -66.275; -352.000; -168.000
400.514;  -15.450; -526.000; -587.000
400.641;  -65.875; -928.000; -802.000
400.769; -143.050; -979.000; -888.000
400.897; -108.625; -838.000; -793.000
401.025;    1.800; -166.000; -152.000
401.152;    9.150;  220.000;   38.000
401.280;  -72.525; -430.000; -429.000
401.408; -107.225; -712.000; -576.000
401.535;  -96.500; -735.000; -758.000
401.663; -183.800;-1134.000;-1054.000
401.790;  -91.850; -514.000; -525.000
401.918;   53.150;  436.000;  405.000
402.046;  -23.450;  134.000;  122.000
402.173;  -31.450;  -18.000;    7.000
402.301;  -66.150; -519.000; -397.000
402.428;   40.225;  528.000;  383.000
402.556; -140.950;-1188.000; -913.000
402.683;  -18.925;  -20.000;   -1.000
402.811;   -6.475;  -37.000; -206.000
402.938;   -7.725;   20.000;   27.000
403.066;  289.200; -574.000; -558.000
403.193;  442.950;  299.000;  239.000
403.321;  355.750; -396.000; -574.000
403.448;  416.525;   83.000;   27.000
403.575;  200.750;  -90.000;  -46.000
403.703;  -82.425; -732.000; -557.000
403.830;  -60.350; -531.000; -496.000
403.957; -150.700;-1117.000;-1023.000
404.085;   30.475;  -61.000; -172.000
404.212;  107.625;  -50.000;   63.000
404.339;  245.975; -566.000; -306.000
404.467; 5058.825; -612.000; -524.000
404.594; 3612.600; -287.000; -227.000
404.721;  977.650; -869.000; -764.000
404.848;   75.525; -113.000; -202.000
404.976;  -97.750; -856.000; -783.000
405.103;    4.275;  -14.000;  -82.000
405.230;    2.825;  190.000;  226.000
405.357;   39.925;  117.000;   44.000
405.484;  226.575;  -49.000;    5.000
405.612;   44.225; -548.000; -563.000
405.739;  -56.375; -488.000; -243.000
405.866;   98.250;  669.000;  385.000
405.993;  -31.825; -398.000; -102.000
406.120; -133.950; -801.000; -887.000
406.247;  -28.825; -323.000; -342.000
406.374;  596.925;  540.000;  629.000
406.501;  183.525; -632.000; -702.000
406.628;  -67.500; -621.000; -589.000
406.755;  -75.950; -803.000; -620.000
406.882;  -32.275; -228.000; -277.000
407.009; -100.175; -719.000; -628.000
407.136;  108.800; -480.000; -401.000
407.263;  228.000; -939.000; -829.000
407.390;  -68.900; -692.000; -614.000
407.517; -152.175;-1139.000;-1187.000
407.644;  -56.075; -332.000; -256.000
407.771;  -64.600; -249.000; -287.000
407.898;   26.400;  168.000;  328.000
408.025;  -62.050; -421.000; -313.000
408.151;    3.350;   82.000;  153.000
408.278;  -58.450; -267.000; -216.000
408.405; -102.375; -931.000; -899.000
408.532;  -68.200; -549.000; -542.000
408.659; -111.900; -677.000; -648.000
408.785; -205.500;-1298.000;-1170.000
408.912;  -72.150; -412.000; -296.000
409.039; -104.875; -610.000; -686.000
409.166; -105.325; -591.000; -555.000
409.292; -102.725; -571.000; -534.000
409.419; -122.300; -665.000; -649.000
409.546;  -87.125; -431.000; -192.000
409.672; -108.925; -713.000; -545.000
409.799;  -11.525;  -36.000;   34.000
409.926;  -40.375; -180.000; -179.000
410.052; -169.375;-1127.000;-1091.000
410.179;  -61.250; -368.000; -392.000
410.305;  -99.575; -375.000; -493.000
410.432;  -37.350; -220.000; -333.000
410.558;  -88.000; -305.000; -380.000
410.685; -105.850; -688.000; -431.000
410.812; -101.125; -409.000; -588.000
410.938; -134.425; -964.000; -808.000
411.065;  -94.600; -671.000; -645.000
411.191;  -13.800; -189.000; -174.000
411.317; -115.250; -823.000; -742.000
411.444;  -57.825; -317.000; -246.000
411.570;  -69.675; -339.000; -294.000
411.697; -135.875; -758.000; -752.000
411.823; -171.325; -989.000; -999.000
411.949;  -25.450;  -56.000;   17.000
412.076; -113.825; -539.000; -519.000
412.202; -115.950; -758.000; -757.000
412.329; -118.500; -798.000; -752.000
412.455; -114.325; -821.000; -657.000
412.581;  -13.025;  -15.000;  172.000
412.707;  -39.075; -540.000; -457.000
412.834;   28.300;  156.000;  219.000
412.960;  -98.950; -785.000; -784.000
413.086;  -81.550; -743.000; -701.000
413.212;  198.100;  604.000;  578.000
413.339;  -44.600; -685.000; -701.000
413.465;   32.350; -364.000; -310.000
413.591;  -91.625; -757.000; -474.000
413.717;  -47.200; -358.000; -366.000
413.843; -145.850; -839.000; -861.000
413.969;  -65.400;  -47.000; -292.000
414.096;  -98.225; -679.000; -679.000
414.222;  -10.400;  -33.000;   85.000
414.348;   12.675; -652.000; -385.000
414.474;  139.800;   38.000;  -52.000
414.600;  -12.850; -126.000; -144.000
414.726;  -12.500;  -96.000;  -55.000
414.852;  -57.200; -365.000; -342.000
414.978;   37.950;  104.000;  -18.000
415.104;   33.050;   38.000;   80.000
415.230;    8.775; -329.000; -330.000
415.356;   45.675; -409.000; -514.000
415.482;  203.550;   13.000;  -35.000
415.608;  240.425; -247.000; -323.000
415.734;  896.700;   67.000;   38.000
415.860;18632.975; -875.000; -767.000
415.986;12952.725; -685.000; -607.000
416.111; 1060.550; -798.000; -652.000
416.237;  220.325; -424.000; -571.000
416.363;  977.175; -765.000; -733.000
416.489; 3557.975; -324.000; -251.000
416.615;  359.700; -707.000; -742.000
416.741;  -28.700; -677.000; -784.000
416.866;  -95.475; -673.000; -736.000
416.992; -129.325; -801.000; -818.000
417.118;  -33.975;  -41.000;  -80.000
417.244;  -58.500; -798.000; -531.000
417.369;  -86.600; -801.000; -612.000
417.495;    0.850; -325.000; -254.000
417.621;  -80.800;-1015.000; -803.000
417.746;    2.175; -579.000; -572.000
417.872;   42.300; -254.000; -144.000
417.998;   47.850; -515.000; -530.000
418.123;  968.475;-1073.000; -845.000
418.249; 4740.475; -512.000; -601.000
418.374;  599.900; -916.000; -824.000
418.500;   93.100; -383.000; -482.000
418.626;  105.775;   70.000;  -59.000
418.751;  128.425; -549.000; -448.000
418.877;  173.050; -637.000; -643.000
419.002; 1619.875; -688.000; -560.000
419.128;10998.150; -930.000; -721.000
419.253; 2546.350; -967.000; -837.000
419.379;  338.175; -391.000; -338.000
419.504;  342.050;  325.000;  415.000
419.629;  453.350; -393.000; -212.000
419.755; 3130.550; -317.000; -254.000
419.880;17758.775;  -98.000;   67.000
420.006;10135.400; -280.000; -221.000
420.131;26167.775; -662.000; -775.000
420.256; 3643.200; -315.000; -316.000
420.382;  485.000; -665.000; -687.000
420.507;   52.150; -649.000; -778.000
420.632;  199.250; -337.000; -339.000
420.758;  372.075; -251.000; -425.000
420.883;  -69.600; -876.000; -672.000
421.008;  -85.550; -775.000; -619.000
421.133;  -77.050; -509.000; -467.000
421.259;  -53.200; -325.000; -259.000
421.384; -107.950; -834.000; -693.000
421.509;    3.750;-1052.000; -862.000
421.634; 1715.950; -936.000; -820.000
421.759;  719.575; -359.000; -327.000
421.885;  -29.375; -717.000; -656.000
422.010;  -80.425; -673.000; -542.000
422.135; -152.850; -695.000; -727.000
422.260;   47.175;  340.000;  280.000
422.385;  -38.750;   12.000;  -98.000
422.510;   10.750;  151.000;  -26.000
422.635;   23.775;  -87.000;  -43.000
422.760;  129.225; -766.000; -791.000
422.885;   65.025;  -57.000;  -80.000
423.010;  -25.850; -112.000; -169.000
423.135;  -98.900; -481.000; -561.000
423.260;   -2.100; -150.000; -245.000
423.385;   83.750;  476.000;  222.000
423.510;   43.900;   71.000;  -22.000
423.635;   99.200;  133.000;   45.000
423.760;   62.325;  383.000;  328.000
423.885;   62.975;  336.000;  391.000
424.010;   15.275;  -68.000;  -13.000
424.135;  -11.500;    5.000;  -33.000
424.259;  -79.975; -654.000; -457.000
424.384;  -73.250; -279.000; -272.000
424.509;  -26.900; -260.000; -186.000
424.634; -103.975; -761.000; -623.000
424.759;  -34.100; -688.000; -544.000
424.883;  -24.425; -506.000; -527.000
425.008;  161.725; -502.000; -410.000
425.133; 1778.175; -679.000; -653.000
425.258;  804.725; -517.000; -381.000
425.382; 1310.150; -867.000; -774.000
425.507; 3242.600; -487.000; -543.000
425.632;  487.275; -802.000; -663.000
425.756;  424.300; -256.000; -146.000
425.881; 5549.825; -831.000; -857.000
426.006;14152.000; -604.000; -355.000
426.130; 2235.000; -696.000; -508.000
426.255;  271.075; -611.000; -491.000
426.379;  131.200; -189.000; -577.000
426.504;  345.150;  660.000;  544.000
426.629; 3780.825; -519.000; -466.000
426.753; 2498.200;   64.000;  -46.000
426.878;  291.225; -252.000; -288.000
427.002;  166.425; -651.000; -668.000
427.127; 1504.575;  -35.000; -158.000
427.251;10101.775;  372.000;  401.000
427.375; 2789.250; -191.000; -173.000
427.500; 2803.125; -616.000; -610.000
427.624;  921.825; -234.000; -400.000
427.749;  116.125; -216.000; -225.000
427.873;  -33.125; -499.000; -412.000
427.997;  -26.425; -222.000; -230.000
428.122;   93.025;  795.000;  703.000
428.246;   96.100;  433.000;  434.000
428.371; -109.750; -869.000; -773.000
428.495; -104.575; -624.000; -646.000
428.619;  -28.275; -186.000; -117.000
428.743;   35.200;   65.000;  132.000
428.868;   47.800; -732.000; -643.000
428.992; 1820.125; -219.000; -326.000
429.116;  726.800; -329.000; -357.000
429.240;  368.325;  419.000;  426.000
429.365;   11.450; -454.000; -574.000
429.489;  -41.575; -638.000; -647.000
429.613;   19.625; -236.000; -177.000
429.737;   31.475; -563.000; -432.000
429.861;  282.325; -247.000; -133.000
429.985; 5096.475; -425.000; -305.000
430.109; 5293.425; -770.000; -908.000
430.234;  597.275;   76.000;  -50.000
430.358;   62.550; -250.000; -160.000
430.482;  -61.200; -672.000; -564.000
430.606;  -54.700; -655.000; -375.000
430.730;   38.675; -437.000; -388.000
430.854;  218.850; -909.000; -835.000
430.978;  -49.050; -795.000; -764.000
431.102;  -80.675; -499.000; -422.000
431.226; -108.425; -874.000; -815.000
431.350;   32.175;  345.000;  422.000
431.474;  -61.675; -661.000; -373.000
431.597; -137.275;-1060.000; -848.000
431.721;  -90.225; -276.000; -267.000
431.845; -136.750; -704.000; -472.000
431.969;  -83.650; -304.000; -349.000
432.093;  -93.675; -395.000; -317.000
432.217;   -3.900;   32.000;   82.000
432.341;  -99.650; -523.000; -518.000
432.464;   28.700;   96.000;   40.000
432.588;  303.450; -401.000; -329.000
432.712;  145.375;  -52.000;  -52.000
432.836;   44.350;  213.000;  263.000
432.959;  -26.325; -372.000; -311.000
433.083;   81.475;   11.000;    2.000
433.207;  335.900;  285.000;  930.000
433.330; 4488.375; -391.000; -200.000
433.454; 5348.900; -654.000; -638.000
433.578; 3127.150;  583.000;  278.000
433.701;  569.675; -623.000; -675.000
433.825;  201.600; -292.000; -299.000
433.949;  275.650;   28.000;  -72.000
434.072;  121.525; -410.000; -323.000
434.196;  -11.225; -309.000; -117.000
434.319; 3789.550;25482.000;25124.000
434.443;  769.375; -656.000; -603.000
434.566; 2365.275;  281.000;   62.000
434.690;  377.400; -637.000; -383.000
434.813;   55.000; -251.000; -173.000
434.937;  -77.575; -569.000; -696.000
435.060;   -9.950; -423.000; -332.000
435.184;  523.050; -492.000; -217.000
435.307;  260.200;  159.000;  102.000
435.431;   -2.500;  -40.000;   24.000
435.554;  -74.400; -399.000; -240.000
435.677;  -71.400; -350.000; -258.000
435.801;  -44.950;  -25.000;   49.000
435.924;    7.175;    1.000;  -67.000
436.048;  -92.700;-1019.000; -732.000
436.171;  -66.950; -240.000;  -66.000
436.294;  -35.150; -248.000; -229.000
436.417;   63.925; -963.000; -849.000
436.541;  -91.850; -814.000; -840.000
436.664;  -55.825; -242.000; -316.000
436.787;  -12.750;   13.000;  113.000
436.910; -110.000; -792.000; -422.000
437.034;   16.350;  142.000;  143.000
437.157;   93.525;  -11.000;    0.000
437.280;  -21.300; -392.000; -292.000
437.403;  -45.025; -982.000; -869.000
437.526; 1031.125; -903.000; -865.000
437.649; 3359.225; -505.000; -332.000
437.772;  530.750; -692.000; -540.000
437.896;  163.425;  700.000;  544.000
438.019;  -90.375; -758.000; -503.000
438.142;  -80.575; -596.000; -506.000
438.265;   32.000; -639.000; -670.000
438.388;  825.375; -520.000; -410.000
438.511;  183.950; -597.000; -394.000
438.634;  -25.350; -247.000; -125.000
438.757; -123.200; -693.000; -619.000
438.880;  -13.625;  -34.000;  -57.000
439.003;  -62.425; -417.000; -437.000
439.126;  -59.100; -287.000; -167.000
439.248;  -65.600;  -98.000; -139.000
439.371;  -42.150;    9.000;  -53.000
439.494;   40.925;  510.000;  439.000
439.617;  -57.025;   65.000;  -88.000
439.740; -178.475; -968.000; -816.000
439.863; -142.450; -755.000; -595.000
439.986; -112.300; -476.000; -431.000
440.108;  -37.000; -161.000; -112.000
440.231; -160.100; -950.000; -836.000
440.354;  -27.800;  -64.000; -150.000
440.477;   87.125; -566.000; -542.000
440.599;   24.475; -200.000; -225.000
440.722; -126.450; -709.000; -586.000
440.845;   62.650;  751.000;  928.000
440.968; -116.625; -415.000; -311.000
441.090;  -64.875; -199.000;  -33.000
441.213; -163.875;-1021.000; -825.000
441.336;  -55.775; -159.000;   -5.000
441.458;  -61.075; -549.000; -396.000
441.581;  -68.700; -628.000; -629.000
441.703;  -72.375; -152.000;   13.000
441.826; -116.325; -557.000; -400.000
441.948;  -41.325;   56.000;   51.000
442.071;   24.150;  555.000;  424.000
442.193; -109.325; -531.000; -485.000
442.316;   26.200;  152.000;   97.000
442.438;   43.725; -233.000;  -10.000
442.561;   94.250;  272.000;  262.000
442.683;  845.675; -809.000; -522.000
442.806; 1664.150;   -8.000;   74.000
442.928;  106.350; -859.000; -604.000
443.051;  -47.925; -577.000; -373.000
443.173;  -94.475; -341.000; -339.000
443.295;  -98.250; -263.000; -371.000
443.418;  -77.950; -321.000;  -29.000
443.540;   -1.850; -106.000;   -4.000
443.662; -115.450; -563.000; -465.000
443.785;   -7.400;  335.000;  199.000
443.907; -105.575; -362.000; -208.000
444.029; -141.025; -767.000; -494.000
444.152; -147.100; -644.000; -554.000
444.274;  -31.200;  -18.000;  -24.000
444.396; -124.300; -461.000; -221.000
444.518; -134.775; -691.000; -454.000
444.640; -103.875; -268.000; -111.000
444.763;  -19.150;  388.000;  249.000
444.885; -111.400; -432.000; -392.000
445.007;  -38.450;   35.000;   86.000
445.129; -129.475; -610.000; -515.000
445.251; -118.300; -372.000; -439.000
445.373; -135.075; -537.000; -386.000
445.495;    8.800;  242.000;  350.000
445.617;   47.750;  853.000;  753.000
445.739;  -74.925; -215.000;  -97.000
445.861;  -25.825; -245.000; -112.000
445.984;  -25.125; -267.000; -101.000
446.105;  312.075; -418.000; -251.000
446.227;  856.200; -176.000;  -19.000
446.349;   42.800; -358.000; -249.000
446.471;  -94.625; -615.000; -448.000
446.593;  -68.075; -316.000;   19.000
446.715;   19.200;  -67.000;   41.000
446.837;   64.950;  697.000;  832.000
446.959;  -97.500; -457.000; -478.000
447.081; -132.075; -628.000; -518.000
447.203;   66.050;  862.000;  834.000
447.325;  -78.175; -270.000;   42.000
447.446;  -10.275;  286.000;  530.000
447.568; -158.075; -921.000; -803.000
447.690;  -80.400; -236.000; -245.000
447.812; -150.475; -798.000; -519.000
447.933;  -37.525;  155.000;  127.000
448.055;  -64.125; -306.000; -261.000
448.177;  207.200;   31.000;   79.000
448.299;  151.150; -935.000; -727.000
448.420;   27.375;  -25.000;  159.000
448.542;  -44.625;   -3.000;   33.000
448.664;  -29.900;  109.000;  322.000
448.785;  -19.500;  265.000;   83.000
448.907;  -77.350; -614.000; -353.000
449.028;  -19.875; -771.000; -471.000
449.150;   73.375;  492.000;  589.000
449.272; -184.725;-1044.000; -913.000
449.393;   30.675;  612.000;  694.000
449.515; -135.075; -634.000; -581.000
449.636;  -59.800; -264.000; -155.000
449.758;   82.375;  763.000;  622.000
449.879;  -81.175; -498.000; -396.000
450.001;  -79.975; -149.000;  -49.000
450.122;  -29.825;  -95.000;  162.000
450.244;  -20.425;   37.000;  364.000
450.365;  -92.250; -495.000; -301.000
450.486;  -33.250;   80.000;  268.000
450.608;    9.425;  393.000;  326.000
450.729;   64.275;  578.000;  645.000
450.850;  -18.850; -574.000; -466.000
450.972;  621.575; -552.000; -389.000
451.093; 4151.825;  190.000;  588.000
451.214; 1697.025; -516.000; -337.000
451.336;  323.525;  773.000;  579.000
451.457;   45.875;  264.000;  393.000
451.578;  -47.300; -118.000;  -74.000
451.699; -121.175; -546.000; -540.000
451.821;  -69.900; -284.000;  -50.000
451.942;   -5.425;  278.000;  285.000
452.063;   26.275;  228.000;  419.000
452.184;  487.950;  -54.000;  -49.000
452.305;  928.650;  103.000;  170.000
452.427;   84.700; -549.000; -301.000
452.548;  -17.825;   23.000;   79.000
452.669;  -53.625; -257.000;  -89.000
452.790;  -35.775;    3.000;  -18.000
452.911;   -8.750;  195.000;  259.000
453.032;  -60.650; -289.000;  -60.000
453.153;  -39.075;  -29.000;   81.000
453.274;   76.525;  737.000;  868.000
453.395;  -50.075;  -51.000;  175.000
453.516;  156.675; 1317.000; 1388.000
453.637;  -61.650; -205.000; -150.000
453.758;  -45.575;   15.000;   69.000
453.879; -117.525; -462.000; -250.000
454.000;   74.475; 1086.000;  948.000
454.121; -121.950; -554.000; -326.000
454.242; -112.950; -599.000; -383.000
454.362;  -66.050;  -99.000;  114.000
454.483;  -23.850; -309.000; -229.000
454.604;   68.675;  512.000;  580.000
454.725; -125.525; -627.000; -555.000
454.846; -125.900; -474.000; -406.000
454.967;  -32.550;  230.000;  539.000
455.087;  -53.575;  179.000;  153.000
455.208;   21.750;  554.000;  856.000
455.329;  -68.375;  -22.000;   82.000
455.450;   32.750;  473.000;  633.000
455.570;  -93.925; -234.000; -211.000
455.691;  -40.750;  201.000;  407.000
455.812; -104.900; -270.000;  -92.000
455.932;  -61.250;  107.000;  -97.000
456.053;  -73.125;   36.000;   24.000
456.173; -110.125; -433.000; -355.000
456.294; -125.975; -476.000; -303.000
456.415;  -59.175;  -73.000;   70.000
456.535;  -20.500;  297.000;  273.000
456.656;  -40.100;  132.000;  240.000
456.776;  -64.575;    3.000;  298.000
456.897;    6.300;  308.000;  513.000
457.017;  -76.625; -153.000;   -3.000
457.138; -104.325; -402.000; -249.000
457.258;  -27.825;  263.000;  224.000
457.379;  -24.600;  509.000;  521.000
457.499;  -27.300;  443.000;  432.000
457.620; -114.450; -407.000; -231.000
457.740; -115.650; -132.000;  -11.000
457.860;  -56.375;   87.000;   44.000
457.981;  -48.675;  132.000;  124.000
458.101;  -76.750;  -89.000;   40.000
458.221;  -17.125;  336.000;  402.000
458.342;  -60.500;   -4.000;  -37.000
458.462;    5.200;  617.000;  352.000
458.582;  -57.500; -302.000; -294.000
458.703;   -9.725;  303.000;  154.000
458.823;  -36.550;   22.000;  163.000
458.943;   13.725;  341.000;  467.000
459.063;   -4.275; 1124.000;  192.000
459.183;  -31.625;  328.000;  313.000
459.304;   12.700;  315.000;  517.000
459.424;  -59.350; -246.000;  -89.000
459.544;  284.225;  388.000;  764.000
459.664;  722.225;  499.000;  506.000
459.784;  272.025; 1004.000; 1175.000
459.904;   54.625;  867.000;  744.000
460.024;   80.150;  867.000;  684.000
460.144;   34.975;  449.000;  554.000
460.264;  -11.900;  515.000;  327.000
460.385; -101.300; -145.000; -119.000
460.505;   25.850;  905.000;  858.000
460.625;  -98.625;  -17.000;  -68.000
460.745;  -32.675;  396.000;  541.000
460.864;  -51.650;  153.000;  469.000
460.984;   11.800;  499.000;  573.000
461.104;  151.350; 1656.000; 1775.000
461.224;   15.700;  657.000;  650.000
461.344;  -36.075;  431.000;  360.000
461.464;  -39.375;  258.000;  513.000
461.584;  -12.025;  283.000;  466.000
461.704;  -41.125;   58.000;  108.000
461.824;  -68.875;  238.000;  259.000
461.943;  -51.200;  191.000;  130.000
462.063;  -81.925;    2.000;  324.000
462.183;   46.025;  639.000;  717.000
462.303;  101.525; 1678.000; 1230.000
462.422;   32.850;  781.000;  840.000
462.542;  -41.950;  271.000;  391.000
462.662;   49.850;  353.000;  380.000
462.782;  234.050;  833.000;  572.000
462.901;  428.200;  545.000;  717.000
463.021;  259.700; 1702.000; 1638.000
463.141;   -6.450;  337.000;  770.000
463.260;  -23.675;  614.000;  474.000
463.380;   17.750;  902.000;  884.000
463.499;  -41.950;  342.000;  332.000
463.619;  -29.850;  581.000;  559.000
463.738;  122.225; 1644.000;  903.000
463.858;   12.075;  657.000;  811.000
463.978;  -32.175;  542.000;  396.000
464.097;   43.250;  921.000; 1114.000
464.217;  105.375; 1196.000; 1143.000
464.336;  107.575; 1068.000; 1130.000
464.455;  -42.450;  328.000;  659.000
464.575;   59.500;  597.000;  602.000
464.694;  198.700; 1204.000; 1179.000
464.814;  133.825; 1190.000; 1138.000
464.933;   68.325; 1095.000; 1027.000
465.052;  105.450; 1412.000; 1054.000
465.172;   98.925;  922.000;  799.000
465.291;  156.650; 1376.000; 1320.000
465.410;    9.850;  462.000;  735.000
465.530;   78.175; 1355.000; 1310.000
465.649;   55.000; 1209.000; 1273.000
465.768;  121.275; 1673.000; 1508.000
465.888;   42.075;  941.000; 1174.000
466.007;   96.775; 1335.000; 1440.000
466.126;  -25.550;  721.000;  641.000
466.245;   44.450; 1176.000; 1187.000
466.364;   19.325;  950.000; 1060.000
466.484;   55.600; 1024.000; 1213.000
466.603;   35.425; 1101.000; 1222.000
466.722;  134.200; 1490.000; 1769.000
466.841;   74.800; 1151.000; 1401.000
466.960;   53.975; 1069.000;  972.000
467.079;  120.850; 1971.000; 1786.000
467.198;   51.700; 1238.000; 1181.000
467.317;   96.875; 1768.000; 1162.000
467.436;   76.100; 1709.000; 1261.000
467.555;  119.725; 1796.000; 1746.000
467.674;   78.075; 1227.000; 1329.000
467.793;   49.950; 1376.000; 1374.000
467.912;   96.500; 1658.000; 1539.000
468.031;  157.850; 2038.000; 1930.000
468.150;  146.375; 1842.000; 1837.000
468.269;  185.200; 2313.000; 2090.000
468.388;  194.650; 2168.000; 2339.000
468.507;  238.600; 2884.000; 2903.000
468.626;  276.100; 2555.000; 2541.000
468.744;  140.625; 2018.000; 2174.000
468.863;  195.750; 2312.000; 2523.000
468.982;   95.300; 1503.000; 1555.000
469.101;  230.275; 2788.000; 2692.000
469.220;  133.675; 2333.000; 2176.000
469.338;  252.900; 2935.000; 3051.000
469.457;  193.050; 2719.000; 2545.000
469.576;  337.775; 3953.000; 3784.000
469.695;  231.700; 2877.000; 3066.000
469.813;  415.075; 4148.000; 4192.000
469.932;  409.350; 4255.000; 4485.000
470.051;  411.325; 4075.000; 4161.000
470.169;  816.025; 4470.000; 4338.000
470.288; 1337.275; 4700.000; 4809.000
470.406;  817.150; 5059.000; 5194.000
470.525;  626.200; 6101.000; 5787.000
470.644;  638.275; 6847.000; 6794.000
470.762;  839.950; 8397.000; 7873.000
470.881;  902.500; 8651.000; 8464.000
470.999; 1057.825; 9685.000; 9151.000
471.118; 1096.775;11174.000;10711.000

