
Integration time [ms]: 200.000
Averaging Nr. [scans]: 10
Smoothing Nr. [pixels]: 0
Data measured with spectrometer [name]: 2101012U2
Wave   ;Sample   ;Dark     ;Reference
[nm]   ;[counts] ;[counts] ;[counts] 

197.733;   77.300;  516.000;  404.000
197.879; -169.000; -610.000; -634.000
198.025; -122.700; -475.000; -420.000
198.171; -189.400; -602.000; -612.000
198.317;  -97.900; -401.000; -316.000
198.463; -112.300; -655.000; -404.000
198.609;   60.300;  181.000; -137.000
198.755; -201.800; -644.000; -410.000
198.901; -159.000; -505.000; -424.000
199.047; -167.900; -615.000; -488.000
199.193;  -91.400; -230.000; -468.000
199.339; -110.600; -222.000; -369.000
199.485;  107.300;  330.000;  271.000
199.631;   16.800;  227.000;  310.000
199.777; -122.800; -466.000; -398.000
199.923; -119.000; -610.000; -424.000
200.069;  -25.000; -141.000;  -58.000
200.215;   74.000;  128.000;  453.000
200.361;   83.400;  243.000;  477.000
200.507; -119.400; -600.000; -373.000
200.653;  -56.000; -371.000; -194.000
200.798;  -95.000; -215.000; -125.000
200.944;  -43.200; -146.000;  -41.000
201.090;   75.000;   61.000;  222.000
201.236;  -28.100; -116.000; -158.000
201.382;  266.500;  874.000;  903.000
201.528;  -63.000;  -58.000;  -48.000
201.674; -126.000; -386.000; -293.000
201.819; -142.000; -540.000; -439.000
201.965; -169.900; -699.000; -447.000
202.111;  -20.000; -273.000; -226.000
202.257; -101.600; -250.000; -238.000
202.402;    6.900;   13.000;  -36.000
202.548;  -63.400; -169.000; -116.000
202.694;  164.100;  410.000; -183.000
202.840; -142.600; -603.000; -531.000
202.985; -182.500; -681.000; -639.000
203.131; -226.100; -832.000; -666.000
203.277;  -69.700; -199.000; -262.000
203.423; -123.400; -434.000; -520.000
203.568; -145.300; -462.000; -237.000
203.714; -145.000; -535.000; -542.000
203.860; -207.300; -682.000; -641.000
204.005;    2.800;  112.000;  167.000
204.151;  154.500;  561.000;  556.000
204.296; -102.200; -354.000; -221.000
204.442; -170.200; -600.000; -547.000
204.588; -188.100; -592.000; -579.000
204.733;   19.100;  178.000;  168.000
204.879; -272.100;-1018.000; -822.000
205.025;   -0.200;  -99.000;  126.000
205.170;  -10.700;  -17.000;   94.000
205.316;  133.300;  438.000;  661.000
205.461; -185.800; -698.000; -554.000
205.607;  163.900;  609.000;  665.000
205.752; -182.400; -626.000; -551.000
205.898; -123.800; -501.000; -391.000
206.043; -145.700; -578.000; -506.000
206.189; -130.600; -243.000; -285.000
206.334;  162.000;  554.000;  606.000
206.480;  171.000;  409.000;  239.000
206.625; -207.100; -529.000; -552.000
206.771; -138.100; -451.000; -373.000
206.916;  -33.300; -210.000; -537.000
207.062; -126.800; -545.000; -591.000
207.207; -129.100; -546.000; -443.000
207.353;   88.200;  185.000;  460.000
207.498;   32.900;  196.000;   85.000
207.643; -120.300; -501.000; -370.000
207.789; -294.400;-1069.000; -910.000
207.934; -203.400; -665.000; -713.000
208.080;  -52.300; -154.000;   66.000
208.225;  -30.200;  -22.000;  -57.000
208.370; -183.000; -727.000; -619.000
208.516; -175.700; -741.000; -487.000
208.661;  -63.400; -127.000;  -69.000
208.806;  -54.300; -165.000; -171.000
208.952; -264.700;-1044.000; -731.000
209.097;  179.700;  378.000;  349.000
209.242; -124.800; -307.000; -382.000
209.387;  114.700;  392.000;  350.000
209.533; -120.600; -321.000; -350.000
209.678;  175.200;  472.000;  543.000
209.823; -100.100; -408.000; -310.000
209.969; -224.600; -860.000; -757.000
210.114; -244.100; -907.000; -719.000
210.259; -272.200; -939.000; -889.000
210.404;   -8.600; -171.000;  103.000
210.549;    0.200;  108.000;    3.000
210.695;  -54.900;   -3.000;  -95.000
210.840;   73.300;   94.000;   67.000
210.985; -134.000; -484.000; -303.000
211.130;  102.600;  268.000;  406.000
211.275;   34.400;  207.000;  199.000
211.420; -120.300; -300.000; -289.000
211.566; -134.800; -536.000; -489.000
211.711;   56.500;  218.000;  157.000
211.856; -138.200; -545.000; -519.000
212.001;    5.200;  151.000;   44.000
212.146;   21.200;  153.000;   49.000
212.291;  -79.200; -210.000; -186.000
212.436;  -51.100; -280.000;   -6.000
212.581; -211.700; -685.000; -653.000
212.726; -163.700; -487.000; -538.000
212.871; -103.700; -552.000; -217.000
213.016; -283.400;-1172.000;-1029.000
213.161;  116.700;  406.000;  291.000
213.306; -135.700; -435.000; -577.000
213.451; -196.200; -778.000; -689.000
213.596;  -75.400; -455.000; -347.000
213.741; -125.800; -448.000; -538.000
213.886; -175.900; -498.000; -517.000
214.031;  -60.000; -294.000; -124.000
214.176; -113.800; -408.000; -341.000
214.321;  -58.600; -296.000; -157.000
214.466;  -56.700; -163.000;  -43.000
214.611;  -15.400;  -61.000;  -10.000
214.756; -276.000; -948.000; -858.000
214.901;  -56.000; -388.000; -226.000
215.046; -271.500; -797.000; -825.000
215.191;   47.100;  128.000;   35.000
215.336;  -38.100; -157.000;  -19.000
215.480; -147.500; -684.000; -505.000
215.625;  -37.700; -175.000;  -19.000
215.770; -191.400; -757.000; -662.000
215.915;  -23.700;   -5.000;  -97.000
216.060;  -31.700; -113.000;  -21.000
216.205; -214.700; -731.000; -779.000
216.349; -138.500; -470.000; -533.000
216.494; -286.800; -939.000; -867.000
216.639; -251.700; -823.000; -888.000
216.784; -191.700; -577.000; -525.000
216.929;   97.600;  392.000;  281.000
217.073;  -34.300; -244.000;  -31.000
217.218;   27.100;   78.000;  -47.000
217.363; -206.600; -656.000; -618.000
217.507; -169.600; -623.000; -588.000
217.652; -259.500; -845.000; -874.000
217.797; -200.300; -708.000; -659.000
217.942; -233.800; -856.000; -720.000
218.086;  139.600;  608.000;  539.000
218.231;  -65.700; -174.000;  -26.000
218.376;  -60.000; -337.000; -229.000
218.520;   17.300;  -41.000;   96.000
218.665;  -62.500; -338.000; -204.000
218.810;  -84.800; -275.000; -233.000
218.954;    7.800;  201.000;   35.000
219.099; -228.400; -713.000; -963.000
219.243; -155.900; -589.000; -554.000
219.388;  -71.900; -264.000; -136.000
219.532;  -31.500; -116.000; -116.000
219.677; -167.300; -564.000; -521.000
219.822;    0.700;   33.000;   89.000
219.966;   12.000;   17.000;  -99.000
220.111;  -83.300; -328.000;  -40.000
220.255; -209.800; -797.000; -750.000
220.400;  -48.300; -180.000; -146.000
220.544; -144.000; -516.000; -450.000
220.689; -158.800; -422.000; -451.000
220.833;  -58.800; -123.000;  -58.000
220.978; -115.800; -393.000; -563.000
221.122;   29.800;  319.000;  307.000
221.267; -250.800; -906.000; -837.000
221.411; -124.000; -478.000; -394.000
221.555;  -28.900; -104.000;  -23.000
221.700;  -93.900; -329.000; -222.000
221.844;   90.100;  255.000;  272.000
221.989; -102.200; -328.000; -311.000
222.133;  -81.400; -289.000; -307.000
222.277;  -18.900;    5.000;   78.000
222.422;   33.200;  227.000;  113.000
222.566; -102.100; -381.000; -214.000
222.711; -123.200; -414.000; -479.000
222.855; -160.600; -643.000; -586.000
222.999; -180.500; -642.000; -717.000
223.144;  -31.100; -195.000; -194.000
223.288;  144.100;  423.000;  251.000
223.432;   16.500;  184.000;  230.000
223.576;   57.600;  152.000;  -21.000
223.721;   89.700;  364.000;  273.000
223.865; -120.700; -472.000; -475.000
224.009;  564.300; 1673.000; 1631.000
224.153; -170.100; -660.000; -671.000
224.298; -167.000; -531.000; -489.000
224.442;  -24.900;  -74.000;  -33.000
224.586;  -36.400; -169.000; -106.000
224.730; -232.000; -858.000; -670.000
224.875; -233.100; -739.000; -688.000
225.019;  -12.000;  102.000;  188.000
225.163;  137.100;  208.000;  341.000
225.307;   46.400;   97.000;  -91.000
225.451;  107.800;  360.000;  481.000
225.595;   92.500;  264.000;  176.000
225.739;  -21.700; -170.000;  -94.000
225.884;   16.200;   86.000;    5.000
226.028; -210.200; -760.000; -626.000
226.172;  -90.500; -260.000; -273.000
226.316; -250.500; -941.000; -902.000
226.460; -133.000; -645.000; -493.000
226.604; -134.200; -406.000; -400.000
226.748; -191.400; -836.000; -733.000
226.892;  -76.600; -227.000; -181.000
227.036; -112.300; -537.000; -447.000
227.180; -120.700; -551.000; -375.000
227.324; -146.900; -561.000; -580.000
227.468; -241.500; -819.000; -717.000
227.612;   40.500;  242.000;  -28.000
227.756; -255.900; -845.000; -698.000
227.900;   73.700;  342.000;  441.000
228.044; -135.600; -509.000; -290.000
228.188;  112.700;  448.000;  568.000
228.332; -192.700; -546.000; -472.000
228.476;  -52.400; -223.000; -149.000
228.620;  -85.800; -210.000; -150.000
228.764;  179.100;  431.000;  349.000
228.908;  -54.700; -155.000;   30.000
229.052; -140.300; -615.000; -528.000
229.195;  -16.100; -172.000;   13.000
229.339;  -87.900; -235.000; -305.000
229.483;  -37.900;    5.000; -162.000
229.627;  -33.700; -156.000;  139.000
229.771; -130.900; -218.000; -294.000
229.915;   29.200;  230.000;   79.000
230.059; -222.400; -648.000; -663.000
230.202;  -89.600; -370.000; -317.000
230.346;   -9.900; -107.000;  107.000
230.490; -134.800; -489.000; -521.000
230.634; -204.800; -736.000; -553.000
230.777;  153.500;  478.000;  509.000
230.921; -117.400; -450.000; -359.000
231.065;  -80.100; -246.000; -286.000
231.209;   34.500;  261.000;  265.000
231.352;   68.300;   54.000;   40.000
231.496;   23.400;  568.000;  188.000
231.640; -178.300; -693.000; -621.000
231.783;  151.100;  546.000;  525.000
231.927;  -67.700; -294.000; -365.000
232.071; -265.300; -962.000; -736.000
232.214; -244.400; -980.000; -764.000
232.358; -209.800; -683.000; -599.000
232.502;    1.500;  -19.000;    7.000
232.645; -298.000;-1090.000; -927.000
232.789;  -40.700; -257.000; -218.000
232.933; -100.400; -407.000; -224.000
233.076; -265.400;-1038.000; -897.000
233.220; -216.700; -752.000; -777.000
233.363; -133.000; -669.000; -477.000
233.507;  141.100;  371.000;  129.000
233.650; -204.100; -764.000; -834.000
233.794;  124.800;  438.000;  461.000
233.938;  -96.100; -530.000; -362.000
234.081;  -28.000;  -93.000;   31.000
234.225; -145.600; -631.000; -539.000
234.368; -241.400; -773.000; -723.000
234.512; -112.400; -385.000; -299.000
234.655; -174.500; -582.000; -555.000
234.798; -141.700; -493.000; -466.000
234.942; -248.800; -884.000;-1002.000
235.085; -160.000; -651.000; -443.000
235.229; -134.200; -405.000; -410.000
235.372;  -79.400; -247.000; -191.000
235.516; -155.700; -397.000; -321.000
235.659;   27.900;   92.000;  121.000
235.802;  -21.400;  -38.000;  -22.000
235.946;   37.200;  335.000;  215.000
236.089;   62.300;  126.000;  250.000
236.233;  111.100;  275.000;  298.000
236.376; -116.200; -235.000; -378.000
236.519; -102.700; -297.000; -319.000
236.663;  -59.300; -215.000; -117.000
236.806; -298.700;-1029.000; -999.000
236.949;  139.600;  543.000;  431.000
237.092;  109.700;  412.000;  391.000
237.236; -188.700; -589.000; -502.000
237.379;  121.300;  352.000;  428.000
237.522; -250.900; -879.000; -768.000
237.666;  -34.900; -271.000;   18.000
237.809; -256.900; -851.000; -823.000
237.952;   80.400;  469.000;  271.000
238.095; -139.800; -447.000; -442.000
238.238;  183.800;  688.000;  700.000
238.382;  -16.900;  166.000;  103.000
238.525; -153.500; -598.000; -511.000
238.668; -285.100;-1060.000; -985.000
238.811; -177.000; -638.000; -643.000
238.954; -138.800; -483.000; -334.000
239.097;  195.000;  617.000;  664.000
239.241;   44.200;  394.000;  326.000
239.384;  -86.000; -254.000; -214.000
239.527; -131.000; -424.000; -224.000
239.670; -333.700; -994.000;-1091.000
239.813; -231.400; -696.000; -658.000
239.956;  154.000;  579.000;  473.000
240.099; -226.500; -778.000; -725.000
240.242;  136.500;  428.000;  432.000
240.385;   74.800;  466.000;  450.000
240.528; -148.800; -706.000; -473.000
240.671;   31.400;  189.000;  134.000
240.814;  -93.900; -441.000; -158.000
240.957; -213.800; -767.000; -578.000
241.100; -196.000; -779.000; -755.000
241.243; -311.500;-1234.000; -893.000
241.386; -138.000; -508.000; -379.000
241.529; -195.500; -735.000; -547.000
241.672; -142.000; -566.000; -495.000
241.815; -250.700; -832.000; -808.000
241.958;  -32.600; -125.000; -182.000
242.101; -166.100; -545.000; -390.000
242.244; -125.000; -270.000; -325.000
242.387;  -95.600; -304.000; -246.000
242.530;  123.500;  470.000;  134.000
242.673;  -77.000; -381.000; -309.000
242.815; -241.600; -925.000; -899.000
242.958; -155.200; -482.000; -381.000
243.101;    8.700;  132.000;  187.000
243.244; -169.000; -564.000; -521.000
243.387;  -95.000; -313.000; -316.000
243.530; -181.000; -657.000; -674.000
243.672;    9.000;   43.000;  -92.000
243.815;  -99.900; -355.000; -283.000
243.958;   -2.800;   98.000;  -26.000
244.101;   11.600;   59.000;  -16.000
244.243;  -47.100;  -47.000;  101.000
244.386; -232.600; -761.000; -630.000
244.529;  -50.700; -132.000; -139.000
244.672; -332.900;-1154.000; -951.000
244.814; -199.200; -621.000; -794.000
244.957; -120.900; -380.000; -304.000
245.100; -146.400; -489.000; -489.000
245.242; -120.500; -387.000; -374.000
245.385;   -7.000;  -59.000;  -39.000
245.528; -255.000; -871.000; -705.000
245.670;  179.900;  612.000;  634.000
245.813; -196.600; -599.000; -547.000
245.956;  -69.300; -324.000; -275.000
246.098; -171.500; -508.000; -650.000
246.241;   33.000;  194.000;   48.000
246.383;  -48.600; -119.000;  -73.000
246.526; -170.500; -454.000; -525.000
246.669; -247.700; -889.000; -780.000
246.811;   42.100;  172.000;   -1.000
246.954; -112.700; -512.000; -426.000
247.096;  -40.300;  -84.000;   -6.000
247.239; -128.400; -482.000; -445.000
247.381; -157.500; -647.000; -488.000
247.524;  185.600;  645.000;  679.000
247.666;  -10.000;   58.000;   11.000
247.809; -240.200; -887.000; -691.000
247.951;  -43.900;  -75.000;  138.000
248.094;  102.600;  432.000;  308.000
248.236; -339.800;-1262.000;-1238.000
248.378;   -8.900; -356.000;  -81.000
248.521;  -34.200; -334.000; -337.000
248.663;  -76.600; -236.000; -267.000
248.806;  -45.100; -300.000; -266.000
248.948; -184.800; -886.000; -763.000
249.090;  -97.200; -428.000; -398.000
249.233; -122.200; -344.000; -381.000
249.375; -129.300; -474.000; -451.000
249.518;  -59.300;  -83.000; -133.000
249.660;   -0.300; -103.000;    3.000
249.802; -358.900;-1303.000;-1189.000
249.945; -140.800; -612.000; -540.000
250.087; -238.000; -834.000; -768.000
250.229;  -99.500; -362.000; -480.000
250.371; -167.100; -494.000; -439.000
250.514; -118.900; -310.000; -244.000
250.656;  -36.300;   69.000;  102.000
250.798; -241.500; -849.000; -800.000
250.940; -138.700; -322.000; -322.000
251.083;  -66.200; -335.000; -111.000
251.225;  118.800;  338.000;  310.000
251.367;  -97.300; -274.000; -373.000
251.509;  -73.000; -265.000; -210.000
251.651; -220.300; -731.000; -671.000
251.794;  111.400;  538.000;  632.000
251.936; -221.100; -821.000; -747.000
252.078; -142.000; -540.000; -461.000
252.220; -147.700; -645.000; -477.000
252.362;  174.100;  344.000;  462.000
252.504; -150.400; -677.000; -584.000
252.646; -253.300; -875.000; -722.000
252.788;   -9.400;   14.000; -128.000
252.931;  -74.600; -257.000; -253.000
253.073;  -68.600; -376.000; -317.000
253.215;   -0.100;  141.000;  122.000
253.357;  -25.500;   82.000; -153.000
253.499; -109.300; -374.000; -234.000
253.641; -180.800; -749.000; -594.000
253.783; -217.000; -609.000; -527.000
253.925; -171.700; -586.000; -591.000
254.067; -230.600; -744.000; -667.000
254.209;  -36.800; -391.000; -259.000
254.351; -287.100; -865.000; -883.000
254.493; -131.900; -441.000; -417.000
254.635; -195.000; -936.000; -818.000
254.777; -183.800; -752.000; -687.000
254.918; -151.300; -512.000; -430.000
255.060; -120.400; -551.000; -395.000
255.202; -115.500; -473.000; -261.000
255.344; -165.400; -658.000; -455.000
255.486; -163.400; -471.000; -406.000
255.628; -242.500; -780.000; -781.000
255.770; -207.200; -676.000; -536.000
255.912; -125.200; -559.000; -468.000
256.053; -209.000; -730.000; -508.000
256.195;  336.200; 1008.000;  903.000
256.337; -220.900; -861.000; -595.000
256.479;  131.600;  532.000;  416.000
256.621; -104.900; -394.000; -212.000
256.762; -197.600; -789.000; -742.000
256.904;  121.900;  485.000;  487.000
257.046;  -72.300; -381.000; -271.000
257.188;  -70.400; -351.000; -264.000
257.329; -175.700; -525.000; -464.000
257.471; -234.800; -939.000; -807.000
257.613; -132.000; -584.000; -498.000
257.755; -312.400;-1073.000; -982.000
257.896;   58.400;  286.000;  392.000
258.038; -149.200; -403.000; -352.000
258.180;  -68.300; -354.000; -279.000
258.321; -205.700; -581.000; -457.000
258.463;  -25.800;  -71.000;  133.000
258.605; -179.200; -562.000; -570.000
258.746; -223.300; -886.000; -772.000
258.888; -306.600;-1026.000;-1020.000
259.029;   56.100;  121.000;   -8.000
259.171; -197.900; -614.000; -550.000
259.313;    8.500;  -49.000;  -47.000
259.454; -166.300; -536.000; -414.000
259.596; -108.900; -483.000; -390.000
259.737; -142.100; -590.000; -474.000
259.879;   78.200;  217.000;  311.000
260.020;  179.100;  901.000;  636.000
260.162;  -46.100; -146.000; -253.000
260.303; -210.200; -768.000; -687.000
260.445; -154.900; -609.000; -613.000
260.586;   83.700;  392.000;  157.000
260.728;  -51.300; -360.000; -248.000
260.869; -135.100; -350.000; -343.000
261.011;  170.900;  706.000;  537.000
261.152; -144.200; -479.000; -319.000
261.293; -171.000; -576.000; -595.000
261.435;  -71.100; -219.000; -184.000
261.576;  -88.100; -455.000; -325.000
261.718;  116.100;  420.000;  470.000
261.859; -272.100; -940.000; -949.000
262.000; -273.400; -951.000;-1016.000
262.142;  -25.000;  -52.000;  -60.000
262.283; -230.400; -808.000; -691.000
262.424; -173.000; -666.000; -625.000
262.566; -325.600;-1161.000; -983.000
262.707; -226.700; -840.000; -830.000
262.848; -254.600; -769.000; -726.000
262.990;  -68.600; -362.000; -345.000
263.131;  162.400;  650.000;  681.000
263.272;    2.100;  -61.000;  -41.000
263.413; -152.800; -589.000; -561.000
263.555; -147.700; -669.000; -143.000
263.696; -168.000; -550.000; -641.000
263.837; -148.000; -449.000; -551.000
263.978;    1.600;   -5.000;  -77.000
264.119; -102.700; -283.000; -264.000
264.261; -239.100; -847.000; -630.000
264.402;    7.000;   33.000;   40.000
264.543; -179.800; -509.000; -524.000
264.684;  -23.000;   61.000;  -50.000
264.825; -152.500; -816.000; -538.000
264.966;   -7.700;  -84.000;  -67.000
265.107; -204.700; -646.000; -670.000
265.248; -257.800; -825.000; -812.000
265.390;  -10.900;  152.000;   -9.000
265.531;  -41.100; -238.000; -107.000
265.672; -156.400; -557.000; -630.000
265.813;  131.600;  563.000;  439.000
265.954; -265.000; -959.000; -940.000
266.095;  -43.500; -372.000; -322.000
266.236; -222.100; -686.000; -548.000
266.377;  -77.600; -243.000; -297.000
266.518; -114.800; -619.000; -547.000
266.659;   70.400;  170.000;  268.000
266.800;   25.300;   83.000;   85.000
266.941; -150.700; -487.000; -478.000
267.082;  -10.900;  354.000;   99.000
267.223; -117.400; -344.000; -273.000
267.364; -230.300; -892.000; -686.000
267.504;  -24.500;    3.000;  135.000
267.645;    9.900;  160.000;   67.000
267.786;  -85.200; -147.000;  -86.000
267.927; -140.300; -473.000; -379.000
268.068;  -17.800; -186.000;  -61.000
268.209;  -75.100; -175.000; -413.000
268.350; -126.600; -388.000; -532.000
268.490; -173.600; -648.000; -521.000
268.631;   91.500;  127.000;  225.000
268.772; -206.000; -874.000; -647.000
268.913; -105.800; -328.000; -476.000
269.054;  -35.700; -117.000;   12.000
269.194;  -69.000; -418.000; -402.000
269.335; -290.900;-1137.000;-1074.000
269.476;   -4.700;   33.000;  -35.000
269.617;  -89.100; -347.000; -392.000
269.757; -209.200; -713.000; -646.000
269.898; -203.300; -856.000; -613.000
270.039; -146.600; -415.000; -405.000
270.180; -262.700; -952.000; -816.000
270.320;  -58.400; -190.000; -250.000
270.461;  -83.600; -277.000; -249.000
270.602;  -18.300; -186.000; -156.000
270.742; -247.700; -868.000; -943.000
270.883;  -79.800; -442.000; -390.000
271.023;  -79.600; -358.000; -357.000
271.164; -157.200; -607.000; -528.000
271.305; -181.900; -666.000; -654.000
271.445; -184.400; -722.000; -683.000
271.586; -161.200; -462.000; -283.000
271.726;  -58.700; -397.000; -322.000
271.867; -109.400; -594.000; -534.000
272.008;  337.300; -473.000; -285.000
272.148;  260.800;  462.000;  468.000
272.289;   16.700; -113.000; -181.000
272.429;   71.700;   19.000;  185.000
272.570; -195.700; -633.000; -737.000
272.710; -210.700; -825.000; -775.000
272.851;  -32.600;  113.000; -130.000
272.991; -309.400;-1173.000;-1077.000
273.131; -138.200; -419.000; -459.000
273.272; -189.700; -683.000; -723.000
273.412;   55.200; -143.000;  -31.000
273.553; -116.200; -488.000; -507.000
273.693;  286.300;  913.000;  858.000
273.834; -205.300; -894.000; -692.000
273.974; -174.500; -664.000; -615.000
274.114; -199.500; -772.000; -560.000
274.255;  162.600;  414.000;  373.000
274.395;   25.900; -180.000; -125.000
274.535;  128.100;  199.000;  350.000
274.676;   50.200;  225.000;   94.000
274.816;   11.900;  110.000;   34.000
274.956; -172.400; -624.000; -690.000
275.097; -166.600;-1014.000; -922.000
275.237; -192.500; -913.000; -803.000
275.377; -199.600; -778.000; -689.000
275.517; -306.400; -878.000; -937.000
275.658; -145.600; -590.000; -555.000
275.798; -160.200; -606.000; -413.000
275.938;   42.600;  215.000;  323.000
276.078; -173.500; -626.000; -395.000
276.218;   28.800;   99.000;  104.000
276.359; -254.300;-1026.000;-1024.000
276.499; -119.500; -605.000; -446.000
276.639;  -51.000; -305.000; -151.000
276.779;  -98.700; -475.000; -357.000
276.919; -197.300; -783.000; -624.000
277.059;  -29.000; -261.000; -212.000
277.199; -118.000; -357.000; -259.000
277.340;  128.200;  287.000;  175.000
277.480; -210.800; -840.000; -693.000
277.620;   38.500;  192.000;   16.000
277.760; -417.800;-1533.000;-1294.000
277.900;   40.300;  113.000;   33.000
278.040;   44.300;  137.000;  159.000
278.180;   80.500;  270.000;  170.000
278.320;  -10.000;   21.000;   56.000
278.460; -140.300; -443.000; -469.000
278.600; -161.600; -708.000; -598.000
278.740;   86.600;  448.000;  224.000
278.880; -102.000; -768.000; -791.000
279.020;   21.700; -194.000; -144.000
279.160; -159.900; -672.000; -595.000
279.300; -266.900; -926.000; -873.000
279.440; -163.300; -709.000; -622.000
279.579;  -64.900;-1014.000; -929.000
279.719;  -67.800; -410.000; -394.000
279.859;  132.500;   -4.000;   41.000
279.999;   46.600; -208.000;  101.000
280.139;  -58.100; -435.000; -387.000
280.279; -153.700; -708.000; -745.000
280.419;  -28.400; -229.000; -147.000
280.559;  -88.200; -259.000; -180.000
280.698; -149.400; -790.000; -639.000
280.838; -205.400; -778.000; -800.000
280.978; -196.800; -846.000; -790.000
281.118; -232.000; -811.000; -704.000
281.257;   18.200;   24.000;    6.000
281.397; -229.100;-1094.000; -960.000
281.537; -156.700; -599.000; -712.000
281.677;  -40.900; -150.000; -101.000
281.816; -172.100; -700.000; -630.000
281.956;  -31.700; -193.000; -257.000
282.096; -151.800; -539.000; -396.000
282.235; -200.500; -672.000; -638.000
282.375;  -26.200; -243.000;  -98.000
282.515; -188.800; -715.000; -707.000
282.654;   60.700;   29.000;  106.000
282.794;   77.900;  388.000;  244.000
282.934;  -81.700; -530.000; -491.000
283.073; -244.900;-1030.000; -857.000
283.213;  -95.200; -460.000; -467.000
283.353;  -46.600; -408.000; -349.000
283.492;  -38.100; -264.000; -296.000
283.632;  -43.300; -254.000; -168.000
283.771; -188.600; -859.000; -730.000
283.911; -104.000; -369.000; -260.000
284.050; -200.300; -794.000; -748.000
284.190; -332.600;-1229.000;-1096.000
284.329; -289.100;-1055.000; -964.000
284.469; -143.500; -516.000; -591.000
284.608; -114.400; -559.000; -598.000
284.748; -169.900; -614.000; -570.000
284.887;   15.300;  -87.000;  -20.000
285.027; -258.400; -844.000; -892.000
285.166;  -50.000; -192.000; -249.000
285.306;   52.400; -116.000;  -33.000
285.445;  -58.800; -229.000; -343.000
285.584; -142.000; -630.000; -494.000
285.724;  -95.500; -282.000; -322.000
285.863; -200.900; -857.000; -507.000
286.002;  -97.600; -366.000; -276.000
286.142; -187.400; -715.000; -622.000
286.281; -127.000; -525.000; -493.000
286.420; -134.700; -554.000; -417.000
286.560;  219.300;  653.000;  623.000
286.699; -285.900; -958.000; -912.000
286.838; -131.500; -590.000; -591.000
286.978; -167.900; -533.000; -537.000
287.117; -260.300;-1085.000; -950.000
287.256;  -17.400; -228.000; -211.000
287.395; -104.600; -197.000; -378.000
287.535;  -88.000; -370.000; -298.000
287.674; -142.500; -509.000; -484.000
287.813;  158.800;  661.000;  533.000
287.952; -267.300;-1010.000; -871.000
288.091; -288.400;-1049.000; -915.000
288.231;   46.800;   13.000;   15.000
288.370; -335.900;-1217.000;-1200.000
288.509; -170.100; -728.000; -645.000
288.648; -172.400; -770.000; -548.000
288.787;  -26.800; -243.000;  -87.000
288.926; -100.300; -454.000; -475.000
289.065;  264.700;  859.000;  672.000
289.204;  -93.900; -377.000; -217.000
289.344; -200.400; -791.000; -690.000
289.483;   83.100;  416.000;  304.000
289.622;  -66.600; -291.000; -149.000
289.761;  -59.100; -309.000; -166.000
289.900; -207.900; -785.000; -626.000
290.039;   -5.800;  -12.000;  -95.000
290.178;  -56.300; -274.000; -180.000
290.317; -172.100; -618.000; -479.000
290.456; -147.600; -463.000; -451.000
290.595; -278.300; -961.000; -833.000
290.734; -253.600; -904.000; -891.000
290.873; -175.400; -456.000; -420.000
291.011; -199.400; -833.000; -843.000
291.150; -166.300; -770.000; -682.000
291.289;  -36.500; -343.000; -110.000
291.428; -191.400; -599.000; -480.000
291.567;  -71.200; -370.000; -442.000
291.706;  -13.000;  109.000;  154.000
291.845; -160.400; -597.000; -505.000
291.984; -320.600;-1234.000;-1061.000
292.122;  167.200;  602.000;  582.000
292.261;  131.100;  620.000;  463.000
292.400;   59.200; -144.000;  211.000
292.539; -233.800; -959.000; -813.000
292.678;  -54.400; -325.000; -300.000
292.816; -281.900;-1136.000; -965.000
292.955; -158.300; -844.000; -684.000
293.094;   -5.000; -173.000; -337.000
293.233;  -92.500; -556.000; -400.000
293.371;  -44.200; -225.000;  -84.000
293.510; -206.700; -866.000; -780.000
293.649; -251.600; -959.000; -924.000
293.787; -126.000;-1083.000;-1012.000
293.926;   -8.200; -113.000;  -32.000
294.065;  -72.000; -379.000; -290.000
294.203;   83.100;  298.000;  406.000
294.342;   43.200;   74.000;  156.000
294.481;11782.600;51180.000; -836.000
294.619;  -27.600; -425.000; -582.000
294.758; -271.900;-1230.000;-1137.000
294.896;  121.500; -125.000;    5.000
295.035; -252.600;-1040.000;-1006.000
295.174; -243.700;-1082.000; -954.000
295.312;  -64.500; -323.000; -203.000
295.451;   -2.700; -307.000; -428.000
295.589;  -81.000; -389.000; -518.000
295.728;   77.600; -292.000; -165.000
295.866;   31.700;  -36.000;  -51.000
296.005; -136.400; -584.000; -341.000
296.143; -144.400; -558.000; -596.000
296.282; -221.100; -957.000; -881.000
296.420; -189.900; -657.000; -557.000
296.559; -156.800; -892.000; -633.000
296.697;   22.300; -847.000; -665.000
296.835;  119.100;-1141.000;-1002.000
296.974;   94.300;  -23.000;   39.000
297.112;   43.100; -443.000; -504.000
297.251; -147.900; -815.000; -755.000
297.389;  160.300; -576.000; -438.000
297.527;  103.600; -145.000;  -83.000
297.666;  -96.400; -486.000; -438.000
297.804;  -91.700; -404.000; -264.000
297.942;   12.800; -136.000; -161.000
298.081;   18.000; -183.000;   63.000
298.219;  168.300;  -17.000;  -19.000
298.357;  106.800; -144.000;  -71.000
298.495;   45.600; -810.000; -812.000
298.634;  137.700;  245.000;  219.000
298.772;   95.600; -220.000; -338.000
298.910;  -60.000; -309.000; -182.000
299.048;    9.300; -130.000; -153.000
299.187;  -31.600; -350.000; -250.000
299.325;   30.700;   52.000;  122.000
299.463;   79.300; -389.000; -299.000
299.601;  185.700; -327.000; -271.000
299.739; -188.600; -908.000; -883.000
299.877; -157.900; -791.000; -703.000
300.016;  -98.100;-1095.000; -935.000
300.154;  302.500;  -19.000; -161.000
300.292;  124.400; -428.000; -348.000
300.430;   81.500; -408.000; -291.000
300.568; -199.100; -940.000; -874.000
300.706;  -78.000; -366.000; -469.000
300.844; -127.800;-1108.000; -979.000
300.982;  217.900;  246.000;  282.000
301.120; -218.400; -965.000; -866.000
301.258; -122.500; -812.000; -705.000
301.396;   75.200;  104.000;  -41.000
301.534;  175.300; -218.000; -293.000
301.672;   -0.200; -664.000; -521.000
301.810;   37.100; -613.000; -545.000
301.948;  300.600;   53.000;  149.000
302.086; 1117.700; -250.000;  -32.000
302.224; 1766.400; -610.000; -585.000
302.362;   55.600; -558.000; -622.000
302.500;  -23.600; -923.000; -893.000
302.638;  208.000;  128.000;  245.000
302.776;    1.900; -352.000; -408.000
302.913;   99.900;  447.000;  236.000
303.051;   18.200;  -86.000;  -23.000
303.189;  119.800;   90.000;  118.000
303.327;  -54.500; -341.000; -256.000
303.465; -144.100; -832.000; -588.000
303.603; -175.400; -805.000; -604.000
303.740;  220.500;  417.000;  241.000
303.878;   47.900; -800.000; -759.000
304.016; -178.100; -915.000; -790.000
304.154; -248.400;-1123.000;-1152.000
304.291;  -61.800; -505.000; -554.000
304.429;   43.500;  102.000;   74.000
304.567; -241.400; -908.000; -893.000
304.705;  -74.500; -408.000; -515.000
304.842;  175.200; -616.000; -540.000
304.980;  165.300;  215.000;   35.000
305.118;   87.800; -367.000; -365.000
305.255; -126.900; -945.000; -927.000
305.393;  142.500;  178.000;  239.000
305.531; -175.300;-1173.000; -956.000
305.668; -136.700; -663.000; -582.000
305.806;  179.300; -358.000; -439.000
305.943;  192.800; -629.000; -637.000
306.081;  161.400; -378.000; -267.000
306.219; -181.400; -863.000; -748.000
306.356;   53.200;  158.000;   27.000
306.494;  304.800;  981.000;  761.000
306.631;   18.000;  -11.000;  -55.000
306.769;   26.100; -613.000; -485.000
306.906;    2.400; -284.000; -258.000
307.044; -115.800; -473.000; -488.000
307.181;  -82.500; -410.000; -332.000
307.319;   91.800;  112.000;   87.000
307.456; -336.600;-1191.000;-1153.000
307.594; -184.500; -980.000; -727.000
307.731;   -9.500; -371.000; -164.000
307.868;   -0.400;  -15.000;   20.000
308.006; -250.100; -961.000; -847.000
308.143; -111.000; -618.000; -330.000
308.281;  444.300;  -37.000; -254.000
308.418;   50.300; -748.000; -640.000
308.555; -102.100; -400.000; -250.000
308.693; -126.100; -577.000; -573.000
308.830; -205.800; -712.000; -657.000
308.967;    3.000; -215.000;  -95.000
309.105;  -52.700; -507.000; -396.000
309.242;  116.000; -468.000; -367.000
309.379;  856.400; -577.000; -655.000
309.517;  -67.700; -936.000; -948.000
309.654; -171.000; -910.000; -734.000
309.791; -107.000; -662.000; -580.000
309.928; -217.200; -977.000; -914.000
310.065;  347.700;  819.000;  697.000
310.203;   -2.000; -825.000; -850.000
310.340;   12.300; -465.000; -321.000
310.477; -119.400; -412.000; -516.000
310.614;  -82.300; -383.000; -473.000
310.751; -128.300; -427.000; -518.000
310.889;    7.900;    1.000;   11.000
311.026; -286.200;-1161.000; -939.000
311.163;  -77.800; -386.000; -380.000
311.300; -130.900; -512.000; -479.000
311.437; -136.500; -658.000; -619.000
311.574; -303.100;-1226.000; -985.000
311.711;  -69.900; -595.000; -433.000
311.848;  -45.900; -380.000; -388.000
311.985;   62.800;  270.000;   93.000
312.122; -190.400; -932.000; -762.000
312.259; -215.100; -941.000; -994.000
312.396; -133.000; -508.000; -551.000
312.533; -169.100; -812.000; -790.000
312.670; -244.200;-1070.000; -898.000
312.807;  -44.100; -352.000; -367.000
312.944; -119.100; -513.000; -611.000
313.081;  -49.400; -150.000; -415.000
313.218; -178.000;-1111.000; -867.000
313.355;   38.200; -531.000; -449.000
313.492;   20.900; -455.000; -292.000
313.629;  275.000;  815.000;  735.000
313.766; -293.600;-1176.000;-1008.000
313.902;   -0.200; -186.000;   21.000
314.039;  -61.700; -372.000; -289.000
314.176;   91.800;  286.000;  192.000
314.313; -101.000; -569.000; -473.000
314.450; -137.200; -788.000; -684.000
314.587;  -54.700; -468.000; -480.000
314.723;   33.100;  -78.000;  130.000
314.860;  122.400;  318.000;  332.000
314.997;   74.600;  223.000;  142.000
315.134;  -25.900; -385.000; -368.000
315.270;  -66.500; -480.000; -496.000
315.407; -241.600;-1094.000; -967.000
315.544;  -98.000; -657.000; -538.000
315.681; -136.500; -681.000; -565.000
315.817;   86.400; -133.000; -176.000
315.954;   43.600; -613.000; -392.000
316.091; -223.300;-1045.000;-1023.000
316.227;   11.900;  -71.000; -179.000
316.364;   26.800;   23.000;    6.000
316.500;  -45.700; -113.000; -300.000
316.637;  -62.900; -181.000; -302.000
316.774; -144.000; -625.000; -358.000
316.910; -147.200; -598.000; -629.000
317.047; -144.300; -487.000; -351.000
317.183;  -68.900; -435.000; -566.000
317.320;    6.000; -367.000; -321.000
317.456; -127.800; -733.000; -805.000
317.593; -174.700; -598.000; -641.000
317.729;   58.000;  168.000;  -67.000
317.866; -364.200;-1434.000;-1285.000
318.002; -166.000; -708.000; -948.000
318.139; -183.400; -883.000; -867.000
318.275; -214.800;-1003.000; -738.000
318.412; -130.000; -517.000; -336.000
318.548;  -47.000; -751.000; -720.000
318.685; -179.000; -985.000; -888.000
318.821; -162.300; -762.000; -735.000
318.957;   10.800;   34.000;  -23.000
319.094;   90.500;  297.000;  154.000
319.230; -105.100; -756.000; -742.000
319.367;  250.900; -471.000; -520.000
319.503;  135.200; -538.000; -436.000
319.639; -157.500; -877.000; -793.000
319.775; -132.400; -750.000; -685.000
319.912;  -84.000; -424.000; -519.000
320.048; -190.600;-1184.000;-1184.000
320.184;  183.600;   59.000;   70.000
320.321;  -72.000; -497.000; -467.000
320.457;  159.200;  475.000;  662.000
320.593; -120.600; -375.000; -382.000
320.729; -192.700; -732.000; -734.000
320.866; -137.600; -577.000; -635.000
321.002; -176.000; -759.000; -809.000
321.138;   -6.200; -135.000; -211.000
321.274;  177.100; -148.000; -115.000
321.410;  -46.200; -585.000; -353.000
321.546;  -48.100;-1011.000; -911.000
321.683;  144.600;  400.000;  185.000
321.819;   38.000;  -48.000; -117.000
321.955; -220.800; -743.000; -722.000
322.091;  -71.600; -585.000; -540.000
322.227;    0.600; -382.000; -202.000
322.363;   -9.400; -320.000; -215.000
322.499;  -53.700; -343.000; -331.000
322.635;  315.100;  636.000;  443.000
322.771;   50.300; -139.000;   12.000
322.907;  203.500;  129.000;  327.000
323.043;   10.500; -115.000; -206.000
323.179;  -66.900; -394.000; -363.000
323.315;   53.600; -401.000; -371.000
323.451;  180.300; -328.000; -236.000
323.587;  160.000;  -60.000;  -77.000
323.723;   38.200; -682.000; -601.000
323.859;   -7.000; -258.000;  -76.000
323.995;  -58.700; -467.000; -409.000
324.131; -230.900; -967.000; -892.000
324.267;  -56.600; -254.000; -276.000
324.402; -222.200; -960.000; -983.000
324.538;  -16.800; -279.000; -104.000
324.674;   61.300;  164.000;   77.000
324.810;  301.100;  226.000;  308.000
324.946;   67.700; -810.000; -658.000
325.082; -138.300; -568.000; -475.000
325.217;   10.600;  -62.000;   16.000
325.353; -197.500; -764.000; -659.000
325.489; -152.900; -540.000; -506.000
325.625; -133.600; -579.000; -525.000
325.760;  163.900;  517.000;  376.000
325.896;  -46.100; -515.000; -702.000
326.032;  -80.800; -403.000; -352.000
326.168;  -99.100; -462.000; -369.000
326.303;  -90.100; -352.000; -461.000
326.439;  -35.500; -336.000; -276.000
326.575;   31.100; -190.000;  -29.000
326.710;    1.500; -156.000;  -30.000
326.846;  -19.100;  146.000;  103.000
326.982; -130.400; -530.000; -548.000
327.117; -112.500; -481.000; -442.000
327.253; -140.300; -745.000; -742.000
327.388; -235.100;-1137.000;-1153.000
327.524;  -68.600; -811.000; -578.000
327.659;  -11.900;  -58.000;  -22.000
327.795;   26.600;   69.000;   45.000
327.931; -154.500; -723.000; -499.000
328.066;  -40.300; -417.000; -276.000
328.202;  -62.300;   12.000; -129.000
328.337;  234.700;  957.000;  713.000
328.473;  -16.800;  -12.000;  -74.000
328.608;  -22.900; -256.000; -267.000
328.743; -128.000; -799.000; -664.000
328.879;   82.500;  214.000;  114.000
329.014;  -84.600; -102.000; -122.000
329.150; -157.300; -358.000; -483.000
329.285; -134.600; -465.000; -466.000
329.421;  -69.000; -548.000; -246.000
329.556;    2.800;  -36.000;   85.000
329.691; -169.900; -633.000; -615.000
329.827; -149.800; -626.000; -480.000
329.962;  -50.600;  131.000; -301.000
330.097; -163.600; -673.000; -585.000
330.233;  -64.100; -410.000; -223.000
330.368; -217.700; -839.000; -628.000
330.503;   -5.000;    3.000;   98.000
330.638;   40.800;  -93.000; -125.000
330.774; -113.800; -609.000; -530.000
330.909;  -46.300; -434.000; -244.000
331.044; -187.300; -714.000; -708.000
331.179; -290.900;-1217.000;-1109.000
331.315;   48.900;   77.000;   20.000
331.450;   60.300;  157.000;  285.000
331.585; -145.900; -805.000; -706.000
331.720; -147.700; -510.000; -460.000
331.855;    2.600;  -35.000; -102.000
331.990;  459.300;   62.000;  138.000
332.126;  261.000; -110.000;   71.000
332.261;  -21.500; -379.000; -265.000
332.396;   40.300; -135.000; -242.000
332.531; -185.700;-1074.000;-1031.000
332.666;   84.200; -519.000; -363.000
332.801; -184.400; -726.000; -807.000
332.936;  -48.500; -192.000; -122.000
333.071; -238.100; -870.000; -817.000
333.206;   77.000;  307.000;  379.000
333.341;   98.500;  344.000;  418.000
333.476; -132.700; -627.000; -623.000
333.611;  -55.300; -251.000; -173.000
333.746;  -80.600; -381.000; -464.000
333.881; -183.100; -973.000; -935.000
334.016; -261.200; -936.000; -917.000
334.151; -250.300; -746.000; -702.000
334.286;   81.700;  152.000;  186.000
334.421;   11.600; -125.000; -178.000
334.556; -126.100; -611.000; -567.000
334.690; -134.200; -631.000; -577.000
334.825;  140.000;  381.000;   83.000
334.960; -116.200; -285.000; -413.000
335.095;   51.600;  135.000;  -91.000
335.230; -178.900; -722.000; -738.000
335.365; -248.900;-1084.000; -990.000
335.499; -234.700;-1108.000;-1037.000
335.634;   45.000;    9.000;  534.000
335.769; -192.500; -755.000; -720.000
335.904; -108.100; -603.000; -561.000
336.038;  -86.300; -735.000; -657.000
336.173; -229.500;-1206.000;-1194.000
336.308;   10.800; -116.000; -189.000
336.443;   50.900; -544.000; -634.000
336.577; -143.900; -936.000; -787.000
336.712;  150.800;   -4.000;  -12.000
336.847;  -63.600; -724.000; -607.000
336.981;  148.600; -272.000; -208.000
337.116;  503.900;  615.000;  501.000
337.250;  315.700; -434.000; -421.000
337.385;  486.000; -297.000; -208.000
337.520;  162.700; -632.000; -603.000
337.654;  -95.100; -215.000; -126.000
337.789; -240.900; -989.000; -933.000
337.923;  -22.500; -104.000; -205.000
338.058; -155.900; -673.000; -738.000
338.192;  -44.100; -611.000; -488.000
338.327;   23.600;  -18.000; -155.000
338.461; -119.500; -299.000; -469.000
338.596; -168.600; -780.000; -638.000
338.730; -186.200; -767.000; -803.000
338.865;  202.700;  -46.000; -140.000
338.999; -108.900; -846.000; -702.000
339.134;  -48.100; -634.000; -536.000
339.268;   40.100; -741.000; -603.000
339.403;  674.900; -740.000; -775.000
339.537;  243.800; -894.000; -820.000
339.671; -203.100; -829.000; -813.000
339.806; -104.900; -556.000; -512.000
339.940;   10.000; -261.000; -235.000
340.074; -150.300; -685.000; -510.000
340.209;  -85.400; -351.000; -230.000
340.343; -166.400; -517.000; -573.000
340.477;  329.900;  998.000; 1036.000
340.612;  -85.200;-1033.000; -900.000
340.746;  262.600; -199.000; -243.000
340.880; -126.000; -924.000; -785.000
341.014;  -43.100;  -45.000; -154.000
341.149; -205.600; -756.000; -718.000
341.283; -227.800; -839.000; -754.000
341.417; -177.400;-1124.000; -938.000
341.551;  256.800; -768.000; -708.000
341.685;  -17.200; -633.000; -611.000
341.820;  -95.700; -562.000; -493.000
341.954;  -49.900; -218.000; -349.000
342.088; -290.800;-1102.000;-1019.000
342.222;  118.600;  565.000;  618.000
342.356;  -82.300; -395.000; -335.000
342.490; -179.700; -880.000; -841.000
342.624;  -78.900; -339.000; -242.000
342.758;   18.800; -364.000; -312.000
342.892; -128.500; -710.000; -585.000
343.026;  -32.200;  -58.000; -116.000
343.160;  -99.400; -426.000; -376.000
343.294; -138.800; -474.000; -337.000
343.428;  -39.300; -488.000; -448.000
343.562;   -1.600; -172.000;  -23.000
343.696;  -33.700; -385.000; -314.000
343.830;  -35.300; -362.000; -356.000
343.964;   37.400; -231.000; -168.000
344.098; 1654.000;  199.000;   70.000
344.232; 1432.900; -266.000; -127.000
344.366;  184.100; -567.000; -453.000
344.500;  155.900; -665.000; -744.000
344.634;   78.000; -324.000; -164.000
344.768;  -11.600; -531.000; -341.000
344.902;   74.100;  278.000;  256.000
345.035; -125.100; -556.000; -496.000
345.169; -250.500; -933.000; -656.000
345.303;  -17.900; -308.000; -482.000
345.437; -125.700; -826.000; -717.000
345.571; -116.000; -675.000; -594.000
345.704;  -76.900; -309.000; -532.000
345.838;   -0.100; -331.000; -284.000
345.972;  -52.300; -543.000; -495.000
346.106;  355.100; -179.000; -190.000
346.239;  814.500; -312.000; -243.000
346.373;   43.400; -343.000; -302.000
346.507; -278.600; -950.000; -962.000
346.640;  306.600;  -30.000;   13.000
346.774;  -59.400; -650.000; -797.000
346.908;  -22.300; -138.000;  -11.000
347.041; -152.700; -646.000; -593.000
347.175;   45.300;  259.000;   27.000
347.309; -134.100; -698.000; -628.000
347.442; -177.600; -883.000; -732.000
347.576;  556.700;  670.000;  668.000
347.709;  383.000; -123.000;  -52.000
347.843; -170.600; -933.000; -825.000
347.976;  106.800;  235.000;  294.000
348.110; -315.500;-1268.000;-1186.000
348.243; -175.900; -679.000; -772.000
348.377;   46.200;  -26.000;   60.000
348.510;  120.000;  403.000;  540.000
348.644;  -80.200;  -37.000; -159.000
348.777;   21.700;  180.000;  191.000
348.911;  -59.700; -142.000; -112.000
349.044;  336.900;  471.000;  448.000
349.178;  297.200;-1069.000;-1006.000
349.311;  265.400;  141.000;  255.000
349.444;  -37.100; -927.000; -813.000
349.578;  -25.600; -347.000; -200.000
349.711; -188.600; -959.000; -862.000
349.845;  -18.200; -661.000; -591.000
349.978; -283.100;-1224.000;-1137.000
350.111; -159.200; -546.000; -612.000
350.244; -150.800; -596.000; -700.000
350.378;   36.600; -392.000; -393.000
350.511; -112.200; -393.000; -426.000
350.644; -171.000; -808.000; -806.000
350.778;   53.800;  168.000;  104.000
350.911;   55.000;  134.000;  140.000
351.044; -145.700; -685.000; -615.000
351.177;   -4.400; -321.000; -281.000
351.310;    0.000;    3.000; -131.000
351.444; -144.800; -888.000; -788.000
351.577;  261.700;  140.000;   90.000
351.710;  206.000;  593.000;  417.000
351.843;  -40.100; -165.000;  -77.000
351.976;   31.800;  149.000;  -79.000
352.109; -140.100; -621.000; -612.000
352.242;  -68.200; -464.000; -419.000
352.376; -108.000; -580.000; -636.000
352.509;  336.100; -437.000; -356.000
352.642;    2.800; -654.000; -604.000
352.775;  141.600; -141.000;  -98.000
352.908; -231.100; -933.000; -904.000
353.041; -205.900; -814.000; -824.000
353.174; -104.200; -551.000; -424.000
353.307; -148.600; -753.000; -764.000
353.440;  179.600;  541.000;  453.000
353.573; -226.500; -957.000;-1008.000
353.706;  -87.400; -384.000; -558.000
353.839;  -25.900; -264.000; -220.000
353.971; -147.900; -657.000; -512.000
354.104; -168.700; -896.000; -835.000
354.237;  -31.400; -627.000; -662.000
354.370; -120.600; -846.000; -879.000
354.503; -339.700;-1231.000;-1308.000
354.636;  -39.500; -529.000; -348.000
354.769; -193.500; -937.000; -860.000
354.902;   -3.000; -230.000; -139.000
355.034;   -7.100; -164.000; -220.000
355.167;  -13.400; -262.000; -162.000
355.300; -173.000;-1061.000; -880.000
355.433; 1854.300;  -71.000;  -14.000
355.565; 2821.800; -402.000; -384.000
355.698;  749.100; -356.000; -296.000
355.831;   21.000; -882.000; -801.000
355.964;  187.200; -285.000; -170.000
356.096; -142.600; -856.000; -843.000
356.229;   22.800; -523.000; -530.000
356.362;  634.100; -373.000; -266.000
356.494; 1101.400; -229.000; -162.000
356.627;  959.200;  269.000;  377.000
356.760; 1208.400;  120.000;   53.000
356.892; 1784.400; -286.000; -601.000
357.025; 1268.200;  403.000;  389.000
357.157; 1162.300; -167.000; -179.000
357.290; 1253.200; -856.000; -713.000
357.423;  381.800; -667.000; -556.000
357.555;  198.000; -217.000; -228.000
357.688;  246.700; -483.000; -364.000
357.820;  800.600; -870.000; -877.000
357.953; 6688.200; -563.000; -589.000
358.085; 1423.400; -632.000; -612.000
358.218; 2181.400;-1131.000; -932.000
358.350;  431.300;  -58.000;  312.000
358.483; -213.200;-1300.000;-1187.000
358.615;  -18.200;-1182.000;-1078.000
358.747;  -92.500;-1187.000;-1058.000
358.880;   37.700; -810.000; -744.000
359.012;   31.500; -376.000; -202.000
359.145;  -58.900; -480.000; -511.000
359.277;   99.100; -962.000; -913.000
359.409; 5545.100;  536.000;  231.000
359.542; 1392.200; -738.000; -688.000
359.674;  162.600;   46.000;   13.000
359.806; -107.200; -565.000; -438.000
359.939;  -71.300; -617.000; -516.000
360.071;   20.900; -583.000; -579.000
360.203;  -42.900; -411.000; -364.000
360.335;  111.200;  164.000;  -16.000
360.468;  372.600; -249.000; -307.000
360.600; 4470.700; -547.000; -454.000
360.732; 5249.500; -546.000; -423.000
360.864;  677.400;-1216.000;-1044.000
360.996;  547.600; -516.000; -554.000
361.129;   96.200; -389.000; -598.000
361.261;   75.600;  110.000; -113.000
361.393;  -13.800; -252.000; -214.000
361.525;  113.700;   94.000;  244.000
361.657;  -88.000; -821.000; -703.000
361.789;   79.800; -139.000; -155.000
361.921;  457.700; -642.000; -593.000
362.053;  558.900;  524.000;  541.000
362.185;  136.200;  288.000;   72.000
362.318; -127.300; -709.000; -705.000
362.450;  276.900;  294.000;  444.000
362.582;  209.600; -913.000; -870.000
362.714;  -31.500; -353.000; -332.000
362.846; -119.400; -606.000; -490.000
362.978; -246.500; -941.000; -811.000
363.109;  114.000; -161.000; -260.000
363.241;  875.700; -739.000; -749.000
363.373;  796.200; -649.000; -564.000
363.505; 1213.000; -186.000;  -91.000
363.637;  322.400; -787.000; -601.000
363.769; -220.800;-1067.000;-1080.000
363.901;  -84.200; -596.000; -654.000
364.033; -239.300;-1103.000;-1062.000
364.165;   52.700; -283.000; -283.000
364.296;  151.200; -316.000; -177.000
364.428;   92.000;-1344.000;-1220.000
364.560;  -93.400; -679.000; -661.000
364.692;  -88.900; -738.000; -835.000
364.824;  520.000; -588.000; -456.000
364.955;  881.600; -402.000; -564.000
365.087; 1669.800;-1097.000; -852.000
365.219;   40.300; -686.000; -816.000
365.351; -101.800; -526.000; -572.000
365.482;  143.700;  300.000;  240.000
365.614;  -72.800; -402.000; -314.000
365.746; -187.200; -729.000; -752.000
365.877; -154.100; -706.000; -672.000
366.009;  572.600;  -35.000;  -62.000
366.141; -183.900;-1249.000;-1134.000
366.272; -173.000; -803.000; -719.000
366.404; -212.600;-1005.000; -874.000
366.535;   21.000; -139.000;  -12.000
366.667; -175.400; -644.000; -649.000
366.799;  144.500;  353.000;  203.000
366.930; -203.900; -862.000; -996.000
367.062;  237.200; -639.000; -613.000
367.193;  265.200; -872.000; -842.000
367.325; -109.400; -580.000; -684.000
367.456;   89.900; -246.000;   31.000
367.588;  346.600; -371.000; -318.000
367.719;   85.600;  -44.000;  -45.000
367.851;    5.900; -222.000; -241.000
367.982;  -70.900; -875.000; -732.000
368.113;  233.200; -475.000; -358.000
368.245; -205.200; -960.000; -841.000
368.376;  -29.800; -254.000; -302.000
368.508;  -28.900; -188.000; -263.000
368.639; -246.100;-1166.000;-1034.000
368.770;   11.800; -670.000; -589.000
368.902; -100.900; -836.000; -926.000
369.033; -178.100; -906.000; -855.000
369.164;  -75.600; -720.000; -653.000
369.296; -152.400; -452.000; -601.000
369.427;    6.400; -209.000; -144.000
369.558;  -77.400; -593.000; -377.000
369.689; -135.600; -721.000; -569.000
369.821; -255.700; -951.000; -845.000
369.952;   25.300;   42.000; -108.000
370.083;  -47.500; -229.000; -108.000
370.214; -133.200; -735.000; -650.000
370.345;   19.300;   65.000;   81.000
370.477; -121.500; -810.000; -790.000
370.608;  447.600; -328.000; -264.000
370.739; -108.500;-1233.000;-1292.000
370.870;  -33.700;-1102.000; -923.000
371.001;  197.500; -378.000; -467.000
371.132; -124.500; -754.000; -735.000
371.263;    9.600;  -42.000; -148.000
371.394; -241.500; -841.000; -748.000
371.525;   91.400;  345.000;  225.000
371.657; -175.200; -808.000; -670.000
371.788;  199.900;  103.000;  199.000
371.919;  344.800; -384.000; -304.000
372.050; 6703.100;  -91.000; -156.000
372.181; 1870.300; -188.000; -294.000
372.311;  720.000;   42.000; -127.000
372.442;   89.600; -457.000; -451.000
372.573;  -39.500; -444.000; -340.000
372.704; -223.300;-1008.000; -980.000
372.835;  167.200; -228.000; -289.000
372.966;  -83.300; -646.000; -554.000
373.097;  -89.400; -575.000; -711.000
373.228;  -93.800; -717.000; -542.000
373.359;  314.900; -824.000; -536.000
373.490; 1777.600; -881.000; -727.000
373.620; 2142.500;-1001.000; -803.000
373.751; 3266.000; -332.000; -396.000
373.882; 1438.400; -663.000; -733.000
374.013;  147.600; -449.000; -262.000
374.143;  -68.400; -581.000; -659.000
374.274; -180.600; -987.000; -908.000
374.405;  364.800; -388.000; -276.000
374.536;  852.400; -526.000; -387.000
374.666; 2123.500; -759.000; -807.000
374.797;  416.000; -817.000; -868.000
374.928; 1593.800; -710.000; -560.000
375.058; 1650.200; -535.000; -500.000
375.189;  174.100;  -59.000;  -93.000
375.320; -177.100; -928.000;-1034.000
375.450;  -52.700; -625.000; -616.000
375.581;  -87.700; -526.000; -436.000
375.712;   -9.500; -574.000; -250.000
375.842;  621.200; -438.000; -415.000
375.973;  439.200; -554.000; -513.000
376.103;  -35.800; -665.000; -648.000
376.234; -127.700; -531.000; -552.000
376.364;  -34.600; -944.000; -867.000
376.495;  675.600;  925.000;  529.000
376.625;   20.300; -472.000; -485.000
376.756;  128.100; -709.000; -678.000
376.886; -120.100;-1178.000;-1026.000
377.017;  114.300;-1048.000;-1061.000
377.147;  662.600; -786.000; -782.000
377.278;  172.100;  174.000;  228.000
377.408; -214.400; -801.000; -815.000
377.538; -164.400; -707.000; -693.000
377.669; -121.200; -537.000; -613.000
377.799; -128.900; -645.000; -635.000
377.929;  -97.500; -610.000; -428.000
378.060; -221.800; -781.000; -847.000
378.190;  -48.100; -726.000; -531.000
378.320;  -62.000; -401.000; -406.000
378.451;   30.200; -131.000;  -22.000
378.581;  -14.900;  -67.000; -110.000
378.711;  356.300; 1035.000;  866.000
378.841;  -42.600; -533.000; -675.000
378.972;  -78.300; -871.000; -751.000
379.102;   37.200; -652.000; -579.000
379.232;  -10.200; -126.000;  -73.000
379.362; -187.100;-1001.000; -885.000
379.492;   52.000; -373.000; -424.000
379.623;  246.000;    0.000;  111.000
379.753; -166.500;-1107.000; -974.000
379.883;  443.700;   59.000;  156.000
380.013;   57.700;-1081.000;-1017.000
380.143; -180.900;-1097.000;-1056.000
380.273; -156.900; -985.000; -861.000
380.403;   70.700; -344.000; -257.000
380.533;  -23.100; -651.000; -664.000
380.663;  179.400;  173.000;  128.000
380.793; -166.500;-1027.000;-1074.000
380.923;   16.900; -103.000;  -34.000
381.053; -160.000; -613.000; -623.000
381.183;  -32.800; -106.000; -248.000
381.313;   91.000; -656.000; -470.000
381.443;  126.500; -692.000; -473.000
381.573;  435.900; -402.000; -409.000
381.703;  565.100;-1249.000;-1095.000
381.833; -221.400;-1454.000;-1336.000
381.963;  265.600; -134.000;  -87.000
382.093; 2606.000; -925.000; -909.000
382.223;  767.900; -713.000; -602.000
382.353;  -12.800; -801.000; -608.000
382.482;  711.300;-1091.000; -964.000
382.612; 1415.400; -872.000; -644.000
382.742;  802.400; -695.000; -622.000
382.872;  507.100; -565.000; -551.000
383.002;  192.300;  347.000; -132.000
383.131;   14.400; -226.000; -160.000
383.261;  -56.500; -706.000; -768.000
383.391;  564.400; -552.000; -377.000
383.521; 6005.600;  451.000;  263.000
383.650; 1276.800; -947.000; -904.000
383.780;    7.700; -783.000; -656.000
383.910;  244.200;  880.000;  802.000
384.039;   85.400; -794.000; -656.000
384.169;  466.700;-1205.000;-1017.000
384.299;   -6.400; -650.000; -662.000
384.428; -126.100; -764.000; -680.000
384.558;  -31.000; -308.000; -275.000
384.687;   10.500; -414.000; -334.000
384.817;   90.800;   75.000;   -2.000
384.947;   87.100; -234.000; -141.000
385.076;  602.400;  982.000;  912.000
385.206;  235.000;  369.000;  480.000
385.335;  -27.400; -549.000; -417.000
385.465;  -94.700; -655.000; -663.000
385.594;  326.900;  -53.000;  -44.000
385.724;  770.400; -868.000; -838.000
385.853;  238.400; -296.000; -270.000
385.982; 2593.800; -743.000; -787.000
386.112; 3847.300;-1052.000; -871.000
386.241;  293.100; -307.000; -312.000
386.371;   70.300; -174.000;  -87.000
386.500;   47.900; -825.000; -789.000
386.629;   92.400; -874.000; -817.000
386.759;  193.000;  -43.000;   68.000
386.888;   50.700; -170.000; -250.000
387.017;  -96.400; -648.000; -620.000
387.147; -169.900; -771.000; -798.000
387.276;   52.100; -410.000; -397.000
387.405;   76.000; -398.000; -342.000
387.535;  -39.700; -452.000; -361.000
387.664;  -75.400; -692.000; -620.000
387.793;  174.900; -198.000; -113.000
387.922; 1031.800;  255.000;  200.000
388.052;   83.600; -576.000; -423.000
388.181;   62.600; -342.000; -472.000
388.310;   31.500; -889.000; -710.000
388.439;  -46.200; -749.000; -742.000
388.568;  386.400;  365.000;  244.000
388.697; 1996.600; -756.000; -653.000
388.826;  371.500; -768.000; -666.000
388.956;  129.000; -285.000; -307.000
389.085;  -50.300; -347.000; -287.000
389.214; -187.200; -842.000; -872.000
389.343; -106.400; -645.000; -413.000
389.472;  816.000;  126.000;  149.000
389.601; 1002.900;   91.000;    0.000
389.730;   25.100; -568.000; -687.000
389.859;  198.600;  226.000;   46.000
389.988;  403.200; -423.000; -408.000
390.117;  302.000; -168.000; -146.000
390.246;   18.300; -331.000; -320.000
390.375;  229.400; -673.000; -626.000
390.504;  -83.600; -703.000; -621.000
390.633; -159.500; -672.000; -726.000
390.761; -129.000; -732.000; -645.000
390.890;   83.800;   -4.000; -130.000
391.019;  -34.800; -421.000; -441.000
391.148; -205.900; -826.000; -855.000
391.277;  -71.700; -576.000; -493.000
391.406; -153.400; -821.000; -805.000
391.534;   67.600;  574.000; -301.000
391.663;  -70.100; -583.000; -645.000
391.792; -136.300; -673.000; -701.000
391.921;  200.300;   -3.000;   15.000
392.050;  379.400; -287.000; -228.000
392.178;  -66.200;-1206.000;-1061.000
392.307;  321.600; -758.000; -712.000
392.436;  129.500; -427.000; -641.000
392.564;   86.000;  166.000;   -6.000
392.693; -143.000; -860.000; -682.000
392.822;  432.000; -529.000; -534.000
392.950;  197.700; -880.000; -714.000
393.079;  639.000; -188.000; -328.000
393.208;   77.200; -488.000; -511.000
393.336;   28.900; -170.000; -145.000
393.465;  -42.400; -317.000; -199.000
393.593;   58.900;   62.000;   79.000
393.722; -284.800;-1121.000; -916.000
393.850;  -41.400; -188.000;  -61.000
393.979; -266.700; -926.000; -805.000
394.107;  -83.000; -517.000; -537.000
394.236;  -11.800; -570.000; -507.000
394.364;  543.000;  383.000;  206.000
394.493;  883.400; -911.000; -767.000
394.621;   31.600; -955.000; -916.000
394.750; 1432.300; -873.000; -923.000
394.878; 5734.400; -247.000; -149.000
395.007; 7359.900; -721.000; -807.000
395.135;  549.400; -790.000; -721.000
395.263; -149.900;-1038.000;-1040.000
395.392;   70.100;  -25.000; -107.000
395.520; -161.800; -818.000; -679.000
395.648; -156.400; -865.000; -915.000
395.777;   46.900; -366.000; -405.000
395.905;  -53.500; -449.000; -564.000
396.033;   83.600;  217.000;  172.000
396.162; 1428.700; -399.000; -453.000
396.290; 1255.800;  -17.000;   -2.000
396.418;  244.000; -555.000; -514.000
396.546; -110.500; -571.000; -466.000
396.674; -168.300; -850.000; -878.000
396.803;   83.200;  -72.000;  -23.000
396.931;  202.700; -179.000; -199.000
397.059;  122.600;-1026.000; -989.000
397.187; -194.800;-1026.000; -975.000
397.315; -233.000; -884.000; -649.000
397.443; -133.100; -592.000; -443.000
397.572; -114.700; -578.000; -424.000
397.700;   30.900; -607.000; -614.000
397.828;   96.100;  120.000;  -90.000
397.956;  -73.000; -508.000; -478.000
398.084; -107.100; -767.000; -626.000
398.212;  170.700;  137.000;  124.000
398.340;   66.800;  -56.000;  159.000
398.468;  100.000; -390.000; -169.000
398.596; -251.800; -993.000; -953.000
398.724; -193.800; -762.000; -767.000
398.852; -264.600;-1024.000; -976.000
398.980;  -57.300; -560.000; -560.000
399.108;  -50.100; -982.000; -735.000
399.236;  103.900;   13.000;    8.000
399.363;   98.400;  222.000;  196.000
399.491;  -75.800; -404.000; -398.000
399.619; -213.400; -829.000; -800.000
399.747; -145.700; -859.000; -771.000
399.875;  205.900;  220.000;  234.000
400.003;  -55.300; -359.000; -284.000
400.130; -118.300; -421.000; -341.000
400.258;    1.200;  -83.000;   38.000
400.386;  -72.900; -352.000; -168.000
400.514;  -38.000; -526.000; -587.000
400.641; -128.600; -928.000; -802.000
400.769; -229.000; -979.000; -888.000
400.897; -186.800; -838.000; -793.000
401.025;   66.900; -166.000; -152.000
401.152;   30.200;  220.000;   38.000
401.280;  -86.000; -430.000; -429.000
401.408; -181.100; -712.000; -576.000
401.535; -154.300; -735.000; -758.000
401.663; -329.600;-1134.000;-1054.000
401.790; -147.400; -514.000; -525.000
401.918;  146.700;  436.000;  405.000
402.046;   -1.400;  134.000;  122.000
402.173;  -28.300;  -18.000;    7.000
402.301;  -80.800; -519.000; -397.000
402.428;  155.900;  528.000;  383.000
402.556; -255.600;-1188.000; -913.000
402.683;  -18.700;  -20.000;   -1.000
402.811;   24.800;  -37.000; -206.000
402.938;   17.600;   20.000;   27.000
403.066;  336.600; -574.000; -558.000
403.193;  603.400;  299.000;  239.000
403.321;  476.400; -396.000; -574.000
403.448;  635.600;   83.000;   27.000
403.575;  275.600;  -90.000;  -46.000
403.703; -140.200; -732.000; -557.000
403.830;  -87.200; -531.000; -496.000
403.957; -241.200;-1117.000;-1023.000
404.085;   52.700;  -61.000; -172.000
404.212;  274.400;  -50.000;   63.000
404.339;  573.200; -566.000; -306.000
404.467;11271.400; -612.000; -524.000
404.594; 6979.000; -287.000; -227.000
404.721; 1668.600; -869.000; -764.000
404.848;  184.900; -113.000; -202.000
404.976; -193.100; -856.000; -783.000
405.103;   13.600;  -14.000;  -82.000
405.230;   71.700;  190.000;  226.000
405.357;   90.200;  117.000;   44.000
405.484;  558.700;  -49.000;    5.000
405.612;   96.800; -548.000; -563.000
405.739;  -94.400; -488.000; -243.000
405.866;  256.000;  669.000;  385.000
405.993;  -70.000; -398.000; -102.000
406.120; -242.300; -801.000; -887.000
406.247;  -92.400; -323.000; -342.000
406.374;  929.300;  540.000;  629.000
406.501;  184.400; -632.000; -702.000
406.628; -121.900; -621.000; -589.000
406.755; -129.000; -803.000; -620.000
406.882;  -37.000; -228.000; -277.000
407.009; -160.200; -719.000; -628.000
407.136;  187.500; -480.000; -401.000
407.263;  276.500; -939.000; -829.000
407.390; -114.900; -692.000; -614.000
407.517; -294.600;-1139.000;-1187.000
407.644;  -46.800; -332.000; -256.000
407.771;  -90.500; -249.000; -287.000
407.898;   80.500;  168.000;  328.000
408.025; -100.200; -421.000; -313.000
408.151;   34.000;   82.000;  153.000
408.278;  -79.900; -267.000; -216.000
408.405; -198.000; -931.000; -899.000
408.532; -119.800; -549.000; -542.000
408.659; -199.800; -677.000; -648.000
408.785; -346.600;-1298.000;-1170.000
408.912;  -76.200; -412.000; -296.000
409.039; -222.200; -610.000; -686.000
409.166; -148.000; -591.000; -555.000
409.292; -183.500; -571.000; -534.000
409.419; -180.200; -665.000; -649.000
409.546; -122.100; -431.000; -192.000
409.672; -152.700; -713.000; -545.000
409.799;  -38.900;  -36.000;   34.000
409.926;  -17.200; -180.000; -179.000
410.052; -327.900;-1127.000;-1091.000
410.179;  -73.200; -368.000; -392.000
410.305; -119.900; -375.000; -493.000
410.432;  -62.000; -220.000; -333.000
410.558; -146.200; -305.000; -380.000
410.685; -188.800; -688.000; -431.000
410.812; -138.800; -409.000; -588.000
410.938; -219.200; -964.000; -808.000
411.065; -117.200; -671.000; -645.000
411.191;    8.700; -189.000; -174.000
411.317; -210.800; -823.000; -742.000
411.444;  -80.800; -317.000; -246.000
411.570; -108.600; -339.000; -294.000
411.697; -204.700; -758.000; -752.000
411.823; -293.400; -989.000; -999.000
411.949;  -15.300;  -56.000;   17.000
412.076; -189.900; -539.000; -519.000
412.202; -199.700; -758.000; -757.000
412.329; -198.300; -798.000; -752.000
412.455; -233.100; -821.000; -657.000
412.581;   -4.100;  -15.000;  172.000
412.707; -122.600; -540.000; -457.000
412.834;   93.400;  156.000;  219.000
412.960; -139.200; -785.000; -784.000
413.086; -159.700; -743.000; -701.000
413.212;  353.400;  604.000;  578.000
413.339;  -81.400; -685.000; -701.000
413.465;   21.400; -364.000; -310.000
413.591; -140.200; -757.000; -474.000
413.717;  -69.100; -358.000; -366.000
413.843; -244.400; -839.000; -861.000
413.969;  -47.000;  -47.000; -292.000
414.096; -180.600; -679.000; -679.000
414.222;   40.500;  -33.000;   85.000
414.348;   -9.900; -652.000; -385.000
414.474;  191.600;   38.000;  -52.000
414.600;   18.400; -126.000; -144.000
414.726;    6.000;  -96.000;  -55.000
414.852;  -55.800; -365.000; -342.000
414.978;  145.200;  104.000;  -18.000
415.104;  104.400;   38.000;   80.000
415.230;   91.100; -329.000; -330.000
415.356;   80.200; -409.000; -514.000
415.482;  438.600;   13.000;  -35.000
415.608;  519.500; -247.000; -323.000
415.734; 1938.000;   67.000;   38.000
415.860;39732.700; -875.000; -767.000
415.986;26026.300; -685.000; -607.000
416.111; 2158.800; -798.000; -652.000
416.237;  474.000; -424.000; -571.000
416.363; 2363.800; -765.000; -733.000
416.489; 7802.400; -324.000; -251.000
416.615;  753.600; -707.000; -742.000
416.741;  -33.100; -677.000; -784.000
416.866; -119.900; -673.000; -736.000
416.992; -208.400; -801.000; -818.000
417.118;   20.900;  -41.000;  -80.000
417.244;  -70.500; -798.000; -531.000
417.369; -128.900; -801.000; -612.000
417.495;   19.400; -325.000; -254.000
417.621; -105.400;-1015.000; -803.000
417.746;   83.700; -579.000; -572.000
417.872;  139.600; -254.000; -144.000
417.998;  137.000; -515.000; -530.000
418.123; 2239.400;-1073.000; -845.000
418.249;10248.300; -512.000; -601.000
418.374; 1261.800; -916.000; -824.000
418.500;  237.100; -383.000; -482.000
418.626;  265.500;   70.000;  -59.000
418.751;  273.100; -549.000; -448.000
418.877;  406.800; -637.000; -643.000
419.002; 3764.000; -688.000; -560.000
419.128;24165.100; -930.000; -721.000
419.253; 5287.100; -967.000; -837.000
419.379;  740.400; -391.000; -338.000
419.504;  798.400;  325.000;  415.000
419.629; 1015.900; -393.000; -212.000
419.755; 7333.100; -317.000; -254.000
419.880;39475.600;  -98.000;   67.000
420.006;22196.100; -280.000; -221.000
420.131;54075.700; -662.000; -775.000
420.256; 6982.000; -315.000; -316.000
420.382;  989.300; -665.000; -687.000
420.507;  150.500; -649.000; -778.000
420.632;  257.400; -337.000; -339.000
420.758;  515.900; -251.000; -425.000
420.883; -127.900; -876.000; -672.000
421.008; -153.400; -775.000; -619.000
421.133; -101.600; -509.000; -467.000
421.259;  -49.200; -325.000; -259.000
421.384; -228.200; -834.000; -693.000
421.509;  -42.600;-1052.000; -862.000
421.634; 2145.900; -936.000; -820.000
421.759;  866.800; -359.000; -327.000
421.885;  -73.600; -717.000; -656.000
422.010; -140.800; -673.000; -542.000
422.135; -251.800; -695.000; -727.000
422.260;  118.600;  340.000;  280.000
422.385;  -13.400;   12.000;  -98.000
422.510;   95.200;  151.000;  -26.000
422.635;  106.800;  -87.000;  -43.000
422.760;  204.700; -766.000; -791.000
422.885;  107.400;  -57.000;  -80.000
423.010;  -25.300; -112.000; -169.000
423.135; -131.400; -481.000; -561.000
423.260;   38.500; -150.000; -245.000
423.385;  204.200;  476.000;  222.000
423.510;  137.900;   71.000;  -22.000
423.635;  184.000;  133.000;   45.000
423.760;  180.500;  383.000;  328.000
423.885;  160.300;  336.000;  391.000
424.010;   63.600;  -68.000;  -13.000
424.135;    2.200;    5.000;  -33.000
424.259; -102.300; -654.000; -457.000
424.384;  -52.300; -279.000; -272.000
424.509;   12.500; -260.000; -186.000
424.634; -176.400; -761.000; -623.000
424.759;    4.200; -688.000; -544.000
424.883;   14.800; -506.000; -527.000
425.008;  384.900; -502.000; -410.000
425.133; 3972.400; -679.000; -653.000
425.258; 1628.100; -517.000; -381.000
425.382; 2069.200; -867.000; -774.000
425.507; 4686.600; -487.000; -543.000
425.632;  745.800; -802.000; -663.000
425.756;  922.600; -256.000; -146.000
425.881;13273.500; -831.000; -857.000
426.006;32197.400; -604.000; -355.000
426.130; 4645.500; -696.000; -508.000
426.255;  642.200; -611.000; -491.000
426.379;  350.700; -189.000; -577.000
426.504;  842.800;  660.000;  544.000
426.629; 8144.000; -519.000; -466.000
426.753; 5077.300;   64.000;  -46.000
426.878;  589.700; -252.000; -288.000
427.002;  417.700; -651.000; -668.000
427.127; 3358.900;  -35.000; -158.000
427.251;22005.800;  372.000;  401.000
427.375; 5565.500; -191.000; -173.000
427.500; 4203.400; -616.000; -610.000
427.624; 1295.700; -234.000; -400.000
427.749;  249.000; -216.000; -225.000
427.873;  -42.200; -499.000; -412.000
427.997;  -17.600; -222.000; -230.000
428.122;  241.100;  795.000;  703.000
428.246;  186.300;  433.000;  434.000
428.371; -193.300; -869.000; -773.000
428.495; -143.500; -624.000; -646.000
428.619;   47.900; -186.000; -117.000
428.743;   82.900;   65.000;  132.000
428.868;   46.300; -732.000; -643.000
428.992; 2573.000; -219.000; -326.000
429.116; 1024.500; -329.000; -357.000
429.240;  575.400;  419.000;  426.000
429.365;   12.600; -454.000; -574.000
429.489;  -27.500; -638.000; -647.000
429.613;  118.900; -236.000; -177.000
429.737;  103.800; -563.000; -432.000
429.861;  616.200; -247.000; -133.000
429.985;11425.600; -425.000; -305.000
430.109;11124.000; -770.000; -908.000
430.234; 1251.200;   76.000;  -50.000
430.358;  185.300; -250.000; -160.000
430.482;  -97.000; -672.000; -564.000
430.606;  -78.400; -655.000; -375.000
430.730;  113.000; -437.000; -388.000
430.854;  301.500; -909.000; -835.000
430.978;  -97.800; -795.000; -764.000
431.102;  -83.700; -499.000; -422.000
431.226; -192.700; -874.000; -815.000
431.350;  155.600;  345.000;  422.000
431.474;  -72.100; -661.000; -373.000
431.597; -270.200;-1060.000; -848.000
431.721; -103.200; -276.000; -267.000
431.845; -198.400; -704.000; -472.000
431.969; -106.600; -304.000; -349.000
432.093; -128.800; -395.000; -317.000
432.217;   30.100;   32.000;   82.000
432.341; -104.300; -523.000; -518.000
432.464;   95.900;   96.000;   40.000
432.588;  498.700; -401.000; -329.000
432.712;  276.200;  -52.000;  -52.000
432.836;  139.600;  213.000;  263.000
432.959;   37.900; -372.000; -311.000
433.083;  200.500;   11.000;    2.000
433.207;  796.700;  285.000;  930.000
433.330;10231.600; -391.000; -200.000
433.454;11473.200; -654.000; -638.000
433.578; 6770.100;  583.000;  278.000
433.701; 1173.500; -623.000; -675.000
433.825;  273.700; -292.000; -299.000
433.949;  380.100;   28.000;  -72.000
434.072;  146.400; -410.000; -323.000
434.196;   36.700; -309.000; -117.000
434.319; 7879.900;25482.000;25124.000
434.443; 1552.500; -656.000; -603.000
434.566; 5052.900;  281.000;   62.000
434.690;  750.300; -637.000; -383.000
434.813;   93.600; -251.000; -173.000
434.937; -110.200; -569.000; -696.000
435.060;  -34.500; -423.000; -332.000
435.184;  621.800; -492.000; -217.000
435.307;  360.800;  159.000;  102.000
435.431;   20.000;  -40.000;   24.000
435.554; -103.500; -399.000; -240.000
435.677; -125.100; -350.000; -258.000
435.801;   -7.900;  -25.000;   49.000
435.924;   17.000;    1.000;  -67.000
436.048; -173.500;-1019.000; -732.000
436.171;  -92.600; -240.000;  -66.000
436.294;   14.600; -248.000; -229.000
436.417;  235.000; -963.000; -849.000
436.541; -128.700; -814.000; -840.000
436.664;  -48.500; -242.000; -316.000
436.787;   10.900;   13.000;  113.000
436.910; -182.900; -792.000; -422.000
437.034;   94.600;  142.000;  143.000
437.157;  186.000;  -11.000;    0.000
437.280;  -36.200; -392.000; -292.000
437.403; -142.500; -982.000; -869.000
437.526; 1290.300; -903.000; -865.000
437.649; 4082.000; -505.000; -332.000
437.772;  545.200; -692.000; -540.000
437.896;  279.300;  700.000;  544.000
438.019; -151.400; -758.000; -503.000
438.142; -108.000; -596.000; -506.000
438.265;   17.500; -639.000; -670.000
438.388; 1159.200; -520.000; -410.000
438.511;  182.300; -597.000; -394.000
438.634;  -34.800; -247.000; -125.000
438.757; -213.000; -693.000; -619.000
438.880;   20.200;  -34.000;  -57.000
439.003; -110.800; -417.000; -437.000
439.126; -136.200; -287.000; -167.000
439.248;  -42.300;  -98.000; -139.000
439.371;  -54.200;    9.000;  -53.000
439.494;  126.700;  510.000;  439.000
439.617;  -37.300;   65.000;  -88.000
439.740; -308.100; -968.000; -816.000
439.863; -229.600; -755.000; -595.000
439.986; -212.500; -476.000; -431.000
440.108;  -45.800; -161.000; -112.000
440.231; -292.700; -950.000; -836.000
440.354;  -12.700;  -64.000; -150.000
440.477;  113.500; -566.000; -542.000
440.599;   65.700; -200.000; -225.000
440.722; -188.000; -709.000; -586.000
440.845;  157.300;  751.000;  928.000
440.968; -170.200; -415.000; -311.000
441.090; -139.900; -199.000;  -33.000
441.213; -285.300;-1021.000; -825.000
441.336;  -54.200; -159.000;   -5.000
441.458;  -93.600; -549.000; -396.000
441.581; -112.400; -628.000; -629.000
441.703;  -71.400; -152.000;   13.000
441.826; -187.900; -557.000; -400.000
441.948;  -56.300;   56.000;   51.000
442.071;   99.300;  555.000;  424.000
442.193; -172.300; -531.000; -485.000
442.316;   83.300;  152.000;   97.000
442.438;  147.700; -233.000;  -10.000
442.561;  185.000;  272.000;  262.000
442.683; 1088.200; -809.000; -522.000
442.806; 2094.200;   -8.000;   74.000
442.928;   35.300; -859.000; -604.000
443.051; -113.500; -577.000; -373.000
443.173; -118.700; -341.000; -339.000
443.295; -148.300; -263.000; -371.000
443.418;  -72.100; -321.000;  -29.000
443.540;   44.700; -106.000;   -4.000
443.662; -186.300; -563.000; -465.000
443.785;   40.200;  335.000;  199.000
443.907; -189.600; -362.000; -208.000
444.029; -243.300; -767.000; -494.000
444.152; -252.100; -644.000; -554.000
444.274;   -8.600;  -18.000;  -24.000
444.396; -151.600; -461.000; -221.000
444.518; -206.000; -691.000; -454.000
444.640; -125.300; -268.000; -111.000
444.763;    8.400;  388.000;  249.000
444.885; -194.000; -432.000; -392.000
445.007;  -14.300;   35.000;   86.000
445.129; -198.600; -610.000; -515.000
445.251; -142.600; -372.000; -439.000
445.373; -225.700; -537.000; -386.000
445.495;   44.400;  242.000;  350.000
445.617;  170.500;  853.000;  753.000
445.739;  -88.200; -215.000;  -97.000
445.861;  -23.100; -245.000; -112.000
445.984;  -19.900; -267.000; -101.000
446.105;  446.800; -418.000; -251.000
446.227; 1113.900; -176.000;  -19.000
446.349;  -12.000; -358.000; -249.000
446.471; -172.800; -615.000; -448.000
446.593;  -53.500; -316.000;   19.000
446.715;   45.700;  -67.000;   41.000
446.837;  211.900;  697.000;  832.000
446.959; -134.700; -457.000; -478.000
447.081; -197.300; -628.000; -518.000
447.203;  146.000;  862.000;  834.000
447.325; -118.900; -270.000;   42.000
447.446;   46.300;  286.000;  530.000
447.568; -251.400; -921.000; -803.000
447.690; -109.500; -236.000; -245.000
447.812; -264.000; -798.000; -519.000
447.933;   16.900;  155.000;  127.000
448.055;  -37.600; -306.000; -261.000
448.177;  329.100;   31.000;   79.000
448.299;  175.500; -935.000; -727.000
448.420;  118.600;  -25.000;  159.000
448.542;  -50.900;   -3.000;   33.000
448.664;    7.500;  109.000;  322.000
448.785;   -2.000;  265.000;   83.000
448.907;  -83.900; -614.000; -353.000
449.028;  -35.700; -771.000; -471.000
449.150;  162.500;  492.000;  589.000
449.272; -314.800;-1044.000; -913.000
449.393;  147.200;  612.000;  694.000
449.515; -216.700; -634.000; -581.000
449.636;  -47.500; -264.000; -155.000
449.758;  208.800;  763.000;  622.000
449.879; -124.400; -498.000; -396.000
450.001;  -91.200; -149.000;  -49.000
450.122;   -4.500;  -95.000;  162.000
450.244;   46.400;   37.000;  364.000
450.365; -108.500; -495.000; -301.000
450.486;   -8.900;   80.000;  268.000
450.608;   85.600;  393.000;  326.000
450.729;  181.700;  578.000;  645.000
450.850;   66.800; -574.000; -466.000
450.972; 1556.200; -552.000; -389.000
451.093; 9671.900;  190.000;  588.000
451.214; 3623.200; -516.000; -337.000
451.336;  759.900;  773.000;  579.000
451.457;  159.200;  264.000;  393.000
451.578;  -23.700; -118.000;  -74.000
451.699; -184.600; -546.000; -540.000
451.821;  -68.200; -284.000;  -50.000
451.942;   76.900;  278.000;  285.000
452.063;  125.000;  228.000;  419.000
452.184; 1206.800;  -54.000;  -49.000
452.305; 2130.600;  103.000;  170.000
452.427;  248.600; -549.000; -301.000
452.548;   16.000;   23.000;   79.000
452.669;  -61.100; -257.000;  -89.000
452.790;  -35.000;    3.000;  -18.000
452.911;   33.600;  195.000;  259.000
453.032;  -62.600; -289.000;  -60.000
453.153;  -31.800;  -29.000;   81.000
453.274;  188.500;  737.000;  868.000
453.395;  -47.600;  -51.000;  175.000
453.516;  349.000; 1317.000; 1388.000
453.637;  -80.800; -205.000; -150.000
453.758;  -50.100;   15.000;   69.000
453.879; -137.000; -462.000; -250.000
454.000;  218.200; 1086.000;  948.000
454.121; -178.100; -554.000; -326.000
454.242; -190.400; -599.000; -383.000
454.362;  -45.900;  -99.000;  114.000
454.483;  -19.500; -309.000; -229.000
454.604;  157.200;  512.000;  580.000
454.725; -216.900; -627.000; -555.000
454.846; -205.000; -474.000; -406.000
454.967;   24.800;  230.000;  539.000
455.087;  -33.400;  179.000;  153.000
455.208;  101.500;  554.000;  856.000
455.329;  -54.100;  -22.000;   82.000
455.450;  142.700;  473.000;  633.000
455.570; -120.400; -234.000; -211.000
455.691;    2.000;  201.000;  407.000
455.812; -136.400; -270.000;  -92.000
455.932;  -28.600;  107.000;  -97.000
456.053; -106.000;   36.000;   24.000
456.173; -153.100; -433.000; -355.000
456.294; -211.500; -476.000; -303.000
456.415;  -53.800;  -73.000;   70.000
456.535;   -1.400;  297.000;  273.000
456.656;  -29.900;  132.000;  240.000
456.776;  -60.800;    3.000;  298.000
456.897;   77.700;  308.000;  513.000
457.017;  -95.900; -153.000;   -3.000
457.138; -161.900; -402.000; -249.000
457.258;  -25.400;  263.000;  224.000
457.379;   48.500;  509.000;  521.000
457.499;   -4.500;  443.000;  432.000
457.620; -203.900; -407.000; -231.000
457.740; -116.500; -132.000;  -11.000
457.860;  -53.800;   87.000;   44.000
457.981;  -41.900;  132.000;  124.000
458.101; -107.200;  -89.000;   40.000
458.221;    1.500;  336.000;  402.000
458.342;  -91.800;   -4.000;  -37.000
458.462;  127.700;  617.000;  352.000
458.582;  -34.700; -302.000; -294.000
458.703;   72.200;  303.000;  154.000
458.823;  -17.200;   22.000;  163.000
458.943;   98.100;  341.000;  467.000
459.063;   27.300; 1124.000;  192.000
459.183;   18.700;  328.000;  313.000
459.304;   91.500;  315.000;  517.000
459.424;  -41.200; -246.000;  -89.000
459.544;  747.800;  388.000;  764.000
459.664; 1644.400;  499.000;  506.000
459.784;  629.400; 1004.000; 1175.000
459.904;  157.500;  867.000;  744.000
460.024;  190.900;  867.000;  684.000
460.144;   88.200;  449.000;  554.000
460.264;   36.000;  515.000;  327.000
460.385; -115.400; -145.000; -119.000
460.505;  134.600;  905.000;  858.000
460.625; -134.200;  -17.000;  -68.000
460.745;   -2.200;  396.000;  541.000
460.864;  -32.300;  153.000;  469.000
460.984;   82.400;  499.000;  573.000
461.104;  374.500; 1656.000; 1775.000
461.224;   94.900;  657.000;  650.000
461.344;   21.000;  431.000;  360.000
461.464;  -26.000;  258.000;  513.000
461.584;   52.000;  283.000;  466.000
461.704;  -48.600;   58.000;  108.000
461.824;  -52.700;  238.000;  259.000
461.943;  -25.300;  191.000;  130.000
462.063; -106.100;    2.000;  324.000
462.183;  137.600;  639.000;  717.000
462.303;  258.500; 1678.000; 1230.000
462.422;  153.900;  781.000;  840.000
462.542;  -20.300;  271.000;  391.000
462.662;  119.200;  353.000;  380.000
462.782;  578.800;  833.000;  572.000
462.901;  958.000;  545.000;  717.000
463.021;  576.500; 1702.000; 1638.000
463.141;   43.100;  337.000;  770.000
463.260;   11.000;  614.000;  474.000
463.380;   96.700;  902.000;  884.000
463.499;   17.100;  342.000;  332.000
463.619;   -5.700;  581.000;  559.000
463.738;  308.500; 1644.000;  903.000
463.858;   80.700;  657.000;  811.000
463.978;   13.400;  542.000;  396.000
464.097;  145.600;  921.000; 1114.000
464.217;  324.100; 1196.000; 1143.000
464.336;  288.900; 1068.000; 1130.000
464.455;    1.700;  328.000;  659.000
464.575;  169.800;  597.000;  602.000
464.694;  404.300; 1204.000; 1179.000
464.814;  294.800; 1190.000; 1138.000
464.933;  203.400; 1095.000; 1027.000
465.052;  277.300; 1412.000; 1054.000
465.172;  215.700;  922.000;  799.000
465.291;  365.800; 1376.000; 1320.000
465.410;   75.300;  462.000;  735.000
465.530;  268.400; 1355.000; 1310.000
465.649;  195.700; 1209.000; 1273.000
465.768;  367.600; 1673.000; 1508.000
465.888;  163.200;  941.000; 1174.000
466.007;  244.700; 1335.000; 1440.000
466.126;   42.200;  721.000;  641.000
466.245;  155.600; 1176.000; 1187.000
466.364;  127.200;  950.000; 1060.000
466.484;  200.500; 1024.000; 1213.000
466.603;  135.700; 1101.000; 1222.000
466.722;  326.600; 1490.000; 1769.000
466.841;  216.200; 1151.000; 1401.000
466.960;  143.000; 1069.000;  972.000
467.079;  314.100; 1971.000; 1786.000
467.198;  150.600; 1238.000; 1181.000
467.317;  239.200; 1768.000; 1162.000
467.436;  215.000; 1709.000; 1261.000
467.555;  326.600; 1796.000; 1746.000
467.674;  168.700; 1227.000; 1329.000
467.793;  171.100; 1376.000; 1374.000
467.912;  258.100; 1658.000; 1539.000
468.031;  317.200; 2038.000; 1930.000
468.150;  363.600; 1842.000; 1837.000
468.269;  481.900; 2313.000; 2090.000
468.388;  452.200; 2168.000; 2339.000
468.507;  564.200; 2884.000; 2903.000
468.626;  595.300; 2555.000; 2541.000
468.744;  323.000; 2018.000; 2174.000
468.863;  498.100; 2312.000; 2523.000
468.982;  268.100; 1503.000; 1555.000
469.101;  490.600; 2788.000; 2692.000
469.220;  367.500; 2333.000; 2176.000
469.338;  565.500; 2935.000; 3051.000
469.457;  429.500; 2719.000; 2545.000
469.576;  790.000; 3953.000; 3784.000
469.695;  541.900; 2877.000; 3066.000
469.813;  899.700; 4148.000; 4192.000
469.932;  951.400; 4255.000; 4485.000
470.051;  907.200; 4075.000; 4161.000
470.169; 1812.000; 4470.000; 4338.000
470.288; 2944.600; 4700.000; 4809.000
470.406; 1695.700; 5059.000; 5194.000
470.525; 1327.200; 6101.000; 5787.000
470.644; 1338.700; 6847.000; 6794.000
470.762; 1730.800; 8397.000; 7873.000
470.881; 1910.400; 8651.000; 8464.000
470.999; 2195.900; 9685.000; 9151.000
471.118; 2321.400;11174.000;10711.000

