
Integration time [ms]: 200.000
Averaging Nr. [scans]: 10
Smoothing Nr. [pixels]: 0
Data measured with spectrometer [name]: 2101012U2
Wave   ;Sample   ;Dark     ;Reference
[nm]   ;[counts] ;[counts] ;[counts] 

197.733;  135.100;  516.000;  404.000
197.879; -147.600; -610.000; -634.000
198.025;  -94.100; -475.000; -420.000
198.171; -171.300; -602.000; -612.000
198.317;  -49.400; -401.000; -316.000
198.463; -126.400; -655.000; -404.000
198.609;   47.900;  181.000; -137.000
198.755; -161.100; -644.000; -410.000
198.901; -134.900; -505.000; -424.000
199.047; -111.600; -615.000; -488.000
199.193;  -78.600; -230.000; -468.000
199.339;  -74.000; -222.000; -369.000
199.485;   88.700;  330.000;  271.000
199.631;   54.600;  227.000;  310.000
199.777; -108.100; -466.000; -398.000
199.923; -110.600; -610.000; -424.000
200.069;   32.000; -141.000;  -58.000
200.215;  116.700;  128.000;  453.000
200.361;  136.000;  243.000;  477.000
200.507; -121.200; -600.000; -373.000
200.653;  -52.700; -371.000; -194.000
200.798;  -55.100; -215.000; -125.000
200.944;   26.300; -146.000;  -41.000
201.090;   79.200;   61.000;  222.000
201.236;  -14.400; -116.000; -158.000
201.382;  273.500;  874.000;  903.000
201.528;   29.900;  -58.000;  -48.000
201.674;  -97.800; -386.000; -293.000
201.819; -114.900; -540.000; -439.000
201.965; -167.000; -699.000; -447.000
202.111;  -38.800; -273.000; -226.000
202.257;  -76.600; -250.000; -238.000
202.402;   28.600;   13.000;  -36.000
202.548;  -82.600; -169.000; -116.000
202.694;  174.000;  410.000; -183.000
202.840; -153.300; -603.000; -531.000
202.985; -135.000; -681.000; -639.000
203.131; -232.200; -832.000; -666.000
203.277;  -43.700; -199.000; -262.000
203.423; -100.100; -434.000; -520.000
203.568;  -72.100; -462.000; -237.000
203.714;  -72.700; -535.000; -542.000
203.860; -151.300; -682.000; -641.000
204.005;   19.600;  112.000;  167.000
204.151;  184.400;  561.000;  556.000
204.296;  -82.400; -354.000; -221.000
204.442; -152.800; -600.000; -547.000
204.588; -138.300; -592.000; -579.000
204.733;   63.600;  178.000;  168.000
204.879; -255.700;-1018.000; -822.000
205.025;   28.700;  -99.000;  126.000
205.170;    2.400;  -17.000;   94.000
205.316;  199.900;  438.000;  661.000
205.461; -176.200; -698.000; -554.000
205.607;  158.900;  609.000;  665.000
205.752; -173.100; -626.000; -551.000
205.898; -102.700; -501.000; -391.000
206.043; -106.600; -578.000; -506.000
206.189;  -62.300; -243.000; -285.000
206.334;  201.900;  554.000;  606.000
206.480;  161.900;  409.000;  239.000
206.625; -155.400; -529.000; -552.000
206.771;  -85.400; -451.000; -373.000
206.916;  -34.500; -210.000; -537.000
207.062; -138.500; -545.000; -591.000
207.207; -132.000; -546.000; -443.000
207.353;  130.200;  185.000;  460.000
207.498;   38.600;  196.000;   85.000
207.643;  -76.500; -501.000; -370.000
207.789; -245.600;-1069.000; -910.000
207.934; -186.700; -665.000; -713.000
208.080;  -13.000; -154.000;   66.000
208.225;   22.300;  -22.000;  -57.000
208.370; -159.900; -727.000; -619.000
208.516; -148.700; -741.000; -487.000
208.661;  -56.000; -127.000;  -69.000
208.806;  -25.400; -165.000; -171.000
208.952; -246.700;-1044.000; -731.000
209.097;  141.200;  378.000;  349.000
209.242;  -94.600; -307.000; -382.000
209.387;  156.100;  392.000;  350.000
209.533; -112.700; -321.000; -350.000
209.678;  195.400;  472.000;  543.000
209.823;  -91.000; -408.000; -310.000
209.969; -204.000; -860.000; -757.000
210.114; -206.300; -907.000; -719.000
210.259; -219.000; -939.000; -889.000
210.404;    7.500; -171.000;  103.000
210.549;   23.800;  108.000;    3.000
210.695;  -11.800;   -3.000;  -95.000
210.840;  107.200;   94.000;   67.000
210.985; -137.100; -484.000; -303.000
211.130;  141.000;  268.000;  406.000
211.275;   55.600;  207.000;  199.000
211.420;  -94.200; -300.000; -289.000
211.566; -154.500; -536.000; -489.000
211.711;   61.800;  218.000;  157.000
211.856; -133.800; -545.000; -519.000
212.001;   32.000;  151.000;   44.000
212.146;   24.500;  153.000;   49.000
212.291;  -43.500; -210.000; -186.000
212.436;  -42.700; -280.000;   -6.000
212.581; -176.900; -685.000; -653.000
212.726; -121.200; -487.000; -538.000
212.871;  -90.700; -552.000; -217.000
213.016; -324.200;-1172.000;-1029.000
213.161;  139.600;  406.000;  291.000
213.306; -133.600; -435.000; -577.000
213.451; -184.900; -778.000; -689.000
213.596;  -92.400; -455.000; -347.000
213.741;  -92.600; -448.000; -538.000
213.886; -127.700; -498.000; -517.000
214.031;  -14.000; -294.000; -124.000
214.176; -107.200; -408.000; -341.000
214.321;  -21.900; -296.000; -157.000
214.466;  -12.300; -163.000;  -43.000
214.611;   35.000;  -61.000;  -10.000
214.756; -258.600; -948.000; -858.000
214.901;  -28.500; -388.000; -226.000
215.046; -252.900; -797.000; -825.000
215.191;   37.400;  128.000;   35.000
215.336;  -28.000; -157.000;  -19.000
215.480; -146.000; -684.000; -505.000
215.625;  -15.600; -175.000;  -19.000
215.770; -162.900; -757.000; -662.000
215.915;    5.200;   -5.000;  -97.000
216.060;    8.100; -113.000;  -21.000
216.205; -205.200; -731.000; -779.000
216.349; -126.500; -470.000; -533.000
216.494; -264.600; -939.000; -867.000
216.639; -245.200; -823.000; -888.000
216.784; -150.300; -577.000; -525.000
216.929;  127.500;  392.000;  281.000
217.073;  -41.900; -244.000;  -31.000
217.218;   21.100;   78.000;  -47.000
217.363; -156.100; -656.000; -618.000
217.507; -168.500; -623.000; -588.000
217.652; -242.800; -845.000; -874.000
217.797; -171.900; -708.000; -659.000
217.942; -184.600; -856.000; -720.000
218.086;  166.700;  608.000;  539.000
218.231;  -19.400; -174.000;  -26.000
218.376;  -74.700; -337.000; -229.000
218.520;   34.600;  -41.000;   96.000
218.665;  -24.200; -338.000; -204.000
218.810;  -89.300; -275.000; -233.000
218.954;   43.400;  201.000;   35.000
219.099; -229.500; -713.000; -963.000
219.243; -124.800; -589.000; -554.000
219.388;  -58.000; -264.000; -136.000
219.532;  -30.000; -116.000; -116.000
219.677; -156.800; -564.000; -521.000
219.822;    0.900;   33.000;   89.000
219.966;   11.500;   17.000;  -99.000
220.111;  -93.400; -328.000;  -40.000
220.255; -192.200; -797.000; -750.000
220.400;  -37.300; -180.000; -146.000
220.544; -134.500; -516.000; -450.000
220.689; -105.300; -422.000; -451.000
220.833;  -16.800; -123.000;  -58.000
220.978;  -62.500; -393.000; -563.000
221.122;   54.800;  319.000;  307.000
221.267; -220.400; -906.000; -837.000
221.411; -126.800; -478.000; -394.000
221.555;   -8.200; -104.000;  -23.000
221.700;  -61.000; -329.000; -222.000
221.844;   99.700;  255.000;  272.000
221.989;  -83.100; -328.000; -311.000
222.133;  -65.900; -289.000; -307.000
222.277;   17.400;    5.000;   78.000
222.422;   29.800;  227.000;  113.000
222.566;  -63.100; -381.000; -214.000
222.711; -108.200; -414.000; -479.000
222.855; -130.900; -643.000; -586.000
222.999; -159.000; -642.000; -717.000
223.144;  -39.200; -195.000; -194.000
223.288;  122.300;  423.000;  251.000
223.432;   63.400;  184.000;  230.000
223.576;   54.300;  152.000;  -21.000
223.721;   88.000;  364.000;  273.000
223.865;  -90.000; -472.000; -475.000
224.009;  521.000; 1673.000; 1631.000
224.153; -188.500; -660.000; -671.000
224.298; -149.400; -531.000; -489.000
224.442;    7.500;  -74.000;  -33.000
224.586;    8.200; -169.000; -106.000
224.730; -182.100; -858.000; -670.000
224.875; -206.100; -739.000; -688.000
225.019;   55.000;  102.000;  188.000
225.163;  121.000;  208.000;  341.000
225.307;   49.800;   97.000;  -91.000
225.451;  116.800;  360.000;  481.000
225.595;   77.600;  264.000;  176.000
225.739;    1.700; -170.000;  -94.000
225.884;   46.700;   86.000;    5.000
226.028; -173.600; -760.000; -626.000
226.172;  -78.800; -260.000; -273.000
226.316; -231.300; -941.000; -902.000
226.460; -112.100; -645.000; -493.000
226.604;  -86.500; -406.000; -400.000
226.748; -199.200; -836.000; -733.000
226.892;  -34.800; -227.000; -181.000
227.036;  -80.100; -537.000; -447.000
227.180;  -89.600; -551.000; -375.000
227.324; -118.800; -561.000; -580.000
227.468; -213.300; -819.000; -717.000
227.612;   46.000;  242.000;  -28.000
227.756; -188.200; -845.000; -698.000
227.900;  139.600;  342.000;  441.000
228.044;  -96.300; -509.000; -290.000
228.188;  153.700;  448.000;  568.000
228.332; -150.600; -546.000; -472.000
228.476;  -30.800; -223.000; -149.000
228.620;  -53.300; -210.000; -150.000
228.764;  164.700;  431.000;  349.000
228.908;  -21.400; -155.000;   30.000
229.052; -132.800; -615.000; -528.000
229.195;    4.300; -172.000;   13.000
229.339;  -40.400; -235.000; -305.000
229.483;  -33.300;    5.000; -162.000
229.627;  -21.200; -156.000;  139.000
229.771;  -52.800; -218.000; -294.000
229.915;   55.400;  230.000;   79.000
230.059; -159.000; -648.000; -663.000
230.202;  -66.900; -370.000; -317.000
230.346;    7.100; -107.000;  107.000
230.490; -108.900; -489.000; -521.000
230.634; -200.700; -736.000; -553.000
230.777;  189.500;  478.000;  509.000
230.921; -104.900; -450.000; -359.000
231.065;  -84.000; -246.000; -286.000
231.209;   86.000;  261.000;  265.000
231.352;   50.800;   54.000;   40.000
231.496;   54.700;  568.000;  188.000
231.640; -117.600; -693.000; -621.000
231.783;  121.300;  546.000;  525.000
231.927;  -62.600; -294.000; -365.000
232.071; -257.700; -962.000; -736.000
232.214; -226.000; -980.000; -764.000
232.358; -172.900; -683.000; -599.000
232.502;   67.300;  -19.000;    7.000
232.645; -268.800;-1090.000; -927.000
232.789;  -18.600; -257.000; -218.000
232.933;  -62.300; -407.000; -224.000
233.076; -242.000;-1038.000; -897.000
233.220; -218.700; -752.000; -777.000
233.363; -148.800; -669.000; -477.000
233.507;  134.200;  371.000;  129.000
233.650; -187.800; -764.000; -834.000
233.794;  152.300;  438.000;  461.000
233.938;  -96.100; -530.000; -362.000
234.081;  -12.700;  -93.000;   31.000
234.225; -116.600; -631.000; -539.000
234.368; -220.200; -773.000; -723.000
234.512;  -80.800; -385.000; -299.000
234.655; -151.400; -582.000; -555.000
234.798; -122.900; -493.000; -466.000
234.942; -242.000; -884.000;-1002.000
235.085; -144.200; -651.000; -443.000
235.229; -125.400; -405.000; -410.000
235.372;  -98.800; -247.000; -191.000
235.516; -116.600; -397.000; -321.000
235.659;   50.500;   92.000;  121.000
235.802;  -24.100;  -38.000;  -22.000
235.946;   75.000;  335.000;  215.000
236.089;  115.700;  126.000;  250.000
236.233;  126.500;  275.000;  298.000
236.376; -112.200; -235.000; -378.000
236.519;  -74.000; -297.000; -319.000
236.663;   10.100; -215.000; -117.000
236.806; -259.800;-1029.000; -999.000
236.949;  132.200;  543.000;  431.000
237.092;  159.200;  412.000;  391.000
237.236; -164.600; -589.000; -502.000
237.379;  193.800;  352.000;  428.000
237.522; -217.200; -879.000; -768.000
237.666;  -25.000; -271.000;   18.000
237.809; -251.500; -851.000; -823.000
237.952;   90.200;  469.000;  271.000
238.095; -147.900; -447.000; -442.000
238.238;  185.300;  688.000;  700.000
238.382;   26.800;  166.000;  103.000
238.525; -120.900; -598.000; -511.000
238.668; -276.300;-1060.000; -985.000
238.811; -173.200; -638.000; -643.000
238.954;  -99.600; -483.000; -334.000
239.097;  173.500;  617.000;  664.000
239.241;   99.700;  394.000;  326.000
239.384;  -49.900; -254.000; -214.000
239.527;  -91.300; -424.000; -224.000
239.670; -273.400; -994.000;-1091.000
239.813; -203.900; -696.000; -658.000
239.956;  191.700;  579.000;  473.000
240.099; -178.700; -778.000; -725.000
240.242;  166.600;  428.000;  432.000
240.385;  128.900;  466.000;  450.000
240.528; -141.300; -706.000; -473.000
240.671;   57.300;  189.000;  134.000
240.814;  -72.500; -441.000; -158.000
240.957; -199.200; -767.000; -578.000
241.100; -192.100; -779.000; -755.000
241.243; -273.800;-1234.000; -893.000
241.386; -122.100; -508.000; -379.000
241.529; -146.500; -735.000; -547.000
241.672; -114.500; -566.000; -495.000
241.815; -226.300; -832.000; -808.000
241.958;  -21.300; -125.000; -182.000
242.101; -155.000; -545.000; -390.000
242.244;  -85.700; -270.000; -325.000
242.387;  -63.400; -304.000; -246.000
242.530;  150.000;  470.000;  134.000
242.673;  -36.700; -381.000; -309.000
242.815; -220.400; -925.000; -899.000
242.958; -120.500; -482.000; -381.000
243.101;   38.500;  132.000;  187.000
243.244; -157.200; -564.000; -521.000
243.387;  -98.200; -313.000; -316.000
243.530; -160.700; -657.000; -674.000
243.672;   13.700;   43.000;  -92.000
243.815;  -59.200; -355.000; -283.000
243.958;    9.900;   98.000;  -26.000
244.101;   36.800;   59.000;  -16.000
244.243;    8.300;  -47.000;  101.000
244.386; -221.000; -761.000; -630.000
244.529;  -20.600; -132.000; -139.000
244.672; -310.100;-1154.000; -951.000
244.814; -223.000; -621.000; -794.000
244.957;  -45.900; -380.000; -304.000
245.100; -120.500; -489.000; -489.000
245.242; -116.800; -387.000; -374.000
245.385;   21.500;  -59.000;  -39.000
245.528; -242.000; -871.000; -705.000
245.670;  184.700;  612.000;  634.000
245.813; -149.700; -599.000; -547.000
245.956;  -39.900; -324.000; -275.000
246.098; -163.400; -508.000; -650.000
246.241;   40.500;  194.000;   48.000
246.383;   -9.300; -119.000;  -73.000
246.526; -141.800; -454.000; -525.000
246.669; -207.300; -889.000; -780.000
246.811;   54.600;  172.000;   -1.000
246.954; -124.700; -512.000; -426.000
247.096;  -24.500;  -84.000;   -6.000
247.239; -108.400; -482.000; -445.000
247.381; -127.000; -647.000; -488.000
247.524;  224.800;  645.000;  679.000
247.666;    0.900;   58.000;   11.000
247.809; -215.700; -887.000; -691.000
247.951;   30.100;  -75.000;  138.000
248.094;   89.200;  432.000;  308.000
248.236; -310.300;-1262.000;-1238.000
248.378;   14.300; -356.000;  -81.000
248.521;  -29.900; -334.000; -337.000
248.663;  -50.600; -236.000; -267.000
248.806;   -2.600; -300.000; -266.000
248.948; -171.500; -886.000; -763.000
249.090;  -78.000; -428.000; -398.000
249.233;  -63.000; -344.000; -381.000
249.375; -115.700; -474.000; -451.000
249.518;   -1.900;  -83.000; -133.000
249.660;   35.100; -103.000;    3.000
249.802; -318.500;-1303.000;-1189.000
249.945; -122.800; -612.000; -540.000
250.087; -209.000; -834.000; -768.000
250.229;  -89.500; -362.000; -480.000
250.371; -130.500; -494.000; -439.000
250.514;  -73.200; -310.000; -244.000
250.656; -103.200;   69.000;  102.000
250.798; -200.600; -849.000; -800.000
250.940; -123.800; -322.000; -322.000
251.083;  -34.400; -335.000; -111.000
251.225;  145.600;  338.000;  310.000
251.367;  -62.100; -274.000; -373.000
251.509;  -26.300; -265.000; -210.000
251.651; -183.200; -731.000; -671.000
251.794;  118.600;  538.000;  632.000
251.936; -185.000; -821.000; -747.000
252.078; -125.900; -540.000; -461.000
252.220; -120.900; -645.000; -477.000
252.362;  180.900;  344.000;  462.000
252.504; -112.500; -677.000; -584.000
252.646; -187.000; -875.000; -722.000
252.788;   -0.800;   14.000; -128.000
252.931;  -75.300; -257.000; -253.000
253.073;  -54.400; -376.000; -317.000
253.215;    3.800;  141.000;  122.000
253.357;   -5.100;   82.000; -153.000
253.499;  -77.600; -374.000; -234.000
253.641; -166.100; -749.000; -594.000
253.783; -179.000; -609.000; -527.000
253.925; -146.200; -586.000; -591.000
254.067; -201.700; -744.000; -667.000
254.209;   -1.700; -391.000; -259.000
254.351; -239.100; -865.000; -883.000
254.493;  -82.200; -441.000; -417.000
254.635; -217.000; -936.000; -818.000
254.777; -160.500; -752.000; -687.000
254.918; -156.800; -512.000; -430.000
255.060;  -89.400; -551.000; -395.000
255.202;  -98.800; -473.000; -261.000
255.344; -143.200; -658.000; -455.000
255.486; -104.600; -471.000; -406.000
255.628; -186.700; -780.000; -781.000
255.770; -159.200; -676.000; -536.000
255.912;  -92.800; -559.000; -468.000
256.053; -178.700; -730.000; -508.000
256.195;  359.900; 1008.000;  903.000
256.337; -201.100; -861.000; -595.000
256.479;  150.300;  532.000;  416.000
256.621;  -97.100; -394.000; -212.000
256.762; -157.400; -789.000; -742.000
256.904;  143.600;  485.000;  487.000
257.046;  -44.700; -381.000; -271.000
257.188;  -68.900; -351.000; -264.000
257.329; -131.600; -525.000; -464.000
257.471; -198.200; -939.000; -807.000
257.613;  -62.800; -584.000; -498.000
257.755; -294.000;-1073.000; -982.000
257.896;  101.700;  286.000;  392.000
258.038; -114.500; -403.000; -352.000
258.180;  -95.100; -354.000; -279.000
258.321; -147.800; -581.000; -457.000
258.463;   29.700;  -71.000;  133.000
258.605; -185.300; -562.000; -570.000
258.746; -179.000; -886.000; -772.000
258.888; -287.300;-1026.000;-1020.000
259.029;   50.700;  121.000;   -8.000
259.171; -173.900; -614.000; -550.000
259.313;   29.200;  -49.000;  -47.000
259.454; -127.200; -536.000; -414.000
259.596;  -90.500; -483.000; -390.000
259.737; -119.300; -590.000; -474.000
259.879;  117.600;  217.000;  311.000
260.020;  243.400;  901.000;  636.000
260.162;  -28.500; -146.000; -253.000
260.303; -213.600; -768.000; -687.000
260.445; -139.700; -609.000; -613.000
260.586;  105.600;  392.000;  157.000
260.728;  -36.800; -360.000; -248.000
260.869; -104.300; -350.000; -343.000
261.011;  204.000;  706.000;  537.000
261.152;  -92.800; -479.000; -319.000
261.293; -115.000; -576.000; -595.000
261.435;  -31.400; -219.000; -184.000
261.576;  -59.900; -455.000; -325.000
261.718;  132.300;  420.000;  470.000
261.859; -217.700; -940.000; -949.000
262.000; -242.900; -951.000;-1016.000
262.142;  -19.100;  -52.000;  -60.000
262.283; -209.800; -808.000; -691.000
262.424; -151.400; -666.000; -625.000
262.566; -275.800;-1161.000; -983.000
262.707; -210.100; -840.000; -830.000
262.848; -238.800; -769.000; -726.000
262.990;  -86.100; -362.000; -345.000
263.131;  203.600;  650.000;  681.000
263.272;   56.700;  -61.000;  -41.000
263.413; -154.500; -589.000; -561.000
263.555; -132.400; -669.000; -143.000
263.696; -144.000; -550.000; -641.000
263.837; -107.500; -449.000; -551.000
263.978;   23.900;   -5.000;  -77.000
264.119;  -42.700; -283.000; -264.000
264.261; -186.100; -847.000; -630.000
264.402;   24.600;   33.000;   40.000
264.543; -115.500; -509.000; -524.000
264.684;   14.600;   61.000;  -50.000
264.825; -150.400; -816.000; -538.000
264.966;   40.000;  -84.000;  -67.000
265.107; -205.700; -646.000; -670.000
265.248; -225.300; -825.000; -812.000
265.390;   23.200;  152.000;   -9.000
265.531;    7.000; -238.000; -107.000
265.672; -149.000; -557.000; -630.000
265.813;  145.800;  563.000;  439.000
265.954; -256.500; -959.000; -940.000
266.095;   15.800; -372.000; -322.000
266.236; -172.400; -686.000; -548.000
266.377;  -69.200; -243.000; -297.000
266.518;  -99.900; -619.000; -547.000
266.659;   78.300;  170.000;  268.000
266.800;   31.400;   83.000;   85.000
266.941; -133.700; -487.000; -478.000
267.082;   79.400;  354.000;   99.000
267.223;  -86.600; -344.000; -273.000
267.364; -214.500; -892.000; -686.000
267.504;   -5.800;    3.000;  135.000
267.645;   42.300;  160.000;   67.000
267.786;  -19.000; -147.000;  -86.000
267.927; -124.900; -473.000; -379.000
268.068;   22.400; -186.000;  -61.000
268.209; -104.000; -175.000; -413.000
268.350;  -90.200; -388.000; -532.000
268.490; -128.100; -648.000; -521.000
268.631;  112.000;  127.000;  225.000
268.772; -196.200; -874.000; -647.000
268.913;  -83.300; -328.000; -476.000
269.054;   20.400; -117.000;   12.000
269.194;  -73.100; -418.000; -402.000
269.335; -316.300;-1137.000;-1074.000
269.476;   14.000;   33.000;  -35.000
269.617;  -37.600; -347.000; -392.000
269.757; -147.400; -713.000; -646.000
269.898; -188.700; -856.000; -613.000
270.039;  -94.500; -415.000; -405.000
270.180; -244.200; -952.000; -816.000
270.320;    6.100; -190.000; -250.000
270.461;  -47.900; -277.000; -249.000
270.602;   32.500; -186.000; -156.000
270.742; -223.200; -868.000; -943.000
270.883;  -97.800; -442.000; -390.000
271.023; -118.600; -358.000; -357.000
271.164; -111.400; -607.000; -528.000
271.305; -180.700; -666.000; -654.000
271.445; -161.000; -722.000; -683.000
271.586;  -82.800; -462.000; -283.000
271.726;  -28.500; -397.000; -322.000
271.867; -113.500; -594.000; -534.000
272.008;  348.300; -473.000; -285.000
272.148;  270.100;  462.000;  468.000
272.289;   55.400; -113.000; -181.000
272.429;   75.100;   19.000;  185.000
272.570; -180.700; -633.000; -737.000
272.710; -182.000; -825.000; -775.000
272.851;    7.600;  113.000; -130.000
272.991; -294.800;-1173.000;-1077.000
273.131; -101.000; -419.000; -459.000
273.272; -178.100; -683.000; -723.000
273.412;   67.900; -143.000;  -31.000
273.553;  -84.300; -488.000; -507.000
273.693;  330.200;  913.000;  858.000
273.834; -144.000; -894.000; -692.000
273.974; -114.000; -664.000; -615.000
274.114; -162.400; -772.000; -560.000
274.255;  185.300;  414.000;  373.000
274.395;   68.800; -180.000; -125.000
274.535;  123.300;  199.000;  350.000
274.676;  113.300;  225.000;   94.000
274.816;   75.500;  110.000;   34.000
274.956; -128.200; -624.000; -690.000
275.097; -133.800;-1014.000; -922.000
275.237; -187.500; -913.000; -803.000
275.377; -154.800; -778.000; -689.000
275.517; -246.500; -878.000; -937.000
275.658;  -94.500; -590.000; -555.000
275.798;  -86.900; -606.000; -413.000
275.938;   96.000;  215.000;  323.000
276.078; -121.200; -626.000; -395.000
276.218;   76.700;   99.000;  104.000
276.359; -232.200;-1026.000;-1024.000
276.499; -132.600; -605.000; -446.000
276.639;    3.400; -305.000; -151.000
276.779;  -54.400; -475.000; -357.000
276.919; -141.800; -783.000; -624.000
277.059;   20.800; -261.000; -212.000
277.199;   -0.300; -357.000; -259.000
277.340;  186.200;  287.000;  175.000
277.480; -191.300; -840.000; -693.000
277.620;  112.200;  192.000;   16.000
277.760; -354.900;-1533.000;-1294.000
277.900;   87.000;  113.000;   33.000
278.040;   74.400;  137.000;  159.000
278.180;  128.400;  270.000;  170.000
278.320;   35.100;   21.000;   56.000
278.460;  -86.100; -443.000; -469.000
278.600; -146.600; -708.000; -598.000
278.740;  124.500;  448.000;  224.000
278.880;  -37.600; -768.000; -791.000
279.020;   90.800; -194.000; -144.000
279.160; -124.000; -672.000; -595.000
279.300; -193.700; -926.000; -873.000
279.440; -165.700; -709.000; -622.000
279.579;  -79.500;-1014.000; -929.000
279.719; -107.600; -410.000; -394.000
279.859;  178.300;   -4.000;   41.000
279.999;   84.900; -208.000;  101.000
280.139;   -6.300; -435.000; -387.000
280.279; -135.000; -708.000; -745.000
280.419;    5.300; -229.000; -147.000
280.559;  -23.800; -259.000; -180.000
280.698;  -93.000; -790.000; -639.000
280.838; -132.000; -778.000; -800.000
280.978; -176.200; -846.000; -790.000
281.118; -184.900; -811.000; -704.000
281.257;   63.600;   24.000;    6.000
281.397; -160.800;-1094.000; -960.000
281.537; -137.000; -599.000; -712.000
281.677;    6.700; -150.000; -101.000
281.816; -130.300; -700.000; -630.000
281.956;  -21.600; -193.000; -257.000
282.096;  -94.100; -539.000; -396.000
282.235; -154.000; -672.000; -638.000
282.375;   38.000; -243.000;  -98.000
282.515; -152.200; -715.000; -707.000
282.654;  136.000;   29.000;  106.000
282.794;  111.800;  388.000;  244.000
282.934;  -43.700; -530.000; -491.000
283.073; -206.700;-1030.000; -857.000
283.213;  -61.400; -460.000; -467.000
283.353;    0.600; -408.000; -349.000
283.492;  -13.100; -264.000; -296.000
283.632;  -41.200; -254.000; -168.000
283.771; -146.100; -859.000; -730.000
283.911;  -41.800; -369.000; -260.000
284.050; -199.900; -794.000; -748.000
284.190; -270.000;-1229.000;-1096.000
284.329; -256.700;-1055.000; -964.000
284.469;  -73.500; -516.000; -591.000
284.608;  -86.000; -559.000; -598.000
284.748; -128.200; -614.000; -570.000
284.887;   58.000;  -87.000;  -20.000
285.027; -226.900; -844.000; -892.000
285.166;  -34.900; -192.000; -249.000
285.306;   62.400; -116.000;  -33.000
285.445;  -43.900; -229.000; -343.000
285.584; -150.400; -630.000; -494.000
285.724;  -23.900; -282.000; -322.000
285.863; -161.900; -857.000; -507.000
286.002;  -77.800; -366.000; -276.000
286.142; -174.000; -715.000; -622.000
286.281; -122.300; -525.000; -493.000
286.420; -101.200; -554.000; -417.000
286.560;  248.300;  653.000;  623.000
286.699; -226.700; -958.000; -912.000
286.838; -125.600; -590.000; -591.000
286.978; -125.200; -533.000; -537.000
287.117; -250.000;-1085.000; -950.000
287.256;  -20.400; -228.000; -211.000
287.395;  -40.800; -197.000; -378.000
287.535;  -56.300; -370.000; -298.000
287.674; -124.700; -509.000; -484.000
287.813;  179.400;  661.000;  533.000
287.952; -202.200;-1010.000; -871.000
288.091; -247.800;-1049.000; -915.000
288.231;   83.000;   13.000;   15.000
288.370; -322.100;-1217.000;-1200.000
288.509; -139.100; -728.000; -645.000
288.648; -156.200; -770.000; -548.000
288.787;    9.200; -243.000;  -87.000
288.926;  -63.700; -454.000; -475.000
289.065;  301.300;  859.000;  672.000
289.204;  -77.200; -377.000; -217.000
289.344; -138.700; -791.000; -690.000
289.483;  117.900;  416.000;  304.000
289.622;   18.000; -291.000; -149.000
289.761;   -5.500; -309.000; -166.000
289.900; -157.900; -785.000; -626.000
290.039;   20.000;  -12.000;  -95.000
290.178;  -37.200; -274.000; -180.000
290.317;  -99.500; -618.000; -479.000
290.456; -109.700; -463.000; -451.000
290.595; -229.200; -961.000; -833.000
290.734; -242.800; -904.000; -891.000
290.873; -104.300; -456.000; -420.000
291.011; -172.200; -833.000; -843.000
291.150; -143.400; -770.000; -682.000
291.289;   14.900; -343.000; -110.000
291.428; -164.600; -599.000; -480.000
291.567;  -76.000; -370.000; -442.000
291.706;   49.300;  109.000;  154.000
291.845; -147.600; -597.000; -505.000
291.984; -280.900;-1234.000;-1061.000
292.122;  217.200;  602.000;  582.000
292.261;  158.300;  620.000;  463.000
292.400;   66.900; -144.000;  211.000
292.539; -206.900; -959.000; -813.000
292.678;  -16.700; -325.000; -300.000
292.816; -281.900;-1136.000; -965.000
292.955; -131.700; -844.000; -684.000
293.094;   -4.500; -173.000; -337.000
293.233;  -72.800; -556.000; -400.000
293.371;  -37.700; -225.000;  -84.000
293.510; -167.800; -866.000; -780.000
293.649; -218.700; -959.000; -924.000
293.787; -106.400;-1083.000;-1012.000
293.926;   54.900; -113.000;  -32.000
294.065;  -33.900; -379.000; -290.000
294.203;  142.100;  298.000;  406.000
294.342;  143.100;   74.000;  156.000
294.481;13183.300;51180.000; -836.000
294.619;   -8.300; -425.000; -582.000
294.758; -253.500;-1230.000;-1137.000
294.896;  184.900; -125.000;    5.000
295.035; -200.600;-1040.000;-1006.000
295.174; -196.800;-1082.000; -954.000
295.312;  -47.200; -323.000; -203.000
295.451;   48.900; -307.000; -428.000
295.589;  -23.400; -389.000; -518.000
295.728;   82.300; -292.000; -165.000
295.866;   76.300;  -36.000;  -51.000
296.005;  -89.100; -584.000; -341.000
296.143;  -82.300; -558.000; -596.000
296.282; -163.200; -957.000; -881.000
296.420; -131.300; -657.000; -557.000
296.559; -125.400; -892.000; -633.000
296.697;   93.800; -847.000; -665.000
296.835;  212.400;-1141.000;-1002.000
296.974;  194.800;  -23.000;   39.000
297.112;   83.100; -443.000; -504.000
297.251; -101.200; -815.000; -755.000
297.389;  250.900; -576.000; -438.000
297.527;  150.700; -145.000;  -83.000
297.666;  -19.100; -486.000; -438.000
297.804;  -43.700; -404.000; -264.000
297.942;   24.900; -136.000; -161.000
298.081;   35.800; -183.000;   63.000
298.219;  226.200;  -17.000;  -19.000
298.357;  161.800; -144.000;  -71.000
298.495;  121.000; -810.000; -812.000
298.634;  221.900;  245.000;  219.000
298.772;  198.600; -220.000; -338.000
298.910;  -30.300; -309.000; -182.000
299.048;   45.400; -130.000; -153.000
299.187;   -2.300; -350.000; -250.000
299.325;   82.400;   52.000;  122.000
299.463;  148.300; -389.000; -299.000
299.601;  315.800; -327.000; -271.000
299.739; -139.500; -908.000; -883.000
299.877; -115.200; -791.000; -703.000
300.016;  -89.300;-1095.000; -935.000
300.154;  334.400;  -19.000; -161.000
300.292;  168.300; -428.000; -348.000
300.430;  146.000; -408.000; -291.000
300.568; -155.100; -940.000; -874.000
300.706;  -52.600; -366.000; -469.000
300.844; -130.300;-1108.000; -979.000
300.982;  295.100;  246.000;  282.000
301.120; -176.200; -965.000; -866.000
301.258;  -76.800; -812.000; -705.000
301.396;  115.000;  104.000;  -41.000
301.534;  241.500; -218.000; -293.000
301.672;   79.800; -664.000; -521.000
301.810;  134.900; -613.000; -545.000
301.948;  364.400;   53.000;  149.000
302.086; 1210.200; -250.000;  -32.000
302.224; 1939.400; -610.000; -585.000
302.362;  145.000; -558.000; -622.000
302.500;   27.400; -923.000; -893.000
302.638;  295.800;  128.000;  245.000
302.776;   87.000; -352.000; -408.000
302.913;  152.000;  447.000;  236.000
303.051;   80.600;  -86.000;  -23.000
303.189;  182.000;   90.000;  118.000
303.327;  -40.400; -341.000; -256.000
303.465; -117.800; -832.000; -588.000
303.603; -159.600; -805.000; -604.000
303.740;  223.000;  417.000;  241.000
303.878;  104.200; -800.000; -759.000
304.016; -123.100; -915.000; -790.000
304.154; -221.700;-1123.000;-1152.000
304.291;  -28.200; -505.000; -554.000
304.429;   76.400;  102.000;   74.000
304.567; -203.800; -908.000; -893.000
304.705;  -36.100; -408.000; -515.000
304.842;  235.200; -616.000; -540.000
304.980;  188.800;  215.000;   35.000
305.118;  184.700; -367.000; -365.000
305.255;  -47.600; -945.000; -927.000
305.393;  181.500;  178.000;  239.000
305.531; -153.300;-1173.000; -956.000
305.668;  -94.300; -663.000; -582.000
305.806;  209.700; -358.000; -439.000
305.943;  281.900; -629.000; -637.000
306.081;  165.700; -378.000; -267.000
306.219; -163.300; -863.000; -748.000
306.356;   84.100;  158.000;   27.000
306.494;  345.900;  981.000;  761.000
306.631;   84.900;  -11.000;  -55.000
306.769;   68.300; -613.000; -485.000
306.906;   37.500; -284.000; -258.000
307.044;  -80.600; -473.000; -488.000
307.181;  -31.600; -410.000; -332.000
307.319;  132.500;  112.000;   87.000
307.456; -288.200;-1191.000;-1153.000
307.594; -156.800; -980.000; -727.000
307.731;   24.600; -371.000; -164.000
307.868;   72.300;  -15.000;   20.000
308.006; -197.900; -961.000; -847.000
308.143;  -80.500; -618.000; -330.000
308.281;  492.500;  -37.000; -254.000
308.418;   81.200; -748.000; -640.000
308.555;  -89.300; -400.000; -250.000
308.693;  -65.200; -577.000; -573.000
308.830; -143.100; -712.000; -657.000
308.967;   47.900; -215.000;  -95.000
309.105;   -8.700; -507.000; -396.000
309.242;  159.300; -468.000; -367.000
309.379;  815.300; -577.000; -655.000
309.517;  -48.300; -936.000; -948.000
309.654; -104.100; -910.000; -734.000
309.791;  -55.100; -662.000; -580.000
309.928; -162.900; -977.000; -914.000
310.065;  467.400;  819.000;  697.000
310.203;   89.200; -825.000; -850.000
310.340;   64.700; -465.000; -321.000
310.477;  -86.900; -412.000; -516.000
310.614;  -57.900; -383.000; -473.000
310.751;  -61.200; -427.000; -518.000
310.889;   47.400;    1.000;   11.000
311.026; -206.000;-1161.000; -939.000
311.163;  -27.000; -386.000; -380.000
311.300; -101.900; -512.000; -479.000
311.437;  -79.200; -658.000; -619.000
311.574; -254.900;-1226.000; -985.000
311.711;  -38.600; -595.000; -433.000
311.848;   -6.600; -380.000; -388.000
311.985;  107.300;  270.000;   93.000
312.122; -152.800; -932.000; -762.000
312.259; -179.900; -941.000; -994.000
312.396;  -37.500; -508.000; -551.000
312.533;  -84.700; -812.000; -790.000
312.670; -170.900;-1070.000; -898.000
312.807;   -2.700; -352.000; -367.000
312.944;  -88.500; -513.000; -611.000
313.081;    3.600; -150.000; -415.000
313.218; -123.600;-1111.000; -867.000
313.355;   74.500; -531.000; -449.000
313.492;  123.600; -455.000; -292.000
313.629;  353.200;  815.000;  735.000
313.766; -233.400;-1176.000;-1008.000
313.902;   53.000; -186.000;   21.000
314.039;  -33.800; -372.000; -289.000
314.176;  131.700;  286.000;  192.000
314.313;  -74.400; -569.000; -473.000
314.450;  -78.100; -788.000; -684.000
314.587;  -23.400; -468.000; -480.000
314.723;   50.600;  -78.000;  130.000
314.860;  158.900;  318.000;  332.000
314.997;  171.900;  223.000;  142.000
315.134;    3.300; -385.000; -368.000
315.270;   -5.600; -480.000; -496.000
315.407; -187.900;-1094.000; -967.000
315.544;  -18.000; -657.000; -538.000
315.681;  -72.900; -681.000; -565.000
315.817;  166.300; -133.000; -176.000
315.954;   81.100; -613.000; -392.000
316.091; -187.400;-1045.000;-1023.000
316.227;   12.000;  -71.000; -179.000
316.364;   88.500;   23.000;    6.000
316.500;   18.700; -113.000; -300.000
316.637;   -1.900; -181.000; -302.000
316.774;  -95.000; -625.000; -358.000
316.910;  -95.100; -598.000; -629.000
317.047;  -64.500; -487.000; -351.000
317.183;  -83.200; -435.000; -566.000
317.320;   -7.900; -367.000; -321.000
317.456; -103.600; -733.000; -805.000
317.593; -125.000; -598.000; -641.000
317.729;   74.300;  168.000;  -67.000
317.866; -352.300;-1434.000;-1285.000
318.002; -122.400; -708.000; -948.000
318.139; -164.600; -883.000; -867.000
318.275; -149.200;-1003.000; -738.000
318.412;  -43.900; -517.000; -336.000
318.548;  -37.800; -751.000; -720.000
318.685; -120.400; -985.000; -888.000
318.821; -157.500; -762.000; -735.000
318.957;   33.000;   34.000;  -23.000
319.094;  176.800;  297.000;  154.000
319.230;  -59.200; -756.000; -742.000
319.367;  284.100; -471.000; -520.000
319.503;  135.200; -538.000; -436.000
319.639; -119.800; -877.000; -793.000
319.775;  -75.000; -750.000; -685.000
319.912;  -69.300; -424.000; -519.000
320.048; -175.500;-1184.000;-1184.000
320.184;  189.500;   59.000;   70.000
320.321;  -83.300; -497.000; -467.000
320.457;  178.600;  475.000;  662.000
320.593;  -60.900; -375.000; -382.000
320.729; -155.500; -732.000; -734.000
320.866; -115.800; -577.000; -635.000
321.002; -128.700; -759.000; -809.000
321.138;   10.800; -135.000; -211.000
321.274;  161.000; -148.000; -115.000
321.410;   -1.400; -585.000; -353.000
321.546;  -15.500;-1011.000; -911.000
321.683;  153.500;  400.000;  185.000
321.819;   78.500;  -48.000; -117.000
321.955; -138.500; -743.000; -722.000
322.091;  -35.900; -585.000; -540.000
322.227;   30.200; -382.000; -202.000
322.363;   39.800; -320.000; -215.000
322.499;  -20.100; -343.000; -331.000
322.635;  392.700;  636.000;  443.000
322.771;  136.400; -139.000;   12.000
322.907;  231.600;  129.000;  327.000
323.043;   33.200; -115.000; -206.000
323.179;    3.200; -394.000; -363.000
323.315;  161.100; -401.000; -371.000
323.451;  315.600; -328.000; -236.000
323.587;  165.700;  -60.000;  -77.000
323.723;   80.700; -682.000; -601.000
323.859;   19.900; -258.000;  -76.000
323.995;  -14.100; -467.000; -409.000
324.131; -181.400; -967.000; -892.000
324.267;   -2.100; -254.000; -276.000
324.402; -210.200; -960.000; -983.000
324.538;   22.600; -279.000; -104.000
324.674;  137.800;  164.000;   77.000
324.810;  437.000;  226.000;  308.000
324.946;  147.300; -810.000; -658.000
325.082;  -92.700; -568.000; -475.000
325.217;   49.000;  -62.000;   16.000
325.353; -171.400; -764.000; -659.000
325.489;  -95.700; -540.000; -506.000
325.625; -103.800; -579.000; -525.000
325.760;  184.500;  517.000;  376.000
325.896;  -40.400; -515.000; -702.000
326.032;  -35.200; -403.000; -352.000
326.168;  -29.900; -462.000; -369.000
326.303;  -54.200; -352.000; -461.000
326.439;   44.100; -336.000; -276.000
326.575;   86.400; -190.000;  -29.000
326.710;   68.700; -156.000;  -30.000
326.846;   75.400;  146.000;  103.000
326.982; -138.300; -530.000; -548.000
327.117; -108.200; -481.000; -442.000
327.253; -135.700; -745.000; -742.000
327.388; -224.400;-1137.000;-1153.000
327.524;    9.900; -811.000; -578.000
327.659;   29.200;  -58.000;  -22.000
327.795;   21.300;   69.000;   45.000
327.931; -137.400; -723.000; -499.000
328.066;   19.200; -417.000; -276.000
328.202;   95.300;   12.000; -129.000
328.337;  279.200;  957.000;  713.000
328.473;   56.900;  -12.000;  -74.000
328.608;   15.900; -256.000; -267.000
328.743;  -80.000; -799.000; -664.000
328.879;  108.400;  214.000;  114.000
329.014;  -73.500; -102.000; -122.000
329.150;  -97.700; -358.000; -483.000
329.285;  -86.100; -465.000; -466.000
329.421;   20.600; -548.000; -246.000
329.556;    2.600;  -36.000;   85.000
329.691; -134.800; -633.000; -615.000
329.827; -103.600; -626.000; -480.000
329.962;  -23.200;  131.000; -301.000
330.097; -123.800; -673.000; -585.000
330.233;   -0.800; -410.000; -223.000
330.368; -196.000; -839.000; -628.000
330.503;   16.800;    3.000;   98.000
330.638;   55.000;  -93.000; -125.000
330.774;  -55.200; -609.000; -530.000
330.909;  -17.600; -434.000; -244.000
331.044; -153.700; -714.000; -708.000
331.179; -273.900;-1217.000;-1109.000
331.315;  114.700;   77.000;   20.000
331.450;  108.400;  157.000;  285.000
331.585; -144.700; -805.000; -706.000
331.720; -117.100; -510.000; -460.000
331.855;   45.600;  -35.000; -102.000
331.990;  353.300;   62.000;  138.000
332.126;  201.000; -110.000;   71.000
332.261;  -16.600; -379.000; -265.000
332.396;   38.600; -135.000; -242.000
332.531; -176.200;-1074.000;-1031.000
332.666;   66.400; -519.000; -363.000
332.801; -150.700; -726.000; -807.000
332.936;   36.500; -192.000; -122.000
333.071; -264.700; -870.000; -817.000
333.206;  145.900;  307.000;  379.000
333.341;  150.500;  344.000;  418.000
333.476; -137.100; -627.000; -623.000
333.611;   -2.900; -251.000; -173.000
333.746;  -11.700; -381.000; -464.000
333.881; -125.300; -973.000; -935.000
334.016; -174.000; -936.000; -917.000
334.151; -146.200; -746.000; -702.000
334.286;  163.200;  152.000;  186.000
334.421;   38.600; -125.000; -178.000
334.556;  -76.500; -611.000; -567.000
334.690; -109.900; -631.000; -577.000
334.825;  191.300;  381.000;   83.000
334.960;  -32.900; -285.000; -413.000
335.095;  101.000;  135.000;  -91.000
335.230; -116.300; -722.000; -738.000
335.365; -190.200;-1084.000; -990.000
335.499; -193.300;-1108.000;-1037.000
335.634;  116.700;    9.000;  534.000
335.769; -113.000; -755.000; -720.000
335.904;  -38.400; -603.000; -561.000
336.038;  -20.000; -735.000; -657.000
336.173; -154.100;-1206.000;-1194.000
336.308;   92.100; -116.000; -189.000
336.443;   31.900; -544.000; -634.000
336.577;  -74.100; -936.000; -787.000
336.712;  217.700;   -4.000;  -12.000
336.847;   17.300; -724.000; -607.000
336.981;  255.400; -272.000; -208.000
337.116;  696.000;  615.000;  501.000
337.250;  423.600; -434.000; -421.000
337.385;  315.100; -297.000; -208.000
337.520;   83.000; -632.000; -603.000
337.654;   12.000; -215.000; -126.000
337.789; -177.200; -989.000; -933.000
337.923;   26.700; -104.000; -205.000
338.058; -103.400; -673.000; -738.000
338.192;  -10.900; -611.000; -488.000
338.327;   51.200;  -18.000; -155.000
338.461;  -68.400; -299.000; -469.000
338.596;  -85.700; -780.000; -638.000
338.730; -164.500; -767.000; -803.000
338.865;  130.200;  -46.000; -140.000
338.999; -107.400; -846.000; -702.000
339.134;  -63.400; -634.000; -536.000
339.268;   15.800; -741.000; -603.000
339.403;  420.400; -740.000; -775.000
339.537;   61.500; -894.000; -820.000
339.671; -166.700; -829.000; -813.000
339.806; -123.700; -556.000; -512.000
339.940;   61.000; -261.000; -235.000
340.074;  -97.400; -685.000; -510.000
340.209;  -15.000; -351.000; -230.000
340.343; -115.400; -517.000; -573.000
340.477;  404.900;  998.000; 1036.000
340.612; -132.900;-1033.000; -900.000
340.746;  192.200; -199.000; -243.000
340.880;  -89.000; -924.000; -785.000
341.014;   20.900;  -45.000; -154.000
341.149; -148.400; -756.000; -718.000
341.283; -164.600; -839.000; -754.000
341.417;  -76.300;-1124.000; -938.000
341.551;  392.700; -768.000; -708.000
341.685;   39.400; -633.000; -611.000
341.820;  -68.100; -562.000; -493.000
341.954;  -11.200; -218.000; -349.000
342.088; -229.800;-1102.000;-1019.000
342.222;  153.500;  565.000;  618.000
342.356;  -24.300; -395.000; -335.000
342.490; -101.400; -880.000; -841.000
342.624;  -23.000; -339.000; -242.000
342.758;   84.400; -364.000; -312.000
342.892;  -35.400; -710.000; -585.000
343.026;  -11.800;  -58.000; -116.000
343.160;  -65.000; -426.000; -376.000
343.294; -106.900; -474.000; -337.000
343.428;   30.800; -488.000; -448.000
343.562;   56.000; -172.000;  -23.000
343.696;   22.300; -385.000; -314.000
343.830;   27.600; -362.000; -356.000
343.964;   97.100; -231.000; -168.000
344.098; 2058.100;  199.000;   70.000
344.232; 1750.300; -266.000; -127.000
344.366;  208.300; -567.000; -453.000
344.500;  180.800; -665.000; -744.000
344.634;  161.900; -324.000; -164.000
344.768;   72.500; -531.000; -341.000
344.902;  109.200;  278.000;  256.000
345.035; -101.300; -556.000; -496.000
345.169; -209.500; -933.000; -656.000
345.303;   43.400; -308.000; -482.000
345.437;  -77.700; -826.000; -717.000
345.571;  -94.400; -675.000; -594.000
345.704;  -63.600; -309.000; -532.000
345.838;   22.900; -331.000; -284.000
345.972;    5.100; -543.000; -495.000
346.106;  255.100; -179.000; -190.000
346.239;  752.000; -312.000; -243.000
346.373;   78.500; -343.000; -302.000
346.507; -203.100; -950.000; -962.000
346.640;  393.500;  -30.000;   13.000
346.774;   15.900; -650.000; -797.000
346.908;   29.200; -138.000;  -11.000
347.041; -117.900; -646.000; -593.000
347.175;  117.000;  259.000;   27.000
347.309;  -55.900; -698.000; -628.000
347.442; -140.000; -883.000; -732.000
347.576;  673.500;  670.000;  668.000
347.709;  492.300; -123.000;  -52.000
347.843;  -91.900; -933.000; -825.000
347.976;  171.900;  235.000;  294.000
348.110; -318.700;-1268.000;-1186.000
348.243; -122.500; -679.000; -772.000
348.377;  101.700;  -26.000;   60.000
348.510;  212.000;  403.000;  540.000
348.644;   34.500;  -37.000; -159.000
348.777;  119.100;  180.000;  191.000
348.911;  -28.200; -142.000; -112.000
349.044;  421.600;  471.000;  448.000
349.178;  396.200;-1069.000;-1006.000
349.311;  265.900;  141.000;  255.000
349.444;   -4.700; -927.000; -813.000
349.578;   39.000; -347.000; -200.000
349.711; -114.100; -959.000; -862.000
349.845;   57.800; -661.000; -591.000
349.978; -248.500;-1224.000;-1137.000
350.111;  -91.000; -546.000; -612.000
350.244;  -90.600; -596.000; -700.000
350.378;   72.600; -392.000; -393.000
350.511;  -66.400; -393.000; -426.000
350.644; -141.900; -808.000; -806.000
350.778;   98.000;  168.000;  104.000
350.911;  105.900;  134.000;  140.000
351.044;  -95.900; -685.000; -615.000
351.177;   20.700; -321.000; -281.000
351.310;   54.500;    3.000; -131.000
351.444;  -57.600; -888.000; -788.000
351.577;  327.100;  140.000;   90.000
351.710;  285.100;  593.000;  417.000
351.843;  -32.900; -165.000;  -77.000
351.976;   73.400;  149.000;  -79.000
352.109; -132.200; -621.000; -612.000
352.242;   11.400; -464.000; -419.000
352.376;  -15.400; -580.000; -636.000
352.509;  534.100; -437.000; -356.000
352.642;   84.900; -654.000; -604.000
352.775;  214.200; -141.000;  -98.000
352.908; -182.000; -933.000; -904.000
353.041; -128.600; -814.000; -824.000
353.174;  -54.700; -551.000; -424.000
353.307; -117.800; -753.000; -764.000
353.440;  201.500;  541.000;  453.000
353.573; -154.800; -957.000;-1008.000
353.706;  -41.100; -384.000; -558.000
353.839;   46.200; -264.000; -220.000
353.971; -104.900; -657.000; -512.000
354.104; -115.600; -896.000; -835.000
354.237;  -13.500; -627.000; -662.000
354.370;  -91.200; -846.000; -879.000
354.503; -307.700;-1231.000;-1308.000
354.636;   46.300; -529.000; -348.000
354.769; -184.200; -937.000; -860.000
354.902;   45.600; -230.000; -139.000
355.034;   26.000; -164.000; -220.000
355.167;   55.000; -262.000; -162.000
355.300; -157.900;-1061.000; -880.000
355.433; 1338.600;  -71.000;  -14.000
355.565; 1985.000; -402.000; -384.000
355.698;  524.500; -356.000; -296.000
355.831;   -1.200; -882.000; -801.000
355.964;  322.400; -285.000; -170.000
356.096;  -88.200; -856.000; -843.000
356.229;  106.100; -523.000; -530.000
356.362;  433.600; -373.000; -266.000
356.494;  800.600; -229.000; -162.000
356.627; 1055.600;  269.000;  377.000
356.760; 1016.800;  120.000;   53.000
356.892; 1237.800; -286.000; -601.000
357.025; 1453.800;  403.000;  389.000
357.157; 1397.200; -167.000; -179.000
357.290;  746.400; -856.000; -713.000
357.423;  298.600; -667.000; -556.000
357.555;  281.700; -217.000; -228.000
357.688;  285.700; -483.000; -364.000
357.820;  847.000; -870.000; -877.000
357.953; 6686.400; -563.000; -589.000
358.085; 1642.900; -632.000; -612.000
358.218; 3028.200;-1131.000; -932.000
358.350;  592.700;  -58.000;  312.000
358.483; -150.700;-1300.000;-1187.000
358.615;  134.300;-1182.000;-1078.000
358.747;    9.500;-1187.000;-1058.000
358.880;  177.100; -810.000; -744.000
359.012;   77.200; -376.000; -202.000
359.145;   10.400; -480.000; -511.000
359.277;  134.100; -962.000; -913.000
359.409; 5631.300;  536.000;  231.000
359.542; 1481.800; -738.000; -688.000
359.674;  184.900;   46.000;   13.000
359.806;  -55.500; -565.000; -438.000
359.939;  -23.900; -617.000; -516.000
360.071;  -41.500; -583.000; -579.000
360.203;  -11.300; -411.000; -364.000
360.335;  147.900;  164.000;  -16.000
360.468;  358.000; -249.000; -307.000
360.600; 4382.200; -547.000; -454.000
360.732; 3370.500; -546.000; -423.000
360.864;  457.000;-1216.000;-1044.000
360.996;  757.300; -516.000; -554.000
361.129;  219.300; -389.000; -598.000
361.261;  108.600;  110.000; -113.000
361.393;   11.100; -252.000; -214.000
361.525;  131.400;   94.000;  244.000
361.657;  -26.900; -821.000; -703.000
361.789;   91.500; -139.000; -155.000
361.921;  616.800; -642.000; -593.000
362.053;  660.400;  524.000;  541.000
362.185;  194.500;  288.000;   72.000
362.318;  -99.200; -709.000; -705.000
362.450;  413.500;  294.000;  444.000
362.582;  517.700; -913.000; -870.000
362.714;   60.700; -353.000; -332.000
362.846; -110.400; -606.000; -490.000
362.978; -214.100; -941.000; -811.000
363.109;  174.900; -161.000; -260.000
363.241; 1021.900; -739.000; -749.000
363.373;  597.200; -649.000; -564.000
363.505;  846.800; -186.000;  -91.000
363.637;  242.100; -787.000; -601.000
363.769; -186.700;-1067.000;-1080.000
363.901;  -62.200; -596.000; -654.000
364.033; -166.900;-1103.000;-1062.000
364.165;   65.100; -283.000; -283.000
364.296;  160.300; -316.000; -177.000
364.428;   -2.000;-1344.000;-1220.000
364.560;  -95.800; -679.000; -661.000
364.692;  -40.300; -738.000; -835.000
364.824;  733.100; -588.000; -456.000
364.955;  721.600; -402.000; -564.000
365.087;  853.900;-1097.000; -852.000
365.219;   -5.100; -686.000; -816.000
365.351;  -77.600; -526.000; -572.000
365.482;  204.700;  300.000;  240.000
365.614;  -24.400; -402.000; -314.000
365.746; -142.600; -729.000; -752.000
365.877; -134.300; -706.000; -672.000
366.009;  351.500;  -35.000;  -62.000
366.141; -221.600;-1249.000;-1134.000
366.272; -144.400; -803.000; -719.000
366.404; -149.800;-1005.000; -874.000
366.535;   31.100; -139.000;  -12.000
366.667; -163.800; -644.000; -649.000
366.799;  160.500;  353.000;  203.000
366.930; -148.300; -862.000; -996.000
367.062;  232.500; -639.000; -613.000
367.193;  102.400; -872.000; -842.000
367.325;  -87.400; -580.000; -684.000
367.456;  318.800; -246.000;   31.000
367.588;  256.300; -371.000; -318.000
367.719;   88.200;  -44.000;  -45.000
367.851;   53.100; -222.000; -241.000
367.982;   -4.700; -875.000; -732.000
368.113;  304.700; -475.000; -358.000
368.245; -137.700; -960.000; -841.000
368.376;   81.300; -254.000; -302.000
368.508;   31.400; -188.000; -263.000
368.639; -194.500;-1166.000;-1034.000
368.770;   77.500; -670.000; -589.000
368.902;  -21.000; -836.000; -926.000
369.033; -124.500; -906.000; -855.000
369.164;  -42.000; -720.000; -653.000
369.296; -150.000; -452.000; -601.000
369.427;  109.400; -209.000; -144.000
369.558;    1.300; -593.000; -377.000
369.689; -106.600; -721.000; -569.000
369.821; -197.700; -951.000; -845.000
369.952;   35.600;   42.000; -108.000
370.083;  -16.200; -229.000; -108.000
370.214;  -82.400; -735.000; -650.000
370.345;   58.600;   65.000;   81.000
370.477;  -86.400; -810.000; -790.000
370.608;  610.500; -328.000; -264.000
370.739;  -11.000;-1233.000;-1292.000
370.870;    6.700;-1102.000; -923.000
371.001;  290.200; -378.000; -467.000
371.132;  -95.500; -754.000; -735.000
371.263;   42.700;  -42.000; -148.000
371.394; -194.800; -841.000; -748.000
371.525;  159.900;  345.000;  225.000
371.657; -141.100; -808.000; -670.000
371.788;  228.500;  103.000;  199.000
371.919;  436.700; -384.000; -304.000
372.050; 7652.400;  -91.000; -156.000
372.181; 2202.100; -188.000; -294.000
372.311;  916.200;   42.000; -127.000
372.442;  170.200; -457.000; -451.000
372.573;   43.100; -444.000; -340.000
372.704; -182.400;-1008.000; -980.000
372.835;  265.000; -228.000; -289.000
372.966;  -55.900; -646.000; -554.000
373.097;  -31.200; -575.000; -711.000
373.228;    6.300; -717.000; -542.000
373.359;  412.700; -824.000; -536.000
373.490; 2140.200; -881.000; -727.000
373.620; 2530.500;-1001.000; -803.000
373.751; 4065.600; -332.000; -396.000
373.882; 1789.800; -663.000; -733.000
374.013;  222.800; -449.000; -262.000
374.143;   13.900; -581.000; -659.000
374.274; -116.100; -987.000; -908.000
374.405;  396.500; -388.000; -276.000
374.536; 1054.700; -526.000; -387.000
374.666; 2574.800; -759.000; -807.000
374.797;  557.100; -817.000; -868.000
374.928; 2051.000; -710.000; -560.000
375.058; 1979.900; -535.000; -500.000
375.189;  216.400;  -59.000;  -93.000
375.320; -121.500; -928.000;-1034.000
375.450;  -17.700; -625.000; -616.000
375.581;  -25.100; -526.000; -436.000
375.712;   20.300; -574.000; -250.000
375.842;  752.900; -438.000; -415.000
375.973;  580.300; -554.000; -513.000
376.103;   80.000; -665.000; -648.000
376.234;  -74.300; -531.000; -552.000
376.364;   11.300; -944.000; -867.000
376.495;  769.100;  925.000;  529.000
376.625;  136.200; -472.000; -485.000
376.756;  253.100; -709.000; -678.000
376.886;  -28.800;-1178.000;-1026.000
377.017;   26.000;-1048.000;-1061.000
377.147;  384.000; -786.000; -782.000
377.278;  192.600;  174.000;  228.000
377.408; -208.700; -801.000; -815.000
377.538; -159.400; -707.000; -693.000
377.669;  -50.100; -537.000; -613.000
377.799;  -87.600; -645.000; -635.000
377.929;    6.000; -610.000; -428.000
378.060; -166.400; -781.000; -847.000
378.190;  -44.600; -726.000; -531.000
378.320;  -50.900; -401.000; -406.000
378.451;   73.200; -131.000;  -22.000
378.581;  100.100;  -67.000; -110.000
378.711;  464.100; 1035.000;  866.000
378.841;   45.700; -533.000; -675.000
378.972;  -49.000; -871.000; -751.000
379.102;   68.900; -652.000; -579.000
379.232;   33.300; -126.000;  -73.000
379.362; -142.600;-1001.000; -885.000
379.492;   76.800; -373.000; -424.000
379.623;  332.900;    0.000;  111.000
379.753;  -84.000;-1107.000; -974.000
379.883;  558.700;   59.000;  156.000
380.013;   82.800;-1081.000;-1017.000
380.143; -132.700;-1097.000;-1056.000
380.273; -117.400; -985.000; -861.000
380.403;   99.300; -344.000; -257.000
380.533;   53.600; -651.000; -664.000
380.663;  253.600;  173.000;  128.000
380.793;  -98.900;-1027.000;-1074.000
380.923;   49.800; -103.000;  -34.000
381.053; -112.500; -613.000; -623.000
381.183;   32.600; -106.000; -248.000
381.313;  176.300; -656.000; -470.000
381.443;  168.600; -692.000; -473.000
381.573;  620.300; -402.000; -409.000
381.703;  795.200;-1249.000;-1095.000
381.833; -130.800;-1454.000;-1336.000
381.963;  294.900; -134.000;  -87.000
382.093; 2825.700; -925.000; -909.000
382.223;  869.900; -713.000; -602.000
382.353;   46.200; -801.000; -608.000
382.482;  978.900;-1091.000; -964.000
382.612; 1646.900; -872.000; -644.000
382.742;  929.600; -695.000; -622.000
382.872;  720.200; -565.000; -551.000
383.002;  245.000;  347.000; -132.000
383.131;   58.200; -226.000; -160.000
383.261;   -3.400; -706.000; -768.000
383.391;  540.800; -552.000; -377.000
383.521; 3829.900;  451.000;  263.000
383.650;  754.700; -947.000; -904.000
383.780;   -0.300; -783.000; -656.000
383.910;  298.600;  880.000;  802.000
384.039;  138.400; -794.000; -656.000
384.169;  566.400;-1205.000;-1017.000
384.299;   66.200; -650.000; -662.000
384.428;  -41.600; -764.000; -680.000
384.558;   25.200; -308.000; -275.000
384.687;   61.100; -414.000; -334.000
384.817;  166.500;   75.000;   -2.000
384.947;  220.400; -234.000; -141.000
385.076;  761.400;  982.000;  912.000
385.206;  382.400;  369.000;  480.000
385.335;   86.300; -549.000; -417.000
385.465;  -62.300; -655.000; -663.000
385.594;  402.900;  -53.000;  -44.000
385.724; 1107.800; -868.000; -838.000
385.853;  390.000; -296.000; -270.000
385.982; 3196.900; -743.000; -787.000
386.112; 4690.500;-1052.000; -871.000
386.241;  399.100; -307.000; -312.000
386.371;  166.200; -174.000;  -87.000
386.500;  124.200; -825.000; -789.000
386.629;  127.800; -874.000; -817.000
386.759;  257.400;  -43.000;   68.000
386.888;  169.000; -170.000; -250.000
387.017;  -23.400; -648.000; -620.000
387.147;   22.100; -771.000; -798.000
387.276;  156.900; -410.000; -397.000
387.405;  172.100; -398.000; -342.000
387.535;   38.600; -452.000; -361.000
387.664;  -27.600; -692.000; -620.000
387.793;  249.500; -198.000; -113.000
387.922; 1354.600;  255.000;  200.000
388.052;  219.200; -576.000; -423.000
388.181;  286.200; -342.000; -472.000
388.310;  259.400; -889.000; -710.000
388.439;   61.400; -749.000; -742.000
388.568;  541.800;  365.000;  244.000
388.697; 2495.600; -756.000; -653.000
388.826;  517.300; -768.000; -666.000
388.956;  265.400; -285.000; -307.000
389.085;   60.600; -347.000; -287.000
389.214; -105.200; -842.000; -872.000
389.343;  -20.400; -645.000; -413.000
389.472;  675.600;  126.000;  149.000
389.601;  870.700;   91.000;    0.000
389.730;  141.100; -568.000; -687.000
389.859;  265.100;  226.000;   46.000
389.988;  545.200; -423.000; -408.000
390.117;  409.200; -168.000; -146.000
390.246;  108.600; -331.000; -320.000
390.375;  391.200; -673.000; -626.000
390.504;   -6.000; -703.000; -621.000
390.633;  -80.300; -672.000; -726.000
390.761;  -26.500; -732.000; -645.000
390.890;  220.700;   -4.000; -130.000
391.019;   46.000; -421.000; -441.000
391.148; -156.100; -826.000; -855.000
391.277;  -23.100; -576.000; -493.000
391.406;  -27.500; -821.000; -805.000
391.534;  175.900;  574.000; -301.000
391.663;  -44.400; -583.000; -645.000
391.792;  -73.300; -673.000; -701.000
391.921;  419.900;   -3.000;   15.000
392.050;  606.600; -287.000; -228.000
392.178;   42.100;-1206.000;-1061.000
392.307;  416.100; -758.000; -712.000
392.436;  219.200; -427.000; -641.000
392.564;  119.000;  166.000;   -6.000
392.693;  -61.800; -860.000; -682.000
392.822;  597.400; -529.000; -534.000
392.950;  292.000; -880.000; -714.000
393.079;  847.400; -188.000; -328.000
393.208;  127.700; -488.000; -511.000
393.336;   76.500; -170.000; -145.000
393.465;  -22.800; -317.000; -199.000
393.593;  107.000;   62.000;   79.000
393.722; -216.000;-1121.000; -916.000
393.850;  -11.800; -188.000;  -61.000
393.979; -234.500; -926.000; -805.000
394.107;  -40.900; -517.000; -537.000
394.236;   29.600; -570.000; -507.000
394.364;  649.100;  383.000;  206.000
394.493;  891.400; -911.000; -767.000
394.621;   60.500; -955.000; -916.000
394.750;  958.700; -873.000; -923.000
394.878; 4038.900; -247.000; -149.000
395.007; 5165.100; -721.000; -807.000
395.135;  347.100; -790.000; -721.000
395.263; -118.100;-1038.000;-1040.000
395.392;  103.800;  -25.000; -107.000
395.520;  -91.800; -818.000; -679.000
395.648; -105.500; -865.000; -915.000
395.777;   84.900; -366.000; -405.000
395.905;  -14.900; -449.000; -564.000
396.033;  130.400;  217.000;  172.000
396.162; 1529.400; -399.000; -453.000
396.290; 1326.500;  -17.000;   -2.000
396.418;  328.200; -555.000; -514.000
396.546;  -27.800; -571.000; -466.000
396.674; -110.300; -850.000; -878.000
396.803;  120.400;  -72.000;  -23.000
396.931;  330.200; -179.000; -199.000
397.059;  215.700;-1026.000; -989.000
397.187; -125.300;-1026.000; -975.000
397.315; -165.600; -884.000; -649.000
397.443; -104.400; -592.000; -443.000
397.572; -112.300; -578.000; -424.000
397.700;   57.800; -607.000; -614.000
397.828;  125.700;  120.000;  -90.000
397.956;  -34.700; -508.000; -478.000
398.084; -123.900; -767.000; -626.000
398.212;  193.000;  137.000;  124.000
398.340;  146.000;  -56.000;  159.000
398.468;  184.900; -390.000; -169.000
398.596; -199.000; -993.000; -953.000
398.724; -172.600; -762.000; -767.000
398.852; -258.000;-1024.000; -976.000
398.980;  -40.800; -560.000; -560.000
399.108;   -8.300; -982.000; -735.000
399.236;  164.300;   13.000;    8.000
399.363;   88.900;  222.000;  196.000
399.491;  -19.300; -404.000; -398.000
399.619; -146.500; -829.000; -800.000
399.747; -111.900; -859.000; -771.000
399.875;  235.900;  220.000;  234.000
400.003;   30.000; -359.000; -284.000
400.130; -129.300; -421.000; -341.000
400.258;   13.000;  -83.000;   38.000
400.386;  -46.500; -352.000; -168.000
400.514;   24.700; -526.000; -587.000
400.641;  -60.800; -928.000; -802.000
400.769; -186.700; -979.000; -888.000
400.897;  -29.600; -838.000; -793.000
401.025;  102.400; -166.000; -152.000
401.152;  103.200;  220.000;   38.000
401.280;  -88.700; -430.000; -429.000
401.408; -159.100; -712.000; -576.000
401.535; -133.100; -735.000; -758.000
401.663; -305.000;-1134.000;-1054.000
401.790;  -74.900; -514.000; -525.000
401.918;  200.600;  436.000;  405.000
402.046;   65.000;  134.000;  122.000
402.173;  -17.800;  -18.000;    7.000
402.301;  -58.500; -519.000; -397.000
402.428;  153.700;  528.000;  383.000
402.556; -225.300;-1188.000; -913.000
402.683;   20.700;  -20.000;   -1.000
402.811;   30.600;  -37.000; -206.000
402.938;   47.700;   20.000;   27.000
403.066;  512.200; -574.000; -558.000
403.193;  708.000;  299.000;  239.000
403.321;  589.300; -396.000; -574.000
403.448;  716.300;   83.000;   27.000
403.575;  350.900;  -90.000;  -46.000
403.703;  -96.400; -732.000; -557.000
403.830;  -32.700; -531.000; -496.000
403.957; -225.400;-1117.000;-1023.000
404.085;   69.400;  -61.000; -172.000
404.212;  297.600;  -50.000;   63.000
404.339;  428.600; -566.000; -306.000
404.467; 7638.600; -612.000; -524.000
404.594; 5737.500; -287.000; -227.000
404.721; 1612.200; -869.000; -764.000
404.848;  168.700; -113.000; -202.000
404.976; -164.000; -856.000; -783.000
405.103;   58.800;  -14.000;  -82.000
405.230;  125.200;  190.000;  226.000
405.357;  151.800;  117.000;   44.000
405.484;  382.300;  -49.000;    5.000
405.612;  124.200; -548.000; -563.000
405.739;  -76.100; -488.000; -243.000
405.866;  286.600;  669.000;  385.000
405.993;    5.700; -398.000; -102.000
406.120; -204.300; -801.000; -887.000
406.247;  -26.800; -323.000; -342.000
406.374; 1157.600;  540.000;  629.000
406.501;  357.800; -632.000; -702.000
406.628;  -37.500; -621.000; -589.000
406.755; -108.000; -803.000; -620.000
406.882;   11.700; -228.000; -277.000
407.009; -135.600; -719.000; -628.000
407.136;  254.700; -480.000; -401.000
407.263;  438.300; -939.000; -829.000
407.390;  -50.200; -692.000; -614.000
407.517; -179.100;-1139.000;-1187.000
407.644;  -18.400; -332.000; -256.000
407.771;  -47.000; -249.000; -287.000
407.898;  110.500;  168.000;  328.000
408.025;  -45.600; -421.000; -313.000
408.151;   83.900;   82.000;  153.000
408.278;  -40.800; -267.000; -216.000
408.405; -169.500; -931.000; -899.000
408.532;  -73.400; -549.000; -542.000
408.659; -170.000; -677.000; -648.000
408.785; -332.600;-1298.000;-1170.000
408.912;   -9.100; -412.000; -296.000
409.039; -127.900; -610.000; -686.000
409.166; -118.400; -591.000; -555.000
409.292; -152.000; -571.000; -534.000
409.419; -133.400; -665.000; -649.000
409.546;  -86.900; -431.000; -192.000
409.672; -127.400; -713.000; -545.000
409.799;   21.400;  -36.000;   34.000
409.926;   -6.000; -180.000; -179.000
410.052; -266.300;-1127.000;-1091.000
410.179;  -20.700; -368.000; -392.000
410.305;  -80.700; -375.000; -493.000
410.432;   31.200; -220.000; -333.000
410.558;  -86.900; -305.000; -380.000
410.685; -159.500; -688.000; -431.000
410.812; -107.700; -409.000; -588.000
410.938; -206.800; -964.000; -808.000
411.065; -100.000; -671.000; -645.000
411.191;   52.200; -189.000; -174.000
411.317; -165.200; -823.000; -742.000
411.444;  -33.700; -317.000; -246.000
411.570;  -47.400; -339.000; -294.000
411.697; -186.600; -758.000; -752.000
411.823; -263.000; -989.000; -999.000
411.949;   57.900;  -56.000;   17.000
412.076; -146.000; -539.000; -519.000
412.202; -165.600; -758.000; -757.000
412.329; -152.000; -798.000; -752.000
412.455; -167.100; -821.000; -657.000
412.581;   36.100;  -15.000;  172.000
412.707;  -73.600; -540.000; -457.000
412.834;   81.600;  156.000;  219.000
412.960; -109.000; -785.000; -784.000
413.086; -149.600; -743.000; -701.000
413.212;  474.200;  604.000;  578.000
413.339;  -75.500; -685.000; -701.000
413.465;  102.100; -364.000; -310.000
413.591;  -67.200; -757.000; -474.000
413.717;  -11.800; -358.000; -366.000
413.843; -178.600; -839.000; -861.000
413.969;  -24.800;  -47.000; -292.000
414.096; -125.900; -679.000; -679.000
414.222;   65.800;  -33.000;   85.000
414.348;   52.900; -652.000; -385.000
414.474;  327.900;   38.000;  -52.000
414.600;   32.600; -126.000; -144.000
414.726;   20.000;  -96.000;  -55.000
414.852;  -69.900; -365.000; -342.000
414.978;  151.500;  104.000;  -18.000
415.104;  139.800;   38.000;   80.000
415.230;   81.600; -329.000; -330.000
415.356;  118.800; -409.000; -514.000
415.482;  384.500;   13.000;  -35.000
415.608;  449.200; -247.000; -323.000
415.734; 1511.400;   67.000;   38.000
415.860;30949.700; -875.000; -767.000
415.986;20247.500; -685.000; -607.000
416.111; 1633.000; -798.000; -652.000
416.237;  378.000; -424.000; -571.000
416.363; 1617.700; -765.000; -733.000
416.489; 5519.200; -324.000; -251.000
416.615;  510.200; -707.000; -742.000
416.741;  -53.300; -677.000; -784.000
416.866; -124.200; -673.000; -736.000
416.992; -176.700; -801.000; -818.000
417.118;   37.400;  -41.000;  -80.000
417.244;  -62.500; -798.000; -531.000
417.369;  -86.100; -801.000; -612.000
417.495;   88.400; -325.000; -254.000
417.621; -118.700;-1015.000; -803.000
417.746;   57.200; -579.000; -572.000
417.872;  154.700; -254.000; -144.000
417.998;   88.200; -515.000; -530.000
418.123; 1579.400;-1073.000; -845.000
418.249; 7250.000; -512.000; -601.000
418.374;  823.500; -916.000; -824.000
418.500;  161.700; -383.000; -482.000
418.626;  252.700;   70.000;  -59.000
418.751;  239.600; -549.000; -448.000
418.877;  331.500; -637.000; -643.000
419.002; 2707.400; -688.000; -560.000
419.128;17126.900; -930.000; -721.000
419.253; 3650.900; -967.000; -837.000
419.379;  541.100; -391.000; -338.000
419.504;  642.500;  325.000;  415.000
419.629;  689.900; -393.000; -212.000
419.755; 4759.200; -317.000; -254.000
419.880;25478.000;  -98.000;   67.000
420.006;16104.000; -280.000; -221.000
420.131;41157.500; -662.000; -775.000
420.256; 5465.700; -315.000; -316.000
420.382;  736.500; -665.000; -687.000
420.507;  101.800; -649.000; -778.000
420.632;  435.000; -337.000; -339.000
420.758;  665.600; -251.000; -425.000
420.883;  -70.100; -876.000; -672.000
421.008; -106.000; -775.000; -619.000
421.133;  -87.000; -509.000; -467.000
421.259;   -6.000; -325.000; -259.000
421.384; -116.800; -834.000; -693.000
421.509;   52.000;-1052.000; -862.000
421.634; 3218.100; -936.000; -820.000
421.759; 1290.400; -359.000; -327.000
421.885;   13.000; -717.000; -656.000
422.010;  -59.900; -673.000; -542.000
422.135; -229.000; -695.000; -727.000
422.260;  164.500;  340.000;  280.000
422.385;    9.500;   12.000;  -98.000
422.510;  117.200;  151.000;  -26.000
422.635;  121.000;  -87.000;  -43.000
422.760;  218.200; -766.000; -791.000
422.885;  170.800;  -57.000;  -80.000
423.010;   19.000; -112.000; -169.000
423.135; -108.400; -481.000; -561.000
423.260;   85.800; -150.000; -245.000
423.385;  237.400;  476.000;  222.000
423.510;  128.000;   71.000;  -22.000
423.635;  266.200;  133.000;   45.000
423.760;  197.500;  383.000;  328.000
423.885;  154.900;  336.000;  391.000
424.010;   90.400;  -68.000;  -13.000
424.135;   26.100;    5.000;  -33.000
424.259; -112.100; -654.000; -457.000
424.384;  -31.800; -279.000; -272.000
424.509;   55.300; -260.000; -186.000
424.634; -128.100; -761.000; -623.000
424.759;   -6.100; -688.000; -544.000
424.883;   18.100; -506.000; -527.000
425.008;  300.200; -502.000; -410.000
425.133; 2877.100; -679.000; -653.000
425.258; 1173.900; -517.000; -381.000
425.382; 2132.000; -867.000; -774.000
425.507; 5170.400; -487.000; -543.000
425.632;  717.300; -802.000; -663.000
425.756;  633.500; -256.000; -146.000
425.881; 7989.700; -831.000; -857.000
426.006;19088.500; -604.000; -355.000
426.130; 3011.700; -696.000; -508.000
426.255;  384.300; -611.000; -491.000
426.379;  238.900; -189.000; -577.000
426.504;  704.800;  660.000;  544.000
426.629; 6363.200; -519.000; -466.000
426.753; 3867.900;   64.000;  -46.000
426.878;  496.900; -252.000; -288.000
427.002;  311.900; -651.000; -668.000
427.127; 2617.100;  -35.000; -158.000
427.251;15783.100;  372.000;  401.000
427.375; 4083.500; -191.000; -173.000
427.500; 4617.400; -616.000; -610.000
427.624; 1443.900; -234.000; -400.000
427.749;  351.000; -216.000; -225.000
427.873;   64.300; -499.000; -412.000
427.997;   34.500; -222.000; -230.000
428.122;  259.300;  795.000;  703.000
428.246;  282.200;  433.000;  434.000
428.371; -161.500; -869.000; -773.000
428.495; -132.200; -624.000; -646.000
428.619;   67.200; -186.000; -117.000
428.743;  154.900;   65.000;  132.000
428.868;  146.500; -732.000; -643.000
428.992; 3105.700; -219.000; -326.000
429.116; 1177.100; -329.000; -357.000
429.240;  752.200;  419.000;  426.000
429.365;   59.400; -454.000; -574.000
429.489;   20.500; -638.000; -647.000
429.613;  180.200; -236.000; -177.000
429.737;  157.400; -563.000; -432.000
429.861;  517.500; -247.000; -133.000
429.985; 8224.700; -425.000; -305.000
430.109; 8010.100; -770.000; -908.000
430.234; 1003.600;   76.000;  -50.000
430.358;  188.100; -250.000; -160.000
430.482;  -21.000; -672.000; -564.000
430.606;  -36.000; -655.000; -375.000
430.730;  168.300; -437.000; -388.000
430.854;  447.400; -909.000; -835.000
430.978;  -39.000; -795.000; -764.000
431.102;  -28.100; -499.000; -422.000
431.226;   -8.600; -874.000; -815.000
431.350;  296.700;  345.000;  422.000
431.474;   -5.500; -661.000; -373.000
431.597; -211.200;-1060.000; -848.000
431.721;  -77.800; -276.000; -267.000
431.845; -183.900; -704.000; -472.000
431.969;  -90.800; -304.000; -349.000
432.093; -108.600; -395.000; -317.000
432.217;   27.900;   32.000;   82.000
432.341;  -90.700; -523.000; -518.000
432.464;  108.100;   96.000;   40.000
432.588;  600.500; -401.000; -329.000
432.712;  281.000;  -52.000;  -52.000
432.836;  170.000;  213.000;  263.000
432.959;   22.000; -372.000; -311.000
433.083;  194.700;   11.000;    2.000
433.207;  598.200;  285.000;  930.000
433.330; 7031.700; -391.000; -200.000
433.454; 7758.300; -654.000; -638.000
433.578; 4766.900;  583.000;  278.000
433.701;  904.100; -623.000; -675.000
433.825;  415.500; -292.000; -299.000
433.949;  677.100;   28.000;  -72.000
434.072;  295.800; -410.000; -323.000
434.196;   58.700; -309.000; -117.000
434.319; 7924.900;25482.000;25124.000
434.443; 1377.800; -656.000; -603.000
434.566; 3702.300;  281.000;   62.000
434.690;  515.300; -637.000; -383.000
434.813;  166.500; -251.000; -173.000
434.937;  -72.900; -569.000; -696.000
435.060;   95.200; -423.000; -332.000
435.184; 1112.400; -492.000; -217.000
435.307;  591.100;  159.000;  102.000
435.431;   62.800;  -40.000;   24.000
435.554;  -34.400; -399.000; -240.000
435.677;  -81.800; -350.000; -258.000
435.801;    6.600;  -25.000;   49.000
435.924;  105.700;    1.000;  -67.000
436.048;  -61.400;-1019.000; -732.000
436.171;  -45.700; -240.000;  -66.000
436.294;   11.400; -248.000; -229.000
436.417;   70.300; -963.000; -849.000
436.541; -138.900; -814.000; -840.000
436.664;   -9.900; -242.000; -316.000
436.787;  102.200;   13.000;  113.000
436.910; -120.300; -792.000; -422.000
437.034;  127.300;  142.000;  143.000
437.157;  347.500;  -11.000;    0.000
437.280;   24.500; -392.000; -292.000
437.403;  -47.100; -982.000; -869.000
437.526; 2049.000; -903.000; -865.000
437.649; 6112.100; -505.000; -332.000
437.772;  916.200; -692.000; -540.000
437.896;  365.000;  700.000;  544.000
438.019;  -87.300; -758.000; -503.000
438.142;  -57.500; -596.000; -506.000
438.265;  161.900; -639.000; -670.000
438.388; 1526.200; -520.000; -410.000
438.511;  351.300; -597.000; -394.000
438.634;    6.800; -247.000; -125.000
438.757; -192.900; -693.000; -619.000
438.880;   58.000;  -34.000;  -57.000
439.003;  -92.600; -417.000; -437.000
439.126;  -25.400; -287.000; -167.000
439.248;  -51.100;  -98.000; -139.000
439.371;    3.000;    9.000;  -53.000
439.494;  120.000;  510.000;  439.000
439.617;  -37.700;   65.000;  -88.000
439.740; -286.500; -968.000; -816.000
439.863; -201.400; -755.000; -595.000
439.986; -162.700; -476.000; -431.000
440.108;   -7.500; -161.000; -112.000
440.231; -217.400; -950.000; -836.000
440.354;   23.300;  -64.000; -150.000
440.477;  204.400; -566.000; -542.000
440.599;  141.500; -200.000; -225.000
440.722; -165.900; -709.000; -586.000
440.845;  241.000;  751.000;  928.000
440.968; -124.600; -415.000; -311.000
441.090;  -74.600; -199.000;  -33.000
441.213; -270.700;-1021.000; -825.000
441.336;    4.200; -159.000;   -5.000
441.458;  -75.800; -549.000; -396.000
441.581;  -87.600; -628.000; -629.000
441.703;  -60.500; -152.000;   13.000
441.826; -184.600; -557.000; -400.000
441.948;  -17.600;   56.000;   51.000
442.071;  131.700;  555.000;  424.000
442.193; -146.100; -531.000; -485.000
442.316;  110.900;  152.000;   97.000
442.438;  119.200; -233.000;  -10.000
442.561;  268.500;  272.000;  262.000
442.683; 1664.500; -809.000; -522.000
442.806; 2955.500;   -8.000;   74.000
442.928;  196.100; -859.000; -604.000
443.051;  -32.500; -577.000; -373.000
443.173;  -63.600; -341.000; -339.000
443.295;  -73.800; -263.000; -371.000
443.418;  -45.500; -321.000;  -29.000
443.540;   62.100; -106.000;   -4.000
443.662; -143.600; -563.000; -465.000
443.785;   31.200;  335.000;  199.000
443.907; -121.000; -362.000; -208.000
444.029; -200.300; -767.000; -494.000
444.152; -233.300; -644.000; -554.000
444.274;   33.600;  -18.000;  -24.000
444.396; -130.600; -461.000; -221.000
444.518; -173.500; -691.000; -454.000
444.640; -136.300; -268.000; -111.000
444.763;   63.100;  388.000;  249.000
444.885; -158.600; -432.000; -392.000
445.007;   21.800;   35.000;   86.000
445.129; -161.000; -610.000; -515.000
445.251; -109.900; -372.000; -439.000
445.373; -183.300; -537.000; -386.000
445.495;  134.400;  242.000;  350.000
445.617;  187.700;  853.000;  753.000
445.739;  -57.100; -215.000;  -97.000
445.861;   30.200; -245.000; -112.000
445.984;   22.600; -267.000; -101.000
446.105;  570.900; -418.000; -251.000
446.227; 1505.000; -176.000;  -19.000
446.349;  105.500; -358.000; -249.000
446.471; -112.200; -615.000; -448.000
446.593;  -51.800; -316.000;   19.000
446.715;  119.000;  -67.000;   41.000
446.837;  218.800;  697.000;  832.000
446.959; -140.700; -457.000; -478.000
447.081; -188.400; -628.000; -518.000
447.203;  201.100;  862.000;  834.000
447.325;  -93.600; -270.000;   42.000
447.446;  103.000;  286.000;  530.000
447.568; -255.600; -921.000; -803.000
447.690;  -66.800; -236.000; -245.000
447.812; -249.800; -798.000; -519.000
447.933;   -1.800;  155.000;  127.000
448.055;  -53.000; -306.000; -261.000
448.177;  427.500;   31.000;   79.000
448.299;  243.300; -935.000; -727.000
448.420;  129.900;  -25.000;  159.000
448.542;   18.900;   -3.000;   33.000
448.664;   36.600;  109.000;  322.000
448.785;    2.300;  265.000;   83.000
448.907;  -85.900; -614.000; -353.000
449.028;   15.000; -771.000; -471.000
449.150;  204.600;  492.000;  589.000
449.272; -287.700;-1044.000; -913.000
449.393;  147.200;  612.000;  694.000
449.515; -201.500; -634.000; -581.000
449.636;  -10.600; -264.000; -155.000
449.758;  249.300;  763.000;  622.000
449.879; -112.800; -498.000; -396.000
450.001;  -82.400; -149.000;  -49.000
450.122;   -1.900;  -95.000;  162.000
450.244;   22.600;   37.000;  364.000
450.365; -134.500; -495.000; -301.000
450.486;   -9.100;   80.000;  268.000
450.608;  104.700;  393.000;  326.000
450.729;  186.300;  578.000;  645.000
450.850;   -8.800; -574.000; -466.000
450.972;  949.600; -552.000; -389.000
451.093; 6225.600;  190.000;  588.000
451.214; 2261.100; -516.000; -337.000
451.336;  550.600;  773.000;  579.000
451.457;  146.300;  264.000;  393.000
451.578;  -43.900; -118.000;  -74.000
451.699; -138.300; -546.000; -540.000
451.821;  -57.200; -284.000;  -50.000
451.942;   62.900;  278.000;  285.000
452.063;  109.100;  228.000;  419.000
452.184;  855.000;  -54.000;  -49.000
452.305; 1437.200;  103.000;  170.000
452.427;  136.200; -549.000; -301.000
452.548;   14.400;   23.000;   79.000
452.669;    2.700; -257.000;  -89.000
452.790;    6.300;    3.000;  -18.000
452.911;   84.300;  195.000;  259.000
453.032;  -25.800; -289.000;  -60.000
453.153;   16.100;  -29.000;   81.000
453.274;  237.000;  737.000;  868.000
453.395;   11.100;  -51.000;  175.000
453.516;  409.400; 1317.000; 1388.000
453.637;  -27.200; -205.000; -150.000
453.758;  -30.000;   15.000;   69.000
453.879; -168.800; -462.000; -250.000
454.000;  298.100; 1086.000;  948.000
454.121; -151.400; -554.000; -326.000
454.242; -152.900; -599.000; -383.000
454.362;  -25.400;  -99.000;  114.000
454.483;   50.600; -309.000; -229.000
454.604;  240.300;  512.000;  580.000
454.725; -176.100; -627.000; -555.000
454.846; -182.100; -474.000; -406.000
454.967;   30.400;  230.000;  539.000
455.087;    2.600;  179.000;  153.000
455.208;  114.500;  554.000;  856.000
455.329;  -54.200;  -22.000;   82.000
455.450;  129.400;  473.000;  633.000
455.570;  -97.600; -234.000; -211.000
455.691;   28.800;  201.000;  407.000
455.812; -136.900; -270.000;  -92.000
455.932;  -40.200;  107.000;  -97.000
456.053;  -73.600;   36.000;   24.000
456.173; -176.400; -433.000; -355.000
456.294; -202.900; -476.000; -303.000
456.415;  -72.400;  -73.000;   70.000
456.535;   -0.100;  297.000;  273.000
456.656;   -1.400;  132.000;  240.000
456.776;  -38.100;    3.000;  298.000
456.897;   83.000;  308.000;  513.000
457.017;  -70.200; -153.000;   -3.000
457.138; -140.300; -402.000; -249.000
457.258;   24.700;  263.000;  224.000
457.379;   64.600;  509.000;  521.000
457.499;   41.800;  443.000;  432.000
457.620; -188.200; -407.000; -231.000
457.740; -123.000; -132.000;  -11.000
457.860;   -8.300;   87.000;   44.000
457.981;   17.100;  132.000;  124.000
458.101;  -77.100;  -89.000;   40.000
458.221;   68.800;  336.000;  402.000
458.342;  -63.100;   -4.000;  -37.000
458.462;   93.400;  617.000;  352.000
458.582;  -63.900; -302.000; -294.000
458.703;   25.900;  303.000;  154.000
458.823;   -3.600;   22.000;  163.000
458.943;  119.800;  341.000;  467.000
459.063;   59.300; 1124.000;  192.000
459.183;   36.600;  328.000;  313.000
459.304;  113.200;  315.000;  517.000
459.424;  -80.600; -246.000;  -89.000
459.544;  544.400;  388.000;  764.000
459.664; 1184.100;  499.000;  506.000
459.784;  511.700; 1004.000; 1175.000
459.904;  193.200;  867.000;  744.000
460.024;  278.100;  867.000;  684.000
460.144;  175.000;  449.000;  554.000
460.264;   81.600;  515.000;  327.000
460.385; -129.900; -145.000; -119.000
460.505;  164.800;  905.000;  858.000
460.625; -106.600;  -17.000;  -68.000
460.745;   44.800;  396.000;  541.000
460.864;   -6.400;  153.000;  469.000
460.984;  133.700;  499.000;  573.000
461.104;  407.400; 1656.000; 1775.000
461.224;  129.000;  657.000;  650.000
461.344;   67.300;  431.000;  360.000
461.464;   33.300;  258.000;  513.000
461.584;   83.000;  283.000;  466.000
461.704;   -5.300;   58.000;  108.000
461.824;   -2.700;  238.000;  259.000
461.943;   -9.300;  191.000;  130.000
462.063;  -80.800;    2.000;  324.000
462.183;  152.900;  639.000;  717.000
462.303;  332.600; 1678.000; 1230.000
462.422;  190.000;  781.000;  840.000
462.542;   22.100;  271.000;  391.000
462.662;  135.700;  353.000;  380.000
462.782;  444.000;  833.000;  572.000
462.901;  716.300;  545.000;  717.000
463.021;  524.700; 1702.000; 1638.000
463.141;   61.300;  337.000;  770.000
463.260;   60.300;  614.000;  474.000
463.380;  118.400;  902.000;  884.000
463.499;    1.700;  342.000;  332.000
463.619;   51.200;  581.000;  559.000
463.738;  317.100; 1644.000;  903.000
463.858;  118.700;  657.000;  811.000
463.978;    5.100;  542.000;  396.000
464.097;  164.000;  921.000; 1114.000
464.217;  258.900; 1196.000; 1143.000
464.336;  287.100; 1068.000; 1130.000
464.455;   17.100;  328.000;  659.000
464.575;  203.600;  597.000;  602.000
464.694;  432.800; 1204.000; 1179.000
464.814;  278.300; 1190.000; 1138.000
464.933;  238.000; 1095.000; 1027.000
465.052;  309.900; 1412.000; 1054.000
465.172;  241.100;  922.000;  799.000
465.291;  376.000; 1376.000; 1320.000
465.410;  137.100;  462.000;  735.000
465.530;  273.300; 1355.000; 1310.000
465.649;  242.300; 1209.000; 1273.000
465.768;  416.800; 1673.000; 1508.000
465.888;  222.700;  941.000; 1174.000
466.007;  306.200; 1335.000; 1440.000
466.126;   98.700;  721.000;  641.000
466.245;  158.000; 1176.000; 1187.000
466.364;  153.200;  950.000; 1060.000
466.484;  228.700; 1024.000; 1213.000
466.603;  184.400; 1101.000; 1222.000
466.722;  338.600; 1490.000; 1769.000
466.841;  244.100; 1151.000; 1401.000
466.960;  176.900; 1069.000;  972.000
467.079;  365.800; 1971.000; 1786.000
467.198;  185.200; 1238.000; 1181.000
467.317;  261.000; 1768.000; 1162.000
467.436;  246.700; 1709.000; 1261.000
467.555;  358.900; 1796.000; 1746.000
467.674;  228.400; 1227.000; 1329.000
467.793;  178.700; 1376.000; 1374.000
467.912;  298.300; 1658.000; 1539.000
468.031;  408.100; 2038.000; 1930.000
468.150;  396.300; 1842.000; 1837.000
468.269;  462.400; 2313.000; 2090.000
468.388;  485.200; 2168.000; 2339.000
468.507;  629.300; 2884.000; 2903.000
468.626;  630.200; 2555.000; 2541.000
468.744;  371.400; 2018.000; 2174.000
468.863;  508.400; 2312.000; 2523.000
468.982;  307.900; 1503.000; 1555.000
469.101;  534.500; 2788.000; 2692.000
469.220;  397.900; 2333.000; 2176.000
469.338;  589.700; 2935.000; 3051.000
469.457;  435.900; 2719.000; 2545.000
469.576;  808.200; 3953.000; 3784.000
469.695;  583.700; 2877.000; 3066.000
469.813;  963.200; 4148.000; 4192.000
469.932;  942.600; 4255.000; 4485.000
470.051;  919.600; 4075.000; 4161.000
470.169; 1544.200; 4470.000; 4338.000
470.288; 2384.300; 4700.000; 4809.000
470.406; 1458.100; 5059.000; 5194.000
470.525; 1332.900; 6101.000; 5787.000
470.644; 1423.200; 6847.000; 6794.000
470.762; 1832.300; 8397.000; 7873.000
470.881; 1910.200; 8651.000; 8464.000
470.999; 2083.400; 9685.000; 9151.000
471.118; 2310.100;11174.000;10711.000

