
Integration time [ms]: 100.000
Averaging Nr. [scans]: 40
Smoothing Nr. [pixels]: 0
Data measured with spectrometer [name]: 2101012U2
Wave   ;Sample   ;Dark     ;Reference
[nm]   ;[counts] ;[counts] ;[counts] 

197.733;   51.500;  516.000;  404.000
197.879;  -76.225; -610.000; -634.000
198.025;  -28.575; -475.000; -420.000
198.171;  -57.775; -602.000; -612.000
198.317;  -30.450; -401.000; -316.000
198.463;  -52.750; -655.000; -404.000
198.609;   27.625;  181.000; -137.000
198.755;  -73.850; -644.000; -410.000
198.901;  -65.150; -505.000; -424.000
199.047;  -43.925; -615.000; -488.000
199.193;  -27.700; -230.000; -468.000
199.339;  -31.075; -222.000; -369.000
199.485;   46.750;  330.000;  271.000
199.631;   11.925;  227.000;  310.000
199.777;  -39.025; -466.000; -398.000
199.923;  -62.250; -610.000; -424.000
200.069;   -2.300; -141.000;  -58.000
200.215;   61.200;  128.000;  453.000
200.361;   48.450;  243.000;  477.000
200.507;  -57.175; -600.000; -373.000
200.653;  -14.325; -371.000; -194.000
200.798;  -27.325; -215.000; -125.000
200.944;   -1.225; -146.000;  -41.000
201.090;   36.225;   61.000;  222.000
201.236;    9.000; -116.000; -158.000
201.382;  126.875;  874.000;  903.000
201.528;    0.300;  -58.000;  -48.000
201.674;  -44.475; -386.000; -293.000
201.819;  -63.825; -540.000; -439.000
201.965;  -72.000; -699.000; -447.000
202.111;  -24.025; -273.000; -226.000
202.257;  -39.600; -250.000; -238.000
202.402;    5.125;   13.000;  -36.000
202.548;  -35.575; -169.000; -116.000
202.694;   88.300;  410.000; -183.000
202.840;  -85.375; -603.000; -531.000
202.985;  -74.775; -681.000; -639.000
203.131;  -91.750; -832.000; -666.000
203.277;  -20.900; -199.000; -262.000
203.423;  -44.125; -434.000; -520.000
203.568;  -47.225; -462.000; -237.000
203.714;  -54.275; -535.000; -542.000
203.860;  -72.400; -682.000; -641.000
204.005;   21.875;  112.000;  167.000
204.151;   66.425;  561.000;  556.000
204.296;  -45.000; -354.000; -221.000
204.442;  -67.550; -600.000; -547.000
204.588;  -68.750; -592.000; -579.000
204.733;   15.300;  178.000;  168.000
204.879; -116.675;-1018.000; -822.000
205.025;   22.625;  -99.000;  126.000
205.170;   -5.800;  -17.000;   94.000
205.316;   71.925;  438.000;  661.000
205.461;  -82.375; -698.000; -554.000
205.607;   75.150;  609.000;  665.000
205.752;  -65.350; -626.000; -551.000
205.898;  -57.225; -501.000; -391.000
206.043;  -60.100; -578.000; -506.000
206.189;  -42.375; -243.000; -285.000
206.334;   73.900;  554.000;  606.000
206.480;   83.100;  409.000;  239.000
206.625;  -80.700; -529.000; -552.000
206.771;  -38.250; -451.000; -373.000
206.916;  -30.675; -210.000; -537.000
207.062;  -60.200; -545.000; -591.000
207.207;  -58.050; -546.000; -443.000
207.353;   59.675;  185.000;  460.000
207.498;    9.950;  196.000;   85.000
207.643;  -45.800; -501.000; -370.000
207.789; -122.175;-1069.000; -910.000
207.934;  -73.825; -665.000; -713.000
208.080;  -22.575; -154.000;   66.000
208.225;    5.550;  -22.000;  -57.000
208.370;  -78.050; -727.000; -619.000
208.516;  -70.975; -741.000; -487.000
208.661;  -33.450; -127.000;  -69.000
208.806;  -17.725; -165.000; -171.000
208.952; -108.575;-1044.000; -731.000
209.097;   72.125;  378.000;  349.000
209.242;  -41.050; -307.000; -382.000
209.387;   74.050;  392.000;  350.000
209.533;  -35.775; -321.000; -350.000
209.678;   77.125;  472.000;  543.000
209.823;  -55.325; -408.000; -310.000
209.969;  -86.725; -860.000; -757.000
210.114; -101.475; -907.000; -719.000
210.259; -104.875; -939.000; -889.000
210.404;  -16.700; -171.000;  103.000
210.549;   12.775;  108.000;    3.000
210.695;   -9.300;   -3.000;  -95.000
210.840;   33.875;   94.000;   67.000
210.985;  -73.000; -484.000; -303.000
211.130;   68.200;  268.000;  406.000
211.275;   13.025;  207.000;  199.000
211.420;  -36.650; -300.000; -289.000
211.566;  -61.575; -536.000; -489.000
211.711;   22.175;  218.000;  157.000
211.856;  -60.350; -545.000; -519.000
212.001;    1.500;  151.000;   44.000
212.146;   21.550;  153.000;   49.000
212.291;  -20.150; -210.000; -186.000
212.436;  -23.275; -280.000;   -6.000
212.581;  -83.700; -685.000; -653.000
212.726;  -68.350; -487.000; -538.000
212.871;  -47.950; -552.000; -217.000
213.016; -145.825;-1172.000;-1029.000
213.161;   56.875;  406.000;  291.000
213.306;  -76.400; -435.000; -577.000
213.451;  -81.525; -778.000; -689.000
213.596;  -44.275; -455.000; -347.000
213.741;  -48.875; -448.000; -538.000
213.886;  -63.875; -498.000; -517.000
214.031;  -24.350; -294.000; -124.000
214.176;  -39.675; -408.000; -341.000
214.321;  -22.575; -296.000; -157.000
214.466;  -17.100; -163.000;  -43.000
214.611;   -4.925;  -61.000;  -10.000
214.756; -115.875; -948.000; -858.000
214.901;  -22.325; -388.000; -226.000
215.046; -106.400; -797.000; -825.000
215.191;    3.950;  128.000;   35.000
215.336;  -20.775; -157.000;  -19.000
215.480;  -69.125; -684.000; -505.000
215.625;  -23.575; -175.000;  -19.000
215.770;  -73.325; -757.000; -662.000
215.915;  -12.850;   -5.000;  -97.000
216.060;   -3.900; -113.000;  -21.000
216.205; -102.025; -731.000; -779.000
216.349;  -68.950; -470.000; -533.000
216.494; -126.800; -939.000; -867.000
216.639; -107.925; -823.000; -888.000
216.784;  -75.950; -577.000; -525.000
216.929;   57.450;  392.000;  281.000
217.073;  -21.100; -244.000;  -31.000
217.218;   21.950;   78.000;  -47.000
217.363;  -84.600; -656.000; -618.000
217.507;  -64.325; -623.000; -588.000
217.652; -129.750; -845.000; -874.000
217.797;  -78.925; -708.000; -659.000
217.942; -100.550; -856.000; -720.000
218.086;   65.750;  608.000;  539.000
218.231;  -17.175; -174.000;  -26.000
218.376;  -35.100; -337.000; -229.000
218.520;    6.250;  -41.000;   96.000
218.665;  -26.450; -338.000; -204.000
218.810;  -43.525; -275.000; -233.000
218.954;   22.325;  201.000;   35.000
219.099; -114.375; -713.000; -963.000
219.243;  -55.700; -589.000; -554.000
219.388;  -30.400; -264.000; -136.000
219.532;   -0.975; -116.000; -116.000
219.677;  -71.050; -564.000; -521.000
219.822;    0.325;   33.000;   89.000
219.966;    3.200;   17.000;  -99.000
220.111;  -29.475; -328.000;  -40.000
220.255;  -85.825; -797.000; -750.000
220.400;   -4.225; -180.000; -146.000
220.544;  -63.000; -516.000; -450.000
220.689;  -49.300; -422.000; -451.000
220.833;  -17.050; -123.000;  -58.000
220.978;  -39.800; -393.000; -563.000
221.122;   22.425;  319.000;  307.000
221.267; -115.525; -906.000; -837.000
221.411;  -63.050; -478.000; -394.000
221.555;   -5.075; -104.000;  -23.000
221.700;  -44.250; -329.000; -222.000
221.844;   31.000;  255.000;  272.000
221.989;  -54.025; -328.000; -311.000
222.133;  -24.950; -289.000; -307.000
222.277;   -2.125;    5.000;   78.000
222.422;   11.800;  227.000;  113.000
222.566;  -48.025; -381.000; -214.000
222.711;  -51.225; -414.000; -479.000
222.855;  -64.850; -643.000; -586.000
222.999;  -75.300; -642.000; -717.000
223.144;  -27.825; -195.000; -194.000
223.288;   36.150;  423.000;  251.000
223.432;   26.600;  184.000;  230.000
223.576;   20.550;  152.000;  -21.000
223.721;   42.675;  364.000;  273.000
223.865;  -60.250; -472.000; -475.000
224.009;  261.925; 1673.000; 1631.000
224.153;  -80.075; -660.000; -671.000
224.298;  -55.875; -531.000; -489.000
224.442;  -24.950;  -74.000;  -33.000
224.586;  -14.000; -169.000; -106.000
224.730;  -84.875; -858.000; -670.000
224.875; -104.425; -739.000; -688.000
225.019;   26.475;  102.000;  188.000
225.163;   52.000;  208.000;  341.000
225.307;   17.775;   97.000;  -91.000
225.451;   39.275;  360.000;  481.000
225.595;   24.250;  264.000;  176.000
225.739;  -15.125; -170.000;  -94.000
225.884;    3.125;   86.000;    5.000
226.028;  -94.450; -760.000; -626.000
226.172;  -36.650; -260.000; -273.000
226.316; -113.050; -941.000; -902.000
226.460;  -71.725; -645.000; -493.000
226.604;  -41.650; -406.000; -400.000
226.748;  -92.450; -836.000; -733.000
226.892;  -37.075; -227.000; -181.000
227.036;  -51.575; -537.000; -447.000
227.180;  -61.325; -551.000; -375.000
227.324;  -63.575; -561.000; -580.000
227.468; -109.975; -819.000; -717.000
227.612;    6.900;  242.000;  -28.000
227.756;  -94.125; -845.000; -698.000
227.900;   50.625;  342.000;  441.000
228.044;  -62.375; -509.000; -290.000
228.188;   64.900;  448.000;  568.000
228.332;  -82.275; -546.000; -472.000
228.476;  -21.875; -223.000; -149.000
228.620;  -26.500; -210.000; -150.000
228.764;   68.525;  431.000;  349.000
228.908;  -31.350; -155.000;   30.000
229.052;  -45.725; -615.000; -528.000
229.195;   -6.850; -172.000;   13.000
229.339;  -16.750; -235.000; -305.000
229.483;  -24.975;    5.000; -162.000
229.627;   -2.350; -156.000;  139.000
229.771;  -35.800; -218.000; -294.000
229.915;   10.575;  230.000;   79.000
230.059;  -86.200; -648.000; -663.000
230.202;  -28.350; -370.000; -317.000
230.346;   -8.575; -107.000;  107.000
230.490;  -61.875; -489.000; -521.000
230.634; -106.600; -736.000; -553.000
230.777;   74.900;  478.000;  509.000
230.921;  -52.300; -450.000; -359.000
231.065;  -38.075; -246.000; -286.000
231.209;   29.075;  261.000;  265.000
231.352;   34.450;   54.000;   40.000
231.496;   18.400;  568.000;  188.000
231.640;  -85.225; -693.000; -621.000
231.783;   44.300;  546.000;  525.000
231.927;  -42.625; -294.000; -365.000
232.071; -117.475; -962.000; -736.000
232.214;  -97.550; -980.000; -764.000
232.358;  -97.125; -683.000; -599.000
232.502;   11.425;  -19.000;    7.000
232.645; -126.250;-1090.000; -927.000
232.789;  -11.275; -257.000; -218.000
232.933;  -37.950; -407.000; -224.000
233.076; -119.175;-1038.000; -897.000
233.220;  -99.750; -752.000; -777.000
233.363;  -70.225; -669.000; -477.000
233.507;   46.350;  371.000;  129.000
233.650;  -85.950; -764.000; -834.000
233.794;   51.950;  438.000;  461.000
233.938;  -48.400; -530.000; -362.000
234.081;  -26.425;  -93.000;   31.000
234.225;  -68.600; -631.000; -539.000
234.368; -101.525; -773.000; -723.000
234.512;  -42.175; -385.000; -299.000
234.655;  -83.925; -582.000; -555.000
234.798;  -69.575; -493.000; -466.000
234.942; -123.000; -884.000;-1002.000
235.085;  -52.750; -651.000; -443.000
235.229;  -75.000; -405.000; -410.000
235.372;  -46.825; -247.000; -191.000
235.516;  -70.250; -397.000; -321.000
235.659;   31.525;   92.000;  121.000
235.802;  -23.100;  -38.000;  -22.000
235.946;   27.925;  335.000;  215.000
236.089;    7.725;  126.000;  250.000
236.233;   53.050;  275.000;  298.000
236.376;  -52.475; -235.000; -378.000
236.519;  -41.500; -297.000; -319.000
236.663;  -20.625; -215.000; -117.000
236.806; -132.525;-1029.000; -999.000
236.949;   44.875;  543.000;  431.000
237.092;   48.425;  412.000;  391.000
237.236;  -90.725; -589.000; -502.000
237.379;   68.075;  352.000;  428.000
237.522;  -99.875; -879.000; -768.000
237.666;  -17.825; -271.000;   18.000
237.809; -122.375; -851.000; -823.000
237.952;   20.225;  469.000;  271.000
238.095;  -80.575; -447.000; -442.000
238.238;   94.300;  688.000;  700.000
238.382;   -9.575;  166.000;  103.000
238.525;  -66.150; -598.000; -511.000
238.668; -142.950;-1060.000; -985.000
238.811;  -88.800; -638.000; -643.000
238.954;  -54.825; -483.000; -334.000
239.097;   95.200;  617.000;  664.000
239.241;   32.250;  394.000;  326.000
239.384;  -33.825; -254.000; -214.000
239.527;  -59.500; -424.000; -224.000
239.670; -140.400; -994.000;-1091.000
239.813; -106.725; -696.000; -658.000
239.956;   70.575;  579.000;  473.000
240.099; -112.325; -778.000; -725.000
240.242;   50.025;  428.000;  432.000
240.385;   49.900;  466.000;  450.000
240.528;  -63.475; -706.000; -473.000
240.671;   19.750;  189.000;  134.000
240.814;  -44.825; -441.000; -158.000
240.957;  -92.250; -767.000; -578.000
241.100;  -96.425; -779.000; -755.000
241.243; -135.750;-1234.000; -893.000
241.386;  -57.550; -508.000; -379.000
241.529;  -83.500; -735.000; -547.000
241.672;  -61.750; -566.000; -495.000
241.815; -123.400; -832.000; -808.000
241.958;  -26.600; -125.000; -182.000
242.101;  -71.325; -545.000; -390.000
242.244;  -43.875; -270.000; -325.000
242.387;  -35.900; -304.000; -246.000
242.530;   59.625;  470.000;  134.000
242.673;  -43.150; -381.000; -309.000
242.815; -104.175; -925.000; -899.000
242.958;  -73.650; -482.000; -381.000
243.101;   13.750;  132.000;  187.000
243.244;  -79.525; -564.000; -521.000
243.387;  -43.425; -313.000; -316.000
243.530; -102.475; -657.000; -674.000
243.672;   -6.275;   43.000;  -92.000
243.815;  -44.025; -355.000; -283.000
243.958;    9.150;   98.000;  -26.000
244.101;   -0.125;   59.000;  -16.000
244.243;   -8.700;  -47.000;  101.000
244.386; -110.125; -761.000; -630.000
244.529;  -28.175; -132.000; -139.000
244.672; -164.975;-1154.000; -951.000
244.814;  -82.875; -621.000; -794.000
244.957;  -48.500; -380.000; -304.000
245.100;  -65.075; -489.000; -489.000
245.242;  -67.425; -387.000; -374.000
245.385;    0.150;  -59.000;  -39.000
245.528; -117.800; -871.000; -705.000
245.670;   89.125;  612.000;  634.000
245.813;  -75.125; -599.000; -547.000
245.956;  -35.400; -324.000; -275.000
246.098;  -76.925; -508.000; -650.000
246.241;   -9.925;  194.000;   48.000
246.383;  -18.250; -119.000;  -73.000
246.526;  -67.800; -454.000; -525.000
246.669; -104.025; -889.000; -780.000
246.811;   20.975;  172.000;   -1.000
246.954;  -63.150; -512.000; -426.000
247.096;  -32.500;  -84.000;   -6.000
247.239;  -69.400; -482.000; -445.000
247.381;  -66.150; -647.000; -488.000
247.524;   72.325;  645.000;  679.000
247.666;  -21.475;   58.000;   11.000
247.809; -102.575; -887.000; -691.000
247.951;  -16.775;  -75.000;  138.000
248.094;   27.575;  432.000;  308.000
248.236; -165.875;-1262.000;-1238.000
248.378;  -15.700; -356.000;  -81.000
248.521;  -47.475; -334.000; -337.000
248.663;  -38.025; -236.000; -267.000
248.806;  -24.175; -300.000; -266.000
248.948;  -95.325; -886.000; -763.000
249.090;  -50.725; -428.000; -398.000
249.233;  -68.350; -344.000; -381.000
249.375;  -54.625; -474.000; -451.000
249.518;  -31.000;  -83.000; -133.000
249.660;   -5.150; -103.000;    3.000
249.802; -163.850;-1303.000;-1189.000
249.945;  -70.600; -612.000; -540.000
250.087; -109.700; -834.000; -768.000
250.229;  -57.800; -362.000; -480.000
250.371;  -76.325; -494.000; -439.000
250.514;  -36.525; -310.000; -244.000
250.656;   -2.475;   69.000;  102.000
250.798; -113.350; -849.000; -800.000
250.940;  -53.725; -322.000; -322.000
251.083;  -33.175; -335.000; -111.000
251.225;   49.550;  338.000;  310.000
251.367;  -46.875; -274.000; -373.000
251.509;  -36.525; -265.000; -210.000
251.651;  -93.025; -731.000; -671.000
251.794;   38.950;  538.000;  632.000
251.936; -118.300; -821.000; -747.000
252.078;  -69.750; -540.000; -461.000
252.220;  -70.225; -645.000; -477.000
252.362;   52.925;  344.000;  462.000
252.504;  -73.175; -677.000; -584.000
252.646;  -97.575; -875.000; -722.000
252.788;    1.925;   14.000; -128.000
252.931;  -46.125; -257.000; -253.000
253.073;  -41.775; -376.000; -317.000
253.215;  -14.250;  141.000;  122.000
253.357;  -24.475;   82.000; -153.000
253.499;  -57.325; -374.000; -234.000
253.641;  -96.550; -749.000; -594.000
253.783;  -90.375; -609.000; -527.000
253.925;  -83.900; -586.000; -591.000
254.067; -104.800; -744.000; -667.000
254.209;  -31.875; -391.000; -259.000
254.351; -130.750; -865.000; -883.000
254.493;  -60.675; -441.000; -417.000
254.635; -130.800; -936.000; -818.000
254.777;  -86.700; -752.000; -687.000
254.918;  -67.625; -512.000; -430.000
255.060;  -63.150; -551.000; -395.000
255.202;  -74.575; -473.000; -261.000
255.344;  -75.200; -658.000; -455.000
255.486;  -66.025; -471.000; -406.000
255.628;  -94.050; -780.000; -781.000
255.770;  -83.750; -676.000; -536.000
255.912;  -71.675; -559.000; -468.000
256.053;  -89.500; -730.000; -508.000
256.195;  139.625; 1008.000;  903.000
256.337;  -88.925; -861.000; -595.000
256.479;   72.725;  532.000;  416.000
256.621;  -46.150; -394.000; -212.000
256.762;  -91.525; -789.000; -742.000
256.904;   47.450;  485.000;  487.000
257.046;  -50.000; -381.000; -271.000
257.188;  -50.250; -351.000; -264.000
257.329;  -71.025; -525.000; -464.000
257.471; -110.250; -939.000; -807.000
257.613;  -66.100; -584.000; -498.000
257.755; -155.475;-1073.000; -982.000
257.896;   37.475;  286.000;  392.000
258.038;  -74.450; -403.000; -352.000
258.180;  -38.075; -354.000; -279.000
258.321;  -86.675; -581.000; -457.000
258.463;    2.750;  -71.000;  133.000
258.605;  -96.175; -562.000; -570.000
258.746;  -95.700; -886.000; -772.000
258.888; -142.900;-1026.000;-1020.000
259.029;   16.175;  121.000;   -8.000
259.171;  -89.600; -614.000; -550.000
259.313;   -9.100;  -49.000;  -47.000
259.454;  -76.550; -536.000; -414.000
259.596;  -49.100; -483.000; -390.000
259.737;  -77.075; -590.000; -474.000
259.879;   26.625;  217.000;  311.000
260.020;   68.375;  901.000;  636.000
260.162;  -33.925; -146.000; -253.000
260.303; -113.775; -768.000; -687.000
260.445;  -86.850; -609.000; -613.000
260.586;   19.800;  392.000;  157.000
260.728;  -46.125; -360.000; -248.000
260.869;  -59.550; -350.000; -343.000
261.011;   75.700;  706.000;  537.000
261.152;  -71.250; -479.000; -319.000
261.293;  -83.725; -576.000; -595.000
261.435;  -35.050; -219.000; -184.000
261.576;  -29.975; -455.000; -325.000
261.718;   52.600;  420.000;  470.000
261.859; -120.100; -940.000; -949.000
262.000; -117.700; -951.000;-1016.000
262.142;  -26.875;  -52.000;  -60.000
262.283; -114.750; -808.000; -691.000
262.424;  -95.375; -666.000; -625.000
262.566; -159.775;-1161.000; -983.000
262.707; -106.475; -840.000; -830.000
262.848; -114.925; -769.000; -726.000
262.990;  -41.050; -362.000; -345.000
263.131;   73.925;  650.000;  681.000
263.272;  -13.025;  -61.000;  -41.000
263.413;  -85.750; -589.000; -561.000
263.555;  -77.000; -669.000; -143.000
263.696;  -84.525; -550.000; -641.000
263.837;  -58.275; -449.000; -551.000
263.978;  -13.200;   -5.000;  -77.000
264.119;  -45.625; -283.000; -264.000
264.261;  -97.625; -847.000; -630.000
264.402;    4.950;   33.000;   40.000
264.543;  -75.550; -509.000; -524.000
264.684;   -6.250;   61.000;  -50.000
264.825;  -61.675; -816.000; -538.000
264.966;   -3.225;  -84.000;  -67.000
265.107; -101.525; -646.000; -670.000
265.248; -114.000; -825.000; -812.000
265.390;   -6.950;  152.000;   -9.000
265.531;  -25.150; -238.000; -107.000
265.672;  -89.400; -557.000; -630.000
265.813;   58.800;  563.000;  439.000
265.954; -129.200; -959.000; -940.000
266.095;  -16.550; -372.000; -322.000
266.236; -107.450; -686.000; -548.000
266.377;  -38.875; -243.000; -297.000
266.518;  -78.150; -619.000; -547.000
266.659;   22.900;  170.000;  268.000
266.800;   -2.800;   83.000;   85.000
266.941;  -81.600; -487.000; -478.000
267.082;   17.300;  354.000;   99.000
267.223;  -49.125; -344.000; -273.000
267.364; -113.200; -892.000; -686.000
267.504;  -18.225;    3.000;  135.000
267.645;    9.025;  160.000;   67.000
267.786;  -39.400; -147.000;  -86.000
267.927;  -81.525; -473.000; -379.000
268.068;  -13.550; -186.000;  -61.000
268.209;  -44.775; -175.000; -413.000
268.350;  -72.650; -388.000; -532.000
268.490;  -88.725; -648.000; -521.000
268.631;   36.500;  127.000;  225.000
268.772;  -98.150; -874.000; -647.000
268.913;  -38.675; -328.000; -476.000
269.054;  -14.800; -117.000;   12.000
269.194;  -62.725; -418.000; -402.000
269.335; -141.550;-1137.000;-1074.000
269.476;  -26.350;   33.000;  -35.000
269.617;  -56.950; -347.000; -392.000
269.757;  -90.125; -713.000; -646.000
269.898; -102.725; -856.000; -613.000
270.039;  -68.725; -415.000; -405.000
270.180; -137.800; -952.000; -816.000
270.320;  -16.100; -190.000; -250.000
270.461;  -43.750; -277.000; -249.000
270.602;  -24.550; -186.000; -156.000
270.742; -120.250; -868.000; -943.000
270.883;  -58.275; -442.000; -390.000
271.023;  -51.500; -358.000; -357.000
271.164;  -69.400; -607.000; -528.000
271.305; -101.875; -666.000; -654.000
271.445;  -93.650; -722.000; -683.000
271.586;  -60.475; -462.000; -283.000
271.726;  -52.100; -397.000; -322.000
271.867;  -62.550; -594.000; -534.000
272.008;   81.725; -473.000; -285.000
272.148;   80.850;  462.000;  468.000
272.289;  -10.200; -113.000; -181.000
272.429;   -1.025;   19.000;  185.000
272.570;  -96.975; -633.000; -737.000
272.710; -103.375; -825.000; -775.000
272.851;  -20.550;  113.000; -130.000
272.991; -159.625;-1173.000;-1077.000
273.131;  -57.950; -419.000; -459.000
273.272;  -93.025; -683.000; -723.000
273.412;   -6.250; -143.000;  -31.000
273.553;  -70.175; -488.000; -507.000
273.693;  115.125;  913.000;  858.000
273.834;  -94.800; -894.000; -692.000
273.974;  -75.700; -664.000; -615.000
274.114; -104.100; -772.000; -560.000
274.255;   50.725;  414.000;  373.000
274.395;  -19.800; -180.000; -125.000
274.535;   11.625;  199.000;  350.000
274.676;   23.925;  225.000;   94.000
274.816;   -5.450;  110.000;   34.000
274.956;  -94.850; -624.000; -690.000
275.097;  -88.525;-1014.000; -922.000
275.237; -114.400; -913.000; -803.000
275.377;  -93.375; -778.000; -689.000
275.517; -145.000; -878.000; -937.000
275.658;  -66.450; -590.000; -555.000
275.798;  -92.125; -606.000; -413.000
275.938;   14.300;  215.000;  323.000
276.078;  -80.150; -626.000; -395.000
276.218;    9.850;   99.000;  104.000
276.359; -145.275;-1026.000;-1024.000
276.499;  -66.950; -605.000; -446.000
276.639;  -37.425; -305.000; -151.000
276.779;  -52.775; -475.000; -357.000
276.919;  -88.150; -783.000; -624.000
277.059;  -30.200; -261.000; -212.000
277.199;  -47.125; -357.000; -259.000
277.340;   41.750;  287.000;  175.000
277.480; -109.850; -840.000; -693.000
277.620;   27.100;  192.000;   16.000
277.760; -192.250;-1533.000;-1294.000
277.900;   -3.075;  113.000;   33.000
278.040;    2.275;  137.000;  159.000
278.180;   23.925;  270.000;  170.000
278.320;    0.000;   21.000;   56.000
278.460;  -76.550; -443.000; -469.000
278.600;  -84.675; -708.000; -598.000
278.740;   50.275;  448.000;  224.000
278.880;  -91.950; -768.000; -791.000
279.020;  -24.275; -194.000; -144.000
279.160;  -86.050; -672.000; -595.000
279.300; -118.400; -926.000; -873.000
279.440;  -82.725; -709.000; -622.000
279.579;  -65.625;-1014.000; -929.000
279.719;  -60.225; -410.000; -394.000
279.859;   35.025;   -4.000;   41.000
279.999;    9.750; -208.000;  101.000
280.139;  -42.650; -435.000; -387.000
280.279;  -88.750; -708.000; -745.000
280.419;  -12.875; -229.000; -147.000
280.559;  -36.800; -259.000; -180.000
280.698;  -99.450; -790.000; -639.000
280.838;  -99.800; -778.000; -800.000
280.978;  -98.050; -846.000; -790.000
281.118; -109.725; -811.000; -704.000
281.257;   -1.550;   24.000;    6.000
281.397; -140.075;-1094.000; -960.000
281.537;  -96.350; -599.000; -712.000
281.677;  -32.050; -150.000; -101.000
281.816;  -89.950; -700.000; -630.000
281.956;  -41.150; -193.000; -257.000
282.096;  -64.525; -539.000; -396.000
282.235;  -93.125; -672.000; -638.000
282.375;  -11.075; -243.000;  -98.000
282.515; -107.500; -715.000; -707.000
282.654;   21.500;   29.000;  106.000
282.794;   23.775;  388.000;  244.000
282.934;  -61.625; -530.000; -491.000
283.073; -127.725;-1030.000; -857.000
283.213;  -52.800; -460.000; -467.000
283.353;  -52.275; -408.000; -349.000
283.492;  -24.150; -264.000; -296.000
283.632;  -53.400; -254.000; -168.000
283.771;  -95.975; -859.000; -730.000
283.911;  -54.175; -369.000; -260.000
284.050;  -97.325; -794.000; -748.000
284.190; -134.875;-1229.000;-1096.000
284.329; -132.275;-1055.000; -964.000
284.469;  -82.675; -516.000; -591.000
284.608;  -74.650; -559.000; -598.000
284.748;  -73.600; -614.000; -570.000
284.887;  -12.950;  -87.000;  -20.000
285.027; -118.050; -844.000; -892.000
285.166;  -25.900; -192.000; -249.000
285.306;   -4.525; -116.000;  -33.000
285.445;  -28.850; -229.000; -343.000
285.584; -101.375; -630.000; -494.000
285.724;  -32.250; -282.000; -322.000
285.863; -108.400; -857.000; -507.000
286.002;  -49.350; -366.000; -276.000
286.142;  -89.575; -715.000; -622.000
286.281;  -66.750; -525.000; -493.000
286.420;  -85.400; -554.000; -417.000
286.560;   87.050;  653.000;  623.000
286.699; -126.800; -958.000; -912.000
286.838;  -84.225; -590.000; -591.000
286.978;  -93.075; -533.000; -537.000
287.117; -143.100;-1085.000; -950.000
287.256;  -30.300; -228.000; -211.000
287.395;  -60.925; -197.000; -378.000
287.535;  -50.050; -370.000; -298.000
287.674;  -76.850; -509.000; -484.000
287.813;   50.775;  661.000;  533.000
287.952; -132.950;-1010.000; -871.000
288.091; -140.050;-1049.000; -915.000
288.231;    7.575;   13.000;   15.000
288.370; -174.575;-1217.000;-1200.000
288.509;  -89.125; -728.000; -645.000
288.648;  -80.125; -770.000; -548.000
288.787;  -21.650; -243.000;  -87.000
288.926;  -68.000; -454.000; -475.000
289.065;  108.000;  859.000;  672.000
289.204;  -52.175; -377.000; -217.000
289.344;  -87.375; -791.000; -690.000
289.483;   15.200;  416.000;  304.000
289.622;  -40.500; -291.000; -149.000
289.761;  -31.700; -309.000; -166.000
289.900;  -98.500; -785.000; -626.000
290.039;  -13.475;  -12.000;  -95.000
290.178;  -32.375; -274.000; -180.000
290.317;  -77.775; -618.000; -479.000
290.456;  -59.725; -463.000; -451.000
290.595; -130.350; -961.000; -833.000
290.734; -135.425; -904.000; -891.000
290.873;  -67.400; -456.000; -420.000
291.011; -104.925; -833.000; -843.000
291.150;  -95.400; -770.000; -682.000
291.289;  -28.825; -343.000; -110.000
291.428;  -99.225; -599.000; -480.000
291.567;  -48.800; -370.000; -442.000
291.706;  -13.850;  109.000;  154.000
291.845;  -86.200; -597.000; -505.000
291.984; -161.225;-1234.000;-1061.000
292.122;   61.100;  602.000;  582.000
292.261;   35.225;  620.000;  463.000
292.400;   -3.950; -144.000;  211.000
292.539; -130.000; -959.000; -813.000
292.678;  -36.200; -325.000; -300.000
292.816; -158.025;-1136.000; -965.000
292.955;  -96.075; -844.000; -684.000
293.094;  -40.575; -173.000; -337.000
293.233;  -41.800; -556.000; -400.000
293.371;  -42.125; -225.000;  -84.000
293.510; -103.475; -866.000; -780.000
293.649; -123.575; -959.000; -924.000
293.787; -109.525;-1083.000;-1012.000
293.926;  -15.225; -113.000;  -32.000
294.065;  -44.350; -379.000; -290.000
294.203;   50.475;  298.000;  406.000
294.342;   35.400;   74.000;  156.000
294.481; 6015.900;51180.000; -836.000
294.619;  -34.275; -425.000; -582.000
294.758; -140.625;-1230.000;-1137.000
294.896;   20.750; -125.000;    5.000
295.035; -127.175;-1040.000;-1006.000
295.174; -130.875;-1082.000; -954.000
295.312;  -47.075; -323.000; -203.000
295.451;  -45.500; -307.000; -428.000
295.589;  -73.350; -389.000; -518.000
295.728;   16.300; -292.000; -165.000
295.866;    0.775;  -36.000;  -51.000
296.005;  -64.900; -584.000; -341.000
296.143;  -81.425; -558.000; -596.000
296.282; -109.000; -957.000; -881.000
296.420;  -93.100; -657.000; -557.000
296.559;  -80.475; -892.000; -633.000
296.697;  -49.625; -847.000; -665.000
296.835;  -55.525;-1141.000;-1002.000
296.974;   11.800;  -23.000;   39.000
297.112;  -33.250; -443.000; -504.000
297.251;  -74.300; -815.000; -755.000
297.389;   -4.650; -576.000; -438.000
297.527;   18.700; -145.000;  -83.000
297.666;  -45.675; -486.000; -438.000
297.804;  -52.625; -404.000; -264.000
297.942;   -3.725; -136.000; -161.000
298.081;   -9.350; -183.000;   63.000
298.219;   22.925;  -17.000;  -19.000
298.357;   -5.175; -144.000;  -71.000
298.495;  -54.550; -810.000; -812.000
298.634;   18.725;  245.000;  219.000
298.772;  -10.700; -220.000; -338.000
298.910;  -47.475; -309.000; -182.000
299.048;  -13.575; -130.000; -153.000
299.187;  -48.075; -350.000; -250.000
299.325;   -9.000;   52.000;  122.000
299.463;   -8.150; -389.000; -299.000
299.601;   18.925; -327.000; -271.000
299.739; -112.575; -908.000; -883.000
299.877;  -95.050; -791.000; -703.000
300.016; -101.825;-1095.000; -935.000
300.154;   59.750;  -19.000; -161.000
300.292;  -20.975; -428.000; -348.000
300.430;  -18.125; -408.000; -291.000
300.568; -118.400; -940.000; -874.000
300.706;  -59.150; -366.000; -469.000
300.844; -115.825;-1108.000; -979.000
300.982;   67.900;  246.000;  282.000
301.120; -121.775; -965.000; -866.000
301.258;  -87.575; -812.000; -705.000
301.396;    1.150;  104.000;  -41.000
301.534;   -2.375; -218.000; -293.000
301.672;  -68.650; -664.000; -521.000
301.810;  -63.550; -613.000; -545.000
301.948;   25.225;   53.000;  149.000
302.086;  274.275; -250.000;  -32.000
302.224;  357.625; -610.000; -585.000
302.362;  -45.000; -558.000; -622.000
302.500;  -83.575; -923.000; -893.000
302.638;   46.375;  128.000;  245.000
302.776;  -25.575; -352.000; -408.000
302.913;   46.375;  447.000;  236.000
303.051;  -21.400;  -86.000;  -23.000
303.189;   22.100;   90.000;  118.000
303.327;  -43.175; -341.000; -256.000
303.465;  -89.475; -832.000; -588.000
303.603; -106.750; -805.000; -604.000
303.740;   49.700;  417.000;  241.000
303.878;  -62.000; -800.000; -759.000
304.016; -108.975; -915.000; -790.000
304.154; -140.675;-1123.000;-1152.000
304.291;  -51.575; -505.000; -554.000
304.429;    9.550;  102.000;   74.000
304.567; -132.375; -908.000; -893.000
304.705;  -60.025; -408.000; -515.000
304.842;   -6.275; -616.000; -540.000
304.980;   23.700;  215.000;   35.000
305.118;  -11.950; -367.000; -365.000
305.255; -107.575; -945.000; -927.000
305.393;   39.750;  178.000;  239.000
305.531; -131.400;-1173.000; -956.000
305.668;  -74.375; -663.000; -582.000
305.806;   17.225; -358.000; -439.000
305.943;    8.275; -629.000; -637.000
306.081;   -0.025; -378.000; -267.000
306.219; -104.250; -863.000; -748.000
306.356;    0.000;  158.000;   27.000
306.494;  115.450;  981.000;  761.000
306.631;   -3.450;  -11.000;  -55.000
306.769;  -24.700; -613.000; -485.000
306.906;  -12.175; -284.000; -258.000
307.044;  -45.400; -473.000; -488.000
307.181;  -59.425; -410.000; -332.000
307.319;   22.950;  112.000;   87.000
307.456; -174.025;-1191.000;-1153.000
307.594; -104.875; -980.000; -727.000
307.731;   -8.350; -371.000; -164.000
307.868;   -4.600;  -15.000;   20.000
308.006; -130.875; -961.000; -847.000
308.143;  -51.900; -618.000; -330.000
308.281;   69.300;  -37.000; -254.000
308.418;  -46.575; -748.000; -640.000
308.555;  -81.100; -400.000; -250.000
308.693;  -62.325; -577.000; -573.000
308.830;  -88.975; -712.000; -657.000
308.967;   -7.200; -215.000;  -95.000
309.105;  -36.850; -507.000; -396.000
309.242;   11.150; -468.000; -367.000
309.379;  112.825; -577.000; -655.000
309.517;  -88.150; -936.000; -948.000
309.654; -102.400; -910.000; -734.000
309.791;  -62.275; -662.000; -580.000
309.928; -104.625; -977.000; -914.000
310.065;  153.325;  819.000;  697.000
310.203;  -57.375; -825.000; -850.000
310.340;  -21.700; -465.000; -321.000
310.477;  -71.475; -412.000; -516.000
310.614;  -50.325; -383.000; -473.000
310.751;  -69.100; -427.000; -518.000
310.889;  -20.800;    1.000;   11.000
311.026; -133.700;-1161.000; -939.000
311.163;  -37.825; -386.000; -380.000
311.300;  -67.200; -512.000; -479.000
311.437;  -74.375; -658.000; -619.000
311.574; -135.200;-1226.000; -985.000
311.711;  -59.500; -595.000; -433.000
311.848;  -27.700; -380.000; -388.000
311.985;   15.675;  270.000;   93.000
312.122; -112.125; -932.000; -762.000
312.259; -112.300; -941.000; -994.000
312.396;  -68.575; -508.000; -551.000
312.533;  -71.475; -812.000; -790.000
312.670; -128.750;-1070.000; -898.000
312.807;  -16.625; -352.000; -367.000
312.944;  -79.975; -513.000; -611.000
313.081;  -15.650; -150.000; -415.000
313.218;  -87.600;-1111.000; -867.000
313.355;    6.500; -531.000; -449.000
313.492;   -1.350; -455.000; -292.000
313.629;  131.475;  815.000;  735.000
313.766; -138.550;-1176.000;-1008.000
313.902;   -8.000; -186.000;   21.000
314.039;  -39.125; -372.000; -289.000
314.176;   28.650;  286.000;  192.000
314.313;  -63.450; -569.000; -473.000
314.450;  -75.250; -788.000; -684.000
314.587;  -56.325; -468.000; -480.000
314.723;   19.525;  -78.000;  130.000
314.860;   57.925;  318.000;  332.000
314.997;   42.100;  223.000;  142.000
315.134;  -11.275; -385.000; -368.000
315.270;  -25.325; -480.000; -496.000
315.407;  -93.650;-1094.000; -967.000
315.544;  -28.875; -657.000; -538.000
315.681;  -31.100; -681.000; -565.000
315.817;   71.175; -133.000; -176.000
315.954;   84.200; -613.000; -392.000
316.091; -110.025;-1045.000;-1023.000
316.227;  -34.425;  -71.000; -179.000
316.364;    4.450;   23.000;    6.000
316.500;  -49.900; -113.000; -300.000
316.637;  -50.200; -181.000; -302.000
316.774;  -87.200; -625.000; -358.000
316.910;  -91.175; -598.000; -629.000
317.047;  -63.650; -487.000; -351.000
317.183;  -57.975; -435.000; -566.000
317.320;   24.200; -367.000; -321.000
317.456;  -45.900; -733.000; -805.000
317.593;  -76.075; -598.000; -641.000
317.729;   19.450;  168.000;  -67.000
317.866; -173.775;-1434.000;-1285.000
318.002;  -73.400; -708.000; -948.000
318.139; -107.150; -883.000; -867.000
318.275; -115.125;-1003.000; -738.000
318.412;  -73.650; -517.000; -336.000
318.548;  -54.025; -751.000; -720.000
318.685;  -99.425; -985.000; -888.000
318.821;  -88.600; -762.000; -735.000
318.957;  -28.875;   34.000;  -23.000
319.094;   37.800;  297.000;  154.000
319.230;  -82.400; -756.000; -742.000
319.367;   19.525; -471.000; -520.000
319.503;   -9.375; -538.000; -436.000
319.639; -104.800; -877.000; -793.000
319.775;  -89.800; -750.000; -685.000
319.912;  -67.050; -424.000; -519.000
320.048; -105.050;-1184.000;-1184.000
320.184;   88.950;   59.000;   70.000
320.321;  -67.075; -497.000; -467.000
320.457;   76.275;  475.000;  662.000
320.593;  -72.400; -375.000; -382.000
320.729; -105.675; -732.000; -734.000
320.866;  -68.625; -577.000; -635.000
321.002;  -89.150; -759.000; -809.000
321.138;  -32.250; -135.000; -211.000
321.274;    8.275; -148.000; -115.000
321.410;  -42.900; -585.000; -353.000
321.546;  -91.650;-1011.000; -911.000
321.683;   37.450;  400.000;  185.000
321.819;  -34.025;  -48.000; -117.000
321.955; -126.600; -743.000; -722.000
322.091;  -72.250; -585.000; -540.000
322.227;  -47.000; -382.000; -202.000
322.363;  -31.575; -320.000; -215.000
322.499;  -60.825; -343.000; -331.000
322.635;  111.625;  636.000;  443.000
322.771;   -7.275; -139.000;   12.000
322.907;   47.800;  129.000;  327.000
323.043;  -41.550; -115.000; -206.000
323.179;  -53.575; -394.000; -363.000
323.315;  -42.225; -401.000; -371.000
323.451;   33.950; -328.000; -236.000
323.587;   44.500;  -60.000;  -77.000
323.723;  -32.325; -682.000; -601.000
323.859;  -23.200; -258.000;  -76.000
323.995;  -35.875; -467.000; -409.000
324.131; -116.325; -967.000; -892.000
324.267;  -38.875; -254.000; -276.000
324.402; -131.200; -960.000; -983.000
324.538;  -29.775; -279.000; -104.000
324.674;   -4.725;  164.000;   77.000
324.810;   74.150;  226.000;  308.000
324.946;  -29.350; -810.000; -658.000
325.082;  -62.825; -568.000; -475.000
325.217;  -18.875;  -62.000;   16.000
325.353; -104.800; -764.000; -659.000
325.489;  -95.775; -540.000; -506.000
325.625;  -66.900; -579.000; -525.000
325.760;   86.700;  517.000;  376.000
325.896;   15.800; -515.000; -702.000
326.032;  -53.025; -403.000; -352.000
326.168;  -69.375; -462.000; -369.000
326.303;  -58.725; -352.000; -461.000
326.439;   -8.925; -336.000; -276.000
326.575;  -10.875; -190.000;  -29.000
326.710;   -5.225; -156.000;  -30.000
326.846;  -18.250;  146.000;  103.000
326.982;  -81.150; -530.000; -548.000
327.117;  -76.700; -481.000; -442.000
327.253;  -67.500; -745.000; -742.000
327.388; -174.325;-1137.000;-1153.000
327.524;  -74.875; -811.000; -578.000
327.659;  -33.800;  -58.000;  -22.000
327.795;  -25.475;   69.000;   45.000
327.931;  -72.475; -723.000; -499.000
328.066;  -19.375; -417.000; -276.000
328.202;  -15.175;   12.000; -129.000
328.337;   98.675;  957.000;  713.000
328.473;   13.450;  -12.000;  -74.000
328.608;  -28.100; -256.000; -267.000
328.743; -107.300; -799.000; -664.000
328.879;   14.600;  214.000;  114.000
329.014;  -38.425; -102.000; -122.000
329.150;  -86.350; -358.000; -483.000
329.285;  -89.775; -465.000; -466.000
329.421;  -59.375; -548.000; -246.000
329.556;  -30.050;  -36.000;   85.000
329.691;  -98.725; -633.000; -615.000
329.827;  -68.075; -626.000; -480.000
329.962;  -32.950;  131.000; -301.000
330.097;  -81.375; -673.000; -585.000
330.233;  -38.575; -410.000; -223.000
330.368; -109.375; -839.000; -628.000
330.503;   -8.700;    3.000;   98.000
330.638;  -24.800;  -93.000; -125.000
330.774;  -79.475; -609.000; -530.000
330.909;  -51.700; -434.000; -244.000
331.044;  -92.650; -714.000; -708.000
331.179; -162.600;-1217.000;-1109.000
331.315;   13.225;   77.000;   20.000
331.450;    3.325;  157.000;  285.000
331.585;  -83.750; -805.000; -706.000
331.720;  -82.475; -510.000; -460.000
331.855;   -8.575;  -35.000; -102.000
331.990;  408.875;   62.000;  138.000
332.126;  212.525; -110.000;   71.000
332.261;   11.025; -379.000; -265.000
332.396;    5.525; -135.000; -242.000
332.531;  -57.550;-1074.000;-1031.000
332.666;   86.525; -519.000; -363.000
332.801;  -87.800; -726.000; -807.000
332.936;  -12.375; -192.000; -122.000
333.071; -122.750; -870.000; -817.000
333.206;   17.825;  307.000;  379.000
333.341;   32.975;  344.000;  418.000
333.476;  -79.650; -627.000; -623.000
333.611;  -17.925; -251.000; -173.000
333.746;  -39.975; -381.000; -464.000
333.881; -117.750; -973.000; -935.000
334.016; -120.925; -936.000; -917.000
334.151; -112.125; -746.000; -702.000
334.286;   24.350;  152.000;  186.000
334.421;  -11.875; -125.000; -178.000
334.556;  -61.675; -611.000; -567.000
334.690;  -63.200; -631.000; -577.000
334.825;   72.625;  381.000;   83.000
334.960;  -37.925; -285.000; -413.000
335.095;   32.075;  135.000;  -91.000
335.230;  -67.100; -722.000; -738.000
335.365; -103.725;-1084.000; -990.000
335.499; -107.275;-1108.000;-1037.000
335.634;   35.375;    9.000;  534.000
335.769;  -68.425; -755.000; -720.000
335.904;  -18.500; -603.000; -561.000
336.038;  -15.875; -735.000; -657.000
336.173;  -68.950;-1206.000;-1194.000
336.308;   55.950; -116.000; -189.000
336.443;  101.675; -544.000; -634.000
336.577;    2.400; -936.000; -787.000
336.712;  133.725;   -4.000;  -12.000
336.847;   27.000; -724.000; -607.000
336.981;  119.075; -272.000; -208.000
337.116;  399.250;  615.000;  501.000
337.250;  220.275; -434.000; -421.000
337.385;  407.750; -297.000; -208.000
337.520;  190.225; -632.000; -603.000
337.654;  -39.050; -215.000; -126.000
337.789; -118.725; -989.000; -933.000
337.923;  -40.700; -104.000; -205.000
338.058; -108.250; -673.000; -738.000
338.192;  -61.625; -611.000; -488.000
338.327;  -12.325;  -18.000; -155.000
338.461;  -76.750; -299.000; -469.000
338.596;  -94.200; -780.000; -638.000
338.730;  -82.750; -767.000; -803.000
338.865;  138.200;  -46.000; -140.000
338.999;    3.500; -846.000; -702.000
339.134;  -16.300; -634.000; -536.000
339.268;   32.300; -741.000; -603.000
339.403;  533.375; -740.000; -775.000
339.537;  241.700; -894.000; -820.000
339.671;  -91.550; -829.000; -813.000
339.806;  -34.625; -556.000; -512.000
339.940;   35.750; -261.000; -235.000
340.074;  -97.725; -685.000; -510.000
340.209;  -42.300; -351.000; -230.000
340.343;  -91.275; -517.000; -573.000
340.477;  133.000;  998.000; 1036.000
340.612;  -12.525;-1033.000; -900.000
340.746;  205.050; -199.000; -243.000
340.880;  -89.175; -924.000; -785.000
341.014;  -25.875;  -45.000; -154.000
341.149; -108.350; -756.000; -718.000
341.283; -120.100; -839.000; -754.000
341.417; -114.250;-1124.000; -938.000
341.551;   -6.950; -768.000; -708.000
341.685;  -64.775; -633.000; -611.000
341.820;  -46.525; -562.000; -493.000
341.954;  -43.350; -218.000; -349.000
342.088; -150.425;-1102.000;-1019.000
342.222;   44.900;  565.000;  618.000
342.356;  -74.150; -395.000; -335.000
342.490; -104.300; -880.000; -841.000
342.624;  -55.475; -339.000; -242.000
342.758;  -46.200; -364.000; -312.000
342.892;  -95.075; -710.000; -585.000
343.026;  -51.625;  -58.000; -116.000
343.160;  -63.600; -426.000; -376.000
343.294;  -79.725; -474.000; -337.000
343.428;  -69.100; -488.000; -448.000
343.562;  -33.225; -172.000;  -23.000
343.696;  -36.100; -385.000; -314.000
343.830;  -40.675; -362.000; -356.000
343.964;  -17.375; -231.000; -168.000
344.098;  423.550;  199.000;   70.000
344.232;  361.750; -266.000; -127.000
344.366;   84.725; -567.000; -453.000
344.500;  -22.875; -665.000; -744.000
344.634;  -24.675; -324.000; -164.000
344.768;  -47.300; -531.000; -341.000
344.902;   -0.600;  278.000;  256.000
345.035;  -71.625; -556.000; -496.000
345.169; -131.425; -933.000; -656.000
345.303;  -61.075; -308.000; -482.000
345.437; -104.825; -826.000; -717.000
345.571;  -74.350; -675.000; -594.000
345.704;  -61.500; -309.000; -532.000
345.838;  -19.850; -331.000; -284.000
345.972;  -61.250; -543.000; -495.000
346.106;  239.125; -179.000; -190.000
346.239;  454.150; -312.000; -243.000
346.373;    1.750; -343.000; -302.000
346.507; -142.125; -950.000; -962.000
346.640;   55.900;  -30.000;   13.000
346.774;  -80.975; -650.000; -797.000
346.908;  -31.625; -138.000;  -11.000
347.041; -110.100; -646.000; -593.000
347.175;   -4.450;  259.000;   27.000
347.309;  -84.750; -698.000; -628.000
347.442; -115.400; -883.000; -732.000
347.576;  146.825;  670.000;  668.000
347.709;   65.950; -123.000;  -52.000
347.843; -118.875; -933.000; -825.000
347.976;   33.625;  235.000;  294.000
348.110; -175.375;-1268.000;-1186.000
348.243; -107.100; -679.000; -772.000
348.377;   -9.500;  -26.000;   60.000
348.510;   25.900;  403.000;  540.000
348.644;  -52.425;  -37.000; -159.000
348.777;    4.200;  180.000;  191.000
348.911;  -50.750; -142.000; -112.000
349.044;  102.950;  471.000;  448.000
349.178;   12.050;-1069.000;-1006.000
349.311;  110.225;  141.000;  255.000
349.444;   30.700; -927.000; -813.000
349.578;  -24.175; -347.000; -200.000
349.711; -118.325; -959.000; -862.000
349.845;  -56.425; -661.000; -591.000
349.978; -156.400;-1224.000;-1137.000
350.111;  -77.700; -546.000; -612.000
350.244;  -94.875; -596.000; -700.000
350.378;  -44.275; -392.000; -393.000
350.511;  -73.675; -393.000; -426.000
350.644;  -93.775; -808.000; -806.000
350.778;   15.875;  168.000;  104.000
350.911;   -0.575;  134.000;  140.000
351.044;  -91.775; -685.000; -615.000
351.177;  -44.400; -321.000; -281.000
351.310;  -28.275;    3.000; -131.000
351.444;  -92.450; -888.000; -788.000
351.577;   42.225;  140.000;   90.000
351.710;   73.975;  593.000;  417.000
351.843;  -32.950; -165.000;  -77.000
351.976;   -7.150;  149.000;  -79.000
352.109;  -92.900; -621.000; -612.000
352.242;  -51.300; -464.000; -419.000
352.376;  -84.350; -580.000; -636.000
352.509;   67.550; -437.000; -356.000
352.642;  -72.850; -654.000; -604.000
352.775;   28.000; -141.000;  -98.000
352.908; -124.975; -933.000; -904.000
353.041;  -99.950; -814.000; -824.000
353.174;  -60.650; -551.000; -424.000
353.307;  -81.500; -753.000; -764.000
353.440;   69.025;  541.000;  453.000
353.573;  -80.275; -957.000;-1008.000
353.706;  -30.650; -384.000; -558.000
353.839;  -21.475; -264.000; -220.000
353.971;  -90.500; -657.000; -512.000
354.104;  -92.400; -896.000; -835.000
354.237;  -75.650; -627.000; -662.000
354.370;  -93.200; -846.000; -879.000
354.503; -168.475;-1231.000;-1308.000
354.636;  -16.225; -529.000; -348.000
354.769; -114.350; -937.000; -860.000
354.902;   -9.900; -230.000; -139.000
355.034;  -13.825; -164.000; -220.000
355.167;   -3.175; -262.000; -162.000
355.300;  -55.700;-1061.000; -880.000
355.433; 1398.775;  -71.000;  -14.000
355.565; 2218.900; -402.000; -384.000
355.698;  563.275; -356.000; -296.000
355.831;   10.475; -882.000; -801.000
355.964;   56.725; -285.000; -170.000
356.096;  -59.450; -856.000; -843.000
356.229;   27.800; -523.000; -530.000
356.362;  501.275; -373.000; -266.000
356.494;  898.800; -229.000; -162.000
356.627;  377.050;  269.000;  377.000
356.760;  888.475;  120.000;   53.000
356.892; 1496.525; -286.000; -601.000
357.025;  403.175;  403.000;  389.000
357.157;  299.475; -167.000; -179.000
357.290; 1109.425; -856.000; -713.000
357.423;  366.175; -667.000; -556.000
357.555;  149.600; -217.000; -228.000
357.688;  213.600; -483.000; -364.000
357.820;  266.550; -870.000; -877.000
357.953; 2041.650; -563.000; -589.000
358.085;  352.950; -632.000; -612.000
358.218;  268.500;-1131.000; -932.000
358.350;   71.525;  -58.000;  312.000
358.483; -149.275;-1300.000;-1187.000
358.615; -110.550;-1182.000;-1078.000
358.747; -130.300;-1187.000;-1058.000
358.880;  -41.000; -810.000; -744.000
359.012;  -15.825; -376.000; -202.000
359.145;  -64.750; -480.000; -511.000
359.277;  -33.300; -962.000; -913.000
359.409; 1694.075;  536.000;  231.000
359.542;  400.200; -738.000; -688.000
359.674;   33.675;   46.000;   13.000
359.806;  -62.275; -565.000; -438.000
359.939;  -37.500; -617.000; -516.000
360.071;   17.600; -583.000; -579.000
360.203;  -32.825; -411.000; -364.000
360.335;   29.250;  164.000;  -16.000
360.468;  112.500; -249.000; -307.000
360.600; 1598.375; -547.000; -454.000
360.732; 3926.150; -546.000; -423.000
360.864;  580.900;-1216.000;-1044.000
360.996;   96.775; -516.000; -554.000
361.129;  -37.450; -389.000; -598.000
361.261;    7.100;  110.000; -113.000
361.393;  -56.525; -252.000; -214.000
361.525;   12.175;   94.000;  244.000
361.657;  -97.175; -821.000; -703.000
361.789;  -22.950; -139.000; -155.000
361.921;   -2.825; -642.000; -593.000
362.053;  112.975;  524.000;  541.000
362.185;    5.200;  288.000;   72.000
362.318; -108.675; -709.000; -705.000
362.450;   52.650;  294.000;  444.000
362.582;  -36.950; -913.000; -870.000
362.714;  -58.700; -353.000; -332.000
362.846;  -95.775; -606.000; -490.000
362.978; -141.075; -941.000; -811.000
363.109;  -24.275; -161.000; -260.000
363.241;  200.200; -739.000; -749.000
363.373;  621.675; -649.000; -564.000
363.505;  994.050; -186.000;  -91.000
363.637;  227.525; -787.000; -601.000
363.769; -118.050;-1067.000;-1080.000
363.901;  -67.375; -596.000; -654.000
364.033; -137.350;-1103.000;-1062.000
364.165;  -20.625; -283.000; -283.000
364.296;   98.150; -316.000; -177.000
364.428;  156.000;-1344.000;-1220.000
364.560;  -66.325; -679.000; -661.000
364.692;  -73.300; -738.000; -835.000
364.824;   21.800; -588.000; -456.000
364.955;  474.775; -402.000; -564.000
365.087; 1500.800;-1097.000; -852.000
365.219;   82.775; -686.000; -816.000
365.351;  -75.525; -526.000; -572.000
365.482;   26.675;  300.000;  240.000
365.614;  -47.725; -402.000; -314.000
365.746; -112.550; -729.000; -752.000
365.877;  -90.625; -706.000; -672.000
366.009;  382.000;  -35.000;  -62.000
366.141;  -38.425;-1249.000;-1134.000
366.272; -115.525; -803.000; -719.000
366.404; -128.375;-1005.000; -874.000
366.535;  -34.400; -139.000;  -12.000
366.667;  -90.525; -644.000; -649.000
366.799;   24.200;  353.000;  203.000
366.930; -123.425; -862.000; -996.000
367.062;  171.250; -639.000; -613.000
367.193;  317.475; -872.000; -842.000
367.325;  -47.625; -580.000; -684.000
367.456;   11.850; -246.000;   31.000
367.588;  244.125; -371.000; -318.000
367.719;   36.550;  -44.000;  -45.000
367.851;  -34.425; -222.000; -241.000
367.982; -105.200; -875.000; -732.000
368.113;    6.700; -475.000; -358.000
368.245; -141.500; -960.000; -841.000
368.376;  -38.600; -254.000; -302.000
368.508;  -53.250; -188.000; -263.000
368.639; -162.150;-1166.000;-1034.000
368.770;  -73.900; -670.000; -589.000
368.902;  -82.100; -836.000; -926.000
369.033; -120.075; -906.000; -855.000
369.164;  -17.175; -720.000; -653.000
369.296;  -96.975; -452.000; -601.000
369.427;  -40.650; -209.000; -144.000
369.558;  -71.550; -593.000; -377.000
369.689;  -91.900; -721.000; -569.000
369.821; -136.975; -951.000; -845.000
369.952;  -18.100;   42.000; -108.000
370.083;  -51.525; -229.000; -108.000
370.214; -101.175; -735.000; -650.000
370.345;  -16.950;   65.000;   81.000
370.477;  -95.775; -810.000; -790.000
370.608;   72.525; -328.000; -264.000
370.739; -103.550;-1233.000;-1292.000
370.870; -101.975;-1102.000; -923.000
371.001;    3.375; -378.000; -467.000
371.132;  -94.425; -754.000; -735.000
371.263;  -13.725;  -42.000; -148.000
371.394; -135.250; -841.000; -748.000
371.525;   10.425;  345.000;  225.000
371.657; -105.850; -808.000; -670.000
371.788;   40.925;  103.000;  199.000
371.919;   54.125; -384.000; -304.000
372.050; 1776.150;  -91.000; -156.000
372.181;  538.875; -188.000; -294.000
372.311;  160.500;   42.000; -127.000
372.442;  -35.625; -457.000; -451.000
372.573;  -42.250; -444.000; -340.000
372.704; -136.275;-1008.000; -980.000
372.835;  -17.425; -228.000; -289.000
372.966;  -81.375; -646.000; -554.000
373.097;  -75.375; -575.000; -711.000
373.228;  -95.050; -717.000; -542.000
373.359;   -3.125; -824.000; -536.000
373.490;  286.750; -881.000; -727.000
373.620;  399.475;-1001.000; -803.000
373.751;  796.650; -332.000; -396.000
373.882;  353.225; -663.000; -733.000
374.013;    2.175; -449.000; -262.000
374.143;  -73.575; -581.000; -659.000
374.274; -132.375; -987.000; -908.000
374.405;   79.875; -388.000; -276.000
374.536;  185.325; -526.000; -387.000
374.666;  458.900; -759.000; -807.000
374.797;   50.900; -817.000; -868.000
374.928;  322.625; -710.000; -560.000
375.058;  304.950; -535.000; -500.000
375.189;   33.250;  -59.000;  -93.000
375.320; -108.825; -928.000;-1034.000
375.450;  -41.900; -625.000; -616.000
375.581;  -23.225; -526.000; -436.000
375.712;  -32.925; -574.000; -250.000
375.842;   56.825; -438.000; -415.000
375.973;   30.775; -554.000; -513.000
376.103;  -99.725; -665.000; -648.000
376.234;  -85.075; -531.000; -552.000
376.364; -110.825; -944.000; -867.000
376.495;  177.650;  925.000;  529.000
376.625;  -43.925; -472.000; -485.000
376.756;  -31.300; -709.000; -678.000
376.886; -124.500;-1178.000;-1026.000
377.017;  136.050;-1048.000;-1061.000
377.147;  602.200; -786.000; -782.000
377.278;   93.625;  174.000;  228.000
377.408; -118.400; -801.000; -815.000
377.538;  -93.300; -707.000; -693.000
377.669;  -81.425; -537.000; -613.000
377.799;  -97.725; -645.000; -635.000
377.929;  -66.550; -610.000; -428.000
378.060; -128.075; -781.000; -847.000
378.190;  -28.350; -726.000; -531.000
378.320;  -39.075; -401.000; -406.000
378.451;  -18.575; -131.000;  -22.000
378.581;  -15.425;  -67.000; -110.000
378.711;  103.625; 1035.000;  866.000
378.841;  -52.725; -533.000; -675.000
378.972;  -97.300; -871.000; -751.000
379.102;  -41.425; -652.000; -579.000
379.232;  -25.000; -126.000;  -73.000
379.362; -116.200;-1001.000; -885.000
379.492;  -44.500; -373.000; -424.000
379.623;   59.900;    0.000;  111.000
379.753; -115.850;-1107.000; -974.000
379.883;  106.950;   59.000;  156.000
380.013;  -60.500;-1081.000;-1017.000
380.143; -103.300;-1097.000;-1056.000
380.273;  -81.350; -985.000; -861.000
380.403;   27.175; -344.000; -257.000
380.533;  -19.050; -651.000; -664.000
380.663;   22.250;  173.000;  128.000
380.793; -149.850;-1027.000;-1074.000
380.923;  -34.825; -103.000;  -34.000
381.053;  -96.675; -613.000; -623.000
381.183;  -43.350; -106.000; -248.000
381.313;  -50.100; -656.000; -470.000
381.443;  -39.250; -692.000; -473.000
381.573;   -2.900; -402.000; -409.000
381.703;  -44.075;-1249.000;-1095.000
381.833; -180.325;-1454.000;-1336.000
381.963;   34.225; -134.000;  -87.000
382.093;  562.275; -925.000; -909.000
382.223;  153.425; -713.000; -602.000
382.353;  -80.175; -801.000; -608.000
382.482;   83.825;-1091.000; -964.000
382.612;  286.750; -872.000; -644.000
382.742;  144.525; -695.000; -622.000
382.872;   13.900; -565.000; -551.000
383.002;   23.375;  347.000; -132.000
383.131;  -32.550; -226.000; -160.000
383.261;  -41.150; -706.000; -768.000
383.391;  300.900; -552.000; -377.000
383.521; 4637.725;  451.000;  263.000
383.650; 1358.175; -947.000; -904.000
383.780;   15.750; -783.000; -656.000
383.910;  105.475;  880.000;  802.000
384.039;  -61.775; -794.000; -656.000
384.169;  -36.225;-1205.000;-1017.000
384.299;  -71.600; -650.000; -662.000
384.428; -120.600; -764.000; -680.000
384.558;  -66.100; -308.000; -275.000
384.687;  -61.725; -414.000; -334.000
384.817;   -6.800;   75.000;   -2.000
384.947;  -21.700; -234.000; -141.000
385.076;  172.925;  982.000;  912.000
385.206;   62.800;  369.000;  480.000
385.335;  -65.375; -549.000; -417.000
385.465; -110.675; -655.000; -663.000
385.594;   39.225;  -53.000;  -44.000
385.724;  115.775; -868.000; -838.000
385.853;   13.950; -296.000; -270.000
385.982;  532.625; -743.000; -787.000
386.112;  958.075;-1052.000; -871.000
386.241;   27.875; -307.000; -312.000
386.371;   -7.650; -174.000;  -87.000
386.500;  -39.875; -825.000; -789.000
386.629;   -6.625; -874.000; -817.000
386.759;   68.750;  -43.000;   68.000
386.888;  -30.325; -170.000; -250.000
387.017; -100.375; -648.000; -620.000
387.147;  -95.700; -771.000; -798.000
387.276;  -41.925; -410.000; -397.000
387.405;  -30.600; -398.000; -342.000
387.535;  -76.325; -452.000; -361.000
387.664;  -63.225; -692.000; -620.000
387.793;    1.300; -198.000; -113.000
387.922;  223.175;  255.000;  200.000
388.052;  -38.800; -576.000; -423.000
388.181;  -36.200; -342.000; -472.000
388.310;  -85.400; -889.000; -710.000
388.439; -104.900; -749.000; -742.000
388.568;   50.900;  365.000;  244.000
388.697;  419.400; -756.000; -653.000
388.826;   38.650; -768.000; -666.000
388.956;  -17.975; -285.000; -307.000
389.085;  -45.825; -347.000; -287.000
389.214; -112.500; -842.000; -872.000
389.343;  -71.550; -645.000; -413.000
389.472;  525.375;  126.000;  149.000
389.601;  604.350;   91.000;    0.000
389.730;  -14.425; -568.000; -687.000
389.859;   34.400;  226.000;   46.000
389.988;   46.325; -423.000; -408.000
390.117;   66.800; -168.000; -146.000
390.246;  -35.100; -331.000; -320.000
390.375;  -27.525; -673.000; -626.000
390.504;  -79.825; -703.000; -621.000
390.633; -114.200; -672.000; -726.000
390.761;  -93.225; -732.000; -645.000
390.890;  -22.825;   -4.000; -130.000
391.019;  -72.375; -421.000; -441.000
391.148; -124.925; -826.000; -855.000
391.277;  -96.325; -576.000; -493.000
391.406; -113.600; -821.000; -805.000
391.534;    2.325;  574.000; -301.000
391.663;  -96.650; -583.000; -645.000
391.792; -107.850; -673.000; -701.000
391.921;   11.925;   -3.000;   15.000
392.050;   26.425; -287.000; -228.000
392.178; -122.675;-1206.000;-1061.000
392.307;    4.925; -758.000; -712.000
392.436;  -27.600; -427.000; -641.000
392.564;   -2.950;  166.000;   -6.000
392.693; -110.275; -860.000; -682.000
392.822;   28.600; -529.000; -534.000
392.950;  -20.575; -880.000; -714.000
393.079;  107.275; -188.000; -328.000
393.208;  -30.900; -488.000; -511.000
393.336;  -29.650; -170.000; -145.000
393.465;  -57.450; -317.000; -199.000
393.593;   -2.125;   62.000;   79.000
393.722; -144.100;-1121.000; -916.000
393.850;  -31.600; -188.000;  -61.000
393.979; -150.450; -926.000; -805.000
394.107;  -58.275; -517.000; -537.000
394.236;  -47.575; -570.000; -507.000
394.364;  128.775;  383.000;  206.000
394.493;  144.725; -911.000; -767.000
394.621;   16.775; -955.000; -916.000
394.750; 1110.850; -873.000; -923.000
394.878; 4338.700; -247.000; -149.000
395.007; 6267.175; -721.000; -807.000
395.135;  555.925; -790.000; -721.000
395.263;  -55.675;-1038.000;-1040.000
395.392;   -0.250;  -25.000; -107.000
395.520; -129.350; -818.000; -679.000
395.648;  -97.425; -865.000; -915.000
395.777;  -66.225; -366.000; -405.000
395.905;  -71.025; -449.000; -564.000
396.033;    2.400;  217.000;  172.000
396.162;  213.700; -399.000; -453.000
396.290;  215.125;  -17.000;   -2.000
396.418;  -34.750; -555.000; -514.000
396.546;  -83.500; -571.000; -466.000
396.674; -117.725; -850.000; -878.000
396.803;  -29.475;  -72.000;  -23.000
396.931;   -3.400; -179.000; -199.000
397.059; -102.275;-1026.000; -989.000
397.187; -130.850;-1026.000; -975.000
397.315; -139.950; -884.000; -649.000
397.443;  -95.475; -592.000; -443.000
397.572;  -88.825; -578.000; -424.000
397.700;  -95.850; -607.000; -614.000
397.828;  -19.950;  120.000;  -90.000
397.956;  -46.100; -508.000; -478.000
398.084;  -50.125; -767.000; -626.000
398.212;   14.200;  137.000;  124.000
398.340;  -19.075;  -56.000;  159.000
398.468;  -43.975; -390.000; -169.000
398.596; -143.925; -993.000; -953.000
398.724; -119.650; -762.000; -767.000
398.852; -152.125;-1024.000; -976.000
398.980;  -72.500; -560.000; -560.000
399.108;  -89.700; -982.000; -735.000
399.236;  -15.725;   13.000;    8.000
399.363;    2.050;  222.000;  196.000
399.491;  -57.725; -404.000; -398.000
399.619; -115.675; -829.000; -800.000
399.747;  -96.875; -859.000; -771.000
399.875;   44.450;  220.000;  234.000
400.003;  -59.950; -359.000; -284.000
400.130;  -91.400; -421.000; -341.000
400.258;  -47.375;  -83.000;   38.000
400.386;  -68.075; -352.000; -168.000
400.514;  -88.275; -526.000; -587.000
400.641; -149.125; -928.000; -802.000
400.769; -149.600; -979.000; -888.000
400.897; -116.375; -838.000; -793.000
401.025;  -37.225; -166.000; -152.000
401.152;  -11.275;  220.000;   38.000
401.280;  -81.175; -430.000; -429.000
401.408; -101.975; -712.000; -576.000
401.535; -115.400; -735.000; -758.000
401.663; -188.550;-1134.000;-1054.000
401.790;  -88.900; -514.000; -525.000
401.918;   20.550;  436.000;  405.000
402.046;  -36.375;  134.000;  122.000
402.173;  -42.150;  -18.000;    7.000
402.301;  -81.400; -519.000; -397.000
402.428;   20.650;  528.000;  383.000
402.556; -140.250;-1188.000; -913.000
402.683;  -66.875;  -20.000;   -1.000
402.811;  -20.400;  -37.000; -206.000
402.938;  -21.125;   20.000;   27.000
403.066;   32.050; -574.000; -558.000
403.193;  125.825;  299.000;  239.000
403.321;   99.200; -396.000; -574.000
403.448;  149.600;   83.000;   27.000
403.575;   66.800;  -90.000;  -46.000
403.703;  -89.600; -732.000; -557.000
403.830;  -59.775; -531.000; -496.000
403.957; -119.525;-1117.000;-1023.000
404.085;   32.025;  -61.000; -172.000
404.212;  110.050;  -50.000;   63.000
404.339;  419.300; -566.000; -306.000
404.467; 8662.175; -612.000; -524.000
404.594; 5337.800; -287.000; -227.000
404.721;  952.900; -869.000; -764.000
404.848;   97.300; -113.000; -202.000
404.976; -110.300; -856.000; -783.000
405.103;  -20.475;  -14.000;  -82.000
405.230;    6.875;  190.000;  226.000
405.357;   42.725;  117.000;   44.000
405.484;  409.725;  -49.000;    5.000
405.612;  104.875; -548.000; -563.000
405.739;  -58.025; -488.000; -243.000
405.866;   92.800;  669.000;  385.000
405.993;  -36.575; -398.000; -102.000
406.120; -149.400; -801.000; -887.000
406.247;  -87.750; -323.000; -342.000
406.374;  150.350;  540.000;  629.000
406.501;  -58.950; -632.000; -702.000
406.628; -104.250; -621.000; -589.000
406.755; -120.075; -803.000; -620.000
406.882;  -57.600; -228.000; -277.000
407.009; -108.025; -719.000; -628.000
407.136;  -52.150; -480.000; -401.000
407.263;  -37.750; -939.000; -829.000
407.390;  -95.825; -692.000; -614.000
407.517; -181.150;-1139.000;-1187.000
407.644;  -65.750; -332.000; -256.000
407.771;  -76.350; -249.000; -287.000
407.898;  -14.200;  168.000;  328.000
408.025;  -73.775; -421.000; -313.000
408.151;  -22.200;   82.000;  153.000
408.278;  -76.450; -267.000; -216.000
408.405; -126.225; -931.000; -899.000
408.532;  -81.750; -549.000; -542.000
408.659; -130.000; -677.000; -648.000
408.785; -204.800;-1298.000;-1170.000
408.912;  -59.550; -412.000; -296.000
409.039; -109.600; -610.000; -686.000
409.166; -103.850; -591.000; -555.000
409.292; -113.700; -571.000; -534.000
409.419; -114.025; -665.000; -649.000
409.546;  -94.175; -431.000; -192.000
409.672; -101.375; -713.000; -545.000
409.799;  -37.025;  -36.000;   34.000
409.926;  -57.800; -180.000; -179.000
410.052; -179.650;-1127.000;-1091.000
410.179;  -71.425; -368.000; -392.000
410.305;  -95.550; -375.000; -493.000
410.432;  -46.825; -220.000; -333.000
410.558;  -83.875; -305.000; -380.000
410.685; -111.825; -688.000; -431.000
410.812; -102.725; -409.000; -588.000
410.938; -145.475; -964.000; -808.000
411.065; -117.300; -671.000; -645.000
411.191;  -43.175; -189.000; -174.000
411.317; -129.150; -823.000; -742.000
411.444;  -64.225; -317.000; -246.000
411.570;  -64.325; -339.000; -294.000
411.697; -130.225; -758.000; -752.000
411.823; -172.700; -989.000; -999.000
411.949;  -45.875;  -56.000;   17.000
412.076; -114.550; -539.000; -519.000
412.202; -125.550; -758.000; -757.000
412.329; -121.825; -798.000; -752.000
412.455; -122.650; -821.000; -657.000
412.581;  -28.600;  -15.000;  172.000
412.707;  -91.050; -540.000; -457.000
412.834;   -4.475;  156.000;  219.000
412.960;  -97.325; -785.000; -784.000
413.086; -112.650; -743.000; -701.000
413.212;  112.100;  604.000;  578.000
413.339;  -86.700; -685.000; -701.000
413.465;  -31.050; -364.000; -310.000
413.591; -104.400; -757.000; -474.000
413.717;  -57.375; -358.000; -366.000
413.843; -122.575; -839.000; -861.000
413.969;  -56.425;  -47.000; -292.000
414.096;  -97.325; -679.000; -679.000
414.222;  -11.900;  -33.000;   85.000
414.348;  -68.950; -652.000; -385.000
414.474;   12.300;   38.000;  -52.000
414.600;   -9.875; -126.000; -144.000
414.726;   -4.825;  -96.000;  -55.000
414.852;  -39.875; -365.000; -342.000
414.978;   23.275;  104.000;  -18.000
415.104;   54.900;   38.000;   80.000
415.230;   44.375; -329.000; -330.000
415.356;   55.850; -409.000; -514.000
415.482;  230.350;   13.000;  -35.000
415.608;  388.275; -247.000; -323.000
415.734; 1319.600;   67.000;   38.000
415.860;27549.600; -875.000; -767.000
415.986;22530.700; -685.000; -607.000
416.111; 2083.475; -798.000; -652.000
416.237;  445.975; -424.000; -571.000
416.363; 1616.300; -765.000; -733.000
416.489; 6478.950; -324.000; -251.000
416.615;  872.225; -707.000; -742.000
416.741;   49.400; -677.000; -784.000
416.866;  -69.450; -673.000; -736.000
416.992;  -94.050; -801.000; -818.000
417.118;  -33.275;  -41.000;  -80.000
417.244;  -75.250; -798.000; -531.000
417.369;  -74.825; -801.000; -612.000
417.495;  -21.000; -325.000; -254.000
417.621;  -90.325;-1015.000; -803.000
417.746;   10.775; -579.000; -572.000
417.872;   74.875; -254.000; -144.000
417.998;  120.775; -515.000; -530.000
418.123; 1517.725;-1073.000; -845.000
418.249; 8291.075; -512.000; -601.000
418.374; 1393.000; -916.000; -824.000
418.500;  236.425; -383.000; -482.000
418.626;  165.450;   70.000;  -59.000
418.751;  147.500; -549.000; -448.000
418.877;  294.375; -637.000; -643.000
419.002; 2504.750; -688.000; -560.000
419.128;18789.750; -930.000; -721.000
419.253; 5241.850; -967.000; -837.000
419.379;  728.800; -391.000; -338.000
419.504;  556.125;  325.000;  415.000
419.629;  793.350; -393.000; -212.000
419.755; 5134.150; -317.000; -254.000
419.880;33031.525;  -98.000;   67.000
420.006;16787.125; -280.000; -221.000
420.131;42244.425; -662.000; -775.000
420.256; 6720.350; -315.000; -316.000
420.382;  912.525; -665.000; -687.000
420.507;  156.125; -649.000; -778.000
420.632;   68.075; -337.000; -339.000
420.758;   93.675; -251.000; -425.000
420.883;  -87.350; -876.000; -672.000
421.008; -110.325; -775.000; -619.000
421.133;  -98.025; -509.000; -467.000
421.259;  -55.675; -325.000; -259.000
421.384; -128.725; -834.000; -693.000
421.509; -110.575;-1052.000; -862.000
421.634;  367.650; -936.000; -820.000
421.759;  189.525; -359.000; -327.000
421.885;  -90.650; -717.000; -656.000
422.010;  -89.700; -673.000; -542.000
422.135; -160.550; -695.000; -727.000
422.260;   26.100;  340.000;  280.000
422.385;  -53.600;   12.000;  -98.000
422.510;   -0.275;  151.000;  -26.000
422.635;  -16.600;  -87.000;  -43.000
422.760;    6.750; -766.000; -791.000
422.885;   15.175;  -57.000;  -80.000
423.010;  -43.200; -112.000; -169.000
423.135; -101.750; -481.000; -561.000
423.260;  -39.575; -150.000; -245.000
423.385;   12.125;  476.000;  222.000
423.510;    5.975;   71.000;  -22.000
423.635;   16.225;  133.000;   45.000
423.760;   37.825;  383.000;  328.000
423.885;   22.850;  336.000;  391.000
424.010;   -3.900;  -68.000;  -13.000
424.135;  -20.900;    5.000;  -33.000
424.259;  -76.325; -654.000; -457.000
424.384;  -56.175; -279.000; -272.000
424.509;  -26.125; -260.000; -186.000
424.634;  -97.325; -761.000; -623.000
424.759;  -35.875; -688.000; -544.000
424.883;   -1.575; -506.000; -527.000
425.008;  208.675; -502.000; -410.000
425.133; 2796.700; -679.000; -653.000
425.258; 1492.000; -517.000; -381.000
425.382;  619.050; -867.000; -774.000
425.507; 1570.675; -487.000; -543.000
425.632;  406.550; -802.000; -663.000
425.756;  660.125; -256.000; -146.000
425.881; 9351.150; -831.000; -857.000
426.006;28545.025; -604.000; -355.000
426.130; 4732.925; -696.000; -508.000
426.255;  638.500; -611.000; -491.000
426.379;  275.500; -189.000; -577.000
426.504;  506.525;  660.000;  544.000
426.629; 5743.875; -519.000; -466.000
426.753; 4486.300;   64.000;  -46.000
426.878;  555.675; -252.000; -288.000
427.002;  299.800; -651.000; -668.000
427.127; 2038.475;  -35.000; -158.000
427.251;16665.050;  372.000;  401.000
427.375; 5352.850; -191.000; -173.000
427.500; 1585.425; -616.000; -610.000
427.624;  516.750; -234.000; -400.000
427.749;  106.625; -216.000; -225.000
427.873;   -6.075; -499.000; -412.000
427.997;  -42.400; -222.000; -230.000
428.122;   59.975;  795.000;  703.000
428.246;   34.200;  433.000;  434.000
428.371; -138.600; -869.000; -773.000
428.495; -109.500; -624.000; -646.000
428.619;  -48.975; -186.000; -117.000
428.743;   10.800;   65.000;  132.000
428.868;  -54.800; -732.000; -643.000
428.992;  685.125; -219.000; -326.000
429.116;  272.975; -329.000; -357.000
429.240;  152.025;  419.000;  426.000
429.365;  -41.075; -454.000; -574.000
429.489;  -60.675; -638.000; -647.000
429.613;   32.300; -236.000; -177.000
429.737;   80.000; -563.000; -432.000
429.861;  376.975; -247.000; -133.000
429.985; 7763.800; -425.000; -305.000
430.109; 9788.350; -770.000; -908.000
430.234; 1191.725;   76.000;  -50.000
430.358;  153.150; -250.000; -160.000
430.482;  -44.850; -672.000; -564.000
430.606;  -70.250; -655.000; -375.000
430.730;  -48.925; -437.000; -388.000
430.854;  -70.000; -909.000; -835.000
430.978; -101.800; -795.000; -764.000
431.102;  -88.350; -499.000; -422.000
431.226; -114.150; -874.000; -815.000
431.350;   -2.725;  345.000;  422.000
431.474;  -85.425; -661.000; -373.000
431.597; -162.100;-1060.000; -848.000
431.721;  -83.375; -276.000; -267.000
431.845; -132.775; -704.000; -472.000
431.969;  -72.950; -304.000; -349.000
432.093;  -84.200; -395.000; -317.000
432.217;   -4.875;   32.000;   82.000
432.341;  -87.325; -523.000; -518.000
432.464;  -11.950;   96.000;   40.000
432.588;   -0.100; -401.000; -329.000
432.712;   32.575;  -52.000;  -52.000
432.836;   47.600;  213.000;  263.000
432.959;   25.375; -372.000; -311.000
433.083;  151.950;   11.000;    2.000
433.207;  549.725;  285.000;  930.000
433.330; 7394.675; -391.000; -200.000
433.454;10144.150; -654.000; -638.000
433.578; 5630.000;  583.000;  278.000
433.701; 1210.025; -623.000; -675.000
433.825;  154.425; -292.000; -299.000
433.949;   75.475;   28.000;  -72.000
434.072;   -2.875; -410.000; -323.000
434.196;  -15.550; -309.000; -117.000
434.319; 3538.050;25482.000;25124.000
434.443;  867.275; -656.000; -603.000
434.566; 3909.050;  281.000;   62.000
434.690;  823.775; -637.000; -383.000
434.813;  129.325; -251.000; -173.000
434.937;  -45.675; -569.000; -696.000
435.060;  -75.825; -423.000; -332.000
435.184;   39.725; -492.000; -217.000
435.307;   29.575;  159.000;  102.000
435.431;  -32.475;  -40.000;   24.000
435.554;  -77.050; -399.000; -240.000
435.677;  -92.100; -350.000; -258.000
435.801;  -53.825;  -25.000;   49.000
435.924;  -45.750;    1.000;  -67.000
436.048; -157.450;-1019.000; -732.000
436.171;  -78.225; -240.000;  -66.000
436.294;  -26.375; -248.000; -229.000
436.417;  214.475; -963.000; -849.000
436.541;  -45.025; -814.000; -840.000
436.664;  -39.300; -242.000; -316.000
436.787;  -33.150;   13.000;  113.000
436.910; -124.950; -792.000; -422.000
437.034;  -19.625;  142.000;  143.000
437.157;   -0.925;  -11.000;    0.000
437.280;  -79.850; -392.000; -292.000
437.403; -127.550; -982.000; -869.000
437.526;  111.350; -903.000; -865.000
437.649;  890.600; -505.000; -332.000
437.772;   89.600; -692.000; -540.000
437.896;   75.625;  700.000;  544.000
438.019; -106.400; -758.000; -503.000
438.142; -103.625; -596.000; -506.000
438.265; -103.975; -639.000; -670.000
438.388;  108.650; -520.000; -410.000
438.511;  -43.750; -597.000; -394.000
438.634;  -82.975; -247.000; -125.000
438.757; -136.350; -693.000; -619.000
438.880;  -52.475;  -34.000;  -57.000
439.003; -101.925; -417.000; -437.000
439.126;  -67.100; -287.000; -167.000
439.248;  -66.000;  -98.000; -139.000
439.371;  -48.450;    9.000;  -53.000
439.494;    6.125;  510.000;  439.000
439.617;  -57.300;   65.000;  -88.000
439.740; -168.175; -968.000; -816.000
439.863; -129.400; -755.000; -595.000
439.986; -118.550; -476.000; -431.000
440.108;  -50.650; -161.000; -112.000
440.231; -161.925; -950.000; -836.000
440.354;  -54.725;  -64.000; -150.000
440.477;  -96.600; -566.000; -542.000
440.599;  -76.500; -200.000; -225.000
440.722; -143.400; -709.000; -586.000
440.845;   62.350;  751.000;  928.000
440.968; -122.150; -415.000; -311.000
441.090;  -74.775; -199.000;  -33.000
441.213; -170.175;-1021.000; -825.000
441.336;  -52.225; -159.000;   -5.000
441.458; -107.800; -549.000; -396.000
441.581; -115.100; -628.000; -629.000
441.703;  -90.200; -152.000;   13.000
441.826; -119.825; -557.000; -400.000
441.948;  -52.925;   56.000;   51.000
442.071;    2.800;  555.000;  424.000
442.193; -129.675; -531.000; -485.000
442.316;    4.575;  152.000;   97.000
442.438;   73.075; -233.000;  -10.000
442.561;   61.050;  272.000;  262.000
442.683;  147.900; -809.000; -522.000
442.806;  474.950;   -8.000;   74.000
442.928;  -61.825; -859.000; -604.000
443.051;  -98.600; -577.000; -373.000
443.173; -102.700; -341.000; -339.000
443.295;  -93.050; -263.000; -371.000
443.418;  -76.925; -321.000;  -29.000
443.540;  -38.625; -106.000;   -4.000
443.662; -133.500; -563.000; -465.000
443.785;  -15.350;  335.000;  199.000
443.907; -103.225; -362.000; -208.000
444.029; -117.100; -767.000; -494.000
444.152; -146.025; -644.000; -554.000
444.274;  -44.350;  -18.000;  -24.000
444.396; -119.225; -461.000; -221.000
444.518; -133.700; -691.000; -454.000
444.640; -101.475; -268.000; -111.000
444.763;  -30.475;  388.000;  249.000
444.885; -115.500; -432.000; -392.000
445.007;  -45.975;   35.000;   86.000
445.129; -128.975; -610.000; -515.000
445.251; -104.450; -372.000; -439.000
445.373; -144.025; -537.000; -386.000
445.495;  -12.950;  242.000;  350.000
445.617;   39.525;  853.000;  753.000
445.739;  -76.825; -215.000;  -97.000
445.861;  -53.250; -245.000; -112.000
445.984;  -65.000; -267.000; -101.000
446.105;    6.475; -418.000; -251.000
446.227;  205.100; -176.000;  -19.000
446.349;  -54.750; -358.000; -249.000
446.471; -123.550; -615.000; -448.000
446.593;  -97.300; -316.000;   19.000
446.715;  -34.475;  -67.000;   41.000
446.837;   56.175;  697.000;  832.000
446.959; -106.200; -457.000; -478.000
447.081; -145.425; -628.000; -518.000
447.203;   45.100;  862.000;  834.000
447.325; -104.425; -270.000;   42.000
447.446;  -10.675;  286.000;  530.000
447.568; -164.750; -921.000; -803.000
447.690;  -75.625; -236.000; -245.000
447.812; -143.900; -798.000; -519.000
447.933;  -25.325;  155.000;  127.000
448.055;  -89.900; -306.000; -261.000
448.177;   40.950;   31.000;   79.000
448.299;  -60.125; -935.000; -727.000
448.420;  -20.975;  -25.000;  159.000
448.542;  -71.250;   -3.000;   33.000
448.664;  -24.000;  109.000;  322.000
448.785;  -47.350;  265.000;   83.000
448.907;  -96.425; -614.000; -353.000
449.028;  -99.550; -771.000; -471.000
449.150;   43.150;  492.000;  589.000
449.272; -181.900;-1044.000; -913.000
449.393;    9.350;  612.000;  694.000
449.515; -149.525; -634.000; -581.000
449.636;  -75.025; -264.000; -155.000
449.758;   19.100;  763.000;  622.000
449.879;  -96.300; -498.000; -396.000
450.001;  -87.925; -149.000;  -49.000
450.122;  -49.125;  -95.000;  162.000
450.244;  -20.050;   37.000;  364.000
450.365;  -66.325; -495.000; -301.000
450.486;  -19.975;   80.000;  268.000
450.608;   33.550;  393.000;  326.000
450.729;   99.225;  578.000;  645.000
450.850;   91.125; -574.000; -466.000
450.972; 1132.900; -552.000; -389.000
451.093; 7574.000;  190.000;  588.000
451.214; 3846.850; -516.000; -337.000
451.336;  642.850;  773.000;  579.000
451.457;  106.575;  264.000;  393.000
451.578;  -22.550; -118.000;  -74.000
451.699; -107.000; -546.000; -540.000
451.821;  -55.475; -284.000;  -50.000
451.942;    9.575;  278.000;  285.000
452.063;   42.775;  228.000;  419.000
452.184;  781.475;  -54.000;  -49.000
452.305; 1711.550;  103.000;  170.000
452.427;  286.950; -549.000; -301.000
452.548;   -4.750;   23.000;   79.000
452.669;  -66.600; -257.000;  -89.000
452.790;  -57.600;    3.000;  -18.000
452.911;   -6.150;  195.000;  259.000
453.032;  -78.425; -289.000;  -60.000
453.153;  -52.200;  -29.000;   81.000
453.274;   44.075;  737.000;  868.000
453.395;  -62.400;  -51.000;  175.000
453.516;   96.825; 1317.000; 1388.000
453.637;  -89.500; -205.000; -150.000
453.758;  -60.650;   15.000;   69.000
453.879; -113.625; -462.000; -250.000
454.000;   75.625; 1086.000;  948.000
454.121; -118.725; -554.000; -326.000
454.242; -118.675; -599.000; -383.000
454.362;  -69.550;  -99.000;  114.000
454.483;  -19.175; -309.000; -229.000
454.604;   57.625;  512.000;  580.000
454.725; -133.450; -627.000; -555.000
454.846; -127.600; -474.000; -406.000
454.967;  -31.900;  230.000;  539.000
455.087;  -45.575;  179.000;  153.000
455.208;   15.350;  554.000;  856.000
455.329;  -56.650;  -22.000;   82.000
455.450;   47.325;  473.000;  633.000
455.570;  -69.750; -234.000; -211.000
455.691;  -51.350;  201.000;  407.000
455.812; -104.900; -270.000;  -92.000
455.932;  -68.800;  107.000;  -97.000
456.053;  -92.625;   36.000;   24.000
456.173; -106.850; -433.000; -355.000
456.294; -122.275; -476.000; -303.000
456.415;  -65.925;  -73.000;   70.000
456.535;  -44.600;  297.000;  273.000
456.656;  -50.750;  132.000;  240.000
456.776;  -56.575;    3.000;  298.000
456.897;   -0.775;  308.000;  513.000
457.017;  -84.025; -153.000;   -3.000
457.138; -112.325; -402.000; -249.000
457.258;  -34.350;  263.000;  224.000
457.379;  -22.975;  509.000;  521.000
457.499;  -29.375;  443.000;  432.000
457.620; -118.450; -407.000; -231.000
457.740;  -90.275; -132.000;  -11.000
457.860;  -57.625;   87.000;   44.000
457.981;  -41.450;  132.000;  124.000
458.101;  -68.775;  -89.000;   40.000
458.221;  -20.350;  336.000;  402.000
458.342;  -53.875;   -4.000;  -37.000
458.462;   57.225;  617.000;  352.000
458.582;    9.825; -302.000; -294.000
458.703;   48.875;  303.000;  154.000
458.823;    6.725;   22.000;  163.000
458.943;   45.425;  341.000;  467.000
459.063;   17.075; 1124.000;  192.000
459.183;  -16.600;  328.000;  313.000
459.304;    6.950;  315.000;  517.000
459.424;  -51.300; -246.000;  -89.000
459.544;  451.450;  388.000;  764.000
459.664; 1257.975;  499.000;  506.000
459.784;  487.725; 1004.000; 1175.000
459.904;   81.875;  867.000;  744.000
460.024;   45.675;  867.000;  684.000
460.144;  -17.850;  449.000;  554.000
460.264;  -15.475;  515.000;  327.000
460.385;  -83.800; -145.000; -119.000
460.505;   16.875;  905.000;  858.000
460.625;  -96.150;  -17.000;  -68.000
460.745;  -29.425;  396.000;  541.000
460.864;  -39.075;  153.000;  469.000
460.984;   19.200;  499.000;  573.000
461.104;  144.500; 1656.000; 1775.000
461.224;    4.250;  657.000;  650.000
461.344;  -44.450;  431.000;  360.000
461.464;  -40.825;  258.000;  513.000
461.584;  -38.450;  283.000;  466.000
461.704;  -72.575;   58.000;  108.000
461.824;  -69.825;  238.000;  259.000
461.943;  -38.350;  191.000;  130.000
462.063;  -73.175;    2.000;  324.000
462.183;   25.775;  639.000;  717.000
462.303;   85.275; 1678.000; 1230.000
462.422;   19.900;  781.000;  840.000
462.542;  -41.775;  271.000;  391.000
462.662;   38.475;  353.000;  380.000
462.782;  334.225;  833.000;  572.000
462.901;  720.525;  545.000;  717.000
463.021;  380.525; 1702.000; 1638.000
463.141;   20.350;  337.000;  770.000
463.260;  -15.825;  614.000;  474.000
463.380;    9.800;  902.000;  884.000
463.499;  -30.650;  342.000;  332.000
463.619;  -40.625;  581.000;  559.000
463.738;   98.725; 1644.000;  903.000
463.858;   -1.750;  657.000;  811.000
463.978;  -45.750;  542.000;  396.000
464.097;   47.450;  921.000; 1114.000
464.217;  142.350; 1196.000; 1143.000
464.336;  148.050; 1068.000; 1130.000
464.455;  -31.600;  328.000;  659.000
464.575;   24.175;  597.000;  602.000
464.694;  127.600; 1204.000; 1179.000
464.814;  145.975; 1190.000; 1138.000
464.933;   75.675; 1095.000; 1027.000
465.052;  111.250; 1412.000; 1054.000
465.172;   66.950;  922.000;  799.000
465.291;  121.825; 1376.000; 1320.000
465.410;    7.075;  462.000;  735.000
465.530;   61.975; 1355.000; 1310.000
465.649;   51.800; 1209.000; 1273.000
465.768;  142.050; 1673.000; 1508.000
465.888;   57.550;  941.000; 1174.000
466.007;   86.050; 1335.000; 1440.000
466.126;   -4.750;  721.000;  641.000
466.245;   38.325; 1176.000; 1187.000
466.364;   23.925;  950.000; 1060.000
466.484;   57.875; 1024.000; 1213.000
466.603;   19.325; 1101.000; 1222.000
466.722;   96.950; 1490.000; 1769.000
466.841;   54.650; 1151.000; 1401.000
466.960;   38.625; 1069.000;  972.000
467.079;  132.000; 1971.000; 1786.000
467.198;   58.950; 1238.000; 1181.000
467.317;   90.500; 1768.000; 1162.000
467.436;   67.550; 1709.000; 1261.000
467.555;  113.450; 1796.000; 1746.000
467.674;   51.925; 1227.000; 1329.000
467.793;   53.725; 1376.000; 1374.000
467.912;   84.725; 1658.000; 1539.000
468.031;  137.225; 2038.000; 1930.000
468.150;  140.050; 1842.000; 1837.000
468.269;  182.125; 2313.000; 2090.000
468.388;  180.400; 2168.000; 2339.000
468.507;  246.325; 2884.000; 2903.000
468.626;  276.675; 2555.000; 2541.000
468.744;  143.650; 2018.000; 2174.000
468.863;  181.750; 2312.000; 2523.000
468.982;   86.525; 1503.000; 1555.000
469.101;  229.100; 2788.000; 2692.000
469.220;  146.150; 2333.000; 2176.000
469.338;  239.650; 2935.000; 3051.000
469.457;  192.375; 2719.000; 2545.000
469.576;  350.125; 3953.000; 3784.000
469.695;  246.900; 2877.000; 3066.000
469.813;  416.025; 4148.000; 4192.000
469.932;  401.825; 4255.000; 4485.000
470.051;  428.075; 4075.000; 4161.000
470.169; 1014.850; 4470.000; 4338.000
470.288; 1965.200; 4700.000; 4809.000
470.406; 1142.175; 5059.000; 5194.000
470.525;  681.750; 6101.000; 5787.000
470.644;  648.900; 6847.000; 6794.000
470.762;  792.450; 8397.000; 7873.000
470.881;  910.000; 8651.000; 8464.000
470.999; 1066.700; 9685.000; 9151.000
471.118; 1106.475;11174.000;10711.000

