
Integration time [ms]: 200.000
Averaging Nr. [scans]: 10
Smoothing Nr. [pixels]: 0
Data measured with spectrometer [name]: 2101012U2
Wave   ;Sample   ;Dark     ;Reference
[nm]   ;[counts] ;[counts] ;[counts] 

197.733;  157.800;  516.000;  404.000
197.879; -165.000; -610.000; -634.000
198.025;  -89.800; -475.000; -420.000
198.171; -169.500; -602.000; -612.000
198.317;  -34.100; -401.000; -316.000
198.463; -140.000; -655.000; -404.000
198.609;   95.000;  181.000; -137.000
198.755; -149.100; -644.000; -410.000
198.901; -129.700; -505.000; -424.000
199.047; -135.700; -615.000; -488.000
199.193;  -90.700; -230.000; -468.000
199.339;  -85.800; -222.000; -369.000
199.485;   97.400;  330.000;  271.000
199.631;   21.600;  227.000;  310.000
199.777;  -88.900; -466.000; -398.000
199.923; -122.500; -610.000; -424.000
200.069;    2.400; -141.000;  -58.000
200.215;  115.500;  128.000;  453.000
200.361;   92.300;  243.000;  477.000
200.507; -119.900; -600.000; -373.000
200.653;  -56.600; -371.000; -194.000
200.798;  -71.600; -215.000; -125.000
200.944;   -8.500; -146.000;  -41.000
201.090;   66.700;   61.000;  222.000
201.236;  -17.300; -116.000; -158.000
201.382;  273.900;  874.000;  903.000
201.528;  -13.500;  -58.000;  -48.000
201.674; -124.000; -386.000; -293.000
201.819; -129.900; -540.000; -439.000
201.965; -160.600; -699.000; -447.000
202.111;  -55.900; -273.000; -226.000
202.257;  -86.100; -250.000; -238.000
202.402;   35.000;   13.000;  -36.000
202.548;  -52.500; -169.000; -116.000
202.694;  181.700;  410.000; -183.000
202.840; -149.900; -603.000; -531.000
202.985; -116.900; -681.000; -639.000
203.131; -226.700; -832.000; -666.000
203.277;  -37.400; -199.000; -262.000
203.423; -116.000; -434.000; -520.000
203.568;  -98.400; -462.000; -237.000
203.714; -131.300; -535.000; -542.000
203.860; -140.100; -682.000; -641.000
204.005;   39.700;  112.000;  167.000
204.151;  186.400;  561.000;  556.000
204.296;  -90.700; -354.000; -221.000
204.442; -172.900; -600.000; -547.000
204.588; -172.200; -592.000; -579.000
204.733;   64.000;  178.000;  168.000
204.879; -255.700;-1018.000; -822.000
205.025;   59.600;  -99.000;  126.000
205.170;   -9.300;  -17.000;   94.000
205.316;  152.700;  438.000;  661.000
205.461; -178.200; -698.000; -554.000
205.607;  179.800;  609.000;  665.000
205.752; -187.400; -626.000; -551.000
205.898;  -92.400; -501.000; -391.000
206.043; -141.300; -578.000; -506.000
206.189; -119.200; -243.000; -285.000
206.334;  171.800;  554.000;  606.000
206.480;  187.500;  409.000;  239.000
206.625; -183.500; -529.000; -552.000
206.771;  -94.100; -451.000; -373.000
206.916;  -78.500; -210.000; -537.000
207.062; -163.700; -545.000; -591.000
207.207; -148.300; -546.000; -443.000
207.353;  102.900;  185.000;  460.000
207.498;    9.200;  196.000;   85.000
207.643; -106.800; -501.000; -370.000
207.789; -284.000;-1069.000; -910.000
207.934; -204.300; -665.000; -713.000
208.080;  -80.800; -154.000;   66.000
208.225;  -43.600;  -22.000;  -57.000
208.370; -184.700; -727.000; -619.000
208.516; -188.600; -741.000; -487.000
208.661;  -56.800; -127.000;  -69.000
208.806;  -22.100; -165.000; -171.000
208.952; -265.500;-1044.000; -731.000
209.097;  182.800;  378.000;  349.000
209.242;  -98.300; -307.000; -382.000
209.387;  117.000;  392.000;  350.000
209.533; -117.400; -321.000; -350.000
209.678;  193.800;  472.000;  543.000
209.823; -106.100; -408.000; -310.000
209.969; -194.900; -860.000; -757.000
210.114; -219.600; -907.000; -719.000
210.259; -244.800; -939.000; -889.000
210.404;   -0.800; -171.000;  103.000
210.549;   34.400;  108.000;    3.000
210.695;  -26.700;   -3.000;  -95.000
210.840;   79.700;   94.000;   67.000
210.985; -119.900; -484.000; -303.000
211.130;  147.900;  268.000;  406.000
211.275;   49.400;  207.000;  199.000
211.420;  -93.000; -300.000; -289.000
211.566; -143.600; -536.000; -489.000
211.711;   52.200;  218.000;  157.000
211.856; -133.800; -545.000; -519.000
212.001;   37.600;  151.000;   44.000
212.146;   21.300;  153.000;   49.000
212.291;  -49.200; -210.000; -186.000
212.436;  -18.800; -280.000;   -6.000
212.581; -178.300; -685.000; -653.000
212.726; -141.200; -487.000; -538.000
212.871;  -97.500; -552.000; -217.000
213.016; -302.900;-1172.000;-1029.000
213.161;  146.700;  406.000;  291.000
213.306; -149.800; -435.000; -577.000
213.451; -203.100; -778.000; -689.000
213.596; -110.700; -455.000; -347.000
213.741;  -95.000; -448.000; -538.000
213.886; -159.300; -498.000; -517.000
214.031;  -75.300; -294.000; -124.000
214.176;  -97.300; -408.000; -341.000
214.321;  -54.200; -296.000; -157.000
214.466;  -56.100; -163.000;  -43.000
214.611;    2.500;  -61.000;  -10.000
214.756; -252.700; -948.000; -858.000
214.901;  -48.400; -388.000; -226.000
215.046; -259.200; -797.000; -825.000
215.191;   53.400;  128.000;   35.000
215.336;  -51.900; -157.000;  -19.000
215.480; -142.400; -684.000; -505.000
215.625;  -39.800; -175.000;  -19.000
215.770; -179.000; -757.000; -662.000
215.915;  -36.000;   -5.000;  -97.000
216.060;   -6.700; -113.000;  -21.000
216.205; -239.200; -731.000; -779.000
216.349; -159.500; -470.000; -533.000
216.494; -277.100; -939.000; -867.000
216.639; -229.800; -823.000; -888.000
216.784; -177.200; -577.000; -525.000
216.929;   98.600;  392.000;  281.000
217.073;  -14.600; -244.000;  -31.000
217.218;   44.000;   78.000;  -47.000
217.363; -198.300; -656.000; -618.000
217.507; -158.700; -623.000; -588.000
217.652; -288.800; -845.000; -874.000
217.797; -183.000; -708.000; -659.000
217.942; -241.300; -856.000; -720.000
218.086;  184.500;  608.000;  539.000
218.231;  -22.300; -174.000;  -26.000
218.376;  -67.500; -337.000; -229.000
218.520;   10.500;  -41.000;   96.000
218.665;  -45.000; -338.000; -204.000
218.810; -120.200; -275.000; -233.000
218.954;   40.700;  201.000;   35.000
219.099; -254.600; -713.000; -963.000
219.243; -167.500; -589.000; -554.000
219.388;  -77.600; -264.000; -136.000
219.532;  -26.900; -116.000; -116.000
219.677; -196.000; -564.000; -521.000
219.822;   16.200;   33.000;   89.000
219.966;    1.700;   17.000;  -99.000
220.111;  -56.500; -328.000;  -40.000
220.255; -184.200; -797.000; -750.000
220.400;  -46.800; -180.000; -146.000
220.544; -140.900; -516.000; -450.000
220.689;  -91.100; -422.000; -451.000
220.833;  -66.400; -123.000;  -58.000
220.978;  -98.900; -393.000; -563.000
221.122;   43.800;  319.000;  307.000
221.267; -219.300; -906.000; -837.000
221.411; -136.100; -478.000; -394.000
221.555;   -7.200; -104.000;  -23.000
221.700; -109.000; -329.000; -222.000
221.844;   55.100;  255.000;  272.000
221.989;  -87.300; -328.000; -311.000
222.133;  -64.600; -289.000; -307.000
222.277;  -17.400;    5.000;   78.000
222.422;   34.700;  227.000;  113.000
222.566;  -79.900; -381.000; -214.000
222.711; -114.100; -414.000; -479.000
222.855; -171.700; -643.000; -586.000
222.999; -195.400; -642.000; -717.000
223.144;  -42.200; -195.000; -194.000
223.288;  123.700;  423.000;  251.000
223.432;   32.200;  184.000;  230.000
223.576;   37.700;  152.000;  -21.000
223.721;   59.000;  364.000;  273.000
223.865;  -82.900; -472.000; -475.000
224.009;  443.800; 1673.000; 1631.000
224.153; -146.000; -660.000; -671.000
224.298; -129.900; -531.000; -489.000
224.442;  -16.900;  -74.000;  -33.000
224.586;  -19.400; -169.000; -106.000
224.730; -207.000; -858.000; -670.000
224.875; -244.900; -739.000; -688.000
225.019;   34.800;  102.000;  188.000
225.163;  114.900;  208.000;  341.000
225.307;   34.200;   97.000;  -91.000
225.451;  128.500;  360.000;  481.000
225.595;   88.800;  264.000;  176.000
225.739;  -25.300; -170.000;  -94.000
225.884;   -1.700;   86.000;    5.000
226.028; -227.200; -760.000; -626.000
226.172;  -71.500; -260.000; -273.000
226.316; -255.300; -941.000; -902.000
226.460; -119.400; -645.000; -493.000
226.604; -109.600; -406.000; -400.000
226.748; -206.900; -836.000; -733.000
226.892;  -70.700; -227.000; -181.000
227.036;  -84.100; -537.000; -447.000
227.180; -107.100; -551.000; -375.000
227.324; -143.800; -561.000; -580.000
227.468; -234.800; -819.000; -717.000
227.612;    5.700;  242.000;  -28.000
227.756; -218.800; -845.000; -698.000
227.900;   96.700;  342.000;  441.000
228.044; -114.000; -509.000; -290.000
228.188;  122.000;  448.000;  568.000
228.332; -171.700; -546.000; -472.000
228.476;  -44.300; -223.000; -149.000
228.620;  -51.700; -210.000; -150.000
228.764;  173.900;  431.000;  349.000
228.908;  -35.500; -155.000;   30.000
229.052; -123.000; -615.000; -528.000
229.195;  -11.600; -172.000;   13.000
229.339;  -11.800; -235.000; -305.000
229.483;  -56.600;    5.000; -162.000
229.627;   10.400; -156.000;  139.000
229.771; -103.500; -218.000; -294.000
229.915;   12.800;  230.000;   79.000
230.059; -208.300; -648.000; -663.000
230.202; -111.300; -370.000; -317.000
230.346;  -20.600; -107.000;  107.000
230.490; -116.100; -489.000; -521.000
230.634; -203.300; -736.000; -553.000
230.777;  174.000;  478.000;  509.000
230.921; -117.800; -450.000; -359.000
231.065;  -57.700; -246.000; -286.000
231.209;   82.700;  261.000;  265.000
231.352;   70.600;   54.000;   40.000
231.496;   63.600;  568.000;  188.000
231.640; -152.900; -693.000; -621.000
231.783;  114.500;  546.000;  525.000
231.927;  -63.000; -294.000; -365.000
232.071; -242.200; -962.000; -736.000
232.214; -219.900; -980.000; -764.000
232.358; -220.300; -683.000; -599.000
232.502;   23.100;  -19.000;    7.000
232.645; -283.200;-1090.000; -927.000
232.789;  -60.800; -257.000; -218.000
232.933;  -66.500; -407.000; -224.000
233.076; -239.600;-1038.000; -897.000
233.220; -243.700; -752.000; -777.000
233.363; -146.000; -669.000; -477.000
233.507;  126.800;  371.000;  129.000
233.650; -188.600; -764.000; -834.000
233.794;   86.800;  438.000;  461.000
233.938; -105.200; -530.000; -362.000
234.081;  -13.900;  -93.000;   31.000
234.225; -122.000; -631.000; -539.000
234.368; -236.900; -773.000; -723.000
234.512;  -82.800; -385.000; -299.000
234.655; -175.900; -582.000; -555.000
234.798; -116.400; -493.000; -466.000
234.942; -270.700; -884.000;-1002.000
235.085; -171.400; -651.000; -443.000
235.229; -141.900; -405.000; -410.000
235.372;  -86.600; -247.000; -191.000
235.516; -159.900; -397.000; -321.000
235.659;   63.700;   92.000;  121.000
235.802;  -13.500;  -38.000;  -22.000
235.946;   62.300;  335.000;  215.000
236.089;   70.600;  126.000;  250.000
236.233;  116.000;  275.000;  298.000
236.376;  -68.100; -235.000; -378.000
236.519; -124.100; -297.000; -319.000
236.663;  -38.800; -215.000; -117.000
236.806; -270.700;-1029.000; -999.000
236.949;  140.000;  543.000;  431.000
237.092;  152.600;  412.000;  391.000
237.236; -189.500; -589.000; -502.000
237.379;  160.600;  352.000;  428.000
237.522; -259.300; -879.000; -768.000
237.666;  -34.900; -271.000;   18.000
237.809; -265.900; -851.000; -823.000
237.952;  113.700;  469.000;  271.000
238.095; -141.900; -447.000; -442.000
238.238;  186.900;  688.000;  700.000
238.382;   19.300;  166.000;  103.000
238.525; -139.700; -598.000; -511.000
238.668; -290.700;-1060.000; -985.000
238.811; -164.000; -638.000; -643.000
238.954; -132.300; -483.000; -334.000
239.097;  186.600;  617.000;  664.000
239.241;   73.700;  394.000;  326.000
239.384;  -50.300; -254.000; -214.000
239.527; -118.600; -424.000; -224.000
239.670; -288.100; -994.000;-1091.000
239.813; -231.200; -696.000; -658.000
239.956;  160.800;  579.000;  473.000
240.099; -222.900; -778.000; -725.000
240.242;  141.400;  428.000;  432.000
240.385;  113.600;  466.000;  450.000
240.528; -139.000; -706.000; -473.000
240.671;   40.300;  189.000;  134.000
240.814;  -81.800; -441.000; -158.000
240.957; -215.900; -767.000; -578.000
241.100; -171.000; -779.000; -755.000
241.243; -293.200;-1234.000; -893.000
241.386; -117.600; -508.000; -379.000
241.529; -174.400; -735.000; -547.000
241.672; -109.800; -566.000; -495.000
241.815; -265.400; -832.000; -808.000
241.958;  -47.900; -125.000; -182.000
242.101; -153.800; -545.000; -390.000
242.244;  -32.700; -270.000; -325.000
242.387;  -91.700; -304.000; -246.000
242.530;  133.000;  470.000;  134.000
242.673;  -86.600; -381.000; -309.000
242.815; -229.400; -925.000; -899.000
242.958; -132.300; -482.000; -381.000
243.101;  101.600;  132.000;  187.000
243.244; -153.800; -564.000; -521.000
243.387; -109.200; -313.000; -316.000
243.530; -184.000; -657.000; -674.000
243.672;   19.500;   43.000;  -92.000
243.815; -112.300; -355.000; -283.000
243.958;   36.600;   98.000;  -26.000
244.101;  -19.100;   59.000;  -16.000
244.243;    8.300;  -47.000;  101.000
244.386; -234.400; -761.000; -630.000
244.529;  -34.900; -132.000; -139.000
244.672; -308.200;-1154.000; -951.000
244.814; -193.000; -621.000; -794.000
244.957;  -97.600; -380.000; -304.000
245.100; -128.100; -489.000; -489.000
245.242; -128.000; -387.000; -374.000
245.385;   -2.100;  -59.000;  -39.000
245.528; -252.400; -871.000; -705.000
245.670;  216.000;  612.000;  634.000
245.813; -151.100; -599.000; -547.000
245.956;  -67.100; -324.000; -275.000
246.098; -177.900; -508.000; -650.000
246.241;   43.400;  194.000;   48.000
246.383;   17.800; -119.000;  -73.000
246.526; -157.300; -454.000; -525.000
246.669; -230.400; -889.000; -780.000
246.811;   27.300;  172.000;   -1.000
246.954; -135.700; -512.000; -426.000
247.096;  -13.600;  -84.000;   -6.000
247.239; -129.800; -482.000; -445.000
247.381; -124.400; -647.000; -488.000
247.524;  191.400;  645.000;  679.000
247.666;   23.400;   58.000;   11.000
247.809; -240.300; -887.000; -691.000
247.951;    0.800;  -75.000;  138.000
248.094;  100.500;  432.000;  308.000
248.236; -320.700;-1262.000;-1238.000
248.378;   -2.200; -356.000;  -81.000
248.521;  -43.900; -334.000; -337.000
248.663;  -90.100; -236.000; -267.000
248.806;  -53.400; -300.000; -266.000
248.948; -187.400; -886.000; -763.000
249.090; -103.900; -428.000; -398.000
249.233; -117.900; -344.000; -381.000
249.375; -123.500; -474.000; -451.000
249.518;  -52.300;  -83.000; -133.000
249.660;    8.000; -103.000;    3.000
249.802; -364.800;-1303.000;-1189.000
249.945; -161.500; -612.000; -540.000
250.087; -238.800; -834.000; -768.000
250.229;  -77.200; -362.000; -480.000
250.371; -161.100; -494.000; -439.000
250.514;  -91.500; -310.000; -244.000
250.656; -124.200;   69.000;  102.000
250.798; -217.600; -849.000; -800.000
250.940; -125.900; -322.000; -322.000
251.083;  -35.800; -335.000; -111.000
251.225;  166.100;  338.000;  310.000
251.367;  -30.800; -274.000; -373.000
251.509;  -66.000; -265.000; -210.000
251.651; -178.200; -731.000; -671.000
251.794;  105.800;  538.000;  632.000
251.936; -207.000; -821.000; -747.000
252.078; -187.100; -540.000; -461.000
252.220; -145.800; -645.000; -477.000
252.362;  211.700;  344.000;  462.000
252.504; -123.100; -677.000; -584.000
252.646; -237.000; -875.000; -722.000
252.788;   19.100;   14.000; -128.000
252.931; -105.700; -257.000; -253.000
253.073;  -69.200; -376.000; -317.000
253.215;    0.600;  141.000;  122.000
253.357;   20.000;   82.000; -153.000
253.499; -109.000; -374.000; -234.000
253.641; -169.300; -749.000; -594.000
253.783; -181.200; -609.000; -527.000
253.925; -178.900; -586.000; -591.000
254.067; -241.000; -744.000; -667.000
254.209;  -21.800; -391.000; -259.000
254.351; -273.100; -865.000; -883.000
254.493; -110.300; -441.000; -417.000
254.635; -234.800; -936.000; -818.000
254.777; -155.100; -752.000; -687.000
254.918; -193.400; -512.000; -430.000
255.060; -107.600; -551.000; -395.000
255.202; -111.100; -473.000; -261.000
255.344; -155.200; -658.000; -455.000
255.486; -146.100; -471.000; -406.000
255.628; -210.800; -780.000; -781.000
255.770; -174.600; -676.000; -536.000
255.912; -119.800; -559.000; -468.000
256.053; -170.200; -730.000; -508.000
256.195;  358.200; 1008.000;  903.000
256.337; -210.300; -861.000; -595.000
256.479;  146.500;  532.000;  416.000
256.621;  -74.800; -394.000; -212.000
256.762; -181.700; -789.000; -742.000
256.904;  111.600;  485.000;  487.000
257.046;  -39.700; -381.000; -271.000
257.188; -102.300; -351.000; -264.000
257.329; -137.800; -525.000; -464.000
257.471; -260.600; -939.000; -807.000
257.613; -120.100; -584.000; -498.000
257.755; -296.600;-1073.000; -982.000
257.896;   88.200;  286.000;  392.000
258.038; -108.500; -403.000; -352.000
258.180;  -68.200; -354.000; -279.000
258.321; -185.200; -581.000; -457.000
258.463;    5.400;  -71.000;  133.000
258.605; -172.700; -562.000; -570.000
258.746; -186.700; -886.000; -772.000
258.888; -338.200;-1026.000;-1020.000
259.029;   85.700;  121.000;   -8.000
259.171; -170.200; -614.000; -550.000
259.313;   16.400;  -49.000;  -47.000
259.454; -126.300; -536.000; -414.000
259.596; -113.700; -483.000; -390.000
259.737; -153.400; -590.000; -474.000
259.879;   75.200;  217.000;  311.000
260.020;  218.500;  901.000;  636.000
260.162;  -57.500; -146.000; -253.000
260.303; -261.400; -768.000; -687.000
260.445; -153.600; -609.000; -613.000
260.586;   67.500;  392.000;  157.000
260.728;  -68.800; -360.000; -248.000
260.869; -147.600; -350.000; -343.000
261.011;  184.200;  706.000;  537.000
261.152; -117.400; -479.000; -319.000
261.293; -155.200; -576.000; -595.000
261.435;  -62.800; -219.000; -184.000
261.576;  -80.900; -455.000; -325.000
261.718;  107.100;  420.000;  470.000
261.859; -243.900; -940.000; -949.000
262.000; -249.400; -951.000;-1016.000
262.142;  -18.400;  -52.000;  -60.000
262.283; -248.300; -808.000; -691.000
262.424; -144.800; -666.000; -625.000
262.566; -325.000;-1161.000; -983.000
262.707; -195.900; -840.000; -830.000
262.848; -244.400; -769.000; -726.000
262.990;  -92.100; -362.000; -345.000
263.131;  179.400;  650.000;  681.000
263.272;   11.900;  -61.000;  -41.000
263.413; -161.600; -589.000; -561.000
263.555; -116.900; -669.000; -143.000
263.696; -173.000; -550.000; -641.000
263.837;  -96.600; -449.000; -551.000
263.978;    8.000;   -5.000;  -77.000
264.119;  -90.900; -283.000; -264.000
264.261; -208.000; -847.000; -630.000
264.402;   12.400;   33.000;   40.000
264.543; -126.600; -509.000; -524.000
264.684;   -2.900;   61.000;  -50.000
264.825; -148.100; -816.000; -538.000
264.966;   27.900;  -84.000;  -67.000
265.107; -223.700; -646.000; -670.000
265.248; -235.700; -825.000; -812.000
265.390;    0.400;  152.000;   -9.000
265.531;  -26.200; -238.000; -107.000
265.672; -152.200; -557.000; -630.000
265.813;  154.200;  563.000;  439.000
265.954; -322.800; -959.000; -940.000
266.095;   -1.700; -372.000; -322.000
266.236; -188.900; -686.000; -548.000
266.377;  -71.900; -243.000; -297.000
266.518; -142.700; -619.000; -547.000
266.659;   82.100;  170.000;  268.000
266.800;   38.900;   83.000;   85.000
266.941; -137.200; -487.000; -478.000
267.082;   23.300;  354.000;   99.000
267.223;  -59.300; -344.000; -273.000
267.364; -235.000; -892.000; -686.000
267.504;  -22.200;    3.000;  135.000
267.645;   31.900;  160.000;   67.000
267.786;  -43.900; -147.000;  -86.000
267.927; -125.700; -473.000; -379.000
268.068;  -40.900; -186.000;  -61.000
268.209;  -89.800; -175.000; -413.000
268.350; -120.400; -388.000; -532.000
268.490; -181.500; -648.000; -521.000
268.631;   86.500;  127.000;  225.000
268.772; -240.900; -874.000; -647.000
268.913;  -81.600; -328.000; -476.000
269.054;    8.600; -117.000;   12.000
269.194;  -64.900; -418.000; -402.000
269.335; -329.300;-1137.000;-1074.000
269.476;   16.300;   33.000;  -35.000
269.617;  -89.200; -347.000; -392.000
269.757; -168.600; -713.000; -646.000
269.898; -184.600; -856.000; -613.000
270.039; -107.700; -415.000; -405.000
270.180; -294.200; -952.000; -816.000
270.320;  -34.400; -190.000; -250.000
270.461;  -73.200; -277.000; -249.000
270.602;  -11.300; -186.000; -156.000
270.742; -273.400; -868.000; -943.000
270.883;  -94.700; -442.000; -390.000
271.023; -117.300; -358.000; -357.000
271.164; -151.000; -607.000; -528.000
271.305; -198.900; -666.000; -654.000
271.445; -158.500; -722.000; -683.000
271.586; -129.600; -462.000; -283.000
271.726; -111.300; -397.000; -322.000
271.867;  -93.300; -594.000; -534.000
272.008;  269.500; -473.000; -285.000
272.148;  283.700;  462.000;  468.000
272.289;   49.600; -113.000; -181.000
272.429;   40.300;   19.000;  185.000
272.570; -181.700; -633.000; -737.000
272.710; -197.300; -825.000; -775.000
272.851;  -21.500;  113.000; -130.000
272.991; -327.300;-1173.000;-1077.000
273.131; -129.100; -419.000; -459.000
273.272; -178.800; -683.000; -723.000
273.412;   19.200; -143.000;  -31.000
273.553; -108.900; -488.000; -507.000
273.693;  301.500;  913.000;  858.000
273.834; -197.800; -894.000; -692.000
273.974; -151.100; -664.000; -615.000
274.114; -218.200; -772.000; -560.000
274.255;  170.200;  414.000;  373.000
274.395;    8.600; -180.000; -125.000
274.535;  111.000;  199.000;  350.000
274.676;   60.600;  225.000;   94.000
274.816;   46.200;  110.000;   34.000
274.956; -172.200; -624.000; -690.000
275.097; -138.900;-1014.000; -922.000
275.237; -214.600; -913.000; -803.000
275.377; -169.500; -778.000; -689.000
275.517; -293.800; -878.000; -937.000
275.658; -101.600; -590.000; -555.000
275.798; -138.500; -606.000; -413.000
275.938;   52.000;  215.000;  323.000
276.078; -168.200; -626.000; -395.000
276.218;   41.800;   99.000;  104.000
276.359; -245.900;-1026.000;-1024.000
276.499; -105.300; -605.000; -446.000
276.639;  -40.200; -305.000; -151.000
276.779; -101.300; -475.000; -357.000
276.919; -192.200; -783.000; -624.000
277.059;  -14.000; -261.000; -212.000
277.199;  -75.500; -357.000; -259.000
277.340;  109.000;  287.000;  175.000
277.480; -243.100; -840.000; -693.000
277.620;   75.800;  192.000;   16.000
277.760; -398.400;-1533.000;-1294.000
277.900;   74.200;  113.000;   33.000
278.040;   55.800;  137.000;  159.000
278.180;   87.500;  270.000;  170.000
278.320;   -1.600;   21.000;   56.000
278.460; -130.100; -443.000; -469.000
278.600; -161.300; -708.000; -598.000
278.740;   86.000;  448.000;  224.000
278.880; -150.400; -768.000; -791.000
279.020;   29.000; -194.000; -144.000
279.160; -163.200; -672.000; -595.000
279.300; -255.500; -926.000; -873.000
279.440; -160.700; -709.000; -622.000
279.579;  -70.100;-1014.000; -929.000
279.719; -104.600; -410.000; -394.000
279.859;  159.200;   -4.000;   41.000
279.999;   68.500; -208.000;  101.000
280.139;  -40.000; -435.000; -387.000
280.279; -164.600; -708.000; -745.000
280.419;  -24.000; -229.000; -147.000
280.559;  -44.500; -259.000; -180.000
280.698; -145.100; -790.000; -639.000
280.838; -203.400; -778.000; -800.000
280.978; -169.700; -846.000; -790.000
281.118; -211.200; -811.000; -704.000
281.257;   37.700;   24.000;    6.000
281.397; -257.600;-1094.000; -960.000
281.537; -171.100; -599.000; -712.000
281.677;  -16.400; -150.000; -101.000
281.816; -126.800; -700.000; -630.000
281.956;  -38.300; -193.000; -257.000
282.096;  -78.300; -539.000; -396.000
282.235; -198.000; -672.000; -638.000
282.375;  -22.700; -243.000;  -98.000
282.515; -192.700; -715.000; -707.000
282.654;   71.500;   29.000;  106.000
282.794;   87.100;  388.000;  244.000
282.934;  -90.100; -530.000; -491.000
283.073; -262.600;-1030.000; -857.000
283.213;  -67.200; -460.000; -467.000
283.353;  -49.800; -408.000; -349.000
283.492;  -50.700; -264.000; -296.000
283.632;  -94.300; -254.000; -168.000
283.771; -161.500; -859.000; -730.000
283.911; -134.000; -369.000; -260.000
284.050; -212.600; -794.000; -748.000
284.190; -302.900;-1229.000;-1096.000
284.329; -249.300;-1055.000; -964.000
284.469; -133.100; -516.000; -591.000
284.608;  -92.500; -559.000; -598.000
284.748; -145.900; -614.000; -570.000
284.887;   47.400;  -87.000;  -20.000
285.027; -271.200; -844.000; -892.000
285.166;  -42.500; -192.000; -249.000
285.306;   38.200; -116.000;  -33.000
285.445;  -32.800; -229.000; -343.000
285.584; -169.000; -630.000; -494.000
285.724;  -60.900; -282.000; -322.000
285.863; -246.200; -857.000; -507.000
286.002;  -79.000; -366.000; -276.000
286.142; -213.300; -715.000; -622.000
286.281; -129.100; -525.000; -493.000
286.420; -134.300; -554.000; -417.000
286.560;  223.900;  653.000;  623.000
286.699; -225.700; -958.000; -912.000
286.838; -171.500; -590.000; -591.000
286.978; -165.900; -533.000; -537.000
287.117; -250.700;-1085.000; -950.000
287.256;  -46.800; -228.000; -211.000
287.395;  -69.300; -197.000; -378.000
287.535;  -84.100; -370.000; -298.000
287.674; -145.000; -509.000; -484.000
287.813;  132.600;  661.000;  533.000
287.952; -221.500;-1010.000; -871.000
288.091; -290.700;-1049.000; -915.000
288.231;   45.000;   13.000;   15.000
288.370; -347.200;-1217.000;-1200.000
288.509; -159.200; -728.000; -645.000
288.648; -177.900; -770.000; -548.000
288.787;  -66.900; -243.000;  -87.000
288.926;  -80.800; -454.000; -475.000
289.065;  294.600;  859.000;  672.000
289.204;  -77.600; -377.000; -217.000
289.344; -173.900; -791.000; -690.000
289.483;   67.100;  416.000;  304.000
289.622;  -61.800; -291.000; -149.000
289.761;  -41.600; -309.000; -166.000
289.900; -186.000; -785.000; -626.000
290.039;  -57.800;  -12.000;  -95.000
290.178;  -43.200; -274.000; -180.000
290.317; -154.700; -618.000; -479.000
290.456; -101.600; -463.000; -451.000
290.595; -280.400; -961.000; -833.000
290.734; -287.200; -904.000; -891.000
290.873; -110.500; -456.000; -420.000
291.011; -200.000; -833.000; -843.000
291.150; -186.300; -770.000; -682.000
291.289;  -32.800; -343.000; -110.000
291.428; -190.700; -599.000; -480.000
291.567; -103.300; -370.000; -442.000
291.706;   18.700;  109.000;  154.000
291.845; -152.100; -597.000; -505.000
291.984; -329.200;-1234.000;-1061.000
292.122;  208.500;  602.000;  582.000
292.261;   96.100;  620.000;  463.000
292.400;   40.100; -144.000;  211.000
292.539; -254.700; -959.000; -813.000
292.678;  -39.200; -325.000; -300.000
292.816; -292.900;-1136.000; -965.000
292.955; -166.900; -844.000; -684.000
293.094;  -37.400; -173.000; -337.000
293.233;  -65.800; -556.000; -400.000
293.371;  -32.700; -225.000;  -84.000
293.510; -191.600; -866.000; -780.000
293.649; -241.200; -959.000; -924.000
293.787; -154.300;-1083.000;-1012.000
293.926;    8.300; -113.000;  -32.000
294.065;  -61.000; -379.000; -290.000
294.203;  108.300;  298.000;  406.000
294.342;   59.700;   74.000;  156.000
294.481;11635.100;51180.000; -836.000
294.619;  -38.800; -425.000; -582.000
294.758; -275.900;-1230.000;-1137.000
294.896;  177.200; -125.000;    5.000
295.035; -251.300;-1040.000;-1006.000
295.174; -215.000;-1082.000; -954.000
295.312;  -64.200; -323.000; -203.000
295.451;   15.900; -307.000; -428.000
295.589; -104.800; -389.000; -518.000
295.728;   83.900; -292.000; -165.000
295.866;    9.800;  -36.000;  -51.000
296.005; -110.000; -584.000; -341.000
296.143; -125.200; -558.000; -596.000
296.282; -207.300; -957.000; -881.000
296.420; -159.600; -657.000; -557.000
296.559; -137.400; -892.000; -633.000
296.697;   -0.400; -847.000; -665.000
296.835;   93.200;-1141.000;-1002.000
296.974;  149.100;  -23.000;   39.000
297.112;   38.200; -443.000; -504.000
297.251; -132.600; -815.000; -755.000
297.389;  121.600; -576.000; -438.000
297.527;   81.900; -145.000;  -83.000
297.666;  -90.100; -486.000; -438.000
297.804;  -67.200; -404.000; -264.000
297.942;   -2.500; -136.000; -161.000
298.081;  -25.100; -183.000;   63.000
298.219;  173.100;  -17.000;  -19.000
298.357;  105.200; -144.000;  -71.000
298.495;   40.400; -810.000; -812.000
298.634;  146.600;  245.000;  219.000
298.772;  129.500; -220.000; -338.000
298.910;  -39.100; -309.000; -182.000
299.048;   30.000; -130.000; -153.000
299.187;  -44.100; -350.000; -250.000
299.325;   69.300;   52.000;  122.000
299.463;   45.400; -389.000; -299.000
299.601;  224.800; -327.000; -271.000
299.739; -199.500; -908.000; -883.000
299.877; -145.800; -791.000; -703.000
300.016; -130.100;-1095.000; -935.000
300.154;  307.800;  -19.000; -161.000
300.292;   86.400; -428.000; -348.000
300.430;   77.500; -408.000; -291.000
300.568; -228.500; -940.000; -874.000
300.706; -114.300; -366.000; -469.000
300.844; -147.600;-1108.000; -979.000
300.982;  250.200;  246.000;  282.000
301.120; -214.800; -965.000; -866.000
301.258; -125.900; -812.000; -705.000
301.396;   66.900;  104.000;  -41.000
301.534;  175.700; -218.000; -293.000
301.672;  -16.500; -664.000; -521.000
301.810;   68.500; -613.000; -545.000
301.948;  300.300;   53.000;  149.000
302.086; 1012.600; -250.000;  -32.000
302.224; 1614.600; -610.000; -585.000
302.362;   66.200; -558.000; -622.000
302.500; -103.600; -923.000; -893.000
302.638;  221.100;  128.000;  245.000
302.776;   -2.600; -352.000; -408.000
302.913;  129.200;  447.000;  236.000
303.051;    8.300;  -86.000;  -23.000
303.189;  147.700;   90.000;  118.000
303.327;  -56.800; -341.000; -256.000
303.465; -125.800; -832.000; -588.000
303.603; -159.500; -805.000; -604.000
303.740;  231.700;  417.000;  241.000
303.878;   21.900; -800.000; -759.000
304.016; -156.300; -915.000; -790.000
304.154; -287.500;-1123.000;-1152.000
304.291;  -30.100; -505.000; -554.000
304.429;   23.300;  102.000;   74.000
304.567; -246.700; -908.000; -893.000
304.705; -124.600; -408.000; -515.000
304.842;  160.400; -616.000; -540.000
304.980;  117.200;  215.000;   35.000
305.118;   71.500; -367.000; -365.000
305.255; -155.500; -945.000; -927.000
305.393;  155.300;  178.000;  239.000
305.531; -228.400;-1173.000; -956.000
305.668; -115.300; -663.000; -582.000
305.806;  166.600; -358.000; -439.000
305.943;  164.800; -629.000; -637.000
306.081;   73.200; -378.000; -267.000
306.219; -184.700; -863.000; -748.000
306.356;   72.400;  158.000;   27.000
306.494;  307.500;  981.000;  761.000
306.631;   43.000;  -11.000;  -55.000
306.769;   55.700; -613.000; -485.000
306.906;  -11.900; -284.000; -258.000
307.044;  -52.800; -473.000; -488.000
307.181;  -75.000; -410.000; -332.000
307.319;  122.000;  112.000;   87.000
307.456; -347.400;-1191.000;-1153.000
307.594; -166.800; -980.000; -727.000
307.731;   -0.100; -371.000; -164.000
307.868;   52.700;  -15.000;   20.000
308.006; -227.700; -961.000; -847.000
308.143;  -90.700; -618.000; -330.000
308.281;  368.900;  -37.000; -254.000
308.418;   17.900; -748.000; -640.000
308.555;  -95.500; -400.000; -250.000
308.693; -121.200; -577.000; -573.000
308.830; -210.100; -712.000; -657.000
308.967;   32.400; -215.000;  -95.000
309.105;  -29.300; -507.000; -396.000
309.242;  120.300; -468.000; -367.000
309.379;  673.200; -577.000; -655.000
309.517;  -80.300; -936.000; -948.000
309.654; -166.500; -910.000; -734.000
309.791;  -99.900; -662.000; -580.000
309.928; -203.000; -977.000; -914.000
310.065;  420.000;  819.000;  697.000
310.203;  -15.300; -825.000; -850.000
310.340;   38.900; -465.000; -321.000
310.477; -140.800; -412.000; -516.000
310.614;  -95.200; -383.000; -473.000
310.751;  -61.100; -427.000; -518.000
310.889;  -10.900;    1.000;   11.000
311.026; -297.300;-1161.000; -939.000
311.163;  -46.400; -386.000; -380.000
311.300;  -99.400; -512.000; -479.000
311.437;  -89.000; -658.000; -619.000
311.574; -292.600;-1226.000; -985.000
311.711;  -90.900; -595.000; -433.000
311.848;  -45.600; -380.000; -388.000
311.985;   77.900;  270.000;   93.000
312.122; -189.300; -932.000; -762.000
312.259; -232.200; -941.000; -994.000
312.396;  -96.400; -508.000; -551.000
312.533; -150.000; -812.000; -790.000
312.670; -219.000;-1070.000; -898.000
312.807;   -2.900; -352.000; -367.000
312.944; -122.300; -513.000; -611.000
313.081;    6.500; -150.000; -415.000
313.218; -216.000;-1111.000; -867.000
313.355;   61.900; -531.000; -449.000
313.492;   48.200; -455.000; -292.000
313.629;  317.900;  815.000;  735.000
313.766; -301.200;-1176.000;-1008.000
313.902;   13.100; -186.000;   21.000
314.039;  -72.100; -372.000; -289.000
314.176;   98.100;  286.000;  192.000
314.313; -100.900; -569.000; -473.000
314.450; -121.100; -788.000; -684.000
314.587;  -97.000; -468.000; -480.000
314.723;   85.100;  -78.000;  130.000
314.860;   66.400;  318.000;  332.000
314.997;   90.500;  223.000;  142.000
315.134;  -84.600; -385.000; -368.000
315.270;  -18.000; -480.000; -496.000
315.407; -215.900;-1094.000; -967.000
315.544;  -65.300; -657.000; -538.000
315.681; -108.400; -681.000; -565.000
315.817;  102.300; -133.000; -176.000
315.954;   38.900; -613.000; -392.000
316.091; -232.700;-1045.000;-1023.000
316.227;    2.500;  -71.000; -179.000
316.364;   48.400;   23.000;    6.000
316.500;  -40.700; -113.000; -300.000
316.637;  -59.500; -181.000; -302.000
316.774; -129.700; -625.000; -358.000
316.910; -172.500; -598.000; -629.000
317.047; -103.400; -487.000; -351.000
317.183;  -80.700; -435.000; -566.000
317.320;  -39.800; -367.000; -321.000
317.456; -122.600; -733.000; -805.000
317.593; -148.300; -598.000; -641.000
317.729;   64.600;  168.000;  -67.000
317.866; -401.300;-1434.000;-1285.000
318.002; -122.300; -708.000; -948.000
318.139; -189.700; -883.000; -867.000
318.275; -180.600;-1003.000; -738.000
318.412;  -74.200; -517.000; -336.000
318.548;  -69.300; -751.000; -720.000
318.685; -173.800; -985.000; -888.000
318.821; -162.600; -762.000; -735.000
318.957;  -18.800;   34.000;  -23.000
319.094;  141.900;  297.000;  154.000
319.230; -117.800; -756.000; -742.000
319.367;  229.300; -471.000; -520.000
319.503;  120.400; -538.000; -436.000
319.639; -182.600; -877.000; -793.000
319.775; -119.300; -750.000; -685.000
319.912;  -72.200; -424.000; -519.000
320.048; -173.500;-1184.000;-1184.000
320.184;  186.800;   59.000;   70.000
320.321; -114.500; -497.000; -467.000
320.457;  174.000;  475.000;  662.000
320.593; -107.800; -375.000; -382.000
320.729; -184.800; -732.000; -734.000
320.866; -117.100; -577.000; -635.000
321.002; -122.800; -759.000; -809.000
321.138;   -6.500; -135.000; -211.000
321.274;  163.700; -148.000; -115.000
321.410;  -26.700; -585.000; -353.000
321.546;  -77.800;-1011.000; -911.000
321.683;  128.200;  400.000;  185.000
321.819;   40.400;  -48.000; -117.000
321.955; -222.700; -743.000; -722.000
322.091;  -55.100; -585.000; -540.000
322.227;   11.400; -382.000; -202.000
322.363;  -12.300; -320.000; -215.000
322.499;  -72.700; -343.000; -331.000
322.635;  336.800;  636.000;  443.000
322.771;   92.000; -139.000;   12.000
322.907;  184.000;  129.000;  327.000
323.043;  -22.700; -115.000; -206.000
323.179;  -38.500; -394.000; -363.000
323.315;   49.900; -401.000; -371.000
323.451;  205.700; -328.000; -236.000
323.587;  135.600;  -60.000;  -77.000
323.723;   22.900; -682.000; -601.000
323.859;  -24.100; -258.000;  -76.000
323.995;  -40.800; -467.000; -409.000
324.131; -227.700; -967.000; -892.000
324.267;  -32.600; -254.000; -276.000
324.402; -251.300; -960.000; -983.000
324.538;   -0.700; -279.000; -104.000
324.674;   70.100;  164.000;   77.000
324.810;  311.700;  226.000;  308.000
324.946;   27.500; -810.000; -658.000
325.082;  -94.700; -568.000; -475.000
325.217;   49.600;  -62.000;   16.000
325.353; -176.600; -764.000; -659.000
325.489; -174.800; -540.000; -506.000
325.625;  -69.800; -579.000; -525.000
325.760;  116.900;  517.000;  376.000
325.896;  -31.500; -515.000; -702.000
326.032;  -81.300; -403.000; -352.000
326.168;  -90.100; -462.000; -369.000
326.303;  -81.700; -352.000; -461.000
326.439;  -10.200; -336.000; -276.000
326.575;   24.700; -190.000;  -29.000
326.710;   76.400; -156.000;  -30.000
326.846;   16.200;  146.000;  103.000
326.982; -149.200; -530.000; -548.000
327.117; -143.200; -481.000; -442.000
327.253; -161.300; -745.000; -742.000
327.388; -297.100;-1137.000;-1153.000
327.524;  -53.600; -811.000; -578.000
327.659;  -32.700;  -58.000;  -22.000
327.795;    7.800;   69.000;   45.000
327.931; -139.000; -723.000; -499.000
328.066;   41.200; -417.000; -276.000
328.202;   26.500;   12.000; -129.000
328.337;  219.700;  957.000;  713.000
328.473;   27.900;  -12.000;  -74.000
328.608;    2.600; -256.000; -267.000
328.743; -151.900; -799.000; -664.000
328.879;  103.700;  214.000;  114.000
329.014;  -82.300; -102.000; -122.000
329.150; -153.800; -358.000; -483.000
329.285; -108.800; -465.000; -466.000
329.421;  -64.500; -548.000; -246.000
329.556;    2.600;  -36.000;   85.000
329.691; -164.100; -633.000; -615.000
329.827; -139.400; -626.000; -480.000
329.962;  -41.700;  131.000; -301.000
330.097; -154.000; -673.000; -585.000
330.233;  -44.700; -410.000; -223.000
330.368; -233.300; -839.000; -628.000
330.503;   15.200;    3.000;   98.000
330.638;   11.200;  -93.000; -125.000
330.774;  -64.500; -609.000; -530.000
330.909;  -59.800; -434.000; -244.000
331.044; -157.500; -714.000; -708.000
331.179; -344.100;-1217.000;-1109.000
331.315;   41.100;   77.000;   20.000
331.450;   47.300;  157.000;  285.000
331.585; -133.500; -805.000; -706.000
331.720; -146.400; -510.000; -460.000
331.855;    2.600;  -35.000; -102.000
331.990;  461.700;   62.000;  138.000
332.126;  251.300; -110.000;   71.000
332.261;  -25.700; -379.000; -265.000
332.396;   39.400; -135.000; -242.000
332.531; -182.000;-1074.000;-1031.000
332.666;   85.500; -519.000; -363.000
332.801; -182.900; -726.000; -807.000
332.936;   23.100; -192.000; -122.000
333.071; -270.100; -870.000; -817.000
333.206;   69.300;  307.000;  379.000
333.341;  106.600;  344.000;  418.000
333.476; -152.400; -627.000; -623.000
333.611;  -80.100; -251.000; -173.000
333.746;  -66.600; -381.000; -464.000
333.881; -209.600; -973.000; -935.000
334.016; -221.300; -936.000; -917.000
334.151; -202.000; -746.000; -702.000
334.286;   92.300;  152.000;  186.000
334.421;  -14.400; -125.000; -178.000
334.556; -140.400; -611.000; -567.000
334.690; -153.900; -631.000; -577.000
334.825;  131.900;  381.000;   83.000
334.960; -115.800; -285.000; -413.000
335.095;   49.700;  135.000;  -91.000
335.230; -197.900; -722.000; -738.000
335.365; -244.500;-1084.000; -990.000
335.499; -271.500;-1108.000;-1037.000
335.634;   60.400;    9.000;  534.000
335.769; -177.100; -755.000; -720.000
335.904;  -88.500; -603.000; -561.000
336.038; -104.200; -735.000; -657.000
336.173; -216.800;-1206.000;-1194.000
336.308;   47.300; -116.000; -189.000
336.443;   72.300; -544.000; -634.000
336.577; -147.000; -936.000; -787.000
336.712;  160.200;   -4.000;  -12.000
336.847;  -86.400; -724.000; -607.000
336.981;  149.400; -272.000; -208.000
337.116;  493.200;  615.000;  501.000
337.250;  251.300; -434.000; -421.000
337.385;  497.100; -297.000; -208.000
337.520;  164.800; -632.000; -603.000
337.654;  -32.200; -215.000; -126.000
337.789; -203.500; -989.000; -933.000
337.923;  -15.400; -104.000; -205.000
338.058; -144.600; -673.000; -738.000
338.192;  -57.200; -611.000; -488.000
338.327;    5.500;  -18.000; -155.000
338.461;  -73.800; -299.000; -469.000
338.596; -157.100; -780.000; -638.000
338.730; -181.000; -767.000; -803.000
338.865;  219.200;  -46.000; -140.000
338.999; -100.400; -846.000; -702.000
339.134;   -6.300; -634.000; -536.000
339.268;   48.000; -741.000; -603.000
339.403;  662.500; -740.000; -775.000
339.537;  205.400; -894.000; -820.000
339.671; -197.100; -829.000; -813.000
339.806;  -94.700; -556.000; -512.000
339.940;   52.600; -261.000; -235.000
340.074; -174.000; -685.000; -510.000
340.209;  -72.100; -351.000; -230.000
340.343; -166.500; -517.000; -573.000
340.477;  364.400;  998.000; 1036.000
340.612; -142.500;-1033.000; -900.000
340.746;  218.800; -199.000; -243.000
340.880; -125.400; -924.000; -785.000
341.014;   -2.200;  -45.000; -154.000
341.149; -222.900; -756.000; -718.000
341.283; -201.700; -839.000; -754.000
341.417; -227.800;-1124.000; -938.000
341.551;  247.900; -768.000; -708.000
341.685;  -65.900; -633.000; -611.000
341.820;  -76.200; -562.000; -493.000
341.954;  -44.100; -218.000; -349.000
342.088; -254.100;-1102.000;-1019.000
342.222;  118.000;  565.000;  618.000
342.356;  -81.100; -395.000; -335.000
342.490; -157.500; -880.000; -841.000
342.624;  -81.900; -339.000; -242.000
342.758;    5.200; -364.000; -312.000
342.892;  -99.000; -710.000; -585.000
343.026;  -43.500;  -58.000; -116.000
343.160;  -76.000; -426.000; -376.000
343.294; -126.300; -474.000; -337.000
343.428;  -45.600; -488.000; -448.000
343.562;    4.400; -172.000;  -23.000
343.696;  -19.300; -385.000; -314.000
343.830;  -42.600; -362.000; -356.000
343.964;   48.300; -231.000; -168.000
344.098; 1520.700;  199.000;   70.000
344.232; 1313.900; -266.000; -127.000
344.366;  150.800; -567.000; -453.000
344.500;  103.200; -665.000; -744.000
344.634;   77.800; -324.000; -164.000
344.768;    0.800; -531.000; -341.000
344.902;   84.600;  278.000;  256.000
345.035; -141.800; -556.000; -496.000
345.169; -249.000; -933.000; -656.000
345.303;  -28.200; -308.000; -482.000
345.437; -151.400; -826.000; -717.000
345.571; -112.900; -675.000; -594.000
345.704; -103.700; -309.000; -532.000
345.838;   18.300; -331.000; -284.000
345.972;  -60.000; -543.000; -495.000
346.106;  289.800; -179.000; -190.000
346.239;  747.500; -312.000; -243.000
346.373;   32.700; -343.000; -302.000
346.507; -260.200; -950.000; -962.000
346.640;  266.600;  -30.000;   13.000
346.774;  -71.400; -650.000; -797.000
346.908;   14.900; -138.000;  -11.000
347.041; -154.000; -646.000; -593.000
347.175;   42.100;  259.000;   27.000
347.309; -143.900; -698.000; -628.000
347.442; -165.900; -883.000; -732.000
347.576;  544.700;  670.000;  668.000
347.709;  367.200; -123.000;  -52.000
347.843; -195.400; -933.000; -825.000
347.976;  109.600;  235.000;  294.000
348.110; -353.800;-1268.000;-1186.000
348.243; -160.200; -679.000; -772.000
348.377;   38.800;  -26.000;   60.000
348.510;  127.300;  403.000;  540.000
348.644;  -29.700;  -37.000; -159.000
348.777;   72.300;  180.000;  191.000
348.911;   -3.100; -142.000; -112.000
349.044;  355.500;  471.000;  448.000
349.178;  232.000;-1069.000;-1006.000
349.311;  271.500;  141.000;  255.000
349.444;   -5.400; -927.000; -813.000
349.578;    1.100; -347.000; -200.000
349.711; -176.700; -959.000; -862.000
349.845;   -9.500; -661.000; -591.000
349.978; -286.600;-1224.000;-1137.000
350.111; -131.900; -546.000; -612.000
350.244; -168.400; -596.000; -700.000
350.378;   43.300; -392.000; -393.000
350.511; -117.800; -393.000; -426.000
350.644; -187.900; -808.000; -806.000
350.778;   41.100;  168.000;  104.000
350.911;   53.700;  134.000;  140.000
351.044; -173.800; -685.000; -615.000
351.177;  -40.200; -321.000; -281.000
351.310;  -29.200;    3.000; -131.000
351.444; -113.500; -888.000; -788.000
351.577;  231.100;  140.000;   90.000
351.710;  231.100;  593.000;  417.000
351.843;  -16.200; -165.000;  -77.000
351.976;   41.600;  149.000;  -79.000
352.109; -163.300; -621.000; -612.000
352.242;  -40.200; -464.000; -419.000
352.376; -109.500; -580.000; -636.000
352.509;  330.100; -437.000; -356.000
352.642;    7.400; -654.000; -604.000
352.775;  135.500; -141.000;  -98.000
352.908; -222.500; -933.000; -904.000
353.041; -198.000; -814.000; -824.000
353.174;  -86.900; -551.000; -424.000
353.307; -146.300; -753.000; -764.000
353.440;  162.300;  541.000;  453.000
353.573; -192.300; -957.000;-1008.000
353.706; -119.000; -384.000; -558.000
353.839;   -1.300; -264.000; -220.000
353.971; -139.300; -657.000; -512.000
354.104; -166.300; -896.000; -835.000
354.237;  -68.300; -627.000; -662.000
354.370; -124.500; -846.000; -879.000
354.503; -330.900;-1231.000;-1308.000
354.636;  -26.500; -529.000; -348.000
354.769; -227.900; -937.000; -860.000
354.902;   25.100; -230.000; -139.000
355.034;  -21.200; -164.000; -220.000
355.167;    1.800; -262.000; -162.000
355.300; -177.700;-1061.000; -880.000
355.433; 1789.000;  -71.000;  -14.000
355.565; 2690.600; -402.000; -384.000
355.698;  695.600; -356.000; -296.000
355.831;    6.200; -882.000; -801.000
355.964;  192.000; -285.000; -170.000
356.096; -169.200; -856.000; -843.000
356.229;   21.000; -523.000; -530.000
356.362;  609.500; -373.000; -266.000
356.494; 1127.600; -229.000; -162.000
356.627;  860.100;  269.000;  377.000
356.760; 1228.400;  120.000;   53.000
356.892; 1659.200; -286.000; -601.000
357.025; 1212.900;  403.000;  389.000
357.157; 1043.800; -167.000; -179.000
357.290; 1167.000; -856.000; -713.000
357.423;  338.000; -667.000; -556.000
357.555;  235.000; -217.000; -228.000
357.688;  179.600; -483.000; -364.000
357.820;  704.600; -870.000; -877.000
357.953; 5984.500; -563.000; -589.000
358.085; 1294.700; -632.000; -612.000
358.218; 1877.000;-1131.000; -932.000
358.350;  414.600;  -58.000;  312.000
358.483; -263.600;-1300.000;-1187.000
358.615;   -4.900;-1182.000;-1078.000
358.747; -101.800;-1187.000;-1058.000
358.880;   20.200; -810.000; -744.000
359.012;   21.000; -376.000; -202.000
359.145;  -54.400; -480.000; -511.000
359.277;   54.900; -962.000; -913.000
359.409; 5003.600;  536.000;  231.000
359.542; 1215.900; -738.000; -688.000
359.674;  156.100;   46.000;   13.000
359.806; -110.200; -565.000; -438.000
359.939;  -77.800; -617.000; -516.000
360.071;  -17.800; -583.000; -579.000
360.203;   18.800; -411.000; -364.000
360.335;  128.700;  164.000;  -16.000
360.468;  347.000; -249.000; -307.000
360.600; 4022.200; -547.000; -454.000
360.732; 4828.000; -546.000; -423.000
360.864;  604.500;-1216.000;-1044.000
360.996;  479.100; -516.000; -554.000
361.129;   92.000; -389.000; -598.000
361.261;  105.300;  110.000; -113.000
361.393;  -33.900; -252.000; -214.000
361.525;  100.300;   94.000;  244.000
361.657;  -86.400; -821.000; -703.000
361.789;   36.400; -139.000; -155.000
361.921;  399.500; -642.000; -593.000
362.053;  488.400;  524.000;  541.000
362.185;  133.500;  288.000;   72.000
362.318; -118.800; -709.000; -705.000
362.450;  309.700;  294.000;  444.000
362.582;  156.200; -913.000; -870.000
362.714;  -35.000; -353.000; -332.000
362.846; -114.300; -606.000; -490.000
362.978; -271.100; -941.000; -811.000
363.109;  128.400; -161.000; -260.000
363.241;  753.300; -739.000; -749.000
363.373;  743.800; -649.000; -564.000
363.505; 1200.800; -186.000;  -91.000
363.637;  275.900; -787.000; -601.000
363.769; -225.900;-1067.000;-1080.000
363.901;  -86.300; -596.000; -654.000
364.033; -241.200;-1103.000;-1062.000
364.165;   28.200; -283.000; -283.000
364.296;  177.800; -316.000; -177.000
364.428;  108.100;-1344.000;-1220.000
364.560; -105.700; -679.000; -661.000
364.692; -102.100; -738.000; -835.000
364.824;  480.600; -588.000; -456.000
364.955;  821.800; -402.000; -564.000
365.087; 1592.500;-1097.000; -852.000
365.219;   38.300; -686.000; -816.000
365.351; -106.700; -526.000; -572.000
365.482;  157.900;  300.000;  240.000
365.614;  -65.400; -402.000; -314.000
365.746; -136.800; -729.000; -752.000
365.877; -167.700; -706.000; -672.000
366.009;  535.000;  -35.000;  -62.000
366.141; -161.800;-1249.000;-1134.000
366.272; -158.500; -803.000; -719.000
366.404; -212.600;-1005.000; -874.000
366.535;   29.400; -139.000;  -12.000
366.667; -172.100; -644.000; -649.000
366.799;  122.300;  353.000;  203.000
366.930; -183.700; -862.000; -996.000
367.062;  235.100; -639.000; -613.000
367.193;  258.700; -872.000; -842.000
367.325;  -83.500; -580.000; -684.000
367.456;  121.300; -246.000;   31.000
367.588;  309.700; -371.000; -318.000
367.719;   77.700;  -44.000;  -45.000
367.851;   14.500; -222.000; -241.000
367.982;  -72.800; -875.000; -732.000
368.113;  194.500; -475.000; -358.000
368.245; -225.500; -960.000; -841.000
368.376;   17.600; -254.000; -302.000
368.508;  -25.500; -188.000; -263.000
368.639; -257.900;-1166.000;-1034.000
368.770;  -41.600; -670.000; -589.000
368.902; -119.200; -836.000; -926.000
369.033; -198.200; -906.000; -855.000
369.164;  -65.400; -720.000; -653.000
369.296; -174.000; -452.000; -601.000
369.427;   -8.000; -209.000; -144.000
369.558;  -81.800; -593.000; -377.000
369.689; -141.100; -721.000; -569.000
369.821; -255.100; -951.000; -845.000
369.952;   13.800;   42.000; -108.000
370.083;  -42.200; -229.000; -108.000
370.214; -147.400; -735.000; -650.000
370.345;   -3.400;   65.000;   81.000
370.477; -138.600; -810.000; -790.000
370.608;  387.600; -328.000; -264.000
370.739; -132.200;-1233.000;-1292.000
370.870;  -73.100;-1102.000; -923.000
371.001;  163.800; -378.000; -467.000
371.132; -146.800; -754.000; -735.000
371.263;   33.200;  -42.000; -148.000
371.394; -201.600; -841.000; -748.000
371.525;  102.200;  345.000;  225.000
371.657; -168.200; -808.000; -670.000
371.788;  152.700;  103.000;  199.000
371.919;  287.500; -384.000; -304.000
372.050; 6056.600;  -91.000; -156.000
372.181; 1674.400; -188.000; -294.000
372.311;  646.400;   42.000; -127.000
372.442;   61.800; -457.000; -451.000
372.573;   -1.100; -444.000; -340.000
372.704; -229.100;-1008.000; -980.000
372.835;  169.800; -228.000; -289.000
372.966; -106.100; -646.000; -554.000
373.097;  -87.900; -575.000; -711.000
373.228;  -60.800; -717.000; -542.000
373.359;  192.200; -824.000; -536.000
373.490; 1585.200; -881.000; -727.000
373.620; 1973.200;-1001.000; -803.000
373.751; 2966.700; -332.000; -396.000
373.882; 1226.000; -663.000; -733.000
374.013;  104.800; -449.000; -262.000
374.143;  -83.100; -581.000; -659.000
374.274; -174.200; -987.000; -908.000
374.405;  346.200; -388.000; -276.000
374.536;  790.800; -526.000; -387.000
374.666; 1865.900; -759.000; -807.000
374.797;  354.100; -817.000; -868.000
374.928; 1477.000; -710.000; -560.000
375.058; 1465.100; -535.000; -500.000
375.189;  185.500;  -59.000;  -93.000
375.320; -173.200; -928.000;-1034.000
375.450;  -72.500; -625.000; -616.000
375.581;  -42.500; -526.000; -436.000
375.712;  -13.800; -574.000; -250.000
375.842;  556.200; -438.000; -415.000
375.973;  389.600; -554.000; -513.000
376.103;  -63.000; -665.000; -648.000
376.234; -121.300; -531.000; -552.000
376.364;  -88.700; -944.000; -867.000
376.495;  668.400;  925.000;  529.000
376.625;    0.900; -472.000; -485.000
376.756;  116.600; -709.000; -678.000
376.886; -161.200;-1178.000;-1026.000
377.017;  127.200;-1048.000;-1061.000
377.147;  602.600; -786.000; -782.000
377.278;  178.000;  174.000;  228.000
377.408; -197.300; -801.000; -815.000
377.538; -158.700; -707.000; -693.000
377.669; -115.700; -537.000; -613.000
377.799; -146.200; -645.000; -635.000
377.929;  -80.600; -610.000; -428.000
378.060; -246.000; -781.000; -847.000
378.190;  -57.800; -726.000; -531.000
378.320;  -52.600; -401.000; -406.000
378.451;   40.200; -131.000;  -22.000
378.581;   55.200;  -67.000; -110.000
378.711;  371.100; 1035.000;  866.000
378.841;  -16.900; -533.000; -675.000
378.972; -117.200; -871.000; -751.000
379.102;   43.700; -652.000; -579.000
379.232;   17.700; -126.000;  -73.000
379.362; -184.400;-1001.000; -885.000
379.492;   79.400; -373.000; -424.000
379.623;  231.700;    0.000;  111.000
379.753; -167.000;-1107.000; -974.000
379.883;  416.500;   59.000;  156.000
380.013;   10.800;-1081.000;-1017.000
380.143; -195.600;-1097.000;-1056.000
380.273; -151.300; -985.000; -861.000
380.403;   24.700; -344.000; -257.000
380.533;  -58.300; -651.000; -664.000
380.663;  204.300;  173.000;  128.000
380.793; -191.700;-1027.000;-1074.000
380.923;   28.500; -103.000;  -34.000
381.053; -143.400; -613.000; -623.000
381.183;    0.000; -106.000; -248.000
381.313;   74.400; -656.000; -470.000
381.443;   79.000; -692.000; -473.000
381.573;  388.500; -402.000; -409.000
381.703;  458.700;-1249.000;-1095.000
381.833; -219.800;-1454.000;-1336.000
381.963;  243.400; -134.000;  -87.000
382.093; 2287.800; -925.000; -909.000
382.223;  677.600; -713.000; -602.000
382.353;    0.700; -801.000; -608.000
382.482;  614.800;-1091.000; -964.000
382.612; 1308.000; -872.000; -644.000
382.742;  704.900; -695.000; -622.000
382.872;  463.300; -565.000; -551.000
383.002;  172.000;  347.000; -132.000
383.131;    5.800; -226.000; -160.000
383.261;  -32.500; -706.000; -768.000
383.391;  514.300; -552.000; -377.000
383.521; 5734.200;  451.000;  263.000
383.650; 1217.200; -947.000; -904.000
383.780;  -19.400; -783.000; -656.000
383.910;  277.300;  880.000;  802.000
384.039;   67.700; -794.000; -656.000
384.169;  354.700;-1205.000;-1017.000
384.299;  -15.600; -650.000; -662.000
384.428; -134.500; -764.000; -680.000
384.558;  -31.300; -308.000; -275.000
384.687;  -55.800; -414.000; -334.000
384.817;   91.700;   75.000;   -2.000
384.947;   72.100; -234.000; -141.000
385.076;  594.600;  982.000;  912.000
385.206;  247.500;  369.000;  480.000
385.335;   14.000; -549.000; -417.000
385.465; -127.000; -655.000; -663.000
385.594;  296.400;  -53.000;  -44.000
385.724;  721.900; -868.000; -838.000
385.853;  244.200; -296.000; -270.000
385.982; 2307.900; -743.000; -787.000
386.112; 3504.200;-1052.000; -871.000
386.241;  246.100; -307.000; -312.000
386.371;   93.600; -174.000;  -87.000
386.500;   23.100; -825.000; -789.000
386.629;   58.900; -874.000; -817.000
386.759;  187.500;  -43.000;   68.000
386.888;   72.700; -170.000; -250.000
387.017; -103.100; -648.000; -620.000
387.147; -113.300; -771.000; -798.000
387.276;   46.200; -410.000; -397.000
387.405;   87.400; -398.000; -342.000
387.535;  -41.800; -452.000; -361.000
387.664;  -37.400; -692.000; -620.000
387.793;  170.400; -198.000; -113.000
387.922;  953.000;  255.000;  200.000
388.052;   81.000; -576.000; -423.000
388.181;  105.700; -342.000; -472.000
388.310;   18.600; -889.000; -710.000
388.439;  -37.900; -749.000; -742.000
388.568;  365.700;  365.000;  244.000
388.697; 1774.400; -756.000; -653.000
388.826;  336.900; -768.000; -666.000
388.956;  109.500; -285.000; -307.000
389.085;  -30.300; -347.000; -287.000
389.214; -154.900; -842.000; -872.000
389.343; -104.500; -645.000; -413.000
389.472;  789.400;  126.000;  149.000
389.601;  943.500;   91.000;    0.000
389.730;   57.600; -568.000; -687.000
389.859;  160.200;  226.000;   46.000
389.988;  365.600; -423.000; -408.000
390.117;  227.900; -168.000; -146.000
390.246;   37.500; -331.000; -320.000
390.375;  153.700; -673.000; -626.000
390.504;  -77.400; -703.000; -621.000
390.633; -145.400; -672.000; -726.000
390.761;  -87.000; -732.000; -645.000
390.890;   70.800;   -4.000; -130.000
391.019;  -10.100; -421.000; -441.000
391.148; -228.600; -826.000; -855.000
391.277; -107.300; -576.000; -493.000
391.406; -113.600; -821.000; -805.000
391.534;  128.000;  574.000; -301.000
391.663;  -99.800; -583.000; -645.000
391.792; -103.400; -673.000; -701.000
391.921;  216.900;   -3.000;   15.000
392.050;  345.200; -287.000; -228.000
392.178;  -90.600;-1206.000;-1061.000
392.307;  265.900; -758.000; -712.000
392.436;  100.600; -427.000; -641.000
392.564;  105.100;  166.000;   -6.000
392.693; -142.000; -860.000; -682.000
392.822;  423.900; -529.000; -534.000
392.950;  133.900; -880.000; -714.000
393.079;  574.500; -188.000; -328.000
393.208;   30.700; -488.000; -511.000
393.336;   14.700; -170.000; -145.000
393.465;  -25.900; -317.000; -199.000
393.593;   89.900;   62.000;   79.000
393.722; -260.800;-1121.000; -916.000
393.850;   -1.100; -188.000;  -61.000
393.979; -271.600; -926.000; -805.000
394.107;  -86.300; -517.000; -537.000
394.236;  -22.100; -570.000; -507.000
394.364;  518.600;  383.000;  206.000
394.493;  772.500; -911.000; -767.000
394.621;    1.800; -955.000; -916.000
394.750; 1335.300; -873.000; -923.000
394.878; 5526.000; -247.000; -149.000
395.007; 7028.800; -721.000; -807.000
395.135;  560.600; -790.000; -721.000
395.263; -143.400;-1038.000;-1040.000
395.392;   80.700;  -25.000; -107.000
395.520; -160.100; -818.000; -679.000
395.648; -156.700; -865.000; -915.000
395.777;    9.000; -366.000; -405.000
395.905;  -65.700; -449.000; -564.000
396.033;   45.200;  217.000;  172.000
396.162; 1278.800; -399.000; -453.000
396.290; 1078.800;  -17.000;   -2.000
396.418;  227.800; -555.000; -514.000
396.546; -118.100; -571.000; -466.000
396.674; -151.400; -850.000; -878.000
396.803;   30.300;  -72.000;  -23.000
396.931;  209.100; -179.000; -199.000
397.059;   73.400;-1026.000; -989.000
397.187; -166.200;-1026.000; -975.000
397.315; -250.600; -884.000; -649.000
397.443; -125.500; -592.000; -443.000
397.572; -142.500; -578.000; -424.000
397.700;   -2.100; -607.000; -614.000
397.828;   43.400;  120.000;  -90.000
397.956;  -28.700; -508.000; -478.000
398.084; -114.400; -767.000; -626.000
398.212;  149.500;  137.000;  124.000
398.340;   41.300;  -56.000;  159.000
398.468;   85.300; -390.000; -169.000
398.596; -229.900; -993.000; -953.000
398.724; -198.800; -762.000; -767.000
398.852; -293.500;-1024.000; -976.000
398.980;  -73.200; -560.000; -560.000
399.108; -106.900; -982.000; -735.000
399.236;   99.800;   13.000;    8.000
399.363;   83.700;  222.000;  196.000
399.491; -128.400; -404.000; -398.000
399.619; -217.100; -829.000; -800.000
399.747; -162.800; -859.000; -771.000
399.875;  190.600;  220.000;  234.000
400.003;  -40.100; -359.000; -284.000
400.130; -149.300; -421.000; -341.000
400.258;   11.700;  -83.000;   38.000
400.386;  -63.300; -352.000; -168.000
400.514;  -35.700; -526.000; -587.000
400.641; -152.900; -928.000; -802.000
400.769; -241.000; -979.000; -888.000
400.897; -146.900; -838.000; -793.000
401.025;   13.900; -166.000; -152.000
401.152;   21.600;  220.000;   38.000
401.280; -124.100; -430.000; -429.000
401.408; -180.400; -712.000; -576.000
401.535; -129.700; -735.000; -758.000
401.663; -320.400;-1134.000;-1054.000
401.790; -143.900; -514.000; -525.000
401.918;  144.300;  436.000;  405.000
402.046;   25.100;  134.000;  122.000
402.173;  -40.900;  -18.000;    7.000
402.301;  -78.500; -519.000; -397.000
402.428;  144.700;  528.000;  383.000
402.556; -238.700;-1188.000; -913.000
402.683;  -21.800;  -20.000;   -1.000
402.811;    7.600;  -37.000; -206.000
402.938;   34.700;   20.000;   27.000
403.066;  377.700; -574.000; -558.000
403.193;  564.000;  299.000;  239.000
403.321;  458.800; -396.000; -574.000
403.448;  571.400;   83.000;   27.000
403.575;  287.700;  -90.000;  -46.000
403.703; -176.400; -732.000; -557.000
403.830;  -70.200; -531.000; -496.000
403.957; -232.200;-1117.000;-1023.000
404.085;   98.000;  -61.000; -172.000
404.212;  253.900;  -50.000;   63.000
404.339;  585.900; -566.000; -306.000
404.467;10747.500; -612.000; -524.000
404.594; 6584.700; -287.000; -227.000
404.721; 1475.600; -869.000; -764.000
404.848;  190.100; -113.000; -202.000
404.976; -154.600; -856.000; -783.000
405.103;   44.200;  -14.000;  -82.000
405.230;   71.000;  190.000;  226.000
405.357;  134.000;  117.000;   44.000
405.484;  533.500;  -49.000;    5.000
405.612;   87.100; -548.000; -563.000
405.739;  -61.200; -488.000; -243.000
405.866;  226.300;  669.000;  385.000
405.993;  -43.200; -398.000; -102.000
406.120; -205.100; -801.000; -887.000
406.247;  -61.500; -323.000; -342.000
406.374;  892.100;  540.000;  629.000
406.501;  163.400; -632.000; -702.000
406.628;  -81.000; -621.000; -589.000
406.755; -160.500; -803.000; -620.000
406.882;   -9.400; -228.000; -277.000
407.009; -147.700; -719.000; -628.000
407.136;  154.500; -480.000; -401.000
407.263;  195.500; -939.000; -829.000
407.390; -106.200; -692.000; -614.000
407.517; -290.100;-1139.000;-1187.000
407.644;  -95.200; -332.000; -256.000
407.771; -126.700; -249.000; -287.000
407.898;   94.000;  168.000;  328.000
408.025; -106.700; -421.000; -313.000
408.151;   58.400;   82.000;  153.000
408.278; -101.500; -267.000; -216.000
408.405; -186.900; -931.000; -899.000
408.532; -106.400; -549.000; -542.000
408.659; -188.600; -677.000; -648.000
408.785; -361.300;-1298.000;-1170.000
408.912;  -58.900; -412.000; -296.000
409.039; -145.800; -610.000; -686.000
409.166; -133.900; -591.000; -555.000
409.292; -172.700; -571.000; -534.000
409.419; -161.700; -665.000; -649.000
409.546; -148.800; -431.000; -192.000
409.672; -151.000; -713.000; -545.000
409.799;   25.700;  -36.000;   34.000
409.926;  -44.200; -180.000; -179.000
410.052; -312.300;-1127.000;-1091.000
410.179;  -66.100; -368.000; -392.000
410.305; -113.800; -375.000; -493.000
410.432;  -40.700; -220.000; -333.000
410.558; -126.700; -305.000; -380.000
410.685; -159.500; -688.000; -431.000
410.812; -169.100; -409.000; -588.000
410.938; -214.100; -964.000; -808.000
411.065; -138.100; -671.000; -645.000
411.191;   16.600; -189.000; -174.000
411.317; -181.400; -823.000; -742.000
411.444;  -70.900; -317.000; -246.000
411.570;  -95.200; -339.000; -294.000
411.697; -190.900; -758.000; -752.000
411.823; -302.800; -989.000; -999.000
411.949;   21.200;  -56.000;   17.000
412.076; -176.000; -539.000; -519.000
412.202; -186.300; -758.000; -757.000
412.329; -211.500; -798.000; -752.000
412.455; -165.100; -821.000; -657.000
412.581;   27.200;  -15.000;  172.000
412.707;  -72.400; -540.000; -457.000
412.834;  103.100;  156.000;  219.000
412.960; -132.000; -785.000; -784.000
413.086; -159.000; -743.000; -701.000
413.212;  349.200;  604.000;  578.000
413.339; -121.000; -685.000; -701.000
413.465;   16.900; -364.000; -310.000
413.591; -160.600; -757.000; -474.000
413.717;  -17.200; -358.000; -366.000
413.843; -237.000; -839.000; -861.000
413.969;  -62.900;  -47.000; -292.000
414.096; -182.700; -679.000; -679.000
414.222;   64.600;  -33.000;   85.000
414.348;    3.400; -652.000; -385.000
414.474;  214.300;   38.000;  -52.000
414.600;   23.300; -126.000; -144.000
414.726;   54.800;  -96.000;  -55.000
414.852;  -71.700; -365.000; -342.000
414.978;  119.700;  104.000;  -18.000
415.104;  166.900;   38.000;   80.000
415.230;   95.500; -329.000; -330.000
415.356;   95.700; -409.000; -514.000
415.482;  470.900;   13.000;  -35.000
415.608;  551.400; -247.000; -323.000
415.734; 1931.400;   67.000;   38.000
415.860;38384.200; -875.000; -767.000
415.986;25126.500; -685.000; -607.000
416.111; 2027.600; -798.000; -652.000
416.237;  492.500; -424.000; -571.000
416.363; 2303.800; -765.000; -733.000
416.489; 7495.000; -324.000; -251.000
416.615;  744.300; -707.000; -742.000
416.741;  -31.300; -677.000; -784.000
416.866; -126.500; -673.000; -736.000
416.992; -195.000; -801.000; -818.000
417.118;   12.500;  -41.000;  -80.000
417.244;  -93.800; -798.000; -531.000
417.369; -132.300; -801.000; -612.000
417.495;   54.600; -325.000; -254.000
417.621; -157.200;-1015.000; -803.000
417.746;   22.000; -579.000; -572.000
417.872;   89.300; -254.000; -144.000
417.998;  144.200; -515.000; -530.000
418.123; 2143.400;-1073.000; -845.000
418.249; 9812.200; -512.000; -601.000
418.374; 1183.500; -916.000; -824.000
418.500;  273.500; -383.000; -482.000
418.626;  257.500;   70.000;  -59.000
418.751;  281.500; -549.000; -448.000
418.877;  366.200; -637.000; -643.000
419.002; 3808.900; -688.000; -560.000
419.128;23094.100; -930.000; -721.000
419.253; 5033.800; -967.000; -837.000
419.379;  734.000; -391.000; -338.000
419.504;  761.700;  325.000;  415.000
419.629;  970.900; -393.000; -212.000
419.755; 7006.500; -317.000; -254.000
419.880;37608.200;  -98.000;   67.000
420.006;21402.100; -280.000; -221.000
420.131;52244.700; -662.000; -775.000
420.256; 6755.900; -315.000; -316.000
420.382;  908.800; -665.000; -687.000
420.507;  135.300; -649.000; -778.000
420.632;  247.300; -337.000; -339.000
420.758;  483.000; -251.000; -425.000
420.883; -143.600; -876.000; -672.000
421.008; -131.500; -775.000; -619.000
421.133; -114.700; -509.000; -467.000
421.259;  -47.100; -325.000; -259.000
421.384; -180.900; -834.000; -693.000
421.509;  -39.200;-1052.000; -862.000
421.634; 1933.700; -936.000; -820.000
421.759;  771.200; -359.000; -327.000
421.885;  -83.200; -717.000; -656.000
422.010; -106.800; -673.000; -542.000
422.135; -247.300; -695.000; -727.000
422.260;  108.600;  340.000;  280.000
422.385;  -12.700;   12.000;  -98.000
422.510;   93.500;  151.000;  -26.000
422.635;   85.100;  -87.000;  -43.000
422.760;  210.800; -766.000; -791.000
422.885;  139.000;  -57.000;  -80.000
423.010;   21.100; -112.000; -169.000
423.135; -121.900; -481.000; -561.000
423.260;   28.600; -150.000; -245.000
423.385;  178.600;  476.000;  222.000
423.510;  117.800;   71.000;  -22.000
423.635;  197.900;  133.000;   45.000
423.760;  177.400;  383.000;  328.000
423.885;  177.700;  336.000;  391.000
424.010;   58.900;  -68.000;  -13.000
424.135;    5.600;    5.000;  -33.000
424.259;  -93.700; -654.000; -457.000
424.384;  -61.800; -279.000; -272.000
424.509;  -12.100; -260.000; -186.000
424.634; -139.600; -761.000; -623.000
424.759;  -20.700; -688.000; -544.000
424.883;    7.700; -506.000; -527.000
425.008;  418.400; -502.000; -410.000
425.133; 3798.100; -679.000; -653.000
425.258; 1586.600; -517.000; -381.000
425.382; 1810.500; -867.000; -774.000
425.507; 4236.300; -487.000; -543.000
425.632;  654.700; -802.000; -663.000
425.756;  841.000; -256.000; -146.000
425.881;12739.100; -831.000; -857.000
426.006;30465.400; -604.000; -355.000
426.130; 4457.700; -696.000; -508.000
426.255;  654.900; -611.000; -491.000
426.379;  297.700; -189.000; -577.000
426.504;  797.200;  660.000;  544.000
426.629; 7841.700; -519.000; -466.000
426.753; 4815.800;   64.000;  -46.000
426.878;  593.400; -252.000; -288.000
427.002;  321.200; -651.000; -668.000
427.127; 3178.900;  -35.000; -158.000
427.251;21138.300;  372.000;  401.000
427.375; 5295.900; -191.000; -173.000
427.500; 3804.100; -616.000; -610.000
427.624; 1163.600; -234.000; -400.000
427.749;  211.600; -216.000; -225.000
427.873;  -36.400; -499.000; -412.000
427.997;  -18.300; -222.000; -230.000
428.122;  222.500;  795.000;  703.000
428.246;  216.800;  433.000;  434.000
428.371; -200.500; -869.000; -773.000
428.495; -169.700; -624.000; -646.000
428.619;   -1.400; -186.000; -117.000
428.743;   96.300;   65.000;  132.000
428.868;   60.500; -732.000; -643.000
428.992; 2411.200; -219.000; -326.000
429.116;  865.500; -329.000; -357.000
429.240;  542.500;  419.000;  426.000
429.365;  -10.400; -454.000; -574.000
429.489;  -50.900; -638.000; -647.000
429.613;   94.600; -236.000; -177.000
429.737;  151.900; -563.000; -432.000
429.861;  600.900; -247.000; -133.000
429.985;10985.700; -425.000; -305.000
430.109;10658.300; -770.000; -908.000
430.234; 1205.800;   76.000;  -50.000
430.358;  183.100; -250.000; -160.000
430.482;  -42.500; -672.000; -564.000
430.606;  -37.500; -655.000; -375.000
430.730;  105.500; -437.000; -388.000
430.854;  245.700; -909.000; -835.000
430.978;  -55.000; -795.000; -764.000
431.102;  -92.200; -499.000; -422.000
431.226; -180.600; -874.000; -815.000
431.350;  140.200;  345.000;  422.000
431.474;  -74.600; -661.000; -373.000
431.597; -249.800;-1060.000; -848.000
431.721;  -79.400; -276.000; -267.000
431.845; -187.000; -704.000; -472.000
431.969;  -73.800; -304.000; -349.000
432.093; -157.200; -395.000; -317.000
432.217;   32.400;   32.000;   82.000
432.341; -141.900; -523.000; -518.000
432.464;   61.500;   96.000;   40.000
432.588;  359.400; -401.000; -329.000
432.712;  243.100;  -52.000;  -52.000
432.836;  130.400;  213.000;  263.000
432.959;   -0.500; -372.000; -311.000
433.083;  205.200;   11.000;    2.000
433.207;  719.200;  285.000;  930.000
433.330; 9949.700; -391.000; -200.000
433.454;10884.400; -654.000; -638.000
433.578; 6485.400;  583.000;  278.000
433.701; 1112.300; -623.000; -675.000
433.825;  271.300; -292.000; -299.000
433.949;  350.300;   28.000;  -72.000
434.072;  109.200; -410.000; -323.000
434.196;   43.400; -309.000; -117.000
434.319; 7808.400;25482.000;25124.000
434.443; 1483.000; -656.000; -603.000
434.566; 4871.800;  281.000;   62.000
434.690;  739.200; -637.000; -383.000
434.813;  125.400; -251.000; -173.000
434.937; -132.200; -569.000; -696.000
435.060;  -38.900; -423.000; -332.000
435.184;  570.700; -492.000; -217.000
435.307;  305.000;  159.000;  102.000
435.431;   22.000;  -40.000;   24.000
435.554; -101.300; -399.000; -240.000
435.677;  -94.100; -350.000; -258.000
435.801;   37.500;  -25.000;   49.000
435.924;   33.200;    1.000;  -67.000
436.048; -189.200;-1019.000; -732.000
436.171;  -59.200; -240.000;  -66.000
436.294;   17.800; -248.000; -229.000
436.417;  224.800; -963.000; -849.000
436.541; -143.700; -814.000; -840.000
436.664;   -1.100; -242.000; -316.000
436.787;   23.500;   13.000;  113.000
436.910; -146.900; -792.000; -422.000
437.034;   64.300;  142.000;  143.000
437.157;  195.000;  -11.000;    0.000
437.280;  -65.200; -392.000; -292.000
437.403; -139.600; -982.000; -869.000
437.526; 1112.400; -903.000; -865.000
437.649; 3635.600; -505.000; -332.000
437.772;  445.500; -692.000; -540.000
437.896;  318.300;  700.000;  544.000
438.019; -141.000; -758.000; -503.000
438.142; -122.700; -596.000; -506.000
438.265;  -21.600; -639.000; -670.000
438.388;  996.700; -520.000; -410.000
438.511;  169.900; -597.000; -394.000
438.634;  -55.900; -247.000; -125.000
438.757; -223.500; -693.000; -619.000
438.880;    2.700;  -34.000;  -57.000
439.003;  -92.600; -417.000; -437.000
439.126;  -52.800; -287.000; -167.000
439.248;  -67.300;  -98.000; -139.000
439.371;    7.500;    9.000;  -53.000
439.494;  139.700;  510.000;  439.000
439.617;  -33.800;   65.000;  -88.000
439.740; -305.000; -968.000; -816.000
439.863; -231.300; -755.000; -595.000
439.986; -197.100; -476.000; -431.000
440.108;   -9.900; -161.000; -112.000
440.231; -309.800; -950.000; -836.000
440.354;  -16.400;  -64.000; -150.000
440.477;   98.700; -566.000; -542.000
440.599;   53.700; -200.000; -225.000
440.722; -183.200; -709.000; -586.000
440.845;  208.600;  751.000;  928.000
440.968; -163.100; -415.000; -311.000
441.090;  -34.700; -199.000;  -33.000
441.213; -259.000;-1021.000; -825.000
441.336;  -45.700; -159.000;   -5.000
441.458; -126.000; -549.000; -396.000
441.581; -109.800; -628.000; -629.000
441.703;  -84.700; -152.000;   13.000
441.826; -156.300; -557.000; -400.000
441.948;  -22.600;   56.000;   51.000
442.071;  133.300;  555.000;  424.000
442.193; -169.300; -531.000; -485.000
442.316;   96.900;  152.000;   97.000
442.438;  118.500; -233.000;  -10.000
442.561;  224.200;  272.000;  262.000
442.683;  945.900; -809.000; -522.000
442.806; 1920.300;   -8.000;   74.000
442.928;  -12.900; -859.000; -604.000
443.051;  -81.700; -577.000; -373.000
443.173; -167.200; -341.000; -339.000
443.295; -128.700; -263.000; -371.000
443.418;  -77.600; -321.000;  -29.000
443.540;   60.700; -106.000;   -4.000
443.662; -231.000; -563.000; -465.000
443.785;   20.300;  335.000;  199.000
443.907; -158.800; -362.000; -208.000
444.029; -191.400; -767.000; -494.000
444.152; -248.900; -644.000; -554.000
444.274;    0.200;  -18.000;  -24.000
444.396; -152.200; -461.000; -221.000
444.518; -188.900; -691.000; -454.000
444.640; -141.800; -268.000; -111.000
444.763;   69.000;  388.000;  249.000
444.885; -137.600; -432.000; -392.000
445.007;    9.900;   35.000;   86.000
445.129; -190.400; -610.000; -515.000
445.251; -142.700; -372.000; -439.000
445.373; -239.800; -537.000; -386.000
445.495;   68.800;  242.000;  350.000
445.617;  202.300;  853.000;  753.000
445.739;  -85.800; -215.000;  -97.000
445.861;   -5.700; -245.000; -112.000
445.984;  -35.200; -267.000; -101.000
446.105;  348.100; -418.000; -251.000
446.227; 1055.300; -176.000;  -19.000
446.349;  -15.500; -358.000; -249.000
446.471; -126.500; -615.000; -448.000
446.593;  -70.500; -316.000;   19.000
446.715;   51.200;  -67.000;   41.000
446.837;  171.400;  697.000;  832.000
446.959; -138.400; -457.000; -478.000
447.081; -197.400; -628.000; -518.000
447.203;  187.600;  862.000;  834.000
447.325; -128.600; -270.000;   42.000
447.446;   83.400;  286.000;  530.000
447.568; -260.500; -921.000; -803.000
447.690;  -88.100; -236.000; -245.000
447.812; -240.000; -798.000; -519.000
447.933;   33.300;  155.000;  127.000
448.055;  -64.500; -306.000; -261.000
448.177;  358.800;   31.000;   79.000
448.299;  102.800; -935.000; -727.000
448.420;  100.400;  -25.000;  159.000
448.542;  -30.500;   -3.000;   33.000
448.664;   41.300;  109.000;  322.000
448.785;  -14.700;  265.000;   83.000
448.907;  -93.000; -614.000; -353.000
449.028;  -42.300; -771.000; -471.000
449.150;  229.000;  492.000;  589.000
449.272; -306.000;-1044.000; -913.000
449.393;  158.300;  612.000;  694.000
449.515; -231.500; -634.000; -581.000
449.636;  -53.100; -264.000; -155.000
449.758;  172.000;  763.000;  622.000
449.879; -144.000; -498.000; -396.000
450.001; -115.200; -149.000;  -49.000
450.122;   -5.600;  -95.000;  162.000
450.244;   31.100;   37.000;  364.000
450.365; -105.300; -495.000; -301.000
450.486;   -7.600;   80.000;  268.000
450.608;   90.600;  393.000;  326.000
450.729;  213.200;  578.000;  645.000
450.850;   70.800; -574.000; -466.000
450.972; 1508.500; -552.000; -389.000
451.093; 9299.500;  190.000;  588.000
451.214; 3468.700; -516.000; -337.000
451.336;  687.500;  773.000;  579.000
451.457;  165.300;  264.000;  393.000
451.578;  -43.500; -118.000;  -74.000
451.699; -190.200; -546.000; -540.000
451.821;  -61.300; -284.000;  -50.000
451.942;   41.000;  278.000;  285.000
452.063;  155.000;  228.000;  419.000
452.184; 1137.100;  -54.000;  -49.000
452.305; 2042.700;  103.000;  170.000
452.427;  232.700; -549.000; -301.000
452.548;   37.700;   23.000;   79.000
452.669;  -38.100; -257.000;  -89.000
452.790;   -6.400;    3.000;  -18.000
452.911;   51.500;  195.000;  259.000
453.032;  -30.300; -289.000;  -60.000
453.153;  -50.800;  -29.000;   81.000
453.274;  222.500;  737.000;  868.000
453.395;  -42.900;  -51.000;  175.000
453.516;  368.400; 1317.000; 1388.000
453.637;  -89.100; -205.000; -150.000
453.758;  -48.900;   15.000;   69.000
453.879; -181.700; -462.000; -250.000
454.000;  262.400; 1086.000;  948.000
454.121; -201.400; -554.000; -326.000
454.242; -162.600; -599.000; -383.000
454.362;  -16.700;  -99.000;  114.000
454.483;    3.000; -309.000; -229.000
454.604;  138.900;  512.000;  580.000
454.725; -205.200; -627.000; -555.000
454.846; -220.400; -474.000; -406.000
454.967;   51.900;  230.000;  539.000
455.087;  -17.500;  179.000;  153.000
455.208;  102.600;  554.000;  856.000
455.329;  -79.200;  -22.000;   82.000
455.450;  162.100;  473.000;  633.000
455.570; -124.800; -234.000; -211.000
455.691;    3.600;  201.000;  407.000
455.812; -163.200; -270.000;  -92.000
455.932;  -46.200;  107.000;  -97.000
456.053;  -66.000;   36.000;   24.000
456.173; -171.400; -433.000; -355.000
456.294; -216.000; -476.000; -303.000
456.415;  -57.200;  -73.000;   70.000
456.535;  -15.100;  297.000;  273.000
456.656;  -22.300;  132.000;  240.000
456.776;  -64.300;    3.000;  298.000
456.897;   45.300;  308.000;  513.000
457.017;  -86.900; -153.000;   -3.000
457.138; -138.400; -402.000; -249.000
457.258;   -4.900;  263.000;  224.000
457.379;   47.900;  509.000;  521.000
457.499;   13.000;  443.000;  432.000
457.620; -158.800; -407.000; -231.000
457.740; -104.300; -132.000;  -11.000
457.860;  -30.200;   87.000;   44.000
457.981;  -20.900;  132.000;  124.000
458.101;  -73.400;  -89.000;   40.000
458.221;   63.400;  336.000;  402.000
458.342;  -21.400;   -4.000;  -37.000
458.462;  110.300;  617.000;  352.000
458.582;  -12.200; -302.000; -294.000
458.703;   60.400;  303.000;  154.000
458.823;   24.600;   22.000;  163.000
458.943;  115.000;  341.000;  467.000
459.063;   29.200; 1124.000;  192.000
459.183;   16.500;  328.000;  313.000
459.304;   55.300;  315.000;  517.000
459.424;  -56.700; -246.000;  -89.000
459.544;  748.800;  388.000;  764.000
459.664; 1605.800;  499.000;  506.000
459.784;  623.300; 1004.000; 1175.000
459.904;  214.200;  867.000;  744.000
460.024;  227.000;  867.000;  684.000
460.144;   71.600;  449.000;  554.000
460.264;   36.700;  515.000;  327.000
460.385; -119.000; -145.000; -119.000
460.505;  178.800;  905.000;  858.000
460.625; -106.300;  -17.000;  -68.000
460.745;    7.300;  396.000;  541.000
460.864;  -17.800;  153.000;  469.000
460.984;   98.900;  499.000;  573.000
461.104;  357.700; 1656.000; 1775.000
461.224;  124.400;  657.000;  650.000
461.344;   24.400;  431.000;  360.000
461.464;   -3.900;  258.000;  513.000
461.584;   53.600;  283.000;  466.000
461.704;  -38.200;   58.000;  108.000
461.824;  -45.500;  238.000;  259.000
461.943;  -44.300;  191.000;  130.000
462.063;  -89.100;    2.000;  324.000
462.183;  150.100;  639.000;  717.000
462.303;  299.100; 1678.000; 1230.000
462.422;  165.200;  781.000;  840.000
462.542;  -17.600;  271.000;  391.000
462.662;  159.200;  353.000;  380.000
462.782;  524.900;  833.000;  572.000
462.901;  973.300;  545.000;  717.000
463.021;  582.000; 1702.000; 1638.000
463.141;   91.000;  337.000;  770.000
463.260;   25.000;  614.000;  474.000
463.380;  137.100;  902.000;  884.000
463.499;  -30.600;  342.000;  332.000
463.619;   21.400;  581.000;  559.000
463.738;  312.800; 1644.000;  903.000
463.858;  124.000;  657.000;  811.000
463.978;    7.300;  542.000;  396.000
464.097;  204.800;  921.000; 1114.000
464.217;  321.800; 1196.000; 1143.000
464.336;  325.000; 1068.000; 1130.000
464.455;   21.400;  328.000;  659.000
464.575;  150.100;  597.000;  602.000
464.694;  405.100; 1204.000; 1179.000
464.814;  316.000; 1190.000; 1138.000
464.933;  204.800; 1095.000; 1027.000
465.052;  298.300; 1412.000; 1054.000
465.172;  225.500;  922.000;  799.000
465.291;  362.500; 1376.000; 1320.000
465.410;   50.500;  462.000;  735.000
465.530;  258.900; 1355.000; 1310.000
465.649;  233.000; 1209.000; 1273.000
465.768;  357.900; 1673.000; 1508.000
465.888;  171.500;  941.000; 1174.000
466.007;  282.500; 1335.000; 1440.000
466.126;   55.000;  721.000;  641.000
466.245;  186.800; 1176.000; 1187.000
466.364;  128.100;  950.000; 1060.000
466.484;  188.400; 1024.000; 1213.000
466.603;  179.300; 1101.000; 1222.000
466.722;  314.200; 1490.000; 1769.000
466.841;  223.400; 1151.000; 1401.000
466.960;  217.100; 1069.000;  972.000
467.079;  369.600; 1971.000; 1786.000
467.198;  184.700; 1238.000; 1181.000
467.317;  219.100; 1768.000; 1162.000
467.436;  257.400; 1709.000; 1261.000
467.555;  314.700; 1796.000; 1746.000
467.674;  229.200; 1227.000; 1329.000
467.793;  149.900; 1376.000; 1374.000
467.912;  255.500; 1658.000; 1539.000
468.031;  317.400; 2038.000; 1930.000
468.150;  381.000; 1842.000; 1837.000
468.269;  457.500; 2313.000; 2090.000
468.388;  499.800; 2168.000; 2339.000
468.507;  638.800; 2884.000; 2903.000
468.626;  643.300; 2555.000; 2541.000
468.744;  358.300; 2018.000; 2174.000
468.863;  504.500; 2312.000; 2523.000
468.982;  278.000; 1503.000; 1555.000
469.101;  517.800; 2788.000; 2692.000
469.220;  378.900; 2333.000; 2176.000
469.338;  588.100; 2935.000; 3051.000
469.457;  457.000; 2719.000; 2545.000
469.576;  813.000; 3953.000; 3784.000
469.695;  513.200; 2877.000; 3066.000
469.813;  963.500; 4148.000; 4192.000
469.932;  925.000; 4255.000; 4485.000
470.051;  919.800; 4075.000; 4161.000
470.169; 1780.000; 4470.000; 4338.000
470.288; 2885.300; 4700.000; 4809.000
470.406; 1670.500; 5059.000; 5194.000
470.525; 1357.000; 6101.000; 5787.000
470.644; 1398.000; 6847.000; 6794.000
470.762; 1738.500; 8397.000; 7873.000
470.881; 1906.800; 8651.000; 8464.000
470.999; 2171.800; 9685.000; 9151.000
471.118; 2314.800;11174.000;10711.000

