
Integration time [ms]: 100.000
Averaging Nr. [scans]: 40
Smoothing Nr. [pixels]: 0
Data measured with spectrometer [name]: 2101012U2
Wave   ;Sample   ;Dark     ;Reference
[nm]   ;[counts] ;[counts] ;[counts] 

197.733;   51.400;  516.000;  404.000
197.879;  -97.550; -610.000; -634.000
198.025;  -47.475; -475.000; -420.000
198.171;  -67.075; -602.000; -612.000
198.317;  -30.225; -401.000; -316.000
198.463;  -58.225; -655.000; -404.000
198.609;   23.325;  181.000; -137.000
198.755;  -71.000; -644.000; -410.000
198.901;  -68.275; -505.000; -424.000
199.047;  -82.250; -615.000; -488.000
199.193;  -54.650; -230.000; -468.000
199.339;  -33.125; -222.000; -369.000
199.485;   26.800;  330.000;  271.000
199.631;   14.425;  227.000;  310.000
199.777;  -52.975; -466.000; -398.000
199.923;  -62.400; -610.000; -424.000
200.069;  -11.200; -141.000;  -58.000
200.215;   45.825;  128.000;  453.000
200.361;   27.500;  243.000;  477.000
200.507;  -51.300; -600.000; -373.000
200.653;  -22.125; -371.000; -194.000
200.798;  -30.375; -215.000; -125.000
200.944;   -7.800; -146.000;  -41.000
201.090;   26.800;   61.000;  222.000
201.236;  -10.000; -116.000; -158.000
201.382;  115.050;  874.000;  903.000
201.528;    8.975;  -58.000;  -48.000
201.674;  -59.375; -386.000; -293.000
201.819;  -67.300; -540.000; -439.000
201.965;  -69.050; -699.000; -447.000
202.111;  -22.800; -273.000; -226.000
202.257;  -42.450; -250.000; -238.000
202.402;    2.200;   13.000;  -36.000
202.548;  -29.325; -169.000; -116.000
202.694;   70.650;  410.000; -183.000
202.840;  -70.350; -603.000; -531.000
202.985;  -55.000; -681.000; -639.000
203.131;  -98.875; -832.000; -666.000
203.277;  -18.375; -199.000; -262.000
203.423;  -57.975; -434.000; -520.000
203.568;  -48.100; -462.000; -237.000
203.714;  -61.175; -535.000; -542.000
203.860;  -88.250; -682.000; -641.000
204.005;    6.200;  112.000;  167.000
204.151;   68.700;  561.000;  556.000
204.296;  -48.250; -354.000; -221.000
204.442;  -78.675; -600.000; -547.000
204.588;  -73.425; -592.000; -579.000
204.733;   24.025;  178.000;  168.000
204.879; -126.250;-1018.000; -822.000
205.025;   -0.650;  -99.000;  126.000
205.170;   -1.450;  -17.000;   94.000
205.316;   76.325;  438.000;  661.000
205.461;  -82.925; -698.000; -554.000
205.607;   75.350;  609.000;  665.000
205.752;  -71.400; -626.000; -551.000
205.898;  -60.600; -501.000; -391.000
206.043;  -71.125; -578.000; -506.000
206.189;  -51.075; -243.000; -285.000
206.334;   63.950;  554.000;  606.000
206.480;   63.875;  409.000;  239.000
206.625;  -77.150; -529.000; -552.000
206.771;  -49.225; -451.000; -373.000
206.916;  -43.075; -210.000; -537.000
207.062;  -46.775; -545.000; -591.000
207.207;  -57.625; -546.000; -443.000
207.353;   48.325;  185.000;  460.000
207.498;   -4.825;  196.000;   85.000
207.643;  -46.825; -501.000; -370.000
207.789; -138.750;-1069.000; -910.000
207.934;  -81.125; -665.000; -713.000
208.080;  -15.650; -154.000;   66.000
208.225;    1.475;  -22.000;  -57.000
208.370;  -85.300; -727.000; -619.000
208.516;  -82.025; -741.000; -487.000
208.661;  -25.450; -127.000;  -69.000
208.806;  -19.750; -165.000; -171.000
208.952; -119.400;-1044.000; -731.000
209.097;   75.725;  378.000;  349.000
209.242;  -35.100; -307.000; -382.000
209.387;   68.175;  392.000;  350.000
209.533;  -49.525; -321.000; -350.000
209.678;   78.200;  472.000;  543.000
209.823;  -54.050; -408.000; -310.000
209.969; -103.625; -860.000; -757.000
210.114; -120.125; -907.000; -719.000
210.259; -109.925; -939.000; -889.000
210.404;  -20.075; -171.000;  103.000
210.549;    2.700;  108.000;    3.000
210.695;   -9.875;   -3.000;  -95.000
210.840;   24.100;   94.000;   67.000
210.985;  -61.550; -484.000; -303.000
211.130;   43.350;  268.000;  406.000
211.275;   10.200;  207.000;  199.000
211.420;  -45.125; -300.000; -289.000
211.566;  -67.700; -536.000; -489.000
211.711;   19.675;  218.000;  157.000
211.856;  -64.400; -545.000; -519.000
212.001;   13.700;  151.000;   44.000
212.146;    3.300;  153.000;   49.000
212.291;  -24.725; -210.000; -186.000
212.436;  -32.475; -280.000;   -6.000
212.581;  -84.225; -685.000; -653.000
212.726;  -82.675; -487.000; -538.000
212.871;  -42.200; -552.000; -217.000
213.016; -146.800;-1172.000;-1029.000
213.161;   43.250;  406.000;  291.000
213.306;  -80.700; -435.000; -577.000
213.451; -100.025; -778.000; -689.000
213.596;  -52.475; -455.000; -347.000
213.741;  -60.275; -448.000; -538.000
213.886;  -83.025; -498.000; -517.000
214.031;  -14.775; -294.000; -124.000
214.176;  -39.125; -408.000; -341.000
214.321;  -20.425; -296.000; -157.000
214.466;  -27.975; -163.000;  -43.000
214.611;  -18.625;  -61.000;  -10.000
214.756; -123.325; -948.000; -858.000
214.901;  -20.175; -388.000; -226.000
215.046; -122.050; -797.000; -825.000
215.191;   13.800;  128.000;   35.000
215.336;  -19.350; -157.000;  -19.000
215.480;  -68.475; -684.000; -505.000
215.625;  -13.650; -175.000;  -19.000
215.770;  -80.525; -757.000; -662.000
215.915;  -13.775;   -5.000;  -97.000
216.060;   -6.375; -113.000;  -21.000
216.205; -107.050; -731.000; -779.000
216.349;  -74.525; -470.000; -533.000
216.494; -130.125; -939.000; -867.000
216.639; -116.875; -823.000; -888.000
216.784;  -85.100; -577.000; -525.000
216.929;   56.175;  392.000;  281.000
217.073;   -6.625; -244.000;  -31.000
217.218;   17.000;   78.000;  -47.000
217.363;  -87.075; -656.000; -618.000
217.507;  -82.400; -623.000; -588.000
217.652; -116.825; -845.000; -874.000
217.797;  -86.850; -708.000; -659.000
217.942; -105.975; -856.000; -720.000
218.086;   65.650;  608.000;  539.000
218.231;  -18.950; -174.000;  -26.000
218.376;  -23.325; -337.000; -229.000
218.520;   -5.250;  -41.000;   96.000
218.665;  -27.025; -338.000; -204.000
218.810;  -37.075; -275.000; -233.000
218.954;    6.225;  201.000;   35.000
219.099; -118.625; -713.000; -963.000
219.243;  -71.475; -589.000; -554.000
219.388;  -30.550; -264.000; -136.000
219.532;  -20.050; -116.000; -116.000
219.677;  -67.925; -564.000; -521.000
219.822;   13.325;   33.000;   89.000
219.966;   -2.900;   17.000;  -99.000
220.111;  -39.000; -328.000;  -40.000
220.255;  -94.825; -797.000; -750.000
220.400;  -26.700; -180.000; -146.000
220.544;  -75.325; -516.000; -450.000
220.689;  -58.725; -422.000; -451.000
220.833;  -38.200; -123.000;  -58.000
220.978;  -47.925; -393.000; -563.000
221.122;   28.350;  319.000;  307.000
221.267; -120.125; -906.000; -837.000
221.411;  -73.075; -478.000; -394.000
221.555;  -19.950; -104.000;  -23.000
221.700;  -39.875; -329.000; -222.000
221.844;   25.875;  255.000;  272.000
221.989;  -41.975; -328.000; -311.000
222.133;  -34.925; -289.000; -307.000
222.277;  -14.575;    5.000;   78.000
222.422;   16.050;  227.000;  113.000
222.566;  -37.650; -381.000; -214.000
222.711;  -50.375; -414.000; -479.000
222.855;  -75.175; -643.000; -586.000
222.999;  -87.475; -642.000; -717.000
223.144;  -38.625; -195.000; -194.000
223.288;   49.975;  423.000;  251.000
223.432;    9.025;  184.000;  230.000
223.576;    9.200;  152.000;  -21.000
223.721;   12.600;  364.000;  273.000
223.865;  -55.750; -472.000; -475.000
224.009;  245.175; 1673.000; 1631.000
224.153;  -80.950; -660.000; -671.000
224.298;  -65.450; -531.000; -489.000
224.442;  -10.175;  -74.000;  -33.000
224.586;  -33.475; -169.000; -106.000
224.730;  -88.450; -858.000; -670.000
224.875; -107.025; -739.000; -688.000
225.019;    9.350;  102.000;  188.000
225.163;   44.400;  208.000;  341.000
225.307;   12.000;   97.000;  -91.000
225.451;   48.025;  360.000;  481.000
225.595;   28.025;  264.000;  176.000
225.739;  -22.350; -170.000;  -94.000
225.884;   -4.650;   86.000;    5.000
226.028;  -95.900; -760.000; -626.000
226.172;  -32.225; -260.000; -273.000
226.316; -124.925; -941.000; -902.000
226.460;  -73.600; -645.000; -493.000
226.604;  -49.075; -406.000; -400.000
226.748;  -97.325; -836.000; -733.000
226.892;  -34.150; -227.000; -181.000
227.036;  -46.075; -537.000; -447.000
227.180;  -51.550; -551.000; -375.000
227.324;  -54.800; -561.000; -580.000
227.468; -114.775; -819.000; -717.000
227.612;    5.600;  242.000;  -28.000
227.756;  -96.000; -845.000; -698.000
227.900;   38.450;  342.000;  441.000
228.044;  -62.275; -509.000; -290.000
228.188;   56.375;  448.000;  568.000
228.332;  -89.075; -546.000; -472.000
228.476;  -37.025; -223.000; -149.000
228.620;  -41.300; -210.000; -150.000
228.764;   49.825;  431.000;  349.000
228.908;  -17.125; -155.000;   30.000
229.052;  -62.325; -615.000; -528.000
229.195;  -19.650; -172.000;   13.000
229.339;  -17.425; -235.000; -305.000
229.483;  -27.550;    5.000; -162.000
229.627;   -8.350; -156.000;  139.000
229.771;  -45.925; -218.000; -294.000
229.915;   23.350;  230.000;   79.000
230.059;  -93.725; -648.000; -663.000
230.202;  -54.300; -370.000; -317.000
230.346;   -7.100; -107.000;  107.000
230.490;  -73.650; -489.000; -521.000
230.634; -108.475; -736.000; -553.000
230.777;   68.750;  478.000;  509.000
230.921;  -69.225; -450.000; -359.000
231.065;  -43.575; -246.000; -286.000
231.209;   29.050;  261.000;  265.000
231.352;    6.575;   54.000;   40.000
231.496;   20.300;  568.000;  188.000
231.640;  -83.550; -693.000; -621.000
231.783;   49.350;  546.000;  525.000
231.927;  -56.000; -294.000; -365.000
232.071; -115.175; -962.000; -736.000
232.214; -108.625; -980.000; -764.000
232.358; -100.450; -683.000; -599.000
232.502;   11.650;  -19.000;    7.000
232.645; -133.850;-1090.000; -927.000
232.789;  -32.050; -257.000; -218.000
232.933;  -40.375; -407.000; -224.000
233.076; -119.150;-1038.000; -897.000
233.220; -107.650; -752.000; -777.000
233.363;  -83.325; -669.000; -477.000
233.507;   33.175;  371.000;  129.000
233.650;  -95.025; -764.000; -834.000
233.794;   26.650;  438.000;  461.000
233.938;  -58.500; -530.000; -362.000
234.081;  -23.950;  -93.000;   31.000
234.225;  -72.500; -631.000; -539.000
234.368; -124.975; -773.000; -723.000
234.512;  -47.100; -385.000; -299.000
234.655;  -87.050; -582.000; -555.000
234.798;  -76.450; -493.000; -466.000
234.942; -127.300; -884.000;-1002.000
235.085;  -79.050; -651.000; -443.000
235.229;  -76.850; -405.000; -410.000
235.372;  -46.425; -247.000; -191.000
235.516;  -51.925; -397.000; -321.000
235.659;   15.475;   92.000;  121.000
235.802;  -15.000;  -38.000;  -22.000
235.946;   19.350;  335.000;  215.000
236.089;   27.450;  126.000;  250.000
236.233;   40.600;  275.000;  298.000
236.376;  -48.875; -235.000; -378.000
236.519;  -59.400; -297.000; -319.000
236.663;  -33.600; -215.000; -117.000
236.806; -145.975;-1029.000; -999.000
236.949;   38.100;  543.000;  431.000
237.092;   53.425;  412.000;  391.000
237.236;  -86.550; -589.000; -502.000
237.379;   54.350;  352.000;  428.000
237.522; -131.650; -879.000; -768.000
237.666;  -24.800; -271.000;   18.000
237.809; -122.325; -851.000; -823.000
237.952;   36.625;  469.000;  271.000
238.095;  -58.625; -447.000; -442.000
238.238;   88.050;  688.000;  700.000
238.382;   -0.725;  166.000;  103.000
238.525;  -71.725; -598.000; -511.000
238.668; -131.650;-1060.000; -985.000
238.811;  -91.775; -638.000; -643.000
238.954;  -54.050; -483.000; -334.000
239.097;   76.825;  617.000;  664.000
239.241;   15.600;  394.000;  326.000
239.384;  -28.600; -254.000; -214.000
239.527;  -55.900; -424.000; -224.000
239.670; -140.050; -994.000;-1091.000
239.813; -102.175; -696.000; -658.000
239.956;   70.800;  579.000;  473.000
240.099; -111.125; -778.000; -725.000
240.242;   38.875;  428.000;  432.000
240.385;   40.150;  466.000;  450.000
240.528;  -67.900; -706.000; -473.000
240.671;   11.350;  189.000;  134.000
240.814;  -37.150; -441.000; -158.000
240.957;  -96.500; -767.000; -578.000
241.100;  -94.775; -779.000; -755.000
241.243; -139.500;-1234.000; -893.000
241.386;  -60.125; -508.000; -379.000
241.529;  -94.225; -735.000; -547.000
241.672;  -55.100; -566.000; -495.000
241.815; -115.575; -832.000; -808.000
241.958;  -23.850; -125.000; -182.000
242.101;  -86.450; -545.000; -390.000
242.244;  -30.825; -270.000; -325.000
242.387;  -42.250; -304.000; -246.000
242.530;   57.950;  470.000;  134.000
242.673;  -50.850; -381.000; -309.000
242.815; -124.000; -925.000; -899.000
242.958;  -67.150; -482.000; -381.000
243.101;    6.250;  132.000;  187.000
243.244;  -87.700; -564.000; -521.000
243.387;  -52.550; -313.000; -316.000
243.530; -104.075; -657.000; -674.000
243.672;  -19.025;   43.000;  -92.000
243.815;  -49.850; -355.000; -283.000
243.958;  -13.900;   98.000;  -26.000
244.101;   -6.075;   59.000;  -16.000
244.243;  -23.675;  -47.000;  101.000
244.386; -123.175; -761.000; -630.000
244.529;  -35.175; -132.000; -139.000
244.672; -164.525;-1154.000; -951.000
244.814;  -93.000; -621.000; -794.000
244.957;  -34.675; -380.000; -304.000
245.100;  -86.125; -489.000; -489.000
245.242;  -66.625; -387.000; -374.000
245.385;  -20.900;  -59.000;  -39.000
245.528; -115.275; -871.000; -705.000
245.670;   81.600;  612.000;  634.000
245.813;  -94.750; -599.000; -547.000
245.956;  -33.950; -324.000; -275.000
246.098;  -77.625; -508.000; -650.000
246.241;   -7.250;  194.000;   48.000
246.383;  -30.925; -119.000;  -73.000
246.526;  -74.350; -454.000; -525.000
246.669; -112.350; -889.000; -780.000
246.811;    4.125;  172.000;   -1.000
246.954;  -72.675; -512.000; -426.000
247.096;  -27.225;  -84.000;   -6.000
247.239;  -81.425; -482.000; -445.000
247.381;  -76.725; -647.000; -488.000
247.524;   67.800;  645.000;  679.000
247.666;  -23.250;   58.000;   11.000
247.809; -122.975; -887.000; -691.000
247.951;  -15.275;  -75.000;  138.000
248.094;   21.075;  432.000;  308.000
248.236; -161.800;-1262.000;-1238.000
248.378;  -24.050; -356.000;  -81.000
248.521;  -40.125; -334.000; -337.000
248.663;  -46.525; -236.000; -267.000
248.806;  -15.825; -300.000; -266.000
248.948; -109.625; -886.000; -763.000
249.090;  -58.575; -428.000; -398.000
249.233;  -50.100; -344.000; -381.000
249.375;  -66.400; -474.000; -451.000
249.518;  -21.500;  -83.000; -133.000
249.660;  -16.375; -103.000;    3.000
249.802; -155.675;-1303.000;-1189.000
249.945;  -80.350; -612.000; -540.000
250.087; -115.100; -834.000; -768.000
250.229;  -54.025; -362.000; -480.000
250.371;  -83.975; -494.000; -439.000
250.514;  -52.850; -310.000; -244.000
250.656;  -61.550;   69.000;  102.000
250.798; -117.475; -849.000; -800.000
250.940;  -66.375; -322.000; -322.000
251.083;  -32.825; -335.000; -111.000
251.225;   48.400;  338.000;  310.000
251.367;  -47.625; -274.000; -373.000
251.509;  -43.550; -265.000; -210.000
251.651;  -89.950; -731.000; -671.000
251.794;   40.700;  538.000;  632.000
251.936; -111.525; -821.000; -747.000
252.078;  -72.975; -540.000; -461.000
252.220;  -77.800; -645.000; -477.000
252.362;   57.300;  344.000;  462.000
252.504;  -73.025; -677.000; -584.000
252.646; -100.300; -875.000; -722.000
252.788;  -17.075;   14.000; -128.000
252.931;  -63.100; -257.000; -253.000
253.073;  -59.300; -376.000; -317.000
253.215;   -9.400;  141.000;  122.000
253.357;  -19.950;   82.000; -153.000
253.499;  -58.600; -374.000; -234.000
253.641;  -83.950; -749.000; -594.000
253.783;  -98.350; -609.000; -527.000
253.925;  -83.800; -586.000; -591.000
254.067; -108.350; -744.000; -667.000
254.209;  -34.525; -391.000; -259.000
254.351; -134.800; -865.000; -883.000
254.493;  -62.700; -441.000; -417.000
254.635; -143.550; -936.000; -818.000
254.777;  -90.400; -752.000; -687.000
254.918;  -75.550; -512.000; -430.000
255.060;  -65.075; -551.000; -395.000
255.202;  -68.350; -473.000; -261.000
255.344;  -82.800; -658.000; -455.000
255.486;  -78.850; -471.000; -406.000
255.628; -106.750; -780.000; -781.000
255.770;  -87.425; -676.000; -536.000
255.912;  -70.825; -559.000; -468.000
256.053;  -83.450; -730.000; -508.000
256.195;  135.100; 1008.000;  903.000
256.337;  -94.200; -861.000; -595.000
256.479;   48.350;  532.000;  416.000
256.621;  -53.375; -394.000; -212.000
256.762; -104.950; -789.000; -742.000
256.904;   40.975;  485.000;  487.000
257.046;  -53.100; -381.000; -271.000
257.188;  -55.575; -351.000; -264.000
257.329;  -79.475; -525.000; -464.000
257.471; -119.125; -939.000; -807.000
257.613;  -67.700; -584.000; -498.000
257.755; -136.700;-1073.000; -982.000
257.896;   25.250;  286.000;  392.000
258.038;  -80.025; -403.000; -352.000
258.180;  -54.825; -354.000; -279.000
258.321;  -95.325; -581.000; -457.000
258.463;  -10.750;  -71.000;  133.000
258.605;  -89.000; -562.000; -570.000
258.746; -103.800; -886.000; -772.000
258.888; -146.500;-1026.000;-1020.000
259.029;    9.525;  121.000;   -8.000
259.171;  -99.175; -614.000; -550.000
259.313;  -19.025;  -49.000;  -47.000
259.454;  -85.600; -536.000; -414.000
259.596;  -69.750; -483.000; -390.000
259.737;  -74.700; -590.000; -474.000
259.879;   27.700;  217.000;  311.000
260.020;   76.400;  901.000;  636.000
260.162;  -37.675; -146.000; -253.000
260.303; -113.550; -768.000; -687.000
260.445;  -90.300; -609.000; -613.000
260.586;    7.450;  392.000;  157.000
260.728;  -47.275; -360.000; -248.000
260.869;  -64.750; -350.000; -343.000
261.011;   67.975;  706.000;  537.000
261.152;  -66.500; -479.000; -319.000
261.293;  -83.325; -576.000; -595.000
261.435;  -30.300; -219.000; -184.000
261.576;  -48.275; -455.000; -325.000
261.718;   36.050;  420.000;  470.000
261.859; -134.975; -940.000; -949.000
262.000; -140.425; -951.000;-1016.000
262.142;  -28.025;  -52.000;  -60.000
262.283; -123.050; -808.000; -691.000
262.424;  -93.625; -666.000; -625.000
262.566; -162.950;-1161.000; -983.000
262.707; -114.225; -840.000; -830.000
262.848; -113.850; -769.000; -726.000
262.990;  -59.050; -362.000; -345.000
263.131;   71.925;  650.000;  681.000
263.272;  -15.825;  -61.000;  -41.000
263.413; -102.575; -589.000; -561.000
263.555;  -67.900; -669.000; -143.000
263.696;  -81.550; -550.000; -641.000
263.837;  -64.075; -449.000; -551.000
263.978;   -7.425;   -5.000;  -77.000
264.119;  -51.375; -283.000; -264.000
264.261; -120.200; -847.000; -630.000
264.402;   -2.925;   33.000;   40.000
264.543;  -89.450; -509.000; -524.000
264.684;  -14.975;   61.000;  -50.000
264.825;  -89.250; -816.000; -538.000
264.966;  -10.575;  -84.000;  -67.000
265.107; -115.925; -646.000; -670.000
265.248; -118.875; -825.000; -812.000
265.390;  -28.700;  152.000;   -9.000
265.531;  -31.800; -238.000; -107.000
265.672;  -86.900; -557.000; -630.000
265.813;   46.875;  563.000;  439.000
265.954; -147.400; -959.000; -940.000
266.095;  -21.350; -372.000; -322.000
266.236;  -93.325; -686.000; -548.000
266.377;  -43.075; -243.000; -297.000
266.518;  -77.750; -619.000; -547.000
266.659;   21.875;  170.000;  268.000
266.800;  -10.600;   83.000;   85.000
266.941;  -79.650; -487.000; -478.000
267.082;    3.850;  354.000;   99.000
267.223;  -66.925; -344.000; -273.000
267.364; -123.900; -892.000; -686.000
267.504;  -25.350;    3.000;  135.000
267.645;   -0.750;  160.000;   67.000
267.786;  -37.325; -147.000;  -86.000
267.927;  -85.400; -473.000; -379.000
268.068;  -23.225; -186.000;  -61.000
268.209;  -36.775; -175.000; -413.000
268.350;  -80.275; -388.000; -532.000
268.490;  -96.050; -648.000; -521.000
268.631;   34.625;  127.000;  225.000
268.772; -120.750; -874.000; -647.000
268.913;  -62.275; -328.000; -476.000
269.054;  -34.575; -117.000;   12.000
269.194;  -60.200; -418.000; -402.000
269.335; -163.025;-1137.000;-1074.000
269.476;  -27.575;   33.000;  -35.000
269.617;  -50.925; -347.000; -392.000
269.757;  -96.950; -713.000; -646.000
269.898; -112.950; -856.000; -613.000
270.039;  -56.900; -415.000; -405.000
270.180; -131.000; -952.000; -816.000
270.320;  -35.925; -190.000; -250.000
270.461;  -49.575; -277.000; -249.000
270.602;  -22.400; -186.000; -156.000
270.742; -117.200; -868.000; -943.000
270.883;  -74.475; -442.000; -390.000
271.023;  -70.325; -358.000; -357.000
271.164;  -78.925; -607.000; -528.000
271.305;  -95.525; -666.000; -654.000
271.445;  -97.425; -722.000; -683.000
271.586;  -73.650; -462.000; -283.000
271.726;  -55.150; -397.000; -322.000
271.867;  -79.000; -594.000; -534.000
272.008;   60.025; -473.000; -285.000
272.148;   71.325;  462.000;  468.000
272.289;   -5.250; -113.000; -181.000
272.429;    4.775;   19.000;  185.000
272.570; -100.400; -633.000; -737.000
272.710; -103.600; -825.000; -775.000
272.851;  -34.275;  113.000; -130.000
272.991; -166.650;-1173.000;-1077.000
273.131;  -73.925; -419.000; -459.000
273.272; -109.575; -683.000; -723.000
273.412;  -26.125; -143.000;  -31.000
273.553;  -65.800; -488.000; -507.000
273.693;  116.000;  913.000;  858.000
273.834; -112.450; -894.000; -692.000
273.974;  -79.800; -664.000; -615.000
274.114; -116.700; -772.000; -560.000
274.255;   51.125;  414.000;  373.000
274.395;  -35.525; -180.000; -125.000
274.535;   26.700;  199.000;  350.000
274.676;    8.650;  225.000;   94.000
274.816;  -18.725;  110.000;   34.000
274.956;  -95.850; -624.000; -690.000
275.097; -104.275;-1014.000; -922.000
275.237; -117.700; -913.000; -803.000
275.377; -101.500; -778.000; -689.000
275.517; -159.525; -878.000; -937.000
275.658;  -64.825; -590.000; -555.000
275.798;  -79.725; -606.000; -413.000
275.938;   20.250;  215.000;  323.000
276.078;  -77.975; -626.000; -395.000
276.218;  -17.775;   99.000;  104.000
276.359; -145.325;-1026.000;-1024.000
276.499;  -77.275; -605.000; -446.000
276.639;  -46.950; -305.000; -151.000
276.779;  -73.625; -475.000; -357.000
276.919; -108.450; -783.000; -624.000
277.059;  -34.700; -261.000; -212.000
277.199;  -60.025; -357.000; -259.000
277.340;   25.275;  287.000;  175.000
277.480; -106.950; -840.000; -693.000
277.620;   13.050;  192.000;   16.000
277.760; -193.050;-1533.000;-1294.000
277.900;   -3.550;  113.000;   33.000
278.040;   -2.925;  137.000;  159.000
278.180;   16.725;  270.000;  170.000
278.320;   -9.300;   21.000;   56.000
278.460;  -72.850; -443.000; -469.000
278.600;  -97.875; -708.000; -598.000
278.740;   38.175;  448.000;  224.000
278.880; -126.850; -768.000; -791.000
279.020;  -45.275; -194.000; -144.000
279.160;  -93.775; -672.000; -595.000
279.300; -122.600; -926.000; -873.000
279.440;  -98.700; -709.000; -622.000
279.579;  -91.100;-1014.000; -929.000
279.719;  -61.800; -410.000; -394.000
279.859;   36.950;   -4.000;   41.000
279.999;  -16.450; -208.000;  101.000
280.139;  -47.800; -435.000; -387.000
280.279; -105.625; -708.000; -745.000
280.419;  -34.225; -229.000; -147.000
280.559;  -50.175; -259.000; -180.000
280.698; -100.025; -790.000; -639.000
280.838; -118.500; -778.000; -800.000
280.978; -100.750; -846.000; -790.000
281.118; -109.150; -811.000; -704.000
281.257;    6.725;   24.000;    6.000
281.397; -153.725;-1094.000; -960.000
281.537;  -95.625; -599.000; -712.000
281.677;  -32.775; -150.000; -101.000
281.816;  -92.875; -700.000; -630.000
281.956;  -32.475; -193.000; -257.000
282.096;  -74.150; -539.000; -396.000
282.235; -116.525; -672.000; -638.000
282.375;  -23.950; -243.000;  -98.000
282.515; -108.800; -715.000; -707.000
282.654;    3.425;   29.000;  106.000
282.794;   13.425;  388.000;  244.000
282.934;  -62.000; -530.000; -491.000
283.073; -130.225;-1030.000; -857.000
283.213;  -62.050; -460.000; -467.000
283.353;  -59.900; -408.000; -349.000
283.492;  -46.575; -264.000; -296.000
283.632;  -48.450; -254.000; -168.000
283.771;  -94.150; -859.000; -730.000
283.911;  -69.150; -369.000; -260.000
284.050; -114.675; -794.000; -748.000
284.190; -160.000;-1229.000;-1096.000
284.329; -128.725;-1055.000; -964.000
284.469;  -95.000; -516.000; -591.000
284.608;  -75.275; -559.000; -598.000
284.748;  -80.975; -614.000; -570.000
284.887;  -10.500;  -87.000;  -20.000
285.027; -129.975; -844.000; -892.000
285.166;  -40.875; -192.000; -249.000
285.306;   -5.625; -116.000;  -33.000
285.445;  -45.025; -229.000; -343.000
285.584;  -86.975; -630.000; -494.000
285.724;  -55.850; -282.000; -322.000
285.863; -116.050; -857.000; -507.000
286.002;  -53.150; -366.000; -276.000
286.142; -110.275; -715.000; -622.000
286.281;  -78.075; -525.000; -493.000
286.420;  -85.825; -554.000; -417.000
286.560;   82.950;  653.000;  623.000
286.699; -137.225; -958.000; -912.000
286.838;  -85.300; -590.000; -591.000
286.978; -100.900; -533.000; -537.000
287.117; -131.625;-1085.000; -950.000
287.256;  -39.825; -228.000; -211.000
287.395;  -60.825; -197.000; -378.000
287.535;  -58.950; -370.000; -298.000
287.674;  -87.575; -509.000; -484.000
287.813;   45.775;  661.000;  533.000
287.952; -141.500;-1010.000; -871.000
288.091; -154.275;-1049.000; -915.000
288.231;   -7.150;   13.000;   15.000
288.370; -178.250;-1217.000;-1200.000
288.509;  -85.350; -728.000; -645.000
288.648; -101.225; -770.000; -548.000
288.787;  -48.025; -243.000;  -87.000
288.926;  -75.300; -454.000; -475.000
289.065;   78.575;  859.000;  672.000
289.204;  -64.650; -377.000; -217.000
289.344; -111.975; -791.000; -690.000
289.483;    8.450;  416.000;  304.000
289.622;  -51.025; -291.000; -149.000
289.761;  -24.175; -309.000; -166.000
289.900; -114.525; -785.000; -626.000
290.039;  -15.775;  -12.000;  -95.000
290.178;  -45.350; -274.000; -180.000
290.317;  -94.650; -618.000; -479.000
290.456;  -59.775; -463.000; -451.000
290.595; -124.750; -961.000; -833.000
290.734; -139.650; -904.000; -891.000
290.873;  -71.975; -456.000; -420.000
291.011; -117.800; -833.000; -843.000
291.150; -112.025; -770.000; -682.000
291.289;  -35.225; -343.000; -110.000
291.428;  -99.875; -599.000; -480.000
291.567;  -58.125; -370.000; -442.000
291.706;  -24.000;  109.000;  154.000
291.845;  -90.775; -597.000; -505.000
291.984; -169.925;-1234.000;-1061.000
292.122;   47.800;  602.000;  582.000
292.261;   32.450;  620.000;  463.000
292.400;    2.575; -144.000;  211.000
292.539; -131.800; -959.000; -813.000
292.678;  -40.475; -325.000; -300.000
292.816; -164.025;-1136.000; -965.000
292.955; -106.825; -844.000; -684.000
293.094;  -33.325; -173.000; -337.000
293.233;  -72.475; -556.000; -400.000
293.371;  -44.100; -225.000;  -84.000
293.510; -115.250; -866.000; -780.000
293.649; -139.025; -959.000; -924.000
293.787; -132.100;-1083.000;-1012.000
293.926;  -16.475; -113.000;  -32.000
294.065;  -54.350; -379.000; -290.000
294.203;   19.000;  298.000;  406.000
294.342;    9.750;   74.000;  156.000
294.481; 6104.550;51180.000; -836.000
294.619;  -40.750; -425.000; -582.000
294.758; -164.450;-1230.000;-1137.000
294.896;   -3.800; -125.000;    5.000
295.035; -149.075;-1040.000;-1006.000
295.174; -134.100;-1082.000; -954.000
295.312;  -54.450; -323.000; -203.000
295.451;  -47.750; -307.000; -428.000
295.589;  -83.325; -389.000; -518.000
295.728;   -1.775; -292.000; -165.000
295.866;  -41.725;  -36.000;  -51.000
296.005;  -78.225; -584.000; -341.000
296.143;  -88.725; -558.000; -596.000
296.282; -122.650; -957.000; -881.000
296.420; -100.250; -657.000; -557.000
296.559;  -99.075; -892.000; -633.000
296.697;  -60.225; -847.000; -665.000
296.835;  -90.300;-1141.000;-1002.000
296.974;    9.300;  -23.000;   39.000
297.112;  -45.075; -443.000; -504.000
297.251; -111.725; -815.000; -755.000
297.389;  -34.725; -576.000; -438.000
297.527;  -12.675; -145.000;  -83.000
297.666;  -73.050; -486.000; -438.000
297.804;  -81.075; -404.000; -264.000
297.942;  -17.200; -136.000; -161.000
298.081;  -13.350; -183.000;   63.000
298.219;   -6.950;  -17.000;  -19.000
298.357;  -23.575; -144.000;  -71.000
298.495;  -65.625; -810.000; -812.000
298.634;    1.600;  245.000;  219.000
298.772;  -35.675; -220.000; -338.000
298.910;  -44.750; -309.000; -182.000
299.048;  -30.500; -130.000; -153.000
299.187;  -49.675; -350.000; -250.000
299.325;  -22.025;   52.000;  122.000
299.463;  -51.300; -389.000; -299.000
299.601;   -9.550; -327.000; -271.000
299.739; -132.700; -908.000; -883.000
299.877;  -88.500; -791.000; -703.000
300.016; -106.050;-1095.000; -935.000
300.154;   33.600;  -19.000; -161.000
300.292;  -36.350; -428.000; -348.000
300.430;  -41.325; -408.000; -291.000
300.568; -142.175; -940.000; -874.000
300.706;  -75.875; -366.000; -469.000
300.844; -147.025;-1108.000; -979.000
300.982;   55.925;  246.000;  282.000
301.120; -133.625; -965.000; -866.000
301.258; -101.525; -812.000; -705.000
301.396;   -1.350;  104.000;  -41.000
301.534;  -28.175; -218.000; -293.000
301.672;  -94.025; -664.000; -521.000
301.810;  -68.900; -613.000; -545.000
301.948;    7.300;   53.000;  149.000
302.086;  189.900; -250.000;  -32.000
302.224;  187.675; -610.000; -585.000
302.362;  -62.225; -558.000; -622.000
302.500; -108.025; -923.000; -893.000
302.638;   26.125;  128.000;  245.000
302.776;  -34.350; -352.000; -408.000
302.913;   22.100;  447.000;  236.000
303.051;  -38.075;  -86.000;  -23.000
303.189;    4.400;   90.000;  118.000
303.327;  -66.325; -341.000; -256.000
303.465;  -90.375; -832.000; -588.000
303.603;  -98.900; -805.000; -604.000
303.740;   43.525;  417.000;  241.000
303.878;  -76.775; -800.000; -759.000
304.016; -109.500; -915.000; -790.000
304.154; -163.625;-1123.000;-1152.000
304.291;  -68.150; -505.000; -554.000
304.429;  -13.450;  102.000;   74.000
304.567; -140.950; -908.000; -893.000
304.705;  -67.775; -408.000; -515.000
304.842;  -37.450; -616.000; -540.000
304.980;    4.650;  215.000;   35.000
305.118;  -29.225; -367.000; -365.000
305.255; -127.050; -945.000; -927.000
305.393;   17.025;  178.000;  239.000
305.531; -140.100;-1173.000; -956.000
305.668;  -91.750; -663.000; -582.000
305.806;   -7.100; -358.000; -439.000
305.943;  -26.325; -629.000; -637.000
306.081;  -36.775; -378.000; -267.000
306.219; -115.700; -863.000; -748.000
306.356;  -14.150;  158.000;   27.000
306.494;  103.500;  981.000;  761.000
306.631;  -11.425;  -11.000;  -55.000
306.769;  -39.400; -613.000; -485.000
306.906;  -61.275; -284.000; -258.000
307.044;  -59.300; -473.000; -488.000
307.181;  -57.975; -410.000; -332.000
307.319;   14.775;  112.000;   87.000
307.456; -165.175;-1191.000;-1153.000
307.594; -102.825; -980.000; -727.000
307.731;  -37.450; -371.000; -164.000
307.868;  -14.450;  -15.000;   20.000
308.006; -133.825; -961.000; -847.000
308.143;  -82.050; -618.000; -330.000
308.281;   21.575;  -37.000; -254.000
308.418;  -67.525; -748.000; -640.000
308.555;  -83.500; -400.000; -250.000
308.693;  -80.750; -577.000; -573.000
308.830; -119.100; -712.000; -657.000
308.967;  -35.825; -215.000;  -95.000
309.105;  -47.050; -507.000; -396.000
309.242;  -24.000; -468.000; -367.000
309.379;   16.700; -577.000; -655.000
309.517; -114.275; -936.000; -948.000
309.654; -117.350; -910.000; -734.000
309.791;  -87.200; -662.000; -580.000
309.928; -127.750; -977.000; -914.000
310.065;  118.225;  819.000;  697.000
310.203;  -96.700; -825.000; -850.000
310.340;  -45.350; -465.000; -321.000
310.477;  -95.400; -412.000; -516.000
310.614;  -70.100; -383.000; -473.000
310.751;  -88.450; -427.000; -518.000
310.889;  -30.525;    1.000;   11.000
311.026; -150.825;-1161.000; -939.000
311.163;  -49.000; -386.000; -380.000
311.300;  -83.700; -512.000; -479.000
311.437;  -89.100; -658.000; -619.000
311.574; -161.725;-1226.000; -985.000
311.711;  -70.075; -595.000; -433.000
311.848;  -43.050; -380.000; -388.000
311.985;    1.525;  270.000;   93.000
312.122; -124.075; -932.000; -762.000
312.259; -123.350; -941.000; -994.000
312.396;  -76.600; -508.000; -551.000
312.533;  -76.575; -812.000; -790.000
312.670; -132.775;-1070.000; -898.000
312.807;  -40.250; -352.000; -367.000
312.944;  -73.400; -513.000; -611.000
313.081;  -32.575; -150.000; -415.000
313.218;  -90.675;-1111.000; -867.000
313.355;  -23.050; -531.000; -449.000
313.492;  -24.850; -455.000; -292.000
313.629;  123.550;  815.000;  735.000
313.766; -150.325;-1176.000;-1008.000
313.902;  -16.025; -186.000;   21.000
314.039;  -56.500; -372.000; -289.000
314.176;   17.200;  286.000;  192.000
314.313;  -80.850; -569.000; -473.000
314.450;  -99.025; -788.000; -684.000
314.587;  -71.350; -468.000; -480.000
314.723;   13.225;  -78.000;  130.000
314.860;   19.875;  318.000;  332.000
314.997;   19.550;  223.000;  142.000
315.134;  -39.975; -385.000; -368.000
315.270;  -24.950; -480.000; -496.000
315.407; -115.350;-1094.000; -967.000
315.544;  -43.650; -657.000; -538.000
315.681;  -80.900; -681.000; -565.000
315.817;   32.600; -133.000; -176.000
315.954;   30.900; -613.000; -392.000
316.091; -129.450;-1045.000;-1023.000
316.227;  -32.250;  -71.000; -179.000
316.364;   -7.300;   23.000;    6.000
316.500;  -46.250; -113.000; -300.000
316.637;  -48.575; -181.000; -302.000
316.774;  -88.700; -625.000; -358.000
316.910;  -91.825; -598.000; -629.000
317.047;  -77.375; -487.000; -351.000
317.183;  -58.775; -435.000; -566.000
317.320;   24.550; -367.000; -321.000
317.456;  -39.425; -733.000; -805.000
317.593;  -95.725; -598.000; -641.000
317.729;   -5.475;  168.000;  -67.000
317.866; -205.675;-1434.000;-1285.000
318.002;  -89.700; -708.000; -948.000
318.139; -136.525; -883.000; -867.000
318.275; -106.775;-1003.000; -738.000
318.412;  -74.675; -517.000; -336.000
318.548;  -68.775; -751.000; -720.000
318.685; -113.725; -985.000; -888.000
318.821;  -96.700; -762.000; -735.000
318.957;  -32.425;   34.000;  -23.000
319.094;   26.350;  297.000;  154.000
319.230;  -99.875; -756.000; -742.000
319.367;   -6.250; -471.000; -520.000
319.503;  -37.675; -538.000; -436.000
319.639; -111.975; -877.000; -793.000
319.775; -103.075; -750.000; -685.000
319.912;  -76.775; -424.000; -519.000
320.048; -115.675;-1184.000;-1184.000
320.184;   85.975;   59.000;   70.000
320.321;  -75.150; -497.000; -467.000
320.457;   59.600;  475.000;  662.000
320.593;  -76.175; -375.000; -382.000
320.729; -102.225; -732.000; -734.000
320.866;  -69.825; -577.000; -635.000
321.002;  -97.425; -759.000; -809.000
321.138;  -48.825; -135.000; -211.000
321.274;   -6.900; -148.000; -115.000
321.410;  -72.850; -585.000; -353.000
321.546; -117.150;-1011.000; -911.000
321.683;    7.025;  400.000;  185.000
321.819;  -22.125;  -48.000; -117.000
321.955; -128.725; -743.000; -722.000
322.091;  -70.475; -585.000; -540.000
322.227;  -54.200; -382.000; -202.000
322.363;  -61.825; -320.000; -215.000
322.499;  -60.350; -343.000; -331.000
322.635;   98.250;  636.000;  443.000
322.771;  -24.550; -139.000;   12.000
322.907;   31.550;  129.000;  327.000
323.043;  -45.225; -115.000; -206.000
323.179;  -50.450; -394.000; -363.000
323.315;  -48.950; -401.000; -371.000
323.451;    5.275; -328.000; -236.000
323.587;   41.375;  -60.000;  -77.000
323.723;  -62.275; -682.000; -601.000
323.859;  -37.650; -258.000;  -76.000
323.995;  -53.450; -467.000; -409.000
324.131; -144.125; -967.000; -892.000
324.267;  -51.925; -254.000; -276.000
324.402; -135.900; -960.000; -983.000
324.538;  -58.475; -279.000; -104.000
324.674;  -11.550;  164.000;   77.000
324.810;   32.775;  226.000;  308.000
324.946;  -64.050; -810.000; -658.000
325.082;  -79.950; -568.000; -475.000
325.217;  -31.050;  -62.000;   16.000
325.353; -106.200; -764.000; -659.000
325.489; -100.800; -540.000; -506.000
325.625;  -93.200; -579.000; -525.000
325.760;   63.750;  517.000;  376.000
325.896;   19.800; -515.000; -702.000
326.032;  -58.500; -403.000; -352.000
326.168;  -76.650; -462.000; -369.000
326.303;  -73.725; -352.000; -461.000
326.439;  -17.400; -336.000; -276.000
326.575;  -12.800; -190.000;  -29.000
326.710;  -24.375; -156.000;  -30.000
326.846;  -26.800;  146.000;  103.000
326.982;  -91.575; -530.000; -548.000
327.117;  -77.925; -481.000; -442.000
327.253;  -87.925; -745.000; -742.000
327.388; -159.525;-1137.000;-1153.000
327.524;  -85.500; -811.000; -578.000
327.659;  -29.050;  -58.000;  -22.000
327.795;  -14.675;   69.000;   45.000
327.931;  -94.950; -723.000; -499.000
328.066;  -27.950; -417.000; -276.000
328.202;  -32.150;   12.000; -129.000
328.337;   73.150;  957.000;  713.000
328.473;   11.975;  -12.000;  -74.000
328.608;  -36.950; -256.000; -267.000
328.743; -116.625; -799.000; -664.000
328.879;   -4.050;  214.000;  114.000
329.014;  -40.375; -102.000; -122.000
329.150;  -84.850; -358.000; -483.000
329.285;  -88.150; -465.000; -466.000
329.421;  -64.400; -548.000; -246.000
329.556;  -21.225;  -36.000;   85.000
329.691;  -99.300; -633.000; -615.000
329.827;  -84.125; -626.000; -480.000
329.962;  -36.575;  131.000; -301.000
330.097;  -75.375; -673.000; -585.000
330.233;  -68.425; -410.000; -223.000
330.368; -128.125; -839.000; -628.000
330.503;  -12.725;    3.000;   98.000
330.638;  -30.950;  -93.000; -125.000
330.774;  -91.150; -609.000; -530.000
330.909;  -51.575; -434.000; -244.000
331.044; -108.700; -714.000; -708.000
331.179; -170.500;-1217.000;-1109.000
331.315;   -2.450;   77.000;   20.000
331.450;    9.150;  157.000;  285.000
331.585;  -93.100; -805.000; -706.000
331.720;  -96.000; -510.000; -460.000
331.855;  -22.025;  -35.000; -102.000
331.990;  402.550;   62.000;  138.000
332.126;  207.925; -110.000;   71.000
332.261;   -3.475; -379.000; -265.000
332.396;    1.175; -135.000; -242.000
332.531;  -60.250;-1074.000;-1031.000
332.666;   93.000; -519.000; -363.000
332.801;  -87.050; -726.000; -807.000
332.936;  -30.500; -192.000; -122.000
333.071; -139.950; -870.000; -817.000
333.206;    1.700;  307.000;  379.000
333.341;   -2.325;  344.000;  418.000
333.476;  -99.050; -627.000; -623.000
333.611;  -46.500; -251.000; -173.000
333.746;  -54.175; -381.000; -464.000
333.881; -136.175; -973.000; -935.000
334.016; -129.550; -936.000; -917.000
334.151; -119.425; -746.000; -702.000
334.286;   -6.575;  152.000;  186.000
334.421;  -35.575; -125.000; -178.000
334.556;  -82.950; -611.000; -567.000
334.690;  -95.625; -631.000; -577.000
334.825;   36.575;  381.000;   83.000
334.960;  -72.425; -285.000; -413.000
335.095;   -7.325;  135.000;  -91.000
335.230; -100.375; -722.000; -738.000
335.365; -143.725;-1084.000; -990.000
335.499; -141.900;-1108.000;-1037.000
335.634;    7.925;    9.000;  534.000
335.769; -102.250; -755.000; -720.000
335.904;  -49.950; -603.000; -561.000
336.038;  -47.525; -735.000; -657.000
336.173; -118.350;-1206.000;-1194.000
336.308;    3.200; -116.000; -189.000
336.443;   48.100; -544.000; -634.000
336.577;  -54.475; -936.000; -787.000
336.712;   61.800;   -4.000;  -12.000
336.847;  -33.200; -724.000; -607.000
336.981;   50.850; -272.000; -208.000
337.116;  262.375;  615.000;  501.000
337.250;  114.950; -434.000; -421.000
337.385;  469.700; -297.000; -208.000
337.520;  233.725; -632.000; -603.000
337.654;  -36.625; -215.000; -126.000
337.789; -140.500; -989.000; -933.000
337.923;  -46.250; -104.000; -205.000
338.058; -103.200; -673.000; -738.000
338.192;  -77.475; -611.000; -488.000
338.327;  -27.300;  -18.000; -155.000
338.461;  -62.450; -299.000; -469.000
338.596;  -93.850; -780.000; -638.000
338.730;  -88.250; -767.000; -803.000
338.865;  148.500;  -46.000; -140.000
338.999;    2.425; -846.000; -702.000
339.134;   -2.400; -634.000; -536.000
339.268;   18.225; -741.000; -603.000
339.403;  560.175; -740.000; -775.000
339.537;  264.500; -894.000; -820.000
339.671;  -91.200; -829.000; -813.000
339.806;  -37.275; -556.000; -512.000
339.940;   39.025; -261.000; -235.000
340.074;  -95.250; -685.000; -510.000
340.209;  -64.350; -351.000; -230.000
340.343;  -99.775; -517.000; -573.000
340.477;  115.600;  998.000; 1036.000
340.612;    7.850;-1033.000; -900.000
340.746;  249.600; -199.000; -243.000
340.880; -105.850; -924.000; -785.000
341.014;  -27.775;  -45.000; -154.000
341.149; -128.650; -756.000; -718.000
341.283; -117.750; -839.000; -754.000
341.417; -149.625;-1124.000; -938.000
341.551;  -48.675; -768.000; -708.000
341.685;  -79.875; -633.000; -611.000
341.820;  -58.250; -562.000; -493.000
341.954;  -64.150; -218.000; -349.000
342.088; -157.050;-1102.000;-1019.000
342.222;   33.100;  565.000;  618.000
342.356;  -86.500; -395.000; -335.000
342.490; -127.475; -880.000; -841.000
342.624;  -66.775; -339.000; -242.000
342.758;  -69.475; -364.000; -312.000
342.892;  -95.175; -710.000; -585.000
343.026;  -56.875;  -58.000; -116.000
343.160;  -66.525; -426.000; -376.000
343.294;  -96.825; -474.000; -337.000
343.428;  -78.450; -488.000; -448.000
343.562;  -44.525; -172.000;  -23.000
343.696;  -65.625; -385.000; -314.000
343.830;  -63.875; -362.000; -356.000
343.964;  -34.375; -231.000; -168.000
344.098;  273.775;  199.000;   70.000
344.232;  215.700; -266.000; -127.000
344.366;   64.225; -567.000; -453.000
344.500;  -39.775; -665.000; -744.000
344.634;  -42.250; -324.000; -164.000
344.768;  -77.175; -531.000; -341.000
344.902;   10.150;  278.000;  256.000
345.035;  -90.125; -556.000; -496.000
345.169; -147.575; -933.000; -656.000
345.303;  -50.250; -308.000; -482.000
345.437; -117.050; -826.000; -717.000
345.571;  -61.625; -675.000; -594.000
345.704;  -79.650; -309.000; -532.000
345.838;  -28.650; -331.000; -284.000
345.972;  -70.075; -543.000; -495.000
346.106;  238.250; -179.000; -190.000
346.239;  455.175; -312.000; -243.000
346.373;  -14.575; -343.000; -302.000
346.507; -143.875; -950.000; -962.000
346.640;   30.900;  -30.000;   13.000
346.774; -115.200; -650.000; -797.000
346.908;  -31.900; -138.000;  -11.000
347.041; -121.475; -646.000; -593.000
347.175;  -11.925;  259.000;   27.000
347.309; -108.275; -698.000; -628.000
347.442; -137.200; -883.000; -732.000
347.576;  116.525;  670.000;  668.000
347.709;   42.150; -123.000;  -52.000
347.843; -127.650; -933.000; -825.000
347.976;    7.925;  235.000;  294.000
348.110; -175.725;-1268.000;-1186.000
348.243; -115.500; -679.000; -772.000
348.377;    6.150;  -26.000;   60.000
348.510;   34.600;  403.000;  540.000
348.644;  -57.625;  -37.000; -159.000
348.777;  -19.400;  180.000;  191.000
348.911;  -56.625; -142.000; -112.000
349.044;   83.350;  471.000;  448.000
349.178;  -46.450;-1069.000;-1006.000
349.311;   92.700;  141.000;  255.000
349.444;   29.300; -927.000; -813.000
349.578;  -46.825; -347.000; -200.000
349.711; -144.450; -959.000; -862.000
349.845;  -76.775; -661.000; -591.000
349.978; -170.050;-1224.000;-1137.000
350.111;  -92.275; -546.000; -612.000
350.244; -114.800; -596.000; -700.000
350.378;  -51.375; -392.000; -393.000
350.511;  -74.325; -393.000; -426.000
350.644; -109.075; -808.000; -806.000
350.778;   -4.925;  168.000;  104.000
350.911;  -14.050;  134.000;  140.000
351.044; -104.450; -685.000; -615.000
351.177;  -39.050; -321.000; -281.000
351.310;  -46.200;    3.000; -131.000
351.444; -135.475; -888.000; -788.000
351.577;   25.150;  140.000;   90.000
351.710;   55.800;  593.000;  417.000
351.843;  -42.600; -165.000;  -77.000
351.976;  -24.275;  149.000;  -79.000
352.109; -105.225; -621.000; -612.000
352.242;  -69.175; -464.000; -419.000
352.376;  -99.875; -580.000; -636.000
352.509;   -0.675; -437.000; -356.000
352.642;  -95.525; -654.000; -604.000
352.775;    3.475; -141.000;  -98.000
352.908; -138.850; -933.000; -904.000
353.041; -121.475; -814.000; -824.000
353.174;  -60.650; -551.000; -424.000
353.307;  -92.025; -753.000; -764.000
353.440;   44.775;  541.000;  453.000
353.573; -110.525; -957.000;-1008.000
353.706;  -56.475; -384.000; -558.000
353.839;  -46.175; -264.000; -220.000
353.971;  -95.150; -657.000; -512.000
354.104; -120.225; -896.000; -835.000
354.237;  -85.525; -627.000; -662.000
354.370; -115.875; -846.000; -879.000
354.503; -174.925;-1231.000;-1308.000
354.636;  -42.750; -529.000; -348.000
354.769; -139.550; -937.000; -860.000
354.902;  -33.825; -230.000; -139.000
355.034;  -27.250; -164.000; -220.000
355.167;  -18.275; -262.000; -162.000
355.300;  -68.075;-1061.000; -880.000
355.433; 1429.800;  -71.000;  -14.000
355.565; 2239.025; -402.000; -384.000
355.698;  589.400; -356.000; -296.000
355.831;  -22.000; -882.000; -801.000
355.964;    8.500; -285.000; -170.000
356.096;  -95.700; -856.000; -843.000
356.229;   -7.825; -523.000; -530.000
356.362;  498.975; -373.000; -266.000
356.494;  918.175; -229.000; -162.000
356.627;  315.225;  269.000;  377.000
356.760;  889.100;  120.000;   53.000
356.892; 1501.400; -286.000; -601.000
357.025;  314.950;  403.000;  389.000
357.157;  207.425; -167.000; -179.000
357.290; 1236.575; -856.000; -713.000
357.423;  367.475; -667.000; -556.000
357.555;   85.275; -217.000; -228.000
357.688;  103.900; -483.000; -364.000
357.820;  139.800; -870.000; -877.000
357.953; 1451.525; -563.000; -589.000
358.085;  198.125; -632.000; -612.000
358.218;   90.975;-1131.000; -932.000
358.350;   38.400;  -58.000;  312.000
358.483; -162.825;-1300.000;-1187.000
358.615; -142.475;-1182.000;-1078.000
358.747; -161.225;-1187.000;-1058.000
358.880;  -54.025; -810.000; -744.000
359.012;  -45.575; -376.000; -202.000
359.145;  -63.525; -480.000; -511.000
359.277;  -74.600; -962.000; -913.000
359.409; 1211.825;  536.000;  231.000
359.542;  251.925; -738.000; -688.000
359.674;   11.325;   46.000;   13.000
359.806;  -82.550; -565.000; -438.000
359.939;  -43.075; -617.000; -516.000
360.071;   32.750; -583.000; -579.000
360.203;  -35.975; -411.000; -364.000
360.335;    8.050;  164.000;  -16.000
360.468;   71.650; -249.000; -307.000
360.600; 1306.950; -547.000; -454.000
360.732; 4276.575; -546.000; -423.000
360.864;  669.575;-1216.000;-1044.000
360.996;   52.725; -516.000; -554.000
361.129;  -62.900; -389.000; -598.000
361.261;   -4.425;  110.000; -113.000
361.393;  -65.375; -252.000; -214.000
361.525;  -15.500;   94.000;  244.000
361.657; -115.150; -821.000; -703.000
361.789;  -34.700; -139.000; -155.000
361.921;  -57.125; -642.000; -593.000
362.053;   88.650;  524.000;  541.000
362.185;   -8.450;  288.000;   72.000
362.318; -119.450; -709.000; -705.000
362.450;   21.925;  294.000;  444.000
362.582;  -88.225; -913.000; -870.000
362.714;  -70.050; -353.000; -332.000
362.846;  -95.100; -606.000; -490.000
362.978; -134.900; -941.000; -811.000
363.109;  -31.425; -161.000; -260.000
363.241;  133.150; -739.000; -749.000
363.373;  615.700; -649.000; -564.000
363.505; 1027.700; -186.000;  -91.000
363.637;  228.525; -787.000; -601.000
363.769; -147.850;-1067.000;-1080.000
363.901;  -90.825; -596.000; -654.000
364.033; -145.900;-1103.000;-1062.000
364.165;  -39.750; -283.000; -283.000
364.296;   83.925; -316.000; -177.000
364.428;  195.400;-1344.000;-1220.000
364.560;  -66.900; -679.000; -661.000
364.692;  -84.725; -738.000; -835.000
364.824;   -7.400; -588.000; -456.000
364.955;  506.800; -402.000; -564.000
365.087; 1718.725;-1097.000; -852.000
365.219;  112.825; -686.000; -816.000
365.351;  -82.350; -526.000; -572.000
365.482;   17.775;  300.000;  240.000
365.614;  -85.725; -402.000; -314.000
365.746; -106.825; -729.000; -752.000
365.877; -101.350; -706.000; -672.000
366.009;  423.975;  -35.000;  -62.000
366.141;  -28.775;-1249.000;-1134.000
366.272; -120.100; -803.000; -719.000
366.404; -135.850;-1005.000; -874.000
366.535;  -31.225; -139.000;  -12.000
366.667; -113.975; -644.000; -649.000
366.799;   22.125;  353.000;  203.000
366.930; -140.500; -862.000; -996.000
367.062;  179.750; -639.000; -613.000
367.193;  339.025; -872.000; -842.000
367.325;  -51.050; -580.000; -684.000
367.456;  -16.875; -246.000;   31.000
367.588;  263.300; -371.000; -318.000
367.719;   39.675;  -44.000;  -45.000
367.851;  -55.850; -222.000; -241.000
367.982; -122.025; -875.000; -732.000
368.113;  -35.525; -475.000; -358.000
368.245; -153.225; -960.000; -841.000
368.376;  -51.250; -254.000; -302.000
368.508;  -70.125; -188.000; -263.000
368.639; -147.725;-1166.000;-1034.000
368.770; -104.250; -670.000; -589.000
368.902; -129.050; -836.000; -926.000
369.033; -129.875; -906.000; -855.000
369.164;  -49.950; -720.000; -653.000
369.296; -116.100; -452.000; -601.000
369.427;  -47.150; -209.000; -144.000
369.558;  -86.000; -593.000; -377.000
369.689;  -92.825; -721.000; -569.000
369.821; -148.950; -951.000; -845.000
369.952;  -31.325;   42.000; -108.000
370.083;  -60.625; -229.000; -108.000
370.214; -101.800; -735.000; -650.000
370.345;  -24.850;   65.000;   81.000
370.477; -124.775; -810.000; -790.000
370.608;   20.600; -328.000; -264.000
370.739; -137.175;-1233.000;-1292.000
370.870; -123.750;-1102.000; -923.000
371.001;  -37.950; -378.000; -467.000
371.132; -107.800; -754.000; -735.000
371.263;  -38.625;  -42.000; -148.000
371.394; -138.375; -841.000; -748.000
371.525;    8.850;  345.000;  225.000
371.657; -120.275; -808.000; -670.000
371.788;   16.475;  103.000;  199.000
371.919;   -5.925; -384.000; -304.000
372.050; 1219.800;  -91.000; -156.000
372.181;  351.175; -188.000; -294.000
372.311;  100.025;   42.000; -127.000
372.442;  -69.725; -457.000; -451.000
372.573;  -68.175; -444.000; -340.000
372.704; -160.375;-1008.000; -980.000
372.835;  -40.025; -228.000; -289.000
372.966; -107.475; -646.000; -554.000
373.097; -108.100; -575.000; -711.000
373.228;  -92.900; -717.000; -542.000
373.359;  -61.150; -824.000; -536.000
373.490;  148.125; -881.000; -727.000
373.620;  240.675;-1001.000; -803.000
373.751;  488.150; -332.000; -396.000
373.882;  181.550; -663.000; -733.000
374.013;  -44.450; -449.000; -262.000
374.143;  -82.475; -581.000; -659.000
374.274; -132.050; -987.000; -908.000
374.405;   44.450; -388.000; -276.000
374.536;   84.175; -526.000; -387.000
374.666;  244.800; -759.000; -807.000
374.797;  -14.200; -817.000; -868.000
374.928;  160.425; -710.000; -560.000
375.058;  150.075; -535.000; -500.000
375.189;   -2.300;  -59.000;  -93.000
375.320; -132.300; -928.000;-1034.000
375.450;  -67.300; -625.000; -616.000
375.581;  -47.225; -526.000; -436.000
375.712;  -51.750; -574.000; -250.000
375.842;  -10.925; -438.000; -415.000
375.973;  -19.225; -554.000; -513.000
376.103; -110.500; -665.000; -648.000
376.234; -111.975; -531.000; -552.000
376.364; -136.500; -944.000; -867.000
376.495;  127.225;  925.000;  529.000
376.625;  -86.225; -472.000; -485.000
376.756;  -78.525; -709.000; -678.000
376.886; -151.400;-1178.000;-1026.000
377.017;  149.675;-1048.000;-1061.000
377.147;  633.475; -786.000; -782.000
377.278;   67.750;  174.000;  228.000
377.408; -121.325; -801.000; -815.000
377.538; -102.550; -707.000; -693.000
377.669;  -89.625; -537.000; -613.000
377.799; -108.700; -645.000; -635.000
377.929; -110.600; -610.000; -428.000
378.060; -136.900; -781.000; -847.000
378.190;  -36.400; -726.000; -531.000
378.320;  -52.925; -401.000; -406.000
378.451;  -25.050; -131.000;  -22.000
378.581;  -44.300;  -67.000; -110.000
378.711;   72.850; 1035.000;  866.000
378.841;  -84.800; -533.000; -675.000
378.972; -133.225; -871.000; -751.000
379.102;  -90.100; -652.000; -579.000
379.232;  -57.500; -126.000;  -73.000
379.362; -130.275;-1001.000; -885.000
379.492;  -70.375; -373.000; -424.000
379.623;   31.375;    0.000;  111.000
379.753; -128.200;-1107.000; -974.000
379.883;   70.750;   59.000;  156.000
380.013; -109.325;-1081.000;-1017.000
380.143; -136.400;-1097.000;-1056.000
380.273; -114.725; -985.000; -861.000
380.403;  -14.175; -344.000; -257.000
380.533;  -49.550; -651.000; -664.000
380.663;    5.375;  173.000;  128.000
380.793; -159.775;-1027.000;-1074.000
380.923;  -43.225; -103.000;  -34.000
381.053; -113.325; -613.000; -623.000
381.183;  -57.925; -106.000; -248.000
381.313;  -70.875; -656.000; -470.000
381.443;  -69.600; -692.000; -473.000
381.573;  -43.800; -402.000; -409.000
381.703;  -97.650;-1249.000;-1095.000
381.833; -195.350;-1454.000;-1336.000
381.963;   17.500; -134.000;  -87.000
382.093;  368.275; -925.000; -909.000
382.223;   73.500; -713.000; -602.000
382.353; -100.550; -801.000; -608.000
382.482;   -6.325;-1091.000; -964.000
382.612;  163.150; -872.000; -644.000
382.742;   42.775; -695.000; -622.000
382.872;  -27.625; -565.000; -551.000
383.002;    7.500;  347.000; -132.000
383.131;  -49.400; -226.000; -160.000
383.261;  -41.850; -706.000; -768.000
383.391;  335.625; -552.000; -377.000
383.521; 5100.500;  451.000;  263.000
383.650; 1509.225; -947.000; -904.000
383.780;   37.025; -783.000; -656.000
383.910;   83.325;  880.000;  802.000
384.039;  -86.700; -794.000; -656.000
384.169; -105.575;-1205.000;-1017.000
384.299;  -95.025; -650.000; -662.000
384.428; -114.150; -764.000; -680.000
384.558;  -61.425; -308.000; -275.000
384.687;  -86.675; -414.000; -334.000
384.817;  -25.400;   75.000;   -2.000
384.947;  -32.300; -234.000; -141.000
385.076;  124.050;  982.000;  912.000
385.206;   39.425;  369.000;  480.000
385.335;  -72.600; -549.000; -417.000
385.465; -115.525; -655.000; -663.000
385.594;   -3.025;  -53.000;  -44.000
385.724;    8.625; -868.000; -838.000
385.853;  -28.600; -296.000; -270.000
385.982;  321.250; -743.000; -787.000
386.112;  626.275;-1052.000; -871.000
386.241;    1.250; -307.000; -312.000
386.371;  -24.200; -174.000;  -87.000
386.500;  -60.100; -825.000; -789.000
386.629;  -23.950; -874.000; -817.000
386.759;   67.000;  -43.000;   68.000
386.888;  -37.225; -170.000; -250.000
387.017; -114.975; -648.000; -620.000
387.147; -115.700; -771.000; -798.000
387.276;  -75.275; -410.000; -397.000
387.405;  -59.100; -398.000; -342.000
387.535;  -87.575; -452.000; -361.000
387.664;  -69.900; -692.000; -620.000
387.793;  -29.400; -198.000; -113.000
387.922;  136.375;  255.000;  200.000
388.052;  -77.150; -576.000; -423.000
388.181;  -67.600; -342.000; -472.000
388.310; -101.400; -889.000; -710.000
388.439; -118.200; -749.000; -742.000
388.568;   30.350;  365.000;  244.000
388.697;  219.675; -756.000; -653.000
388.826;  -18.600; -768.000; -666.000
388.956;  -50.100; -285.000; -307.000
389.085;  -63.575; -347.000; -287.000
389.214; -114.150; -842.000; -872.000
389.343;  -73.550; -645.000; -413.000
389.472;  538.150;  126.000;  149.000
389.601;  615.625;   91.000;    0.000
389.730;  -30.375; -568.000; -687.000
389.859;   17.300;  226.000;   46.000
389.988;   26.950; -423.000; -408.000
390.117;   19.225; -168.000; -146.000
390.246;  -69.425; -331.000; -320.000
390.375;  -65.200; -673.000; -626.000
390.504; -106.125; -703.000; -621.000
390.633; -133.075; -672.000; -726.000
390.761; -101.350; -732.000; -645.000
390.890;  -53.775;   -4.000; -130.000
391.019;  -79.150; -421.000; -441.000
391.148; -145.050; -826.000; -855.000
391.277;  -99.100; -576.000; -493.000
391.406; -126.225; -821.000; -805.000
391.534;    1.325;  574.000; -301.000
391.663; -104.475; -583.000; -645.000
391.792; -109.400; -673.000; -701.000
391.921;  -27.975;   -3.000;   15.000
392.050;  -17.050; -287.000; -228.000
392.178; -142.275;-1206.000;-1061.000
392.307;  -54.275; -758.000; -712.000
392.436;  -66.400; -427.000; -641.000
392.564;  -11.775;  166.000;   -6.000
392.693; -109.575; -860.000; -682.000
392.822;   -1.575; -529.000; -534.000
392.950;  -74.475; -880.000; -714.000
393.079;   52.475; -188.000; -328.000
393.208;  -67.875; -488.000; -511.000
393.336;  -40.850; -170.000; -145.000
393.465;  -77.725; -317.000; -199.000
393.593;   -0.600;   62.000;   79.000
393.722; -168.775;-1121.000; -916.000
393.850;  -36.225; -188.000;  -61.000
393.979; -152.775; -926.000; -805.000
394.107;  -86.125; -517.000; -537.000
394.236;  -64.000; -570.000; -507.000
394.364;   81.875;  383.000;  206.000
394.493;   48.750; -911.000; -767.000
394.621;  -11.975; -955.000; -916.000
394.750; 1127.575; -873.000; -923.000
394.878; 4410.275; -247.000; -149.000
395.007; 6390.650; -721.000; -807.000
395.135;  571.800; -790.000; -721.000
395.263;  -75.525;-1038.000;-1040.000
395.392;  -22.750;  -25.000; -107.000
395.520; -126.825; -818.000; -679.000
395.648; -135.375; -865.000; -915.000
395.777;  -61.525; -366.000; -405.000
395.905;  -81.550; -449.000; -564.000
396.033;  -19.725;  217.000;  172.000
396.162;   91.425; -399.000; -453.000
396.290;  104.675;  -17.000;   -2.000
396.418;  -57.575; -555.000; -514.000
396.546; -114.100; -571.000; -466.000
396.674; -128.950; -850.000; -878.000
396.803;  -43.850;  -72.000;  -23.000
396.931;  -43.000; -179.000; -199.000
397.059; -143.250;-1026.000; -989.000
397.187; -148.800;-1026.000; -975.000
397.315; -164.150; -884.000; -649.000
397.443;  -95.825; -592.000; -443.000
397.572; -110.075; -578.000; -424.000
397.700; -107.575; -607.000; -614.000
397.828;  -49.500;  120.000;  -90.000
397.956;  -49.225; -508.000; -478.000
398.084;  -32.125; -767.000; -626.000
398.212;   -2.150;  137.000;  124.000
398.340;  -44.650;  -56.000;  159.000
398.468;  -62.100; -390.000; -169.000
398.596; -150.800; -993.000; -953.000
398.724; -150.625; -762.000; -767.000
398.852; -161.475;-1024.000; -976.000
398.980;  -92.700; -560.000; -560.000
399.108; -105.350; -982.000; -735.000
399.236;  -20.900;   13.000;    8.000
399.363;  -20.850;  222.000;  196.000
399.491;  -81.925; -404.000; -398.000
399.619; -133.700; -829.000; -800.000
399.747; -108.200; -859.000; -771.000
399.875;   17.225;  220.000;  234.000
400.003;  -74.200; -359.000; -284.000
400.130; -104.625; -421.000; -341.000
400.258;  -46.925;  -83.000;   38.000
400.386;  -92.000; -352.000; -168.000
400.514; -105.675; -526.000; -587.000
400.641; -156.650; -928.000; -802.000
400.769; -157.900; -979.000; -888.000
400.897; -153.375; -838.000; -793.000
401.025;  -44.250; -166.000; -152.000
401.152;  -29.400;  220.000;   38.000
401.280;  -88.675; -430.000; -429.000
401.408; -129.675; -712.000; -576.000
401.535; -127.575; -735.000; -758.000
401.663; -193.000;-1134.000;-1054.000
401.790;  -90.200; -514.000; -525.000
401.918;   13.650;  436.000;  405.000
402.046;  -39.675;  134.000;  122.000
402.173;  -51.075;  -18.000;    7.000
402.301;  -87.825; -519.000; -397.000
402.428;    6.175;  528.000;  383.000
402.556; -158.850;-1188.000; -913.000
402.683;  -46.575;  -20.000;   -1.000
402.811;  -29.700;  -37.000; -206.000
402.938;  -30.350;   20.000;   27.000
403.066;  -19.650; -574.000; -558.000
403.193;   86.425;  299.000;  239.000
403.321;   35.950; -396.000; -574.000
403.448;  100.000;   83.000;   27.000
403.575;   28.600;  -90.000;  -46.000
403.703; -104.775; -732.000; -557.000
403.830;  -69.200; -531.000; -496.000
403.957; -136.175;-1117.000;-1023.000
404.085;   15.400;  -61.000; -172.000
404.212;  106.100;  -50.000;   63.000
404.339;  408.675; -566.000; -306.000
404.467; 8930.900; -612.000; -524.000
404.594; 5460.875; -287.000; -227.000
404.721;  916.100; -869.000; -764.000
404.848;   77.675; -113.000; -202.000
404.976; -112.750; -856.000; -783.000
405.103;  -10.175;  -14.000;  -82.000
405.230;   -7.025;  190.000;  226.000
405.357;   32.675;  117.000;   44.000
405.484;  405.625;  -49.000;    5.000
405.612;   99.375; -548.000; -563.000
405.739;  -58.225; -488.000; -243.000
405.866;   58.875;  669.000;  385.000
405.993;  -73.900; -398.000; -102.000
406.120; -141.600; -801.000; -887.000
406.247; -101.175; -323.000; -342.000
406.374;   85.575;  540.000;  629.000
406.501;  -90.300; -632.000; -702.000
406.628;  -88.450; -621.000; -589.000
406.755; -123.100; -803.000; -620.000
406.882;  -71.425; -228.000; -277.000
407.009; -117.975; -719.000; -628.000
407.136;  -56.100; -480.000; -401.000
407.263;  -75.825; -939.000; -829.000
407.390; -108.375; -692.000; -614.000
407.517; -191.450;-1139.000;-1187.000
407.644;  -81.575; -332.000; -256.000
407.771;  -73.600; -249.000; -287.000
407.898;  -19.625;  168.000;  328.000
408.025;  -98.525; -421.000; -313.000
408.151;  -10.675;   82.000;  153.000
408.278;  -80.875; -267.000; -216.000
408.405; -144.900; -931.000; -899.000
408.532;  -97.475; -549.000; -542.000
408.659; -126.000; -677.000; -648.000
408.785; -199.400;-1298.000;-1170.000
408.912;  -76.525; -412.000; -296.000
409.039; -118.075; -610.000; -686.000
409.166;  -98.925; -591.000; -555.000
409.292; -113.075; -571.000; -534.000
409.419; -133.125; -665.000; -649.000
409.546; -102.000; -431.000; -192.000
409.672; -126.825; -713.000; -545.000
409.799;  -37.050;  -36.000;   34.000
409.926;  -58.300; -180.000; -179.000
410.052; -194.875;-1127.000;-1091.000
410.179;  -92.050; -368.000; -392.000
410.305; -109.525; -375.000; -493.000
410.432;  -47.750; -220.000; -333.000
410.558; -102.850; -305.000; -380.000
410.685; -116.025; -688.000; -431.000
410.812; -114.875; -409.000; -588.000
410.938; -144.825; -964.000; -808.000
411.065; -114.325; -671.000; -645.000
411.191;  -43.625; -189.000; -174.000
411.317; -146.625; -823.000; -742.000
411.444;  -75.475; -317.000; -246.000
411.570;  -70.425; -339.000; -294.000
411.697; -143.500; -758.000; -752.000
411.823; -177.150; -989.000; -999.000
411.949;  -52.125;  -56.000;   17.000
412.076; -111.025; -539.000; -519.000
412.202; -126.450; -758.000; -757.000
412.329; -142.850; -798.000; -752.000
412.455; -139.000; -821.000; -657.000
412.581;  -39.200;  -15.000;  172.000
412.707;  -97.650; -540.000; -457.000
412.834;   -5.675;  156.000;  219.000
412.960; -100.100; -785.000; -784.000
413.086; -123.850; -743.000; -701.000
413.212;   80.975;  604.000;  578.000
413.339; -104.525; -685.000; -701.000
413.465;  -58.450; -364.000; -310.000
413.591; -113.700; -757.000; -474.000
413.717;  -70.175; -358.000; -366.000
413.843; -137.625; -839.000; -861.000
413.969;  -69.900;  -47.000; -292.000
414.096; -104.625; -679.000; -679.000
414.222;   -9.050;  -33.000;   85.000
414.348;  -91.525; -652.000; -385.000
414.474;    5.625;   38.000;  -52.000
414.600;  -31.850; -126.000; -144.000
414.726;  -15.250;  -96.000;  -55.000
414.852;  -46.650; -365.000; -342.000
414.978;   18.400;  104.000;  -18.000
415.104;   31.200;   38.000;   80.000
415.230;   27.575; -329.000; -330.000
415.356;   38.825; -409.000; -514.000
415.482;  227.450;   13.000;  -35.000
415.608;  376.400; -247.000; -323.000
415.734; 1323.100;   67.000;   38.000
415.860;27023.725; -875.000; -767.000
415.986;22285.450; -685.000; -607.000
416.111; 2073.100; -798.000; -652.000
416.237;  444.300; -424.000; -571.000
416.363; 1687.350; -765.000; -733.000
416.489; 6714.300; -324.000; -251.000
416.615;  915.800; -707.000; -742.000
416.741;   36.550; -677.000; -784.000
416.866;  -52.975; -673.000; -736.000
416.992; -102.975; -801.000; -818.000
417.118;  -40.350;  -41.000;  -80.000
417.244;  -84.900; -798.000; -531.000
417.369;  -94.125; -801.000; -612.000
417.495;  -21.875; -325.000; -254.000
417.621;  -98.950;-1015.000; -803.000
417.746;   -3.300; -579.000; -572.000
417.872;   48.975; -254.000; -144.000
417.998;  109.525; -515.000; -530.000
418.123; 1520.300;-1073.000; -845.000
418.249; 8464.600; -512.000; -601.000
418.374; 1420.450; -916.000; -824.000
418.500;  211.225; -383.000; -482.000
418.626;  162.000;   70.000;  -59.000
418.751;  157.250; -549.000; -448.000
418.877;  299.175; -637.000; -643.000
419.002; 2539.875; -688.000; -560.000
419.128;19337.275; -930.000; -721.000
419.253; 5476.250; -967.000; -837.000
419.379;  744.675; -391.000; -338.000
419.504;  584.150;  325.000;  415.000
419.629;  830.100; -393.000; -212.000
419.755; 5331.025; -317.000; -254.000
419.880;34582.725;  -98.000;   67.000
420.006;17413.875; -280.000; -221.000
420.131;43184.925; -662.000; -775.000
420.256; 6938.525; -315.000; -316.000
420.382;  950.575; -665.000; -687.000
420.507;  148.175; -649.000; -778.000
420.632;   55.325; -337.000; -339.000
420.758;   31.925; -251.000; -425.000
420.883;  -96.575; -876.000; -672.000
421.008; -115.125; -775.000; -619.000
421.133;  -99.400; -509.000; -467.000
421.259;  -65.425; -325.000; -259.000
421.384; -137.775; -834.000; -693.000
421.509; -132.600;-1052.000; -862.000
421.634;  128.575; -936.000; -820.000
421.759;   49.575; -359.000; -327.000
421.885; -103.650; -717.000; -656.000
422.010; -102.075; -673.000; -542.000
422.135; -168.375; -695.000; -727.000
422.260;   11.625;  340.000;  280.000
422.385;  -60.975;   12.000;  -98.000
422.510;   -8.950;  151.000;  -26.000
422.635;  -31.000;  -87.000;  -43.000
422.760;  -18.175; -766.000; -791.000
422.885;    0.775;  -57.000;  -80.000
423.010;  -36.700; -112.000; -169.000
423.135; -112.975; -481.000; -561.000
423.260;  -44.300; -150.000; -245.000
423.385;   -0.575;  476.000;  222.000
423.510;   -3.500;   71.000;  -22.000
423.635;   -0.175;  133.000;   45.000
423.760;   30.700;  383.000;  328.000
423.885;   20.900;  336.000;  391.000
424.010;   -3.750;  -68.000;  -13.000
424.135;  -27.425;    5.000;  -33.000
424.259;  -82.100; -654.000; -457.000
424.384;  -53.025; -279.000; -272.000
424.509;  -30.650; -260.000; -186.000
424.634;  -96.225; -761.000; -623.000
424.759;  -31.250; -688.000; -544.000
424.883;   -6.625; -506.000; -527.000
425.008;  197.575; -502.000; -410.000
425.133; 2825.925; -679.000; -653.000
425.258; 1550.725; -517.000; -381.000
425.382;  473.900; -867.000; -774.000
425.507; 1107.050; -487.000; -543.000
425.632;  377.800; -802.000; -663.000
425.756;  715.550; -256.000; -146.000
425.881;10107.125; -831.000; -857.000
426.006;31243.825; -604.000; -355.000
426.130; 5143.100; -696.000; -508.000
426.255;  694.125; -611.000; -491.000
426.379;  269.050; -189.000; -577.000
426.504;  492.825;  660.000;  544.000
426.629; 5555.725; -519.000; -466.000
426.753; 4323.975;   64.000;  -46.000
426.878;  533.300; -252.000; -288.000
427.002;  313.000; -651.000; -668.000
427.127; 2077.250;  -35.000; -158.000
427.251;17198.975;  372.000;  401.000
427.375; 5558.800; -191.000; -173.000
427.500; 1278.075; -616.000; -610.000
427.624;  363.850; -234.000; -400.000
427.749;   69.400; -216.000; -225.000
427.873;  -37.500; -499.000; -412.000
427.997;  -44.400; -222.000; -230.000
428.122;   36.850;  795.000;  703.000
428.246;   21.675;  433.000;  434.000
428.371; -139.000; -869.000; -773.000
428.495; -133.200; -624.000; -646.000
428.619;  -52.750; -186.000; -117.000
428.743;   -5.025;   65.000;  132.000
428.868;  -86.175; -732.000; -643.000
428.992;  440.150; -219.000; -326.000
429.116;  162.700; -329.000; -357.000
429.240;   90.825;  419.000;  426.000
429.365;  -59.075; -454.000; -574.000
429.489;  -65.125; -638.000; -647.000
429.613;   13.650; -236.000; -177.000
429.737;   78.575; -563.000; -432.000
429.861;  361.150; -247.000; -133.000
429.985; 7808.475; -425.000; -305.000
430.109; 9934.025; -770.000; -908.000
430.234; 1206.725;   76.000;  -50.000
430.358;  139.100; -250.000; -160.000
430.482;  -51.050; -672.000; -564.000
430.606;  -79.300; -655.000; -375.000
430.730;  -84.000; -437.000; -388.000
430.854; -105.475; -909.000; -835.000
430.978; -117.825; -795.000; -764.000
431.102; -104.225; -499.000; -422.000
431.226; -132.950; -874.000; -815.000
431.350;    7.550;  345.000;  422.000
431.474;  -90.525; -661.000; -373.000
431.597; -169.100;-1060.000; -848.000
431.721;  -88.850; -276.000; -267.000
431.845; -125.700; -704.000; -472.000
431.969;  -90.850; -304.000; -349.000
432.093;  -90.000; -395.000; -317.000
432.217;  -32.675;   32.000;   82.000
432.341;  -94.400; -523.000; -518.000
432.464;  -13.250;   96.000;   40.000
432.588;  -30.650; -401.000; -329.000
432.712;   13.975;  -52.000;  -52.000
432.836;   49.325;  213.000;  263.000
432.959;   23.475; -372.000; -311.000
433.083;  149.250;   11.000;    2.000
433.207;  561.425;  285.000;  930.000
433.330; 7580.750; -391.000; -200.000
433.454;10531.100; -654.000; -638.000
433.578; 5773.600;  583.000;  278.000
433.701; 1240.125; -623.000; -675.000
433.825;  126.050; -292.000; -299.000
433.949;   39.825;   28.000;  -72.000
434.072;  -40.150; -410.000; -323.000
434.196;   -7.800; -309.000; -117.000
434.319; 3539.575;25482.000;25124.000
434.443;  840.750; -656.000; -603.000
434.566; 4073.950;  281.000;   62.000
434.690;  866.300; -637.000; -383.000
434.813;  131.125; -251.000; -173.000
434.937;  -55.675; -569.000; -696.000
435.060;  -97.925; -423.000; -332.000
435.184;  -30.700; -492.000; -217.000
435.307;   -6.150;  159.000;  102.000
435.431;  -36.825;  -40.000;   24.000
435.554;  -93.700; -399.000; -240.000
435.677;  -92.375; -350.000; -258.000
435.801;  -61.900;  -25.000;   49.000
435.924;  -52.350;    1.000;  -67.000
436.048; -167.600;-1019.000; -732.000
436.171;  -88.650; -240.000;  -66.000
436.294;  -18.850; -248.000; -229.000
436.417;  219.025; -963.000; -849.000
436.541;  -37.425; -814.000; -840.000
436.664;  -57.875; -242.000; -316.000
436.787;  -30.000;   13.000;  113.000
436.910; -129.050; -792.000; -422.000
437.034;  -37.675;  142.000;  143.000
437.157;    3.250;  -11.000;    0.000
437.280;  -93.625; -392.000; -292.000
437.403; -150.525; -982.000; -869.000
437.526;  -23.500; -903.000; -865.000
437.649;  376.725; -505.000; -332.000
437.772;  -40.300; -692.000; -540.000
437.896;   48.275;  700.000;  544.000
438.019; -122.100; -758.000; -503.000
438.142; -120.850; -596.000; -506.000
438.265; -127.525; -639.000; -670.000
438.388;    7.025; -520.000; -410.000
438.511;  -88.050; -597.000; -394.000
438.634;  -81.300; -247.000; -125.000
438.757; -147.450; -693.000; -619.000
438.880;  -62.550;  -34.000;  -57.000
439.003;  -98.325; -417.000; -437.000
439.126;  -80.175; -287.000; -167.000
439.248;  -62.350;  -98.000; -139.000
439.371;  -61.825;    9.000;  -53.000
439.494;    3.850;  510.000;  439.000
439.617;  -63.725;   65.000;  -88.000
439.740; -186.125; -968.000; -816.000
439.863; -151.650; -755.000; -595.000
439.986; -133.050; -476.000; -431.000
440.108;  -53.350; -161.000; -112.000
440.231; -164.375; -950.000; -836.000
440.354;  -53.200;  -64.000; -150.000
440.477; -124.600; -566.000; -542.000
440.599;  -97.875; -200.000; -225.000
440.722; -125.950; -709.000; -586.000
440.845;   34.300;  751.000;  928.000
440.968; -121.925; -415.000; -311.000
441.090;  -75.575; -199.000;  -33.000
441.213; -171.575;-1021.000; -825.000
441.336;  -64.725; -159.000;   -5.000
441.458; -103.450; -549.000; -396.000
441.581; -140.950; -628.000; -629.000
441.703;  -75.850; -152.000;   13.000
441.826; -122.175; -557.000; -400.000
441.948;  -67.625;   56.000;   51.000
442.071;   -1.600;  555.000;  424.000
442.193; -138.000; -531.000; -485.000
442.316;   -2.475;  152.000;   97.000
442.438;   58.625; -233.000;  -10.000
442.561;   58.000;  272.000;  262.000
442.683;    9.850; -809.000; -522.000
442.806;  213.525;   -8.000;   74.000
442.928; -119.050; -859.000; -604.000
443.051; -101.950; -577.000; -373.000
443.173;  -95.025; -341.000; -339.000
443.295; -102.700; -263.000; -371.000
443.418;  -87.175; -321.000;  -29.000
443.540;  -49.600; -106.000;   -4.000
443.662; -141.375; -563.000; -465.000
443.785;  -26.325;  335.000;  199.000
443.907; -114.500; -362.000; -208.000
444.029; -147.450; -767.000; -494.000
444.152; -148.750; -644.000; -554.000
444.274;  -60.625;  -18.000;  -24.000
444.396; -119.050; -461.000; -221.000
444.518; -137.325; -691.000; -454.000
444.640; -111.900; -268.000; -111.000
444.763;  -36.550;  388.000;  249.000
444.885; -126.900; -432.000; -392.000
445.007;  -60.250;   35.000;   86.000
445.129; -146.700; -610.000; -515.000
445.251; -114.400; -372.000; -439.000
445.373; -155.250; -537.000; -386.000
445.495;   -7.600;  242.000;  350.000
445.617;   38.925;  853.000;  753.000
445.739;  -83.650; -215.000;  -97.000
445.861;  -63.725; -245.000; -112.000
445.984;  -74.850; -267.000; -101.000
446.105;  -38.500; -418.000; -251.000
446.227;   84.325; -176.000;  -19.000
446.349; -103.750; -358.000; -249.000
446.471; -136.850; -615.000; -448.000
446.593; -101.725; -316.000;   19.000
446.715;  -62.175;  -67.000;   41.000
446.837;   15.600;  697.000;  832.000
446.959; -120.925; -457.000; -478.000
447.081; -130.375; -628.000; -518.000
447.203;   40.925;  862.000;  834.000
447.325;  -96.850; -270.000;   42.000
447.446;  -21.650;  286.000;  530.000
447.568; -166.850; -921.000; -803.000
447.690;  -99.900; -236.000; -245.000
447.812; -160.075; -798.000; -519.000
447.933;  -43.050;  155.000;  127.000
448.055;  -87.675; -306.000; -261.000
448.177;    7.350;   31.000;   79.000
448.299; -112.450; -935.000; -727.000
448.420;  -21.350;  -25.000;  159.000
448.542;  -65.100;   -3.000;   33.000
448.664;  -36.875;  109.000;  322.000
448.785;  -53.725;  265.000;   83.000
448.907; -111.200; -614.000; -353.000
449.028; -126.925; -771.000; -471.000
449.150;   22.050;  492.000;  589.000
449.272; -177.225;-1044.000; -913.000
449.393;   12.975;  612.000;  694.000
449.515; -140.975; -634.000; -581.000
449.636;  -86.750; -264.000; -155.000
449.758;   26.725;  763.000;  622.000
449.879; -100.975; -498.000; -396.000
450.001;  -84.500; -149.000;  -49.000
450.122;  -52.875;  -95.000;  162.000
450.244;   -8.100;   37.000;  364.000
450.365;  -80.450; -495.000; -301.000
450.486;  -18.750;   80.000;  268.000
450.608;   20.950;  393.000;  326.000
450.729;   83.150;  578.000;  645.000
450.850;   83.325; -574.000; -466.000
450.972; 1199.225; -552.000; -389.000
451.093; 7959.675;  190.000;  588.000
451.214; 4095.175; -516.000; -337.000
451.336;  688.275;  773.000;  579.000
451.457;  110.200;  264.000;  393.000
451.578;  -42.300; -118.000;  -74.000
451.699; -124.925; -546.000; -540.000
451.821;  -56.075; -284.000;  -50.000
451.942;    3.200;  278.000;  285.000
452.063;   48.500;  228.000;  419.000
452.184;  793.050;  -54.000;  -49.000
452.305; 1747.875;  103.000;  170.000
452.427;  312.925; -549.000; -301.000
452.548;  -14.750;   23.000;   79.000
452.669;  -68.525; -257.000;  -89.000
452.790;  -61.850;    3.000;  -18.000
452.911;  -22.550;  195.000;  259.000
453.032;  -84.900; -289.000;  -60.000
453.153;  -75.450;  -29.000;   81.000
453.274;   40.450;  737.000;  868.000
453.395;  -68.725;  -51.000;  175.000
453.516;   41.025; 1317.000; 1388.000
453.637; -101.350; -205.000; -150.000
453.758;  -64.275;   15.000;   69.000
453.879; -112.975; -462.000; -250.000
454.000;   44.400; 1086.000;  948.000
454.121; -130.800; -554.000; -326.000
454.242; -127.575; -599.000; -383.000
454.362;  -58.125;  -99.000;  114.000
454.483;  -37.125; -309.000; -229.000
454.604;   44.125;  512.000;  580.000
454.725; -132.075; -627.000; -555.000
454.846; -136.000; -474.000; -406.000
454.967;  -44.925;  230.000;  539.000
455.087;  -59.300;  179.000;  153.000
455.208;    4.900;  554.000;  856.000
455.329;  -61.975;  -22.000;   82.000
455.450;   44.825;  473.000;  633.000
455.570;  -69.575; -234.000; -211.000
455.691;  -53.525;  201.000;  407.000
455.812; -117.625; -270.000;  -92.000
455.932;  -69.650;  107.000;  -97.000
456.053;  -93.550;   36.000;   24.000
456.173; -115.775; -433.000; -355.000
456.294; -122.925; -476.000; -303.000
456.415;  -73.800;  -73.000;   70.000
456.535;  -54.525;  297.000;  273.000
456.656;  -51.000;  132.000;  240.000
456.776;  -70.800;    3.000;  298.000
456.897;  -11.550;  308.000;  513.000
457.017;  -79.650; -153.000;   -3.000
457.138; -128.275; -402.000; -249.000
457.258;  -54.575;  263.000;  224.000
457.379;  -23.450;  509.000;  521.000
457.499;  -23.750;  443.000;  432.000
457.620; -112.500; -407.000; -231.000
457.740;  -99.200; -132.000;  -11.000
457.860;  -58.300;   87.000;   44.000
457.981;  -43.075;  132.000;  124.000
458.101;  -90.975;  -89.000;   40.000
458.221;  -22.150;  336.000;  402.000
458.342;  -59.600;   -4.000;  -37.000
458.462;   34.125;  617.000;  352.000
458.582;    9.225; -302.000; -294.000
458.703;   59.300;  303.000;  154.000
458.823;    7.900;   22.000;  163.000
458.943;   54.700;  341.000;  467.000
459.063;   14.550; 1124.000;  192.000
459.183;  -31.175;  328.000;  313.000
459.304;    5.825;  315.000;  517.000
459.424;  -38.125; -246.000;  -89.000
459.544;  467.575;  388.000;  764.000
459.664; 1271.075;  499.000;  506.000
459.784;  504.975; 1004.000; 1175.000
459.904;   84.300;  867.000;  744.000
460.024;   52.700;  867.000;  684.000
460.144;  -22.600;  449.000;  554.000
460.264;  -15.625;  515.000;  327.000
460.385; -105.275; -145.000; -119.000
460.505;   32.300;  905.000;  858.000
460.625; -102.900;  -17.000;  -68.000
460.745;  -25.375;  396.000;  541.000
460.864;  -59.475;  153.000;  469.000
460.984;   21.375;  499.000;  573.000
461.104;  139.325; 1656.000; 1775.000
461.224;    5.975;  657.000;  650.000
461.344;  -29.775;  431.000;  360.000
461.464;  -40.675;  258.000;  513.000
461.584;  -39.400;  283.000;  466.000
461.704;  -56.100;   58.000;  108.000
461.824;  -68.500;  238.000;  259.000
461.943;  -53.475;  191.000;  130.000
462.063;  -71.900;    2.000;  324.000
462.183;   14.150;  639.000;  717.000
462.303;   75.725; 1678.000; 1230.000
462.422;   14.950;  781.000;  840.000
462.542;  -43.600;  271.000;  391.000
462.662;   27.775;  353.000;  380.000
462.782;  330.450;  833.000;  572.000
462.901;  729.125;  545.000;  717.000
463.021;  398.150; 1702.000; 1638.000
463.141;   11.750;  337.000;  770.000
463.260;  -21.500;  614.000;  474.000
463.380;   19.900;  902.000;  884.000
463.499;  -40.050;  342.000;  332.000
463.619;  -40.775;  581.000;  559.000
463.738;   96.725; 1644.000;  903.000
463.858;    5.000;  657.000;  811.000
463.978;  -46.175;  542.000;  396.000
464.097;   36.500;  921.000; 1114.000
464.217;  147.950; 1196.000; 1143.000
464.336;  157.475; 1068.000; 1130.000
464.455;  -23.300;  328.000;  659.000
464.575;   -1.225;  597.000;  602.000
464.694;  110.575; 1204.000; 1179.000
464.814;  146.800; 1190.000; 1138.000
464.933;   83.325; 1095.000; 1027.000
465.052;   85.200; 1412.000; 1054.000
465.172;   63.775;  922.000;  799.000
465.291;  119.950; 1376.000; 1320.000
465.410;  -13.575;  462.000;  735.000
465.530;   67.475; 1355.000; 1310.000
465.649;   49.250; 1209.000; 1273.000
465.768;  117.250; 1673.000; 1508.000
465.888;   46.500;  941.000; 1174.000
466.007;   85.150; 1335.000; 1440.000
466.126;  -10.875;  721.000;  641.000
466.245;   34.525; 1176.000; 1187.000
466.364;    9.950;  950.000; 1060.000
466.484;   31.200; 1024.000; 1213.000
466.603;   28.825; 1101.000; 1222.000
466.722;   91.175; 1490.000; 1769.000
466.841;   56.675; 1151.000; 1401.000
466.960;   36.400; 1069.000;  972.000
467.079;  106.925; 1971.000; 1786.000
467.198;   47.075; 1238.000; 1181.000
467.317;   76.575; 1768.000; 1162.000
467.436;   64.550; 1709.000; 1261.000
467.555;  102.025; 1796.000; 1746.000
467.674;   67.675; 1227.000; 1329.000
467.793;   48.450; 1376.000; 1374.000
467.912;   78.325; 1658.000; 1539.000
468.031;  125.000; 2038.000; 1930.000
468.150;  113.300; 1842.000; 1837.000
468.269;  169.375; 2313.000; 2090.000
468.388;  171.125; 2168.000; 2339.000
468.507;  231.650; 2884.000; 2903.000
468.626;  265.300; 2555.000; 2541.000
468.744;  133.900; 2018.000; 2174.000
468.863;  192.775; 2312.000; 2523.000
468.982;   99.925; 1503.000; 1555.000
469.101;  214.125; 2788.000; 2692.000
469.220;  164.575; 2333.000; 2176.000
469.338;  247.875; 2935.000; 3051.000
469.457;  189.000; 2719.000; 2545.000
469.576;  335.625; 3953.000; 3784.000
469.695;  229.475; 2877.000; 3066.000
469.813;  411.300; 4148.000; 4192.000
469.932;  400.200; 4255.000; 4485.000
470.051;  436.625; 4075.000; 4161.000
470.169; 1021.425; 4470.000; 4338.000
470.288; 1967.450; 4700.000; 4809.000
470.406; 1160.125; 5059.000; 5194.000
470.525;  675.650; 6101.000; 5787.000
470.644;  633.550; 6847.000; 6794.000
470.762;  800.250; 8397.000; 7873.000
470.881;  917.775; 8651.000; 8464.000
470.999; 1076.675; 9685.000; 9151.000
471.118; 1090.725;11174.000;10711.000

