
Integration time [ms]: 200.000
Averaging Nr. [scans]: 10
Smoothing Nr. [pixels]: 0
Data measured with spectrometer [name]: 2101012U2
Wave   ;Sample   ;Dark     ;Reference
[nm]   ;[counts] ;[counts] ;[counts] 

197.733;  104.000;  516.000;  404.000
197.879; -187.800; -610.000; -634.000
198.025; -126.300; -475.000; -420.000
198.171; -157.400; -602.000; -612.000
198.317;  -66.900; -401.000; -316.000
198.463; -113.500; -655.000; -404.000
198.609;   84.100;  181.000; -137.000
198.755; -182.000; -644.000; -410.000
198.901; -120.400; -505.000; -424.000
199.047;  -95.100; -615.000; -488.000
199.193; -116.900; -230.000; -468.000
199.339;  -86.600; -222.000; -369.000
199.485;   66.900;  330.000;  271.000
199.631;   13.700;  227.000;  310.000
199.777; -100.500; -466.000; -398.000
199.923; -133.200; -610.000; -424.000
200.069;  -11.100; -141.000;  -58.000
200.215;   91.800;  128.000;  453.000
200.361;   89.900;  243.000;  477.000
200.507; -154.800; -600.000; -373.000
200.653;  -49.400; -371.000; -194.000
200.798;  -64.000; -215.000; -125.000
200.944;  -10.500; -146.000;  -41.000
201.090;   95.000;   61.000;  222.000
201.236;   -5.900; -116.000; -158.000
201.382;  284.500;  874.000;  903.000
201.528;  -12.700;  -58.000;  -48.000
201.674;  -79.700; -386.000; -293.000
201.819; -147.500; -540.000; -439.000
201.965; -150.000; -699.000; -447.000
202.111;  -64.300; -273.000; -226.000
202.257;  -94.500; -250.000; -238.000
202.402;   15.500;   13.000;  -36.000
202.548;  -41.700; -169.000; -116.000
202.694;  146.000;  410.000; -183.000
202.840; -141.700; -603.000; -531.000
202.985; -133.500; -681.000; -639.000
203.131; -199.800; -832.000; -666.000
203.277;  -51.600; -199.000; -262.000
203.423; -121.600; -434.000; -520.000
203.568;  -76.100; -462.000; -237.000
203.714; -138.400; -535.000; -542.000
203.860; -161.600; -682.000; -641.000
204.005;   64.600;  112.000;  167.000
204.151;  152.700;  561.000;  556.000
204.296;  -71.700; -354.000; -221.000
204.442; -133.100; -600.000; -547.000
204.588; -166.900; -592.000; -579.000
204.733;   70.700;  178.000;  168.000
204.879; -282.300;-1018.000; -822.000
205.025;   16.600;  -99.000;  126.000
205.170;   13.800;  -17.000;   94.000
205.316;  156.800;  438.000;  661.000
205.461; -137.100; -698.000; -554.000
205.607;  178.700;  609.000;  665.000
205.752; -132.100; -626.000; -551.000
205.898; -114.100; -501.000; -391.000
206.043; -122.100; -578.000; -506.000
206.189;  -87.200; -243.000; -285.000
206.334;  205.100;  554.000;  606.000
206.480;  187.900;  409.000;  239.000
206.625; -172.200; -529.000; -552.000
206.771; -127.300; -451.000; -373.000
206.916;  -77.100; -210.000; -537.000
207.062; -150.200; -545.000; -591.000
207.207;  -89.600; -546.000; -443.000
207.353;   89.900;  185.000;  460.000
207.498;   41.800;  196.000;   85.000
207.643; -103.300; -501.000; -370.000
207.789; -258.100;-1069.000; -910.000
207.934; -207.000; -665.000; -713.000
208.080;  -21.500; -154.000;   66.000
208.225;  -49.900;  -22.000;  -57.000
208.370; -129.400; -727.000; -619.000
208.516; -168.700; -741.000; -487.000
208.661;  -17.200; -127.000;  -69.000
208.806;  -44.300; -165.000; -171.000
208.952; -228.800;-1044.000; -731.000
209.097;  145.400;  378.000;  349.000
209.242;  -92.700; -307.000; -382.000
209.387;  123.100;  392.000;  350.000
209.533;  -98.700; -321.000; -350.000
209.678;  154.600;  472.000;  543.000
209.823; -107.100; -408.000; -310.000
209.969; -226.400; -860.000; -757.000
210.114; -208.500; -907.000; -719.000
210.259; -244.400; -939.000; -889.000
210.404;   17.800; -171.000;  103.000
210.549;   -6.400;  108.000;    3.000
210.695;  -35.100;   -3.000;  -95.000
210.840;   69.900;   94.000;   67.000
210.985; -147.500; -484.000; -303.000
211.130;  149.400;  268.000;  406.000
211.275;   28.500;  207.000;  199.000
211.420;  -88.000; -300.000; -289.000
211.566; -150.700; -536.000; -489.000
211.711;   39.200;  218.000;  157.000
211.856; -117.600; -545.000; -519.000
212.001;   29.700;  151.000;   44.000
212.146;   35.200;  153.000;   49.000
212.291;  -44.000; -210.000; -186.000
212.436;  -42.100; -280.000;   -6.000
212.581; -204.100; -685.000; -653.000
212.726; -139.800; -487.000; -538.000
212.871; -118.900; -552.000; -217.000
213.016; -299.100;-1172.000;-1029.000
213.161;  117.300;  406.000;  291.000
213.306; -128.000; -435.000; -577.000
213.451; -212.700; -778.000; -689.000
213.596;  -72.700; -455.000; -347.000
213.741; -115.300; -448.000; -538.000
213.886; -139.800; -498.000; -517.000
214.031;  -81.100; -294.000; -124.000
214.176;  -94.800; -408.000; -341.000
214.321;  -40.700; -296.000; -157.000
214.466;  -34.100; -163.000;  -43.000
214.611;  -17.300;  -61.000;  -10.000
214.756; -231.800; -948.000; -858.000
214.901;  -25.100; -388.000; -226.000
215.046; -232.500; -797.000; -825.000
215.191;   21.200;  128.000;   35.000
215.336;   -7.300; -157.000;  -19.000
215.480; -117.600; -684.000; -505.000
215.625;  -40.500; -175.000;  -19.000
215.770; -166.700; -757.000; -662.000
215.915;  -33.500;   -5.000;  -97.000
216.060;  -37.800; -113.000;  -21.000
216.205; -206.900; -731.000; -779.000
216.349; -130.900; -470.000; -533.000
216.494; -263.600; -939.000; -867.000
216.639; -228.600; -823.000; -888.000
216.784; -136.900; -577.000; -525.000
216.929;  106.700;  392.000;  281.000
217.073;  -22.400; -244.000;  -31.000
217.218;   19.200;   78.000;  -47.000
217.363; -150.800; -656.000; -618.000
217.507; -160.500; -623.000; -588.000
217.652; -256.300; -845.000; -874.000
217.797; -212.100; -708.000; -659.000
217.942; -206.400; -856.000; -720.000
218.086;  154.600;  608.000;  539.000
218.231;  -36.100; -174.000;  -26.000
218.376;  -86.200; -337.000; -229.000
218.520;    1.700;  -41.000;   96.000
218.665;  -77.500; -338.000; -204.000
218.810;  -85.800; -275.000; -233.000
218.954;   23.400;  201.000;   35.000
219.099; -201.600; -713.000; -963.000
219.243; -148.500; -589.000; -554.000
219.388;  -75.500; -264.000; -136.000
219.532;    5.000; -116.000; -116.000
219.677; -130.300; -564.000; -521.000
219.822;   27.500;   33.000;   89.000
219.966;   12.900;   17.000;  -99.000
220.111;  -67.900; -328.000;  -40.000
220.255; -183.100; -797.000; -750.000
220.400;  -18.100; -180.000; -146.000
220.544; -148.600; -516.000; -450.000
220.689; -101.900; -422.000; -451.000
220.833;  -23.600; -123.000;  -58.000
220.978;  -69.500; -393.000; -563.000
221.122;   44.600;  319.000;  307.000
221.267; -251.500; -906.000; -837.000
221.411; -136.100; -478.000; -394.000
221.555;  -41.200; -104.000;  -23.000
221.700; -118.400; -329.000; -222.000
221.844;   40.000;  255.000;  272.000
221.989;  -89.300; -328.000; -311.000
222.133;  -58.100; -289.000; -307.000
222.277;   -0.400;    5.000;   78.000
222.422;   55.500;  227.000;  113.000
222.566;  -82.000; -381.000; -214.000
222.711;  -69.600; -414.000; -479.000
222.855; -140.700; -643.000; -586.000
222.999; -165.600; -642.000; -717.000
223.144;  -33.200; -195.000; -194.000
223.288;   74.400;  423.000;  251.000
223.432;   46.100;  184.000;  230.000
223.576;   40.000;  152.000;  -21.000
223.721;   82.800;  364.000;  273.000
223.865; -103.600; -472.000; -475.000
224.009;  472.600; 1673.000; 1631.000
224.153; -202.700; -660.000; -671.000
224.298; -136.200; -531.000; -489.000
224.442;  -23.700;  -74.000;  -33.000
224.586;   -9.900; -169.000; -106.000
224.730; -205.600; -858.000; -670.000
224.875; -203.200; -739.000; -688.000
225.019;   50.900;  102.000;  188.000
225.163;  142.000;  208.000;  341.000
225.307;   44.100;   97.000;  -91.000
225.451;  103.300;  360.000;  481.000
225.595;   69.600;  264.000;  176.000
225.739;  -43.000; -170.000;  -94.000
225.884;    5.000;   86.000;    5.000
226.028; -182.300; -760.000; -626.000
226.172;  -85.200; -260.000; -273.000
226.316; -247.500; -941.000; -902.000
226.460; -140.300; -645.000; -493.000
226.604;  -98.800; -406.000; -400.000
226.748; -211.000; -836.000; -733.000
226.892;  -51.300; -227.000; -181.000
227.036; -111.900; -537.000; -447.000
227.180;  -90.300; -551.000; -375.000
227.324; -127.100; -561.000; -580.000
227.468; -201.500; -819.000; -717.000
227.612;   34.700;  242.000;  -28.000
227.756; -209.100; -845.000; -698.000
227.900;   75.800;  342.000;  441.000
228.044; -151.800; -509.000; -290.000
228.188;   93.800;  448.000;  568.000
228.332; -209.300; -546.000; -472.000
228.476;  -46.700; -223.000; -149.000
228.620;  -55.900; -210.000; -150.000
228.764;  205.200;  431.000;  349.000
228.908;  -31.200; -155.000;   30.000
229.052; -110.700; -615.000; -528.000
229.195;    3.000; -172.000;   13.000
229.339;  -31.600; -235.000; -305.000
229.483;  -28.600;    5.000; -162.000
229.627;   20.400; -156.000;  139.000
229.771; -103.100; -218.000; -294.000
229.915;   29.700;  230.000;   79.000
230.059; -176.100; -648.000; -663.000
230.202;  -87.900; -370.000; -317.000
230.346;  -25.000; -107.000;  107.000
230.490; -114.000; -489.000; -521.000
230.634; -218.900; -736.000; -553.000
230.777;  129.200;  478.000;  509.000
230.921;  -97.300; -450.000; -359.000
231.065;  -87.300; -246.000; -286.000
231.209;   72.600;  261.000;  265.000
231.352;   37.900;   54.000;   40.000
231.496;   56.200;  568.000;  188.000
231.640; -157.900; -693.000; -621.000
231.783;  126.400;  546.000;  525.000
231.927;  -82.300; -294.000; -365.000
232.071; -232.800; -962.000; -736.000
232.214; -200.800; -980.000; -764.000
232.358; -194.700; -683.000; -599.000
232.502;    6.800;  -19.000;    7.000
232.645; -255.800;-1090.000; -927.000
232.789;  -44.200; -257.000; -218.000
232.933;  -74.200; -407.000; -224.000
233.076; -229.900;-1038.000; -897.000
233.220; -198.600; -752.000; -777.000
233.363; -149.200; -669.000; -477.000
233.507;  141.400;  371.000;  129.000
233.650; -187.300; -764.000; -834.000
233.794;  125.700;  438.000;  461.000
233.938; -112.000; -530.000; -362.000
234.081;    4.200;  -93.000;   31.000
234.225; -132.200; -631.000; -539.000
234.368; -216.300; -773.000; -723.000
234.512;  -87.800; -385.000; -299.000
234.655; -168.000; -582.000; -555.000
234.798; -114.700; -493.000; -466.000
234.942; -244.600; -884.000;-1002.000
235.085; -153.900; -651.000; -443.000
235.229; -105.600; -405.000; -410.000
235.372; -119.000; -247.000; -191.000
235.516; -143.700; -397.000; -321.000
235.659;   54.200;   92.000;  121.000
235.802;   -1.700;  -38.000;  -22.000
235.946;   73.500;  335.000;  215.000
236.089;   48.900;  126.000;  250.000
236.233;  124.500;  275.000;  298.000
236.376;  -76.900; -235.000; -378.000
236.519;  -92.200; -297.000; -319.000
236.663;  -33.800; -215.000; -117.000
236.806; -273.500;-1029.000; -999.000
236.949;  110.000;  543.000;  431.000
237.092;  148.200;  412.000;  391.000
237.236; -161.600; -589.000; -502.000
237.379;  136.500;  352.000;  428.000
237.522; -203.200; -879.000; -768.000
237.666;  -28.200; -271.000;   18.000
237.809; -251.500; -851.000; -823.000
237.952;   84.000;  469.000;  271.000
238.095; -126.500; -447.000; -442.000
238.238;  161.300;  688.000;  700.000
238.382;   32.600;  166.000;  103.000
238.525; -156.800; -598.000; -511.000
238.668; -274.100;-1060.000; -985.000
238.811; -161.200; -638.000; -643.000
238.954; -117.400; -483.000; -334.000
239.097;  160.200;  617.000;  664.000
239.241;   49.400;  394.000;  326.000
239.384;  -73.600; -254.000; -214.000
239.527;  -87.300; -424.000; -224.000
239.670; -285.100; -994.000;-1091.000
239.813; -207.800; -696.000; -658.000
239.956;  168.400;  579.000;  473.000
240.099; -238.100; -778.000; -725.000
240.242;  148.800;  428.000;  432.000
240.385;   93.400;  466.000;  450.000
240.528; -137.900; -706.000; -473.000
240.671;   59.900;  189.000;  134.000
240.814; -106.400; -441.000; -158.000
240.957; -186.100; -767.000; -578.000
241.100; -175.200; -779.000; -755.000
241.243; -277.800;-1234.000; -893.000
241.386; -132.600; -508.000; -379.000
241.529; -159.100; -735.000; -547.000
241.672; -112.500; -566.000; -495.000
241.815; -202.500; -832.000; -808.000
241.958;  -59.200; -125.000; -182.000
242.101; -135.900; -545.000; -390.000
242.244;  -63.300; -270.000; -325.000
242.387;  -63.700; -304.000; -246.000
242.530;  102.400;  470.000;  134.000
242.673;  -70.200; -381.000; -309.000
242.815; -228.300; -925.000; -899.000
242.958; -136.700; -482.000; -381.000
243.101;   40.300;  132.000;  187.000
243.244; -135.300; -564.000; -521.000
243.387;  -83.800; -313.000; -316.000
243.530; -214.700; -657.000; -674.000
243.672;   26.400;   43.000;  -92.000
243.815;  -94.800; -355.000; -283.000
243.958;   12.000;   98.000;  -26.000
244.101;   26.500;   59.000;  -16.000
244.243;   -8.700;  -47.000;  101.000
244.386; -215.500; -761.000; -630.000
244.529;  -37.300; -132.000; -139.000
244.672; -301.200;-1154.000; -951.000
244.814; -244.700; -621.000; -794.000
244.957;  -72.400; -380.000; -304.000
245.100; -141.100; -489.000; -489.000
245.242;  -74.300; -387.000; -374.000
245.385;   20.600;  -59.000;  -39.000
245.528; -200.400; -871.000; -705.000
245.670;  193.900;  612.000;  634.000
245.813; -154.800; -599.000; -547.000
245.956;  -50.400; -324.000; -275.000
246.098; -107.600; -508.000; -650.000
246.241;   16.700;  194.000;   48.000
246.383;  -30.500; -119.000;  -73.000
246.526; -147.900; -454.000; -525.000
246.669; -234.700; -889.000; -780.000
246.811;   30.700;  172.000;   -1.000
246.954; -120.700; -512.000; -426.000
247.096;  -19.900;  -84.000;   -6.000
247.239; -125.400; -482.000; -445.000
247.381; -162.300; -647.000; -488.000
247.524;  172.200;  645.000;  679.000
247.666;  -13.000;   58.000;   11.000
247.809; -232.400; -887.000; -691.000
247.951;   14.200;  -75.000;  138.000
248.094;   84.000;  432.000;  308.000
248.236; -321.700;-1262.000;-1238.000
248.378;  -91.700; -356.000;  -81.000
248.521;  -88.400; -334.000; -337.000
248.663;  -89.000; -236.000; -267.000
248.806;  -53.800; -300.000; -266.000
248.948; -224.700; -886.000; -763.000
249.090;  -98.400; -428.000; -398.000
249.233; -102.400; -344.000; -381.000
249.375; -113.700; -474.000; -451.000
249.518;  -26.600;  -83.000; -133.000
249.660;  -12.900; -103.000;    3.000
249.802; -374.900;-1303.000;-1189.000
249.945; -156.200; -612.000; -540.000
250.087; -239.700; -834.000; -768.000
250.229; -115.000; -362.000; -480.000
250.371; -121.800; -494.000; -439.000
250.514;  -91.200; -310.000; -244.000
250.656;  -90.000;   69.000;  102.000
250.798; -230.000; -849.000; -800.000
250.940; -118.000; -322.000; -322.000
251.083;  -51.000; -335.000; -111.000
251.225;  110.700;  338.000;  310.000
251.367;  -61.100; -274.000; -373.000
251.509;  -48.800; -265.000; -210.000
251.651; -174.200; -731.000; -671.000
251.794;  156.400;  538.000;  632.000
251.936; -213.300; -821.000; -747.000
252.078; -138.800; -540.000; -461.000
252.220; -147.400; -645.000; -477.000
252.362;   72.100;  344.000;  462.000
252.504; -163.800; -677.000; -584.000
252.646; -251.700; -875.000; -722.000
252.788;  -46.100;   14.000; -128.000
252.931;  -73.700; -257.000; -253.000
253.073; -105.800; -376.000; -317.000
253.215;   -3.500;  141.000;  122.000
253.357;    3.700;   82.000; -153.000
253.499; -106.500; -374.000; -234.000
253.641; -185.500; -749.000; -594.000
253.783; -160.700; -609.000; -527.000
253.925; -200.800; -586.000; -591.000
254.067; -218.100; -744.000; -667.000
254.209;  -59.800; -391.000; -259.000
254.351; -273.400; -865.000; -883.000
254.493; -114.100; -441.000; -417.000
254.635; -222.900; -936.000; -818.000
254.777; -170.100; -752.000; -687.000
254.918; -132.400; -512.000; -430.000
255.060; -120.100; -551.000; -395.000
255.202;  -94.100; -473.000; -261.000
255.344; -148.200; -658.000; -455.000
255.486; -155.900; -471.000; -406.000
255.628; -197.600; -780.000; -781.000
255.770; -147.200; -676.000; -536.000
255.912;  -95.000; -559.000; -468.000
256.053; -182.800; -730.000; -508.000
256.195;  301.100; 1008.000;  903.000
256.337; -176.100; -861.000; -595.000
256.479;  150.800;  532.000;  416.000
256.621;  -68.400; -394.000; -212.000
256.762; -184.400; -789.000; -742.000
256.904;  111.900;  485.000;  487.000
257.046;  -77.700; -381.000; -271.000
257.188; -101.100; -351.000; -264.000
257.329; -144.500; -525.000; -464.000
257.471; -235.900; -939.000; -807.000
257.613; -166.600; -584.000; -498.000
257.755; -259.800;-1073.000; -982.000
257.896;   69.100;  286.000;  392.000
258.038; -126.600; -403.000; -352.000
258.180; -118.600; -354.000; -279.000
258.321; -127.900; -581.000; -457.000
258.463;   -8.200;  -71.000;  133.000
258.605; -195.300; -562.000; -570.000
258.746; -203.100; -886.000; -772.000
258.888; -285.300;-1026.000;-1020.000
259.029;   49.900;  121.000;   -8.000
259.171; -170.300; -614.000; -550.000
259.313;  -12.300;  -49.000;  -47.000
259.454; -169.600; -536.000; -414.000
259.596;  -94.000; -483.000; -390.000
259.737; -146.800; -590.000; -474.000
259.879;   80.300;  217.000;  311.000
260.020;  185.000;  901.000;  636.000
260.162;  -66.700; -146.000; -253.000
260.303; -210.400; -768.000; -687.000
260.445; -151.200; -609.000; -613.000
260.586;   79.300;  392.000;  157.000
260.728; -103.100; -360.000; -248.000
260.869; -100.800; -350.000; -343.000
261.011;  152.400;  706.000;  537.000
261.152; -109.300; -479.000; -319.000
261.293; -145.400; -576.000; -595.000
261.435;  -51.100; -219.000; -184.000
261.576;  -83.600; -455.000; -325.000
261.718;  115.600;  420.000;  470.000
261.859; -270.400; -940.000; -949.000
262.000; -254.200; -951.000;-1016.000
262.142;  -60.200;  -52.000;  -60.000
262.283; -189.700; -808.000; -691.000
262.424; -168.200; -666.000; -625.000
262.566; -275.000;-1161.000; -983.000
262.707; -194.100; -840.000; -830.000
262.848; -219.200; -769.000; -726.000
262.990;  -95.300; -362.000; -345.000
263.131;  162.300;  650.000;  681.000
263.272;  -11.100;  -61.000;  -41.000
263.413; -147.000; -589.000; -561.000
263.555; -132.600; -669.000; -143.000
263.696; -158.300; -550.000; -641.000
263.837; -135.100; -449.000; -551.000
263.978;   -0.500;   -5.000;  -77.000
264.119;  -86.100; -283.000; -264.000
264.261; -236.700; -847.000; -630.000
264.402;   14.800;   33.000;   40.000
264.543; -162.400; -509.000; -524.000
264.684;   -8.700;   61.000;  -50.000
264.825; -167.500; -816.000; -538.000
264.966;    4.500;  -84.000;  -67.000
265.107; -210.100; -646.000; -670.000
265.248; -246.600; -825.000; -812.000
265.390;    6.400;  152.000;   -9.000
265.531;  -81.600; -238.000; -107.000
265.672; -178.300; -557.000; -630.000
265.813;  131.400;  563.000;  439.000
265.954; -276.700; -959.000; -940.000
266.095;  -31.900; -372.000; -322.000
266.236; -191.700; -686.000; -548.000
266.377;  -75.900; -243.000; -297.000
266.518; -132.200; -619.000; -547.000
266.659;   94.500;  170.000;  268.000
266.800;   16.500;   83.000;   85.000
266.941; -134.900; -487.000; -478.000
267.082;    7.600;  354.000;   99.000
267.223; -128.400; -344.000; -273.000
267.364; -241.500; -892.000; -686.000
267.504;  -38.700;    3.000;  135.000
267.645;   19.400;  160.000;   67.000
267.786;  -43.400; -147.000;  -86.000
267.927; -123.600; -473.000; -379.000
268.068;  -52.100; -186.000;  -61.000
268.209;  -98.500; -175.000; -413.000
268.350;  -94.300; -388.000; -532.000
268.490; -142.400; -648.000; -521.000
268.631;   83.300;  127.000;  225.000
268.772; -196.400; -874.000; -647.000
268.913; -107.400; -328.000; -476.000
269.054;  -33.800; -117.000;   12.000
269.194;  -85.000; -418.000; -402.000
269.335; -295.000;-1137.000;-1074.000
269.476;  -36.000;   33.000;  -35.000
269.617; -104.400; -347.000; -392.000
269.757; -193.000; -713.000; -646.000
269.898; -223.500; -856.000; -613.000
270.039; -121.900; -415.000; -405.000
270.180; -232.800; -952.000; -816.000
270.320;  -48.300; -190.000; -250.000
270.461;  -78.300; -277.000; -249.000
270.602;   -0.700; -186.000; -156.000
270.742; -265.500; -868.000; -943.000
270.883;  -91.700; -442.000; -390.000
271.023; -132.400; -358.000; -357.000
271.164; -160.300; -607.000; -528.000
271.305; -216.200; -666.000; -654.000
271.445; -176.700; -722.000; -683.000
271.586; -133.200; -462.000; -283.000
271.726; -111.000; -397.000; -322.000
271.867; -159.600; -594.000; -534.000
272.008;  -45.400; -473.000; -285.000
272.148;   97.000;  462.000;  468.000
272.289;  -14.000; -113.000; -181.000
272.429;   10.700;   19.000;  185.000
272.570; -205.000; -633.000; -737.000
272.710; -193.100; -825.000; -775.000
272.851;  -49.200;  113.000; -130.000
272.991; -301.600;-1173.000;-1077.000
273.131; -129.500; -419.000; -459.000
273.272; -199.900; -683.000; -723.000
273.412;  -26.200; -143.000;  -31.000
273.553; -138.900; -488.000; -507.000
273.693;  242.700;  913.000;  858.000
273.834; -225.500; -894.000; -692.000
273.974; -155.200; -664.000; -615.000
274.114; -184.200; -772.000; -560.000
274.255;   97.800;  414.000;  373.000
274.395;  -86.000; -180.000; -125.000
274.535;   54.700;  199.000;  350.000
274.676;   64.600;  225.000;   94.000
274.816;  -28.000;  110.000;   34.000
274.956; -180.800; -624.000; -690.000
275.097; -269.600;-1014.000; -922.000
275.237; -227.500; -913.000; -803.000
275.377; -208.800; -778.000; -689.000
275.517; -290.200; -878.000; -937.000
275.658; -139.200; -590.000; -555.000
275.798; -176.200; -606.000; -413.000
275.938;   42.700;  215.000;  323.000
276.078; -204.700; -626.000; -395.000
276.218;   16.000;   99.000;  104.000
276.359; -272.200;-1026.000;-1024.000
276.499; -135.600; -605.000; -446.000
276.639;  -46.500; -305.000; -151.000
276.779; -103.000; -475.000; -357.000
276.919; -203.400; -783.000; -624.000
277.059;  -43.500; -261.000; -212.000
277.199;  -89.800; -357.000; -259.000
277.340;   94.700;  287.000;  175.000
277.480; -227.900; -840.000; -693.000
277.620;   36.300;  192.000;   16.000
277.760; -399.100;-1533.000;-1294.000
277.900;   -0.600;  113.000;   33.000
278.040;  -12.000;  137.000;  159.000
278.180;   43.200;  270.000;  170.000
278.320;   34.800;   21.000;   56.000
278.460; -113.800; -443.000; -469.000
278.600; -165.700; -708.000; -598.000
278.740;  109.900;  448.000;  224.000
278.880; -228.900; -768.000; -791.000
279.020;  -55.700; -194.000; -144.000
279.160; -183.000; -672.000; -595.000
279.300; -253.400; -926.000; -873.000
279.440; -221.600; -709.000; -622.000
279.579; -274.700;-1014.000; -929.000
279.719; -132.800; -410.000; -394.000
279.859;   37.200;   -4.000;   41.000
279.999;  -63.900; -208.000;  101.000
280.139; -119.800; -435.000; -387.000
280.279; -200.100; -708.000; -745.000
280.419;  -31.300; -229.000; -147.000
280.559;  -74.500; -259.000; -180.000
280.698; -157.300; -790.000; -639.000
280.838; -217.500; -778.000; -800.000
280.978; -222.900; -846.000; -790.000
281.118; -202.200; -811.000; -704.000
281.257;   14.900;   24.000;    6.000
281.397; -296.700;-1094.000; -960.000
281.537; -205.000; -599.000; -712.000
281.677;  -37.000; -150.000; -101.000
281.816; -204.100; -700.000; -630.000
281.956;  -55.400; -193.000; -257.000
282.096; -119.600; -539.000; -396.000
282.235; -209.200; -672.000; -638.000
282.375;  -41.700; -243.000;  -98.000
282.515; -211.600; -715.000; -707.000
282.654;    3.100;   29.000;  106.000
282.794;   60.300;  388.000;  244.000
282.934; -115.200; -530.000; -491.000
283.073; -256.500;-1030.000; -857.000
283.213; -103.200; -460.000; -467.000
283.353; -120.000; -408.000; -349.000
283.492;  -78.400; -264.000; -296.000
283.632; -100.400; -254.000; -168.000
283.771; -216.400; -859.000; -730.000
283.911; -100.100; -369.000; -260.000
284.050; -206.000; -794.000; -748.000
284.190; -317.000;-1229.000;-1096.000
284.329; -283.000;-1055.000; -964.000
284.469; -187.900; -516.000; -591.000
284.608; -137.600; -559.000; -598.000
284.748; -190.200; -614.000; -570.000
284.887;  -24.400;  -87.000;  -20.000
285.027; -247.300; -844.000; -892.000
285.166;  -81.000; -192.000; -249.000
285.306;  -38.600; -116.000;  -33.000
285.445; -105.300; -229.000; -343.000
285.584; -164.500; -630.000; -494.000
285.724;  -93.500; -282.000; -322.000
285.863; -217.100; -857.000; -507.000
286.002; -114.000; -366.000; -276.000
286.142; -190.900; -715.000; -622.000
286.281; -133.700; -525.000; -493.000
286.420; -148.500; -554.000; -417.000
286.560;  208.500;  653.000;  623.000
286.699; -270.900; -958.000; -912.000
286.838; -173.800; -590.000; -591.000
286.978; -181.200; -533.000; -537.000
287.117; -306.600;-1085.000; -950.000
287.256;  -50.500; -228.000; -211.000
287.395; -111.500; -197.000; -378.000
287.535;  -93.600; -370.000; -298.000
287.674; -183.600; -509.000; -484.000
287.813;  120.300;  661.000;  533.000
287.952; -294.700;-1010.000; -871.000
288.091; -281.400;-1049.000; -915.000
288.231;   35.800;   13.000;   15.000
288.370; -339.900;-1217.000;-1200.000
288.509; -142.600; -728.000; -645.000
288.648; -163.000; -770.000; -548.000
288.787;  -62.700; -243.000;  -87.000
288.926; -140.700; -454.000; -475.000
289.065;  215.300;  859.000;  672.000
289.204;  -89.300; -377.000; -217.000
289.344; -220.200; -791.000; -690.000
289.483;   50.400;  416.000;  304.000
289.622;  -41.400; -291.000; -149.000
289.761;  -22.500; -309.000; -166.000
289.900; -233.500; -785.000; -626.000
290.039;  -26.800;  -12.000;  -95.000
290.178;  -70.300; -274.000; -180.000
290.317; -177.000; -618.000; -479.000
290.456; -150.900; -463.000; -451.000
290.595; -292.100; -961.000; -833.000
290.734; -282.700; -904.000; -891.000
290.873; -152.500; -456.000; -420.000
291.011; -236.100; -833.000; -843.000
291.150; -222.300; -770.000; -682.000
291.289;  -56.100; -343.000; -110.000
291.428; -176.300; -599.000; -480.000
291.567; -123.200; -370.000; -442.000
291.706;    1.500;  109.000;  154.000
291.845; -174.400; -597.000; -505.000
291.984; -341.600;-1234.000;-1061.000
292.122;  134.900;  602.000;  582.000
292.261;  100.700;  620.000;  463.000
292.400;    8.900; -144.000;  211.000
292.539; -264.400; -959.000; -813.000
292.678;  -60.500; -325.000; -300.000
292.816; -309.200;-1136.000; -965.000
292.955; -213.300; -844.000; -684.000
293.094;  -58.500; -173.000; -337.000
293.233; -134.200; -556.000; -400.000
293.371;  -59.200; -225.000;  -84.000
293.510; -230.300; -866.000; -780.000
293.649; -274.700; -959.000; -924.000
293.787; -286.300;-1083.000;-1012.000
293.926;  -14.900; -113.000;  -32.000
294.065;  -90.000; -379.000; -290.000
294.203;   84.300;  298.000;  406.000
294.342;   25.400;   74.000;  156.000
294.481;13057.500;51180.000; -836.000
294.619;  -68.100; -425.000; -582.000
294.758; -303.900;-1230.000;-1137.000
294.896;   13.700; -125.000;    5.000
295.035; -304.900;-1040.000;-1006.000
295.174; -286.800;-1082.000; -954.000
295.312; -107.400; -323.000; -203.000
295.451;  -93.100; -307.000; -428.000
295.589; -142.600; -389.000; -518.000
295.728;  -21.600; -292.000; -165.000
295.866;  -26.400;  -36.000;  -51.000
296.005; -150.300; -584.000; -341.000
296.143; -179.900; -558.000; -596.000
296.282; -226.400; -957.000; -881.000
296.420; -178.800; -657.000; -557.000
296.559; -200.800; -892.000; -633.000
296.697; -195.600; -847.000; -665.000
296.835; -312.700;-1141.000;-1002.000
296.974;  -21.700;  -23.000;   39.000
297.112; -137.900; -443.000; -504.000
297.251; -208.900; -815.000; -755.000
297.389; -143.900; -576.000; -438.000
297.527;  -47.400; -145.000;  -83.000
297.666; -149.200; -486.000; -438.000
297.804; -145.000; -404.000; -264.000
297.942;  -10.600; -136.000; -161.000
298.081;  -17.100; -183.000;   63.000
298.219;  -39.100;  -17.000;  -19.000
298.357;  -69.200; -144.000;  -71.000
298.495; -262.400; -810.000; -812.000
298.634;   12.100;  245.000;  219.000
298.772;  -91.200; -220.000; -338.000
298.910; -122.800; -309.000; -182.000
299.048;  -26.500; -130.000; -153.000
299.187;  -85.800; -350.000; -250.000
299.325;    6.400;   52.000;  122.000
299.463; -143.800; -389.000; -299.000
299.601;  -60.700; -327.000; -271.000
299.739; -260.300; -908.000; -883.000
299.877; -199.300; -791.000; -703.000
300.016; -320.400;-1095.000; -935.000
300.154;  -17.500;  -19.000; -161.000
300.292; -156.100; -428.000; -348.000
300.430; -122.000; -408.000; -291.000
300.568; -265.600; -940.000; -874.000
300.706; -141.900; -366.000; -469.000
300.844; -297.600;-1108.000; -979.000
300.982;   97.600;  246.000;  282.000
301.120; -272.600; -965.000; -866.000
301.258; -189.500; -812.000; -705.000
301.396;   -3.700;  104.000;  -41.000
301.534; -111.900; -218.000; -293.000
301.672; -181.700; -664.000; -521.000
301.810; -171.200; -613.000; -545.000
301.948;   31.300;   53.000;  149.000
302.086;  -54.400; -250.000;  -32.000
302.224; -213.100; -610.000; -585.000
302.362; -229.800; -558.000; -622.000
302.500; -277.000; -923.000; -893.000
302.638;   13.500;  128.000;  245.000
302.776;  -88.600; -352.000; -408.000
302.913;   57.500;  447.000;  236.000
303.051;  -57.000;  -86.000;  -23.000
303.189;   19.600;   90.000;  118.000
303.327; -112.300; -341.000; -256.000
303.465; -169.800; -832.000; -588.000
303.603; -190.800; -805.000; -604.000
303.740;   80.800;  417.000;  241.000
303.878; -197.500; -800.000; -759.000
304.016; -217.800; -915.000; -790.000
304.154; -346.200;-1123.000;-1152.000
304.291; -137.300; -505.000; -554.000
304.429;   -5.600;  102.000;   74.000
304.567; -256.700; -908.000; -893.000
304.705; -163.100; -408.000; -515.000
304.842; -181.900; -616.000; -540.000
304.980;   27.300;  215.000;   35.000
305.118;  -93.900; -367.000; -365.000
305.255; -266.600; -945.000; -927.000
305.393;   60.700;  178.000;  239.000
305.531; -285.300;-1173.000; -956.000
305.668; -190.400; -663.000; -582.000
305.806; -142.100; -358.000; -439.000
305.943; -154.900; -629.000; -637.000
306.081; -103.000; -378.000; -267.000
306.219; -236.200; -863.000; -748.000
306.356;  -15.100;  158.000;   27.000
306.494;  186.400;  981.000;  761.000
306.631;    7.700;  -11.000;  -55.000
306.769; -148.300; -613.000; -485.000
306.906; -128.200; -284.000; -258.000
307.044; -157.800; -473.000; -488.000
307.181; -126.500; -410.000; -332.000
307.319;   -3.400;  112.000;   87.000
307.456; -352.900;-1191.000;-1153.000
307.594; -252.500; -980.000; -727.000
307.731;  -67.300; -371.000; -164.000
307.868;   32.100;  -15.000;   20.000
308.006; -283.100; -961.000; -847.000
308.143; -161.600; -618.000; -330.000
308.281;  -42.000;  -37.000; -254.000
308.418; -203.400; -748.000; -640.000
308.555; -158.700; -400.000; -250.000
308.693; -185.800; -577.000; -573.000
308.830; -224.700; -712.000; -657.000
308.967;  -64.800; -215.000;  -95.000
309.105; -135.300; -507.000; -396.000
309.242; -123.900; -468.000; -367.000
309.379; -193.300; -577.000; -655.000
309.517; -274.400; -936.000; -948.000
309.654; -210.200; -910.000; -734.000
309.791; -163.000; -662.000; -580.000
309.928; -252.700; -977.000; -914.000
310.065;  188.900;  819.000;  697.000
310.203; -250.700; -825.000; -850.000
310.340; -165.000; -465.000; -321.000
310.477; -176.800; -412.000; -516.000
310.614; -137.000; -383.000; -473.000
310.751; -154.600; -427.000; -518.000
310.889;  -58.200;    1.000;   11.000
311.026; -316.100;-1161.000; -939.000
311.163; -127.300; -386.000; -380.000
311.300; -165.000; -512.000; -479.000
311.437; -178.900; -658.000; -619.000
311.574; -328.600;-1226.000; -985.000
311.711; -156.600; -595.000; -433.000
311.848;  -84.000; -380.000; -388.000
311.985;  -22.100;  270.000;   93.000
312.122; -259.400; -932.000; -762.000
312.259; -267.800; -941.000; -994.000
312.396; -178.200; -508.000; -551.000
312.533; -202.900; -812.000; -790.000
312.670; -297.000;-1070.000; -898.000
312.807;  -70.700; -352.000; -367.000
312.944; -194.200; -513.000; -611.000
313.081; -124.700; -150.000; -415.000
313.218; -287.600;-1111.000; -867.000
313.355; -138.100; -531.000; -449.000
313.492;  -91.600; -455.000; -292.000
313.629;  198.300;  815.000;  735.000
313.766; -330.700;-1176.000;-1008.000
313.902;  -31.800; -186.000;   21.000
314.039;  -95.600; -372.000; -289.000
314.176;   31.900;  286.000;  192.000
314.313; -174.100; -569.000; -473.000
314.450; -194.800; -788.000; -684.000
314.587; -121.600; -468.000; -480.000
314.723;  -10.000;  -78.000;  130.000
314.860;   64.800;  318.000;  332.000
314.997;   16.300;  223.000;  142.000
315.134; -119.700; -385.000; -368.000
315.270; -140.000; -480.000; -496.000
315.407; -313.800;-1094.000; -967.000
315.544; -171.900; -657.000; -538.000
315.681; -213.100; -681.000; -565.000
315.817;  -55.300; -133.000; -176.000
315.954; -159.600; -613.000; -392.000
316.091; -332.500;-1045.000;-1023.000
316.227;  -62.000;  -71.000; -179.000
316.364;   23.300;   23.000;    6.000
316.500;  -93.800; -113.000; -300.000
316.637;  -92.900; -181.000; -302.000
316.774; -152.300; -625.000; -358.000
316.910; -175.600; -598.000; -629.000
317.047; -190.600; -487.000; -351.000
317.183; -173.000; -435.000; -566.000
317.320; -135.800; -367.000; -321.000
317.456; -229.000; -733.000; -805.000
317.593; -217.600; -598.000; -641.000
317.729;  -13.900;  168.000;  -67.000
317.866; -377.700;-1434.000;-1285.000
318.002; -217.500; -708.000; -948.000
318.139; -288.200; -883.000; -867.000
318.275; -240.800;-1003.000; -738.000
318.412; -129.000; -517.000; -336.000
318.548; -202.800; -751.000; -720.000
318.685; -292.600; -985.000; -888.000
318.821; -223.100; -762.000; -735.000
318.957;  -63.200;   34.000;  -23.000
319.094;  100.000;  297.000;  154.000
319.230; -267.000; -756.000; -742.000
319.367; -123.100; -471.000; -520.000
319.503; -155.200; -538.000; -436.000
319.639; -244.300; -877.000; -793.000
319.775; -198.300; -750.000; -685.000
319.912; -111.000; -424.000; -519.000
320.048; -329.200;-1184.000;-1184.000
320.184;   21.500;   59.000;   70.000
320.321; -145.500; -497.000; -467.000
320.457;  113.000;  475.000;  662.000
320.593; -113.100; -375.000; -382.000
320.729; -235.900; -732.000; -734.000
320.866; -163.400; -577.000; -635.000
321.002; -230.100; -759.000; -809.000
321.138; -109.000; -135.000; -211.000
321.274;  -14.500; -148.000; -115.000
321.410; -149.000; -585.000; -353.000
321.546; -265.800;-1011.000; -911.000
321.683;   75.100;  400.000;  185.000
321.819;   13.700;  -48.000; -117.000
321.955; -242.700; -743.000; -722.000
322.091; -134.000; -585.000; -540.000
322.227;  -61.600; -382.000; -202.000
322.363;  -90.700; -320.000; -215.000
322.499; -120.700; -343.000; -331.000
322.635;  110.300;  636.000;  443.000
322.771;  -61.900; -139.000;   12.000
322.907;   59.400;  129.000;  327.000
323.043;  -82.600; -115.000; -206.000
323.179; -115.200; -394.000; -363.000
323.315; -144.400; -401.000; -371.000
323.451; -100.600; -328.000; -236.000
323.587;  -45.900;  -60.000;  -77.000
323.723; -170.800; -682.000; -601.000
323.859;  -84.100; -258.000;  -76.000
323.995; -112.200; -467.000; -409.000
324.131; -243.400; -967.000; -892.000
324.267;  -66.900; -254.000; -276.000
324.402; -291.000; -960.000; -983.000
324.538;  -81.200; -279.000; -104.000
324.674;    5.900;  164.000;   77.000
324.810;   13.100;  226.000;  308.000
324.946; -117.000; -810.000; -658.000
325.082; -156.500; -568.000; -475.000
325.217;  -43.000;  -62.000;   16.000
325.353; -199.800; -764.000; -659.000
325.489; -173.400; -540.000; -506.000
325.625; -166.700; -579.000; -525.000
325.760;   67.100;  517.000;  376.000
325.896; -161.700; -515.000; -702.000
326.032; -110.400; -403.000; -352.000
326.168; -133.900; -462.000; -369.000
326.303; -152.100; -352.000; -461.000
326.439;  -71.000; -336.000; -276.000
326.575;  -49.600; -190.000;  -29.000
326.710;  -11.000; -156.000;  -30.000
326.846;  -51.000;  146.000;  103.000
326.982; -157.500; -530.000; -548.000
327.117; -178.300; -481.000; -442.000
327.253; -214.800; -745.000; -742.000
327.388; -357.500;-1137.000;-1153.000
327.524; -205.600; -811.000; -578.000
327.659;  -42.500;  -58.000;  -22.000
327.795;  -25.700;   69.000;   45.000
327.931; -165.700; -723.000; -499.000
328.066;  -97.800; -417.000; -276.000
328.202;  -69.400;   12.000; -129.000
328.337;  188.000;  957.000;  713.000
328.473;   -8.200;  -12.000;  -74.000
328.608; -103.900; -256.000; -267.000
328.743; -224.800; -799.000; -664.000
328.879;    4.500;  214.000;  114.000
329.014; -115.200; -102.000; -122.000
329.150; -177.400; -358.000; -483.000
329.285; -160.100; -465.000; -466.000
329.421; -122.200; -548.000; -246.000
329.556;  -37.000;  -36.000;   85.000
329.691; -184.700; -633.000; -615.000
329.827; -149.500; -626.000; -480.000
329.962;  -93.100;  131.000; -301.000
330.097; -172.600; -673.000; -585.000
330.233;  -86.400; -410.000; -223.000
330.368; -218.700; -839.000; -628.000
330.503;  -33.500;    3.000;   98.000
330.638;  -70.800;  -93.000; -125.000
330.774; -168.400; -609.000; -530.000
330.909; -101.200; -434.000; -244.000
331.044; -203.500; -714.000; -708.000
331.179; -351.800;-1217.000;-1109.000
331.315;   22.900;   77.000;   20.000
331.450;   19.500;  157.000;  285.000
331.585; -215.500; -805.000; -706.000
331.720; -182.700; -510.000; -460.000
331.855;  -39.900;  -35.000; -102.000
331.990;  -13.200;   62.000;  138.000
332.126;  -21.800; -110.000;   71.000
332.261; -150.300; -379.000; -265.000
332.396;  -88.200; -135.000; -242.000
332.531; -312.700;-1074.000;-1031.000
332.666; -154.600; -519.000; -363.000
332.801; -210.600; -726.000; -807.000
332.936;  -53.700; -192.000; -122.000
333.071; -290.600; -870.000; -817.000
333.206;   54.300;  307.000;  379.000
333.341;   72.500;  344.000;  418.000
333.476; -174.700; -627.000; -623.000
333.611;  -62.300; -251.000; -173.000
333.746;  -97.300; -381.000; -464.000
333.881; -249.000; -973.000; -935.000
334.016; -257.700; -936.000; -917.000
334.151; -232.500; -746.000; -702.000
334.286;   31.900;  152.000;  186.000
334.421;  -51.100; -125.000; -178.000
334.556; -190.500; -611.000; -567.000
334.690; -202.700; -631.000; -577.000
334.825;   64.600;  381.000;   83.000
334.960; -142.800; -285.000; -413.000
335.095;    4.100;  135.000;  -91.000
335.230; -234.300; -722.000; -738.000
335.365; -308.600;-1084.000; -990.000
335.499; -320.600;-1108.000;-1037.000
335.634;   -8.500;    9.000;  534.000
335.769; -262.100; -755.000; -720.000
335.904; -170.800; -603.000; -561.000
336.038; -225.900; -735.000; -657.000
336.173; -347.700;-1206.000;-1194.000
336.308;  -96.500; -116.000; -189.000
336.443; -176.500; -544.000; -634.000
336.577; -248.900; -936.000; -787.000
336.712;  -16.200;   -4.000;  -12.000
336.847; -191.400; -724.000; -607.000
336.981; -115.600; -272.000; -208.000
337.116;  112.700;  615.000;  501.000
337.250; -132.700; -434.000; -421.000
337.385; -105.700; -297.000; -208.000
337.520; -200.400; -632.000; -603.000
337.654;  -82.300; -215.000; -126.000
337.789; -246.300; -989.000; -933.000
337.923;  -90.000; -104.000; -205.000
338.058; -200.400; -673.000; -738.000
338.192; -167.600; -611.000; -488.000
338.327;  -59.600;  -18.000; -155.000
338.461; -150.200; -299.000; -469.000
338.596; -193.800; -780.000; -638.000
338.730; -242.000; -767.000; -803.000
338.865;  -24.800;  -46.000; -140.000
338.999; -253.300; -846.000; -702.000
339.134; -173.400; -634.000; -536.000
339.268; -177.400; -741.000; -603.000
339.403; -225.200; -740.000; -775.000
339.537; -221.700; -894.000; -820.000
339.671; -245.100; -829.000; -813.000
339.806; -182.200; -556.000; -512.000
339.940;  -62.700; -261.000; -235.000
340.074; -188.200; -685.000; -510.000
340.209;  -99.900; -351.000; -230.000
340.343; -211.000; -517.000; -573.000
340.477;  279.500;  998.000; 1036.000
340.612; -282.500;-1033.000; -900.000
340.746; -112.400; -199.000; -243.000
340.880; -220.900; -924.000; -785.000
341.014;  -69.100;  -45.000; -154.000
341.149; -268.400; -756.000; -718.000
341.283; -216.800; -839.000; -754.000
341.417; -312.100;-1124.000; -938.000
341.551; -222.000; -768.000; -708.000
341.685; -193.100; -633.000; -611.000
341.820; -169.000; -562.000; -493.000
341.954; -113.600; -218.000; -349.000
342.088; -289.400;-1102.000;-1019.000
342.222;  114.300;  565.000;  618.000
342.356; -142.500; -395.000; -335.000
342.490; -244.000; -880.000; -841.000
342.624; -120.300; -339.000; -242.000
342.758; -137.500; -364.000; -312.000
342.892; -218.600; -710.000; -585.000
343.026;  -65.200;  -58.000; -116.000
343.160;  -97.500; -426.000; -376.000
343.294; -169.000; -474.000; -337.000
343.428; -131.500; -488.000; -448.000
343.562;  -43.500; -172.000;  -23.000
343.696;  -75.400; -385.000; -314.000
343.830; -110.900; -362.000; -356.000
343.964;  -68.800; -231.000; -168.000
344.098;    3.300;  199.000;   70.000
344.232;  -59.900; -266.000; -127.000
344.366; -213.100; -567.000; -453.000
344.500; -184.600; -665.000; -744.000
344.634; -132.000; -324.000; -164.000
344.768; -139.700; -531.000; -341.000
344.902;   46.300;  278.000;  256.000
345.035; -145.900; -556.000; -496.000
345.169; -250.600; -933.000; -656.000
345.303; -216.900; -308.000; -482.000
345.437; -238.500; -826.000; -717.000
345.571; -198.800; -675.000; -594.000
345.704; -157.900; -309.000; -532.000
345.838;  -78.400; -331.000; -284.000
345.972; -181.200; -543.000; -495.000
346.106;  -42.000; -179.000; -190.000
346.239;  -90.900; -312.000; -243.000
346.373; -129.300; -343.000; -302.000
346.507; -292.100; -950.000; -962.000
346.640;  -18.200;  -30.000;   13.000
346.774; -219.300; -650.000; -797.000
346.908;  -50.300; -138.000;  -11.000
347.041; -197.400; -646.000; -593.000
347.175;   51.000;  259.000;   27.000
347.309; -212.800; -698.000; -628.000
347.442; -269.500; -883.000; -732.000
347.576;  167.800;  670.000;  668.000
347.709;  -50.000; -123.000;  -52.000
347.843; -275.800; -933.000; -825.000
347.976;   63.300;  235.000;  294.000
348.110; -368.800;-1268.000;-1186.000
348.243; -223.000; -679.000; -772.000
348.377;   -5.700;  -26.000;   60.000
348.510;   63.400;  403.000;  540.000
348.644;  -87.900;  -37.000; -159.000
348.777;    0.300;  180.000;  191.000
348.911;  -86.900; -142.000; -112.000
349.044;   67.900;  471.000;  448.000
349.178; -324.200;-1069.000;-1006.000
349.311;   43.500;  141.000;  255.000
349.444; -291.400; -927.000; -813.000
349.578;  -58.900; -347.000; -200.000
349.711; -295.900; -959.000; -862.000
349.845; -206.400; -661.000; -591.000
349.978; -343.100;-1224.000;-1137.000
350.111; -186.300; -546.000; -612.000
350.244; -208.000; -596.000; -700.000
350.378; -151.900; -392.000; -393.000
350.511; -173.300; -393.000; -426.000
350.644; -232.000; -808.000; -806.000
350.778;  -26.800;  168.000;  104.000
350.911;  -24.500;  134.000;  140.000
351.044; -205.500; -685.000; -615.000
351.177;  -86.800; -321.000; -281.000
351.310;  -40.500;    3.000; -131.000
351.444; -252.800; -888.000; -788.000
351.577;    8.400;  140.000;   90.000
351.710;  116.200;  593.000;  417.000
351.843;  -68.200; -165.000;  -77.000
351.976;  -12.000;  149.000;  -79.000
352.109; -180.000; -621.000; -612.000
352.242; -156.400; -464.000; -419.000
352.376; -190.600; -580.000; -636.000
352.509; -173.700; -437.000; -356.000
352.642; -303.300; -654.000; -604.000
352.775;  -73.000; -141.000;  -98.000
352.908; -282.700; -933.000; -904.000
353.041; -229.600; -814.000; -824.000
353.174; -135.500; -551.000; -424.000
353.307; -234.400; -753.000; -764.000
353.440;  106.900;  541.000;  453.000
353.573; -292.200; -957.000;-1008.000
353.706; -185.200; -384.000; -558.000
353.839;  -97.000; -264.000; -220.000
353.971; -203.400; -657.000; -512.000
354.104; -234.000; -896.000; -835.000
354.237; -237.100; -627.000; -662.000
354.370; -236.700; -846.000; -879.000
354.503; -382.700;-1231.000;-1308.000
354.636; -107.300; -529.000; -348.000
354.769; -283.500; -937.000; -860.000
354.902;  -68.000; -230.000; -139.000
355.034;  -75.100; -164.000; -220.000
355.167;  -85.800; -262.000; -162.000
355.300; -305.100;-1061.000; -880.000
355.433;  -52.100;  -71.000;  -14.000
355.565; -117.200; -402.000; -384.000
355.698; -102.400; -356.000; -296.000
355.831; -249.300; -882.000; -801.000
355.964;  -99.500; -285.000; -170.000
356.096; -266.000; -856.000; -843.000
356.229; -181.500; -523.000; -530.000
356.362;  -62.600; -373.000; -266.000
356.494;  -75.100; -229.000; -162.000
356.627;   42.300;  269.000;  377.000
356.760;  -12.500;  120.000;   53.000
356.892; -208.500; -286.000; -601.000
357.025;   78.200;  403.000;  389.000
357.157;  -68.400; -167.000; -179.000
357.290; -272.500; -856.000; -713.000
357.423; -211.000; -667.000; -556.000
357.555;  -61.200; -217.000; -228.000
357.688; -156.100; -483.000; -364.000
357.820; -299.900; -870.000; -877.000
357.953; -195.500; -563.000; -589.000
358.085; -194.300; -632.000; -612.000
358.218; -304.400;-1131.000; -932.000
358.350;  -36.200;  -58.000;  312.000
358.483; -384.700;-1300.000;-1187.000
358.615; -306.700;-1182.000;-1078.000
358.747; -343.700;-1187.000;-1058.000
358.880; -212.700; -810.000; -744.000
359.012; -117.300; -376.000; -202.000
359.145; -174.000; -480.000; -511.000
359.277; -294.800; -962.000; -913.000
359.409;  110.300;  536.000;  231.000
359.542; -192.700; -738.000; -688.000
359.674;   -5.900;   46.000;   13.000
359.806; -208.300; -565.000; -438.000
359.939; -150.300; -617.000; -516.000
360.071; -201.600; -583.000; -579.000
360.203; -124.400; -411.000; -364.000
360.335;  -31.700;  164.000;  -16.000
360.468;  -75.000; -249.000; -307.000
360.600; -166.300; -547.000; -454.000
360.732; -188.500; -546.000; -423.000
360.864; -364.200;-1216.000;-1044.000
360.996; -118.600; -516.000; -554.000
361.129; -136.000; -389.000; -598.000
361.261;  -45.900;  110.000; -113.000
361.393;  -84.100; -252.000; -214.000
361.525;   18.700;   94.000;  244.000
361.657; -213.600; -821.000; -703.000
361.789;  -72.000; -139.000; -155.000
361.921; -192.300; -642.000; -593.000
362.053;  125.900;  524.000;  541.000
362.185;    4.200;  288.000;   72.000
362.318; -228.000; -709.000; -705.000
362.450;   51.200;  294.000;  444.000
362.582; -294.700; -913.000; -870.000
362.714; -126.300; -353.000; -332.000
362.846; -174.600; -606.000; -490.000
362.978; -273.400; -941.000; -811.000
363.109; -139.100; -161.000; -260.000
363.241; -235.500; -739.000; -749.000
363.373; -204.400; -649.000; -564.000
363.505;  -54.400; -186.000;  -91.000
363.637; -186.400; -787.000; -601.000
363.769; -340.900;-1067.000;-1080.000
363.901; -198.700; -596.000; -654.000
364.033; -333.200;-1103.000;-1062.000
364.165;  -86.500; -283.000; -283.000
364.296; -108.800; -316.000; -177.000
364.428; -390.900;-1344.000;-1220.000
364.560; -213.000; -679.000; -661.000
364.692; -187.500; -738.000; -835.000
364.824; -178.700; -588.000; -456.000
364.955; -167.500; -402.000; -564.000
365.087; -322.100;-1097.000; -852.000
365.219; -204.700; -686.000; -816.000
365.351; -218.400; -526.000; -572.000
365.482;   13.100;  300.000;  240.000
365.614; -103.600; -402.000; -314.000
365.746; -192.400; -729.000; -752.000
365.877; -234.000; -706.000; -672.000
366.009;  -32.000;  -35.000;  -62.000
366.141; -343.800;-1249.000;-1134.000
366.272; -247.000; -803.000; -719.000
366.404; -262.600;-1005.000; -874.000
366.535;  -37.700; -139.000;  -12.000
366.667; -190.600; -644.000; -649.000
366.799;   68.700;  353.000;  203.000
366.930; -303.100; -862.000; -996.000
367.062; -198.800; -639.000; -613.000
367.193; -267.400; -872.000; -842.000
367.325; -186.900; -580.000; -684.000
367.456; -129.200; -246.000;   31.000
367.588; -155.100; -371.000; -318.000
367.719;  -51.700;  -44.000;  -45.000
367.851;  -79.300; -222.000; -241.000
367.982; -291.700; -875.000; -732.000
368.113; -127.600; -475.000; -358.000
368.245; -305.800; -960.000; -841.000
368.376;  -76.200; -254.000; -302.000
368.508; -111.600; -188.000; -263.000
368.639; -325.200;-1166.000;-1034.000
368.770; -210.200; -670.000; -589.000
368.902; -254.800; -836.000; -926.000
369.033; -285.100; -906.000; -855.000
369.164; -178.600; -720.000; -653.000
369.296; -214.900; -452.000; -601.000
369.427;  -90.500; -209.000; -144.000
369.558; -143.700; -593.000; -377.000
369.689; -188.100; -721.000; -569.000
369.821; -282.700; -951.000; -845.000
369.952;  -36.200;   42.000; -108.000
370.083;  -76.400; -229.000; -108.000
370.214; -220.800; -735.000; -650.000
370.345;  -40.500;   65.000;   81.000
370.477; -272.500; -810.000; -790.000
370.608; -105.500; -328.000; -264.000
370.739; -350.900;-1233.000;-1292.000
370.870; -282.300;-1102.000; -923.000
371.001; -134.900; -378.000; -467.000
371.132; -235.400; -754.000; -735.000
371.263;  -45.700;  -42.000; -148.000
371.394; -272.300; -841.000; -748.000
371.525;   31.200;  345.000;  225.000
371.657; -263.500; -808.000; -670.000
371.788;   -0.200;  103.000;  199.000
371.919; -157.800; -384.000; -304.000
372.050;  -51.000;  -91.000; -156.000
372.181;  -57.000; -188.000; -294.000
372.311;  -24.200;   42.000; -127.000
372.442; -148.600; -457.000; -451.000
372.573;  -96.800; -444.000; -340.000
372.704; -305.300;-1008.000; -980.000
372.835;  -99.500; -228.000; -289.000
372.966; -201.400; -646.000; -554.000
373.097; -226.700; -575.000; -711.000
373.228; -198.200; -717.000; -542.000
373.359; -234.100; -824.000; -536.000
373.490; -260.600; -881.000; -727.000
373.620; -280.200;-1001.000; -803.000
373.751; -153.500; -332.000; -396.000
373.882; -207.200; -663.000; -733.000
374.013;  -93.200; -449.000; -262.000
374.143; -186.000; -581.000; -659.000
374.274; -283.500; -987.000; -908.000
374.405;  -98.600; -388.000; -276.000
374.536; -153.900; -526.000; -387.000
374.666; -233.700; -759.000; -807.000
374.797; -246.500; -817.000; -868.000
374.928; -184.900; -710.000; -560.000
375.058; -189.900; -535.000; -500.000
375.189;  -49.600;  -59.000;  -93.000
375.320; -325.700; -928.000;-1034.000
375.450; -180.000; -625.000; -616.000
375.581; -157.000; -526.000; -436.000
375.712; -114.100; -574.000; -250.000
375.842; -167.700; -438.000; -415.000
375.973; -173.800; -554.000; -513.000
376.103; -213.600; -665.000; -648.000
376.234; -185.300; -531.000; -552.000
376.364; -281.400; -944.000; -867.000
376.495;  173.200;  925.000;  529.000
376.625; -182.300; -472.000; -485.000
376.756; -229.000; -709.000; -678.000
376.886; -346.500;-1178.000;-1026.000
377.017; -303.500;-1048.000;-1061.000
377.147; -266.600; -786.000; -782.000
377.278;   28.600;  174.000;  228.000
377.408; -275.400; -801.000; -815.000
377.538; -248.200; -707.000; -693.000
377.669; -200.200; -537.000; -613.000
377.799; -246.600; -645.000; -635.000
377.929; -175.700; -610.000; -428.000
378.060; -251.300; -781.000; -847.000
378.190; -247.900; -726.000; -531.000
378.320; -127.500; -401.000; -406.000
378.451;  -23.700; -131.000;  -22.000
378.581;  -31.200;  -67.000; -110.000
378.711;  167.000; 1035.000;  866.000
378.841; -183.600; -533.000; -675.000
378.972; -289.600; -871.000; -751.000
379.102; -172.200; -652.000; -579.000
379.232; -102.700; -126.000;  -73.000
379.362; -273.600;-1001.000; -885.000
379.492; -162.500; -373.000; -424.000
379.623;   -5.600;    0.000;  111.000
379.753; -308.800;-1107.000; -974.000
379.883;    8.200;   59.000;  156.000
380.013; -326.100;-1081.000;-1017.000
380.143; -331.900;-1097.000;-1056.000
380.273; -282.200; -985.000; -861.000
380.403; -108.200; -344.000; -257.000
380.533; -239.700; -651.000; -664.000
380.663;   19.200;  173.000;  128.000
380.793; -328.200;-1027.000;-1074.000
380.923;  -94.700; -103.000;  -34.000
381.053; -209.800; -613.000; -623.000
381.183;  -59.800; -106.000; -248.000
381.313; -201.300; -656.000; -470.000
381.443; -179.900; -692.000; -473.000
381.573; -163.400; -402.000; -409.000
381.703; -343.700;-1249.000;-1095.000
381.833; -392.700;-1454.000;-1336.000
381.963;    8.200; -134.000;  -87.000
382.093; -307.200; -925.000; -909.000
382.223; -184.600; -713.000; -602.000
382.353; -214.000; -801.000; -608.000
382.482; -318.500;-1091.000; -964.000
382.612; -223.500; -872.000; -644.000
382.742; -214.500; -695.000; -622.000
382.872; -175.000; -565.000; -551.000
383.002;  -13.700;  347.000; -132.000
383.131; -100.500; -226.000; -160.000
383.261; -221.100; -706.000; -768.000
383.391; -172.300; -552.000; -377.000
383.521;   53.600;  451.000;  263.000
383.650; -280.700; -947.000; -904.000
383.780; -226.600; -783.000; -656.000
383.910;  132.700;  880.000;  802.000
384.039; -247.000; -794.000; -656.000
384.169; -354.300;-1205.000;-1017.000
384.299; -206.900; -650.000; -662.000
384.428; -227.900; -764.000; -680.000
384.558; -110.600; -308.000; -275.000
384.687; -139.900; -414.000; -334.000
384.817;  -34.200;   75.000;   -2.000
384.947; -108.200; -234.000; -141.000
385.076;  213.100;  982.000;  912.000
385.206;   87.100;  369.000;  480.000
385.335; -121.500; -549.000; -417.000
385.465; -234.400; -655.000; -663.000
385.594;  -37.300;  -53.000;  -44.000
385.724; -285.200; -868.000; -838.000
385.853; -114.400; -296.000; -270.000
385.982; -266.700; -743.000; -787.000
386.112; -264.100;-1052.000; -871.000
386.241; -113.100; -307.000; -312.000
386.371;  -55.100; -174.000;  -87.000
386.500; -271.100; -825.000; -789.000
386.629; -215.900; -874.000; -817.000
386.759;  -43.800;  -43.000;   68.000
386.888;  -47.900; -170.000; -250.000
387.017; -240.400; -648.000; -620.000
387.147; -233.600; -771.000; -798.000
387.276; -177.800; -410.000; -397.000
387.405; -123.500; -398.000; -342.000
387.535; -151.900; -452.000; -361.000
387.664; -219.700; -692.000; -620.000
387.793;  -61.100; -198.000; -113.000
387.922;   20.800;  255.000;  200.000
388.052; -163.600; -576.000; -423.000
388.181; -127.700; -342.000; -472.000
388.310; -246.800; -889.000; -710.000
388.439; -264.600; -749.000; -742.000
388.568;   33.200;  365.000;  244.000
388.697; -212.200; -756.000; -653.000
388.826; -204.500; -768.000; -666.000
388.956; -109.500; -285.000; -307.000
389.085; -133.000; -347.000; -287.000
389.214; -225.400; -842.000; -872.000
389.343; -189.100; -645.000; -413.000
389.472;   35.400;  126.000;  149.000
389.601;  -30.400;   91.000;    0.000
389.730; -185.800; -568.000; -687.000
389.859;   26.200;  226.000;   46.000
389.988; -109.600; -423.000; -408.000
390.117; -114.200; -168.000; -146.000
390.246; -101.500; -331.000; -320.000
390.375; -239.000; -673.000; -626.000
390.504; -180.100; -703.000; -621.000
390.633; -253.700; -672.000; -726.000
390.761; -241.900; -732.000; -645.000
390.890;  -68.800;   -4.000; -130.000
391.019; -153.800; -421.000; -441.000
391.148; -271.700; -826.000; -855.000
391.277; -190.000; -576.000; -493.000
391.406; -268.200; -821.000; -805.000
391.534;    3.200;  574.000; -301.000
391.663; -172.200; -583.000; -645.000
391.792; -222.500; -673.000; -701.000
391.921;  -36.300;   -3.000;   15.000
392.050; -128.300; -287.000; -228.000
392.178; -346.500;-1206.000;-1061.000
392.307; -253.000; -758.000; -712.000
392.436; -216.500; -427.000; -641.000
392.564;  -12.700;  166.000;   -6.000
392.693; -240.300; -860.000; -682.000
392.822; -186.400; -529.000; -534.000
392.950; -252.900; -880.000; -714.000
393.079; -110.300; -188.000; -328.000
393.208; -196.300; -488.000; -511.000
393.336;  -35.100; -170.000; -145.000
393.465;  -88.900; -317.000; -199.000
393.593;    3.500;   62.000;   79.000
393.722; -310.600;-1121.000; -916.000
393.850;  -68.900; -188.000;  -61.000
393.979; -288.900; -926.000; -805.000
394.107; -188.000; -517.000; -537.000
394.236; -190.500; -570.000; -507.000
394.364;   32.900;  383.000;  206.000
394.493; -262.300; -911.000; -767.000
394.621; -260.900; -955.000; -916.000
394.750; -290.000; -873.000; -923.000
394.878; -109.900; -247.000; -149.000
395.007; -259.500; -721.000; -807.000
395.135; -243.300; -790.000; -721.000
395.263; -287.700;-1038.000;-1040.000
395.392;  -50.000;  -25.000; -107.000
395.520; -187.000; -818.000; -679.000
395.648; -305.900; -865.000; -915.000
395.777; -188.300; -366.000; -405.000
395.905; -165.600; -449.000; -564.000
396.033;  -10.000;  217.000;  172.000
396.162; -141.400; -399.000; -453.000
396.290;  -48.500;  -17.000;   -2.000
396.418; -171.000; -555.000; -514.000
396.546; -227.800; -571.000; -466.000
396.674; -272.000; -850.000; -878.000
396.803;  -40.700;  -72.000;  -23.000
396.931; -109.200; -179.000; -199.000
397.059; -288.900;-1026.000; -989.000
397.187; -283.800;-1026.000; -975.000
397.315; -256.000; -884.000; -649.000
397.443; -185.600; -592.000; -443.000
397.572; -187.000; -578.000; -424.000
397.700; -195.200; -607.000; -614.000
397.828;  -60.500;  120.000;  -90.000
397.956; -148.100; -508.000; -478.000
398.084; -216.500; -767.000; -626.000
398.212;    5.500;  137.000;  124.000
398.340;  -20.800;  -56.000;  159.000
398.468; -128.800; -390.000; -169.000
398.596; -288.400; -993.000; -953.000
398.724; -232.200; -762.000; -767.000
398.852; -303.000;-1024.000; -976.000
398.980; -178.900; -560.000; -560.000
399.108; -218.400; -982.000; -735.000
399.236;    8.600;   13.000;    8.000
399.363;   -8.100;  222.000;  196.000
399.491; -166.900; -404.000; -398.000
399.619; -261.000; -829.000; -800.000
399.747; -255.400; -859.000; -771.000
399.875;   33.200;  220.000;  234.000
400.003; -123.700; -359.000; -284.000
400.130; -146.100; -421.000; -341.000
400.258;  -17.500;  -83.000;   38.000
400.386;  -92.100; -352.000; -168.000
400.514; -189.200; -526.000; -587.000
400.641; -290.000; -928.000; -802.000
400.769; -290.700; -979.000; -888.000
400.897; -251.400; -838.000; -793.000
401.025;  -62.200; -166.000; -152.000
401.152;    7.600;  220.000;   38.000
401.280; -140.100; -430.000; -429.000
401.408; -239.400; -712.000; -576.000
401.535; -227.000; -735.000; -758.000
401.663; -349.500;-1134.000;-1054.000
401.790; -174.100; -514.000; -525.000
401.918;  112.300;  436.000;  405.000
402.046;   -6.600;  134.000;  122.000
402.173;  -42.300;  -18.000;    7.000
402.301; -156.500; -519.000; -397.000
402.428;   64.500;  528.000;  383.000
402.556; -300.300;-1188.000; -913.000
402.683;  -77.200;  -20.000;   -1.000
402.811;  -44.300;  -37.000; -206.000
402.938;  -32.200;   20.000;   27.000
403.066; -191.500; -574.000; -558.000
403.193;  -49.900;  299.000;  239.000
403.321; -179.500; -396.000; -574.000
403.448;    5.000;   83.000;   27.000
403.575;  -50.600;  -90.000;  -46.000
403.703; -223.700; -732.000; -557.000
403.830; -167.400; -531.000; -496.000
403.957; -326.800;-1117.000;-1023.000
404.085;  -87.100;  -61.000; -172.000
404.212;  -39.900;  -50.000;   63.000
404.339; -167.400; -566.000; -306.000
404.467; -169.700; -612.000; -524.000
404.594;  -99.700; -287.000; -227.000
404.721; -216.800; -869.000; -764.000
404.848;  -98.300; -113.000; -202.000
404.976; -276.900; -856.000; -783.000
405.103;  -12.000;  -14.000;  -82.000
405.230;   -7.000;  190.000;  226.000
405.357;  -20.200;  117.000;   44.000
405.484;  -54.000;  -49.000;    5.000
405.612; -148.000; -548.000; -563.000
405.739; -131.400; -488.000; -243.000
405.866;  127.300;  669.000;  385.000
405.993; -127.500; -398.000; -102.000
406.120; -270.100; -801.000; -887.000
406.247; -163.000; -323.000; -342.000
406.374;  107.500;  540.000;  629.000
406.501; -205.700; -632.000; -702.000
406.628; -194.000; -621.000; -589.000
406.755; -219.700; -803.000; -620.000
406.882; -102.200; -228.000; -277.000
407.009; -212.800; -719.000; -628.000
407.136; -134.200; -480.000; -401.000
407.263; -318.100; -939.000; -829.000
407.390; -228.200; -692.000; -614.000
407.517; -363.100;-1139.000;-1187.000
407.644; -124.400; -332.000; -256.000
407.771; -142.500; -249.000; -287.000
407.898;   14.600;  168.000;  328.000
408.025; -167.200; -421.000; -313.000
408.151;   -0.500;   82.000;  153.000
408.278; -110.300; -267.000; -216.000
408.405; -273.800; -931.000; -899.000
408.532; -205.500; -549.000; -542.000
408.659; -228.100; -677.000; -648.000
408.785; -369.400;-1298.000;-1170.000
408.912; -124.100; -412.000; -296.000
409.039; -188.400; -610.000; -686.000
409.166; -185.400; -591.000; -555.000
409.292; -197.900; -571.000; -534.000
409.419; -208.200; -665.000; -649.000
409.546; -124.300; -431.000; -192.000
409.672; -213.900; -713.000; -545.000
409.799;  -67.700;  -36.000;   34.000
409.926;  -91.300; -180.000; -179.000
410.052; -360.400;-1127.000;-1091.000
410.179; -130.400; -368.000; -392.000
410.305; -139.600; -375.000; -493.000
410.432; -100.900; -220.000; -333.000
410.558; -158.800; -305.000; -380.000
410.685; -208.900; -688.000; -431.000
410.812; -201.900; -409.000; -588.000
410.938; -274.000; -964.000; -808.000
411.065; -209.400; -671.000; -645.000
411.191;  -92.600; -189.000; -174.000
411.317; -243.300; -823.000; -742.000
411.444; -109.000; -317.000; -246.000
411.570; -104.700; -339.000; -294.000
411.697; -253.800; -758.000; -752.000
411.823; -324.800; -989.000; -999.000
411.949;  -66.400;  -56.000;   17.000
412.076; -213.100; -539.000; -519.000
412.202; -231.600; -758.000; -757.000
412.329; -261.200; -798.000; -752.000
412.455; -222.800; -821.000; -657.000
412.581;  -20.200;  -15.000;  172.000
412.707; -160.600; -540.000; -457.000
412.834;   27.200;  156.000;  219.000
412.960; -258.300; -785.000; -784.000
413.086; -257.600; -743.000; -701.000
413.212;   93.300;  604.000;  578.000
413.339; -266.700; -685.000; -701.000
413.465; -165.300; -364.000; -310.000
413.591; -208.500; -757.000; -474.000
413.717; -118.800; -358.000; -366.000
413.843; -279.200; -839.000; -861.000
413.969; -164.500;  -47.000; -292.000
414.096; -228.600; -679.000; -679.000
414.222;  -28.400;  -33.000;   85.000
414.348; -240.800; -652.000; -385.000
414.474;  -55.700;   38.000;  -52.000
414.600;  -83.900; -126.000; -144.000
414.726;  -43.100;  -96.000;  -55.000
414.852; -163.800; -365.000; -342.000
414.978;  -41.600;  104.000;  -18.000
415.104;  -63.500;   38.000;   80.000
415.230; -138.900; -329.000; -330.000
415.356; -181.500; -409.000; -514.000
415.482;  -54.600;   13.000;  -35.000
415.608; -100.500; -247.000; -323.000
415.734;  -27.100;   67.000;   38.000
415.860; -268.900; -875.000; -767.000
415.986; -238.900; -685.000; -607.000
416.111; -271.700; -798.000; -652.000
416.237; -176.500; -424.000; -571.000
416.363; -234.500; -765.000; -733.000
416.489; -132.500; -324.000; -251.000
416.615; -242.600; -707.000; -742.000
416.741; -222.400; -677.000; -784.000
416.866; -229.300; -673.000; -736.000
416.992; -266.800; -801.000; -818.000
417.118; -104.400;  -41.000;  -80.000
417.244; -242.100; -798.000; -531.000
417.369; -274.600; -801.000; -612.000
417.495; -132.700; -325.000; -254.000
417.621; -304.000;-1015.000; -803.000
417.746; -154.500; -579.000; -572.000
417.872;  -74.900; -254.000; -144.000
417.998; -174.700; -515.000; -530.000
418.123; -312.200;-1073.000; -845.000
418.249; -189.700; -512.000; -601.000
418.374; -289.300; -916.000; -824.000
418.500; -164.600; -383.000; -482.000
418.626;  -29.200;   70.000;  -59.000
418.751; -199.600; -549.000; -448.000
418.877; -228.100; -637.000; -643.000
419.002; -165.800; -688.000; -560.000
419.128; -296.500; -930.000; -721.000
419.253; -282.200; -967.000; -837.000
419.379; -212.800; -391.000; -338.000
419.504;   55.900;  325.000;  415.000
419.629; -150.900; -393.000; -212.000
419.755; -129.600; -317.000; -254.000
419.880;  -88.700;  -98.000;   67.000
420.006; -124.400; -280.000; -221.000
420.131; -210.100; -662.000; -775.000
420.256; -111.300; -315.000; -316.000
420.382; -224.600; -665.000; -687.000
420.507; -234.300; -649.000; -778.000
420.632; -149.900; -337.000; -339.000
420.758;  -91.300; -251.000; -425.000
420.883; -239.800; -876.000; -672.000
421.008; -253.000; -775.000; -619.000
421.133; -178.100; -509.000; -467.000
421.259;  -99.800; -325.000; -259.000
421.384; -266.800; -834.000; -693.000
421.509; -265.700;-1052.000; -862.000
421.634; -292.000; -936.000; -820.000
421.759; -144.800; -359.000; -327.000
421.885; -227.000; -717.000; -656.000
422.010; -201.300; -673.000; -542.000
422.135; -298.700; -695.000; -727.000
422.260;   74.200;  340.000;  280.000
422.385;  -74.600;   12.000;  -98.000
422.510;   -8.200;  151.000;  -26.000
422.635;  -65.100;  -87.000;  -43.000
422.760; -242.500; -766.000; -791.000
422.885;  -43.600;  -57.000;  -80.000
423.010;  -80.200; -112.000; -169.000
423.135; -168.500; -481.000; -561.000
423.260; -111.200; -150.000; -245.000
423.385;   10.300;  476.000;  222.000
423.510;  -16.100;   71.000;  -22.000
423.635;  -29.600;  133.000;   45.000
423.760;   21.100;  383.000;  328.000
423.885;   15.500;  336.000;  391.000
424.010;  -67.200;  -68.000;  -13.000
424.135;  -97.900;    5.000;  -33.000
424.259; -207.000; -654.000; -457.000
424.384; -159.500; -279.000; -272.000
424.509; -102.600; -260.000; -186.000
424.634; -246.800; -761.000; -623.000
424.759; -200.300; -688.000; -544.000
424.883; -183.400; -506.000; -527.000
425.008; -197.600; -502.000; -410.000
425.133; -228.000; -679.000; -653.000
425.258; -182.900; -517.000; -381.000
425.382; -241.800; -867.000; -774.000
425.507; -209.700; -487.000; -543.000
425.632; -251.100; -802.000; -663.000
425.756; -130.500; -256.000; -146.000
425.881; -260.500; -831.000; -857.000
426.006; -148.000; -604.000; -355.000
426.130; -239.400; -696.000; -508.000
426.255; -206.600; -611.000; -491.000
426.379; -107.500; -189.000; -577.000
426.504;  117.000;  660.000;  544.000
426.629; -206.500; -519.000; -466.000
426.753;  -48.800;   64.000;  -46.000
426.878;  -86.100; -252.000; -288.000
427.002; -276.900; -651.000; -668.000
427.127; -121.000;  -35.000; -158.000
427.251;   41.300;  372.000;  401.000
427.375; -140.700; -191.000; -173.000
427.500; -203.600; -616.000; -610.000
427.624; -149.100; -234.000; -400.000
427.749; -141.200; -216.000; -225.000
427.873; -201.200; -499.000; -412.000
427.997;  -98.900; -222.000; -230.000
428.122;  139.100;  795.000;  703.000
428.246;   80.100;  433.000;  434.000
428.371; -267.100; -869.000; -773.000
428.495; -233.900; -624.000; -646.000
428.619; -103.900; -186.000; -117.000
428.743;  -24.700;   65.000;  132.000
428.868; -239.200; -732.000; -643.000
428.992; -144.700; -219.000; -326.000
429.116; -131.400; -329.000; -357.000
429.240;   27.800;  419.000;  426.000
429.365; -159.600; -454.000; -574.000
429.489; -196.500; -638.000; -647.000
429.613; -111.600; -236.000; -177.000
429.737; -168.200; -563.000; -432.000
429.861; -119.700; -247.000; -133.000
429.985; -166.800; -425.000; -305.000
430.109; -311.100; -770.000; -908.000
430.234;  -23.000;   76.000;  -50.000
430.358; -108.500; -250.000; -160.000
430.482; -249.100; -672.000; -564.000
430.606; -199.700; -655.000; -375.000
430.730; -152.600; -437.000; -388.000
430.854; -307.600; -909.000; -835.000
430.978; -255.700; -795.000; -764.000
431.102; -206.500; -499.000; -422.000
431.226; -256.800; -874.000; -815.000
431.350;   20.700;  345.000;  422.000
431.474; -179.800; -661.000; -373.000
431.597; -319.600;-1060.000; -848.000
431.721; -111.000; -276.000; -267.000
431.845; -216.400; -704.000; -472.000
431.969; -126.600; -304.000; -349.000
432.093; -168.600; -395.000; -317.000
432.217;  -31.100;   32.000;   82.000
432.341; -191.500; -523.000; -518.000
432.464;  -84.000;   96.000;   40.000
432.588; -175.100; -401.000; -329.000
432.712;  -67.200;  -52.000;  -52.000
432.836;   -2.000;  213.000;  263.000
432.959; -143.300; -372.000; -311.000
433.083;  -64.600;   11.000;    2.000
433.207;   54.200;  285.000;  930.000
433.330; -120.000; -391.000; -200.000
433.454; -207.700; -654.000; -638.000
433.578;   86.400;  583.000;  278.000
433.701; -238.000; -623.000; -675.000
433.825; -170.000; -292.000; -299.000
433.949;  -67.400;   28.000;  -72.000
434.072; -167.500; -410.000; -323.000
434.196; -108.100; -309.000; -117.000
434.319; 7398.900;25482.000;25124.000
434.443; -237.900; -656.000; -603.000
434.566;   -8.100;  281.000;   62.000
434.690; -200.200; -637.000; -383.000
434.813; -157.700; -251.000; -173.000
434.937; -220.700; -569.000; -696.000
435.060; -158.000; -423.000; -332.000
435.184; -155.800; -492.000; -217.000
435.307;  -12.300;  159.000;  102.000
435.431;  -30.700;  -40.000;   24.000
435.554; -114.700; -399.000; -240.000
435.677; -184.400; -350.000; -258.000
435.801;  -53.900;  -25.000;   49.000
435.924;  -64.200;    1.000;  -67.000
436.048; -295.000;-1019.000; -732.000
436.171; -132.500; -240.000;  -66.000
436.294; -136.900; -248.000; -229.000
436.417; -323.800; -963.000; -849.000
436.541; -269.200; -814.000; -840.000
436.664;  -78.200; -242.000; -316.000
436.787;  -45.800;   13.000;  113.000
436.910; -222.100; -792.000; -422.000
437.034;   20.800;  142.000;  143.000
437.157;  -39.800;  -11.000;    0.000
437.280; -158.300; -392.000; -292.000
437.403; -276.300; -982.000; -869.000
437.526; -292.700; -903.000; -865.000
437.649; -175.200; -505.000; -332.000
437.772; -210.300; -692.000; -540.000
437.896;   93.700;  700.000;  544.000
438.019; -231.500; -758.000; -503.000
438.142; -187.900; -596.000; -506.000
438.265; -242.800; -639.000; -670.000
438.388; -164.500; -520.000; -410.000
438.511; -219.900; -597.000; -394.000
438.634; -145.300; -247.000; -125.000
438.757; -260.500; -693.000; -619.000
438.880;  -69.400;  -34.000;  -57.000
439.003; -168.600; -417.000; -437.000
439.126; -102.600; -287.000; -167.000
439.248; -110.400;  -98.000; -139.000
439.371;  -32.500;    9.000;  -53.000
439.494;   92.700;  510.000;  439.000
439.617;  -67.300;   65.000;  -88.000
439.740; -292.700; -968.000; -816.000
439.863; -225.800; -755.000; -595.000
439.986; -221.900; -476.000; -431.000
440.108;  -88.700; -161.000; -112.000
440.231; -340.400; -950.000; -836.000
440.354;  -49.500;  -64.000; -150.000
440.477; -238.500; -566.000; -542.000
440.599; -143.800; -200.000; -225.000
440.722; -219.000; -709.000; -586.000
440.845;  162.800;  751.000;  928.000
440.968; -209.800; -415.000; -311.000
441.090; -100.000; -199.000;  -33.000
441.213; -318.700;-1021.000; -825.000
441.336;  -75.300; -159.000;   -5.000
441.458; -180.700; -549.000; -396.000
441.581; -227.900; -628.000; -629.000
441.703; -134.200; -152.000;   13.000
441.826; -193.300; -557.000; -400.000
441.948;  -36.500;   56.000;   51.000
442.071;   91.900;  555.000;  424.000
442.193; -192.800; -531.000; -485.000
442.316;  -42.500;  152.000;   97.000
442.438; -124.900; -233.000;  -10.000
442.561;   15.900;  272.000;  262.000
442.683; -236.500; -809.000; -522.000
442.806;  -69.400;   -8.000;   74.000
442.928; -281.900; -859.000; -604.000
443.051; -221.800; -577.000; -373.000
443.173; -166.700; -341.000; -339.000
443.295; -159.800; -263.000; -371.000
443.418; -149.000; -321.000;  -29.000
443.540;  -76.700; -106.000;   -4.000
443.662; -215.700; -563.000; -465.000
443.785;    3.800;  335.000;  199.000
443.907; -181.600; -362.000; -208.000
444.029; -210.300; -767.000; -494.000
444.152; -227.400; -644.000; -554.000
444.274;  -47.600;  -18.000;  -24.000
444.396; -187.800; -461.000; -221.000
444.518; -218.000; -691.000; -454.000
444.640; -185.700; -268.000; -111.000
444.763;   -6.700;  388.000;  249.000
444.885; -182.000; -432.000; -392.000
445.007;  -29.400;   35.000;   86.000
445.129; -242.300; -610.000; -515.000
445.251; -192.700; -372.000; -439.000
445.373; -233.500; -537.000; -386.000
445.495;   52.100;  242.000;  350.000
445.617;   96.300;  853.000;  753.000
445.739; -107.500; -215.000;  -97.000
445.861;  -96.600; -245.000; -112.000
445.984; -130.500; -267.000; -101.000
446.105; -134.900; -418.000; -251.000
446.227;  -96.200; -176.000;  -19.000
446.349; -195.600; -358.000; -249.000
446.471; -236.400; -615.000; -448.000
446.593; -145.200; -316.000;   19.000
446.715;  -80.800;  -67.000;   41.000
446.837;  130.100;  697.000;  832.000
446.959; -189.600; -457.000; -478.000
447.081; -203.800; -628.000; -518.000
447.203;  133.400;  862.000;  834.000
447.325; -125.000; -270.000;   42.000
447.446;   15.100;  286.000;  530.000
447.568; -303.700; -921.000; -803.000
447.690; -165.500; -236.000; -245.000
447.812; -246.700; -798.000; -519.000
447.933;  -37.300;  155.000;  127.000
448.055; -140.600; -306.000; -261.000
448.177;  -45.800;   31.000;   79.000
448.299; -321.100; -935.000; -727.000
448.420;  -27.400;  -25.000;  159.000
448.542;  -83.600;   -3.000;   33.000
448.664;  -30.600;  109.000;  322.000
448.785;  -38.100;  265.000;   83.000
448.907; -188.800; -614.000; -353.000
449.028; -252.000; -771.000; -471.000
449.150;   96.300;  492.000;  589.000
449.272; -328.100;-1044.000; -913.000
449.393;   65.000;  612.000;  694.000
449.515; -251.800; -634.000; -581.000
449.636; -118.600; -264.000; -155.000
449.758;   93.900;  763.000;  622.000
449.879; -153.100; -498.000; -396.000
450.001; -140.500; -149.000;  -49.000
450.122;  -62.700;  -95.000;  162.000
450.244;   -9.800;   37.000;  364.000
450.365; -192.300; -495.000; -301.000
450.486;  -63.900;   80.000;  268.000
450.608;  -48.000;  393.000;  326.000
450.729;   86.000;  578.000;  645.000
450.850; -187.100; -574.000; -466.000
450.972; -257.500; -552.000; -389.000
451.093;   24.200;  190.000;  588.000
451.214; -167.900; -516.000; -337.000
451.336;  164.100;  773.000;  579.000
451.457;   25.800;  264.000;  393.000
451.578; -110.200; -118.000;  -74.000
451.699; -211.300; -546.000; -540.000
451.821; -132.400; -284.000;  -50.000
451.942;   -3.400;  278.000;  285.000
452.063;   -3.200;  228.000;  419.000
452.184; -113.400;  -54.000;  -49.000
452.305;  -44.500;  103.000;  170.000
452.427; -198.000; -549.000; -301.000
452.548;  -44.100;   23.000;   79.000
452.669; -159.800; -257.000;  -89.000
452.790; -109.600;    3.000;  -18.000
452.911;  -15.600;  195.000;  259.000
453.032; -130.800; -289.000;  -60.000
453.153;  -74.100;  -29.000;   81.000
453.274;  137.400;  737.000;  868.000
453.395;  -68.000;  -51.000;  175.000
453.516;  214.200; 1317.000; 1388.000
453.637; -166.800; -205.000; -150.000
453.758;  -83.800;   15.000;   69.000
453.879; -206.300; -462.000; -250.000
454.000;  180.000; 1086.000;  948.000
454.121; -219.500; -554.000; -326.000
454.242; -220.900; -599.000; -383.000
454.362;  -61.900;  -99.000;  114.000
454.483; -191.200; -309.000; -229.000
454.604;   33.100;  512.000;  580.000
454.725; -236.700; -627.000; -555.000
454.846; -215.500; -474.000; -406.000
454.967;  -37.900;  230.000;  539.000
455.087;  -32.100;  179.000;  153.000
455.208;   65.900;  554.000;  856.000
455.329;  -92.600;  -22.000;   82.000
455.450;   27.000;  473.000;  633.000
455.570; -149.200; -234.000; -211.000
455.691;  -45.600;  201.000;  407.000
455.812; -124.800; -270.000;  -92.000
455.932;  -62.800;  107.000;  -97.000
456.053;  -98.700;   36.000;   24.000
456.173; -199.700; -433.000; -355.000
456.294; -240.500; -476.000; -303.000
456.415;  -91.400;  -73.000;   70.000
456.535;   -8.200;  297.000;  273.000
456.656;  -51.600;  132.000;  240.000
456.776;  -83.800;    3.000;  298.000
456.897;   23.800;  308.000;  513.000
457.017; -119.400; -153.000;   -3.000
457.138; -187.500; -402.000; -249.000
457.258;   -4.700;  263.000;  224.000
457.379;   23.600;  509.000;  521.000
457.499;    4.800;  443.000;  432.000
457.620; -217.400; -407.000; -231.000
457.740; -140.500; -132.000;  -11.000
457.860;  -82.200;   87.000;   44.000
457.981;  -76.600;  132.000;  124.000
458.101; -157.100;  -89.000;   40.000
458.221;   14.200;  336.000;  402.000
458.342;  -66.800;   -4.000;  -37.000
458.462;   23.300;  617.000;  352.000
458.582; -169.400; -302.000; -294.000
458.703;  -84.000;  303.000;  154.000
458.823;  -83.900;   22.000;  163.000
458.943;    2.800;  341.000;  467.000
459.063;  -53.900; 1124.000;  192.000
459.183;  -36.400;  328.000;  313.000
459.304;   34.300;  315.000;  517.000
459.424; -121.300; -246.000;  -89.000
459.544;   31.600;  388.000;  764.000
459.664;   54.500;  499.000;  506.000
459.784;  164.900; 1004.000; 1175.000
459.904;   90.200;  867.000;  744.000
460.024;  139.200;  867.000;  684.000
460.144;   26.800;  449.000;  554.000
460.264;   15.900;  515.000;  327.000
460.385; -152.400; -145.000; -119.000
460.505;  133.400;  905.000;  858.000
460.625; -145.300;  -17.000;  -68.000
460.745;    8.400;  396.000;  541.000
460.864;  -76.300;  153.000;  469.000
460.984;   14.600;  499.000;  573.000
461.104;  308.100; 1656.000; 1775.000
461.224;   42.800;  657.000;  650.000
461.344;    4.100;  431.000;  360.000
461.464;   -5.000;  258.000;  513.000
461.584;   -9.700;  283.000;  466.000
461.704;  -70.100;   58.000;  108.000
461.824;  -81.600;  238.000;  259.000
461.943;  -30.700;  191.000;  130.000
462.063; -103.900;    2.000;  324.000
462.183;   80.400;  639.000;  717.000
462.303;  233.500; 1678.000; 1230.000
462.422;  129.600;  781.000;  840.000
462.542;  -48.100;  271.000;  391.000
462.662;   -2.500;  353.000;  380.000
462.782;   62.400;  833.000;  572.000
462.901;   20.100;  545.000;  717.000
463.021;  334.500; 1702.000; 1638.000
463.141;  -14.400;  337.000;  770.000
463.260;   28.900;  614.000;  474.000
463.380;   74.000;  902.000;  884.000
463.499;   -9.000;  342.000;  332.000
463.619;   -5.900;  581.000;  559.000
463.738;  283.200; 1644.000;  903.000
463.858;   45.500;  657.000;  811.000
463.978;   15.200;  542.000;  396.000
464.097;  162.700;  921.000; 1114.000
464.217;  177.400; 1196.000; 1143.000
464.336;  186.800; 1068.000; 1130.000
464.455;   20.300;  328.000;  659.000
464.575;   65.000;  597.000;  602.000
464.694;  165.100; 1204.000; 1179.000
464.814;  109.800; 1190.000; 1138.000
464.933;  143.500; 1095.000; 1027.000
465.052;  230.500; 1412.000; 1054.000
465.172;   74.200;  922.000;  799.000
465.291;  251.200; 1376.000; 1320.000
465.410;   33.500;  462.000;  735.000
465.530;  220.800; 1355.000; 1310.000
465.649;  194.700; 1209.000; 1273.000
465.768;  305.600; 1673.000; 1508.000
465.888;  106.900;  941.000; 1174.000
466.007;  240.100; 1335.000; 1440.000
466.126;   39.500;  721.000;  641.000
466.245;  146.000; 1176.000; 1187.000
466.364;  103.900;  950.000; 1060.000
466.484;  145.900; 1024.000; 1213.000
466.603;  140.600; 1101.000; 1222.000
466.722;  267.100; 1490.000; 1769.000
466.841;  171.600; 1151.000; 1401.000
466.960;  140.800; 1069.000;  972.000
467.079;  313.500; 1971.000; 1786.000
467.198;  142.000; 1238.000; 1181.000
467.317;  209.600; 1768.000; 1162.000
467.436;  212.500; 1709.000; 1261.000
467.555;  318.200; 1796.000; 1746.000
467.674;  192.600; 1227.000; 1329.000
467.793;  132.900; 1376.000; 1374.000
467.912;  208.900; 1658.000; 1539.000
468.031;  329.700; 2038.000; 1930.000
468.150;  302.200; 1842.000; 1837.000
468.269;  421.600; 2313.000; 2090.000
468.388;  391.900; 2168.000; 2339.000
468.507;  603.200; 2884.000; 2903.000
468.626;  624.400; 2555.000; 2541.000
468.744;  348.000; 2018.000; 2174.000
468.863;  457.500; 2312.000; 2523.000
468.982;  229.900; 1503.000; 1555.000
469.101;  533.000; 2788.000; 2692.000
469.220;  375.300; 2333.000; 2176.000
469.338;  543.200; 2935.000; 3051.000
469.457;  455.200; 2719.000; 2545.000
469.576;  706.800; 3953.000; 3784.000
469.695;  542.500; 2877.000; 3066.000
469.813;  836.200; 4148.000; 4192.000
469.932;  859.700; 4255.000; 4485.000
470.051;  784.200; 4075.000; 4161.000
470.169;  873.100; 4470.000; 4338.000
470.288;  901.000; 4700.000; 4809.000
470.406; 1009.900; 5059.000; 5194.000
470.525; 1184.100; 6101.000; 5787.000
470.644; 1319.400; 6847.000; 6794.000
470.762; 1656.700; 8397.000; 7873.000
470.881; 1732.200; 8651.000; 8464.000
470.999; 1981.600; 9685.000; 9151.000
471.118; 2167.100;11174.000;10711.000

