
Integration time [ms]: 100.000
Averaging Nr. [scans]: 40
Smoothing Nr. [pixels]: 0
Data measured with spectrometer [name]: 2101012U2
Wave   ;Sample   ;Dark     ;Reference
[nm]   ;[counts] ;[counts] ;[counts] 

197.733;   61.950;  516.000;  404.000
197.879;  -81.025; -610.000; -634.000
198.025;  -35.375; -475.000; -420.000
198.171;  -75.675; -602.000; -612.000
198.317;  -34.800; -401.000; -316.000
198.463;  -61.150; -655.000; -404.000
198.609;   32.200;  181.000; -137.000
198.755;  -79.875; -644.000; -410.000
198.901;  -60.900; -505.000; -424.000
199.047;  -57.400; -615.000; -488.000
199.193;  -25.700; -230.000; -468.000
199.339;  -47.425; -222.000; -369.000
199.485;   36.450;  330.000;  271.000
199.631;   18.575;  227.000;  310.000
199.777;  -57.775; -466.000; -398.000
199.923;  -65.250; -610.000; -424.000
200.069;    2.300; -141.000;  -58.000
200.215;   60.025;  128.000;  453.000
200.361;   47.200;  243.000;  477.000
200.507;  -59.850; -600.000; -373.000
200.653;  -33.300; -371.000; -194.000
200.798;  -38.750; -215.000; -125.000
200.944;   -2.625; -146.000;  -41.000
201.090;   38.250;   61.000;  222.000
201.236;   -0.375; -116.000; -158.000
201.382;  122.850;  874.000;  903.000
201.528;    5.325;  -58.000;  -48.000
201.674;  -44.500; -386.000; -293.000
201.819;  -57.075; -540.000; -439.000
201.965;  -85.900; -699.000; -447.000
202.111;  -32.400; -273.000; -226.000
202.257;  -30.475; -250.000; -238.000
202.402;   -1.525;   13.000;  -36.000
202.548;  -31.850; -169.000; -116.000
202.694;   83.550;  410.000; -183.000
202.840;  -81.600; -603.000; -531.000
202.985;  -76.400; -681.000; -639.000
203.131; -112.975; -832.000; -666.000
203.277;  -25.025; -199.000; -262.000
203.423;  -62.125; -434.000; -520.000
203.568;  -38.700; -462.000; -237.000
203.714;  -53.425; -535.000; -542.000
203.860;  -83.775; -682.000; -641.000
204.005;   21.575;  112.000;  167.000
204.151;   66.525;  561.000;  556.000
204.296;  -50.325; -354.000; -221.000
204.442;  -73.575; -600.000; -547.000
204.588;  -77.700; -592.000; -579.000
204.733;   19.275;  178.000;  168.000
204.879; -141.800;-1018.000; -822.000
205.025;   13.375;  -99.000;  126.000
205.170;   -2.400;  -17.000;   94.000
205.316;   73.250;  438.000;  661.000
205.461;  -78.525; -698.000; -554.000
205.607;   81.575;  609.000;  665.000
205.752;  -76.625; -626.000; -551.000
205.898;  -52.125; -501.000; -391.000
206.043;  -74.150; -578.000; -506.000
206.189;  -48.600; -243.000; -285.000
206.334;   75.500;  554.000;  606.000
206.480;   83.425;  409.000;  239.000
206.625;  -85.050; -529.000; -552.000
206.771;  -42.775; -451.000; -373.000
206.916;  -34.425; -210.000; -537.000
207.062;  -77.750; -545.000; -591.000
207.207;  -62.600; -546.000; -443.000
207.353;   52.750;  185.000;  460.000
207.498;   11.875;  196.000;   85.000
207.643;  -45.100; -501.000; -370.000
207.789; -128.900;-1069.000; -910.000
207.934;  -99.100; -665.000; -713.000
208.080;  -19.850; -154.000;   66.000
208.225;   -5.125;  -22.000;  -57.000
208.370;  -79.850; -727.000; -619.000
208.516;  -74.950; -741.000; -487.000
208.661;  -32.975; -127.000;  -69.000
208.806;  -15.325; -165.000; -171.000
208.952; -125.100;-1044.000; -731.000
209.097;   77.200;  378.000;  349.000
209.242;  -38.850; -307.000; -382.000
209.387;   70.075;  392.000;  350.000
209.533;  -55.950; -321.000; -350.000
209.678;   80.025;  472.000;  543.000
209.823;  -59.225; -408.000; -310.000
209.969; -108.825; -860.000; -757.000
210.114; -103.825; -907.000; -719.000
210.259; -119.050; -939.000; -889.000
210.404;   -7.900; -171.000;  103.000
210.549;   -1.075;  108.000;    3.000
210.695;   -8.350;   -3.000;  -95.000
210.840;   36.100;   94.000;   67.000
210.985;  -62.175; -484.000; -303.000
211.130;   73.825;  268.000;  406.000
211.275;   20.675;  207.000;  199.000
211.420;  -55.475; -300.000; -289.000
211.566;  -68.525; -536.000; -489.000
211.711;    2.200;  218.000;  157.000
211.856;  -69.175; -545.000; -519.000
212.001;   19.225;  151.000;   44.000
212.146;   16.975;  153.000;   49.000
212.291;  -35.075; -210.000; -186.000
212.436;  -20.950; -280.000;   -6.000
212.581;  -81.975; -685.000; -653.000
212.726;  -80.475; -487.000; -538.000
212.871;  -56.275; -552.000; -217.000
213.016; -154.575;-1172.000;-1029.000
213.161;   56.175;  406.000;  291.000
213.306;  -71.625; -435.000; -577.000
213.451;  -95.625; -778.000; -689.000
213.596;  -49.000; -455.000; -347.000
213.741;  -56.800; -448.000; -538.000
213.886;  -82.925; -498.000; -517.000
214.031;  -26.350; -294.000; -124.000
214.176;  -51.375; -408.000; -341.000
214.321;  -21.875; -296.000; -157.000
214.466;  -31.850; -163.000;  -43.000
214.611;   10.850;  -61.000;  -10.000
214.756; -125.175; -948.000; -858.000
214.901;  -20.975; -388.000; -226.000
215.046; -107.675; -797.000; -825.000
215.191;    8.200;  128.000;   35.000
215.336;  -20.000; -157.000;  -19.000
215.480;  -72.150; -684.000; -505.000
215.625;  -14.950; -175.000;  -19.000
215.770;  -85.100; -757.000; -662.000
215.915;   -7.825;   -5.000;  -97.000
216.060;   -0.975; -113.000;  -21.000
216.205; -108.875; -731.000; -779.000
216.349;  -68.950; -470.000; -533.000
216.494; -133.275; -939.000; -867.000
216.639; -117.550; -823.000; -888.000
216.784;  -86.750; -577.000; -525.000
216.929;   63.425;  392.000;  281.000
217.073;  -12.825; -244.000;  -31.000
217.218;   11.450;   78.000;  -47.000
217.363;  -76.850; -656.000; -618.000
217.507;  -80.750; -623.000; -588.000
217.652; -125.475; -845.000; -874.000
217.797;  -84.975; -708.000; -659.000
217.942; -111.825; -856.000; -720.000
218.086;   82.625;  608.000;  539.000
218.231;  -18.800; -174.000;  -26.000
218.376;  -41.125; -337.000; -229.000
218.520;    2.300;  -41.000;   96.000
218.665;  -27.325; -338.000; -204.000
218.810;  -54.875; -275.000; -233.000
218.954;    9.900;  201.000;   35.000
219.099; -106.350; -713.000; -963.000
219.243;  -79.825; -589.000; -554.000
219.388;  -34.450; -264.000; -136.000
219.532;  -20.575; -116.000; -116.000
219.677;  -75.925; -564.000; -521.000
219.822;    6.075;   33.000;   89.000
219.966;   -0.225;   17.000;  -99.000
220.111;  -50.700; -328.000;  -40.000
220.255; -104.300; -797.000; -750.000
220.400;  -31.100; -180.000; -146.000
220.544;  -69.750; -516.000; -450.000
220.689;  -67.025; -422.000; -451.000
220.833;  -26.650; -123.000;  -58.000
220.978;  -37.075; -393.000; -563.000
221.122;   29.700;  319.000;  307.000
221.267; -115.850; -906.000; -837.000
221.411;  -70.900; -478.000; -394.000
221.555;  -13.800; -104.000;  -23.000
221.700;  -57.600; -329.000; -222.000
221.844;   39.575;  255.000;  272.000
221.989;  -54.975; -328.000; -311.000
222.133;  -44.150; -289.000; -307.000
222.277;    1.350;    5.000;   78.000
222.422;    3.950;  227.000;  113.000
222.566;  -31.175; -381.000; -214.000
222.711;  -61.775; -414.000; -479.000
222.855;  -80.975; -643.000; -586.000
222.999;  -78.925; -642.000; -717.000
223.144;  -40.525; -195.000; -194.000
223.288;   34.725;  423.000;  251.000
223.432;   37.400;  184.000;  230.000
223.576;   -7.925;  152.000;  -21.000
223.721;   44.525;  364.000;  273.000
223.865;  -54.725; -472.000; -475.000
224.009;  211.775; 1673.000; 1631.000
224.153;  -78.375; -660.000; -671.000
224.298;  -63.600; -531.000; -489.000
224.442;  -15.550;  -74.000;  -33.000
224.586;  -12.700; -169.000; -106.000
224.730; -119.250; -858.000; -670.000
224.875;  -99.975; -739.000; -688.000
225.019;    2.375;  102.000;  188.000
225.163;   32.750;  208.000;  341.000
225.307;   12.150;   97.000;  -91.000
225.451;   51.500;  360.000;  481.000
225.595;   34.875;  264.000;  176.000
225.739;  -12.750; -170.000;  -94.000
225.884;    2.125;   86.000;    5.000
226.028; -103.300; -760.000; -626.000
226.172;  -37.100; -260.000; -273.000
226.316; -129.975; -941.000; -902.000
226.460;  -63.350; -645.000; -493.000
226.604;  -61.600; -406.000; -400.000
226.748; -101.850; -836.000; -733.000
226.892;  -29.925; -227.000; -181.000
227.036;  -48.675; -537.000; -447.000
227.180;  -65.375; -551.000; -375.000
227.324;  -79.600; -561.000; -580.000
227.468; -118.150; -819.000; -717.000
227.612;   17.625;  242.000;  -28.000
227.756; -116.800; -845.000; -698.000
227.900;   59.600;  342.000;  441.000
228.044;  -59.400; -509.000; -290.000
228.188;   50.725;  448.000;  568.000
228.332;  -88.075; -546.000; -472.000
228.476;  -21.625; -223.000; -149.000
228.620;  -43.400; -210.000; -150.000
228.764;   67.225;  431.000;  349.000
228.908;  -19.725; -155.000;   30.000
229.052;  -73.975; -615.000; -528.000
229.195;  -13.050; -172.000;   13.000
229.339;  -46.400; -235.000; -305.000
229.483;  -30.475;    5.000; -162.000
229.627;    1.950; -156.000;  139.000
229.771;  -47.975; -218.000; -294.000
229.915;    5.125;  230.000;   79.000
230.059;  -86.500; -648.000; -663.000
230.202;  -55.925; -370.000; -317.000
230.346;  -23.250; -107.000;  107.000
230.490;  -70.325; -489.000; -521.000
230.634; -109.800; -736.000; -553.000
230.777;   63.200;  478.000;  509.000
230.921;  -60.725; -450.000; -359.000
231.065;  -57.450; -246.000; -286.000
231.209;   24.800;  261.000;  265.000
231.352;   26.675;   54.000;   40.000
231.496;   10.650;  568.000;  188.000
231.640;  -89.375; -693.000; -621.000
231.783;   63.500;  546.000;  525.000
231.927;  -38.350; -294.000; -365.000
232.071; -125.775; -962.000; -736.000
232.214; -122.625; -980.000; -764.000
232.358;  -94.800; -683.000; -599.000
232.502;    4.125;  -19.000;    7.000
232.645; -125.075;-1090.000; -927.000
232.789;  -25.700; -257.000; -218.000
232.933;  -39.050; -407.000; -224.000
233.076; -129.800;-1038.000; -897.000
233.220; -106.825; -752.000; -777.000
233.363;  -81.150; -669.000; -477.000
233.507;   54.300;  371.000;  129.000
233.650; -105.925; -764.000; -834.000
233.794;   46.800;  438.000;  461.000
233.938;  -71.300; -530.000; -362.000
234.081;  -16.775;  -93.000;   31.000
234.225;  -67.450; -631.000; -539.000
234.368; -116.175; -773.000; -723.000
234.512;  -37.900; -385.000; -299.000
234.655;  -88.175; -582.000; -555.000
234.798;  -79.875; -493.000; -466.000
234.942; -132.550; -884.000;-1002.000
235.085;  -78.650; -651.000; -443.000
235.229;  -79.875; -405.000; -410.000
235.372;  -52.625; -247.000; -191.000
235.516;  -68.675; -397.000; -321.000
235.659;   13.150;   92.000;  121.000
235.802;  -11.775;  -38.000;  -22.000
235.946;   28.900;  335.000;  215.000
236.089;   32.000;  126.000;  250.000
236.233;   46.175;  275.000;  298.000
236.376;  -46.450; -235.000; -378.000
236.519;  -51.550; -297.000; -319.000
236.663;  -28.525; -215.000; -117.000
236.806; -148.250;-1029.000; -999.000
236.949;   58.575;  543.000;  431.000
237.092;   64.900;  412.000;  391.000
237.236;  -68.175; -589.000; -502.000
237.379;   59.300;  352.000;  428.000
237.522; -116.000; -879.000; -768.000
237.666;  -17.525; -271.000;   18.000
237.809; -127.600; -851.000; -823.000
237.952;   30.900;  469.000;  271.000
238.095;  -74.175; -447.000; -442.000
238.238;   70.425;  688.000;  700.000
238.382;    6.025;  166.000;  103.000
238.525;  -81.375; -598.000; -511.000
238.668; -148.300;-1060.000; -985.000
238.811;  -89.175; -638.000; -643.000
238.954;  -58.225; -483.000; -334.000
239.097;   89.375;  617.000;  664.000
239.241;   27.625;  394.000;  326.000
239.384;  -39.600; -254.000; -214.000
239.527;  -62.625; -424.000; -224.000
239.670; -141.900; -994.000;-1091.000
239.813; -122.625; -696.000; -658.000
239.956;   60.150;  579.000;  473.000
240.099; -115.800; -778.000; -725.000
240.242;   51.425;  428.000;  432.000
240.385;   55.450;  466.000;  450.000
240.528;  -75.025; -706.000; -473.000
240.671;   19.825;  189.000;  134.000
240.814;  -41.750; -441.000; -158.000
240.957; -104.975; -767.000; -578.000
241.100; -103.650; -779.000; -755.000
241.243; -146.625;-1234.000; -893.000
241.386;  -68.375; -508.000; -379.000
241.529;  -91.700; -735.000; -547.000
241.672;  -66.250; -566.000; -495.000
241.815; -108.700; -832.000; -808.000
241.958;  -34.800; -125.000; -182.000
242.101;  -73.525; -545.000; -390.000
242.244;  -42.425; -270.000; -325.000
242.387;  -43.975; -304.000; -246.000
242.530;   55.875;  470.000;  134.000
242.673;  -44.975; -381.000; -309.000
242.815; -127.425; -925.000; -899.000
242.958;  -59.800; -482.000; -381.000
243.101;    0.325;  132.000;  187.000
243.244;  -83.075; -564.000; -521.000
243.387;  -52.850; -313.000; -316.000
243.530;  -88.375; -657.000; -674.000
243.672;   -1.075;   43.000;  -92.000
243.815;  -65.875; -355.000; -283.000
243.958;    6.450;   98.000;  -26.000
244.101;    4.075;   59.000;  -16.000
244.243;  -13.425;  -47.000;  101.000
244.386; -114.700; -761.000; -630.000
244.529;  -28.050; -132.000; -139.000
244.672; -156.325;-1154.000; -951.000
244.814;  -93.575; -621.000; -794.000
244.957;  -36.150; -380.000; -304.000
245.100;  -75.950; -489.000; -489.000
245.242;  -74.650; -387.000; -374.000
245.385;  -13.925;  -59.000;  -39.000
245.528; -118.750; -871.000; -705.000
245.670;   81.000;  612.000;  634.000
245.813; -105.475; -599.000; -547.000
245.956;  -25.150; -324.000; -275.000
246.098;  -79.150; -508.000; -650.000
246.241;   -2.250;  194.000;   48.000
246.383;  -14.775; -119.000;  -73.000
246.526;  -80.950; -454.000; -525.000
246.669; -120.925; -889.000; -780.000
246.811;   23.500;  172.000;   -1.000
246.954;  -65.350; -512.000; -426.000
247.096;  -25.325;  -84.000;   -6.000
247.239;  -80.425; -482.000; -445.000
247.381;  -69.150; -647.000; -488.000
247.524;  101.725;  645.000;  679.000
247.666;   -0.975;   58.000;   11.000
247.809; -116.525; -887.000; -691.000
247.951;  -19.225;  -75.000;  138.000
248.094;   21.275;  432.000;  308.000
248.236; -170.925;-1262.000;-1238.000
248.378;    2.400; -356.000;  -81.000
248.521;  -30.825; -334.000; -337.000
248.663;  -45.675; -236.000; -267.000
248.806;  -34.650; -300.000; -266.000
248.948;  -86.375; -886.000; -763.000
249.090;  -56.950; -428.000; -398.000
249.233;  -51.675; -344.000; -381.000
249.375;  -56.425; -474.000; -451.000
249.518;  -22.850;  -83.000; -133.000
249.660;  -12.050; -103.000;    3.000
249.802; -163.900;-1303.000;-1189.000
249.945;  -74.675; -612.000; -540.000
250.087; -119.975; -834.000; -768.000
250.229;  -62.700; -362.000; -480.000
250.371;  -70.600; -494.000; -439.000
250.514;  -56.250; -310.000; -244.000
250.656;  -67.625;   69.000;  102.000
250.798; -106.450; -849.000; -800.000
250.940;  -65.550; -322.000; -322.000
251.083;  -38.250; -335.000; -111.000
251.225;   51.775;  338.000;  310.000
251.367;  -50.450; -274.000; -373.000
251.509;  -41.900; -265.000; -210.000
251.651; -100.150; -731.000; -671.000
251.794;   48.825;  538.000;  632.000
251.936; -110.450; -821.000; -747.000
252.078;  -69.475; -540.000; -461.000
252.220;  -63.525; -645.000; -477.000
252.362;   64.800;  344.000;  462.000
252.504;  -69.350; -677.000; -584.000
252.646; -118.725; -875.000; -722.000
252.788;    1.625;   14.000; -128.000
252.931;  -53.700; -257.000; -253.000
253.073;  -40.775; -376.000; -317.000
253.215;   -7.200;  141.000;  122.000
253.357;  -16.800;   82.000; -153.000
253.499;  -52.400; -374.000; -234.000
253.641;  -89.975; -749.000; -594.000
253.783;  -94.300; -609.000; -527.000
253.925;  -97.400; -586.000; -591.000
254.067; -102.625; -744.000; -667.000
254.209;  -35.325; -391.000; -259.000
254.351; -146.850; -865.000; -883.000
254.493;  -65.500; -441.000; -417.000
254.635; -132.775; -936.000; -818.000
254.777;  -97.075; -752.000; -687.000
254.918;  -68.200; -512.000; -430.000
255.060;  -64.150; -551.000; -395.000
255.202;  -61.500; -473.000; -261.000
255.344;  -86.300; -658.000; -455.000
255.486;  -73.475; -471.000; -406.000
255.628; -105.225; -780.000; -781.000
255.770;  -93.575; -676.000; -536.000
255.912;  -60.075; -559.000; -468.000
256.053;  -86.575; -730.000; -508.000
256.195;  142.050; 1008.000;  903.000
256.337; -100.500; -861.000; -595.000
256.479;   57.600;  532.000;  416.000
256.621;  -60.100; -394.000; -212.000
256.762;  -91.625; -789.000; -742.000
256.904;   59.425;  485.000;  487.000
257.046;  -35.700; -381.000; -271.000
257.188;  -59.525; -351.000; -264.000
257.329;  -83.525; -525.000; -464.000
257.471; -106.525; -939.000; -807.000
257.613;  -82.775; -584.000; -498.000
257.755; -142.925;-1073.000; -982.000
257.896;   24.875;  286.000;  392.000
258.038;  -61.325; -403.000; -352.000
258.180;  -40.175; -354.000; -279.000
258.321;  -94.900; -581.000; -457.000
258.463;   -5.550;  -71.000;  133.000
258.605;  -90.050; -562.000; -570.000
258.746; -102.725; -886.000; -772.000
258.888; -160.100;-1026.000;-1020.000
259.029;   15.450;  121.000;   -8.000
259.171;  -92.775; -614.000; -550.000
259.313;   -2.575;  -49.000;  -47.000
259.454;  -81.300; -536.000; -414.000
259.596;  -76.925; -483.000; -390.000
259.737;  -94.175; -590.000; -474.000
259.879;   36.875;  217.000;  311.000
260.020;   88.850;  901.000;  636.000
260.162;  -37.600; -146.000; -253.000
260.303; -111.425; -768.000; -687.000
260.445;  -93.700; -609.000; -613.000
260.586;   38.450;  392.000;  157.000
260.728;  -38.600; -360.000; -248.000
260.869;  -69.275; -350.000; -343.000
261.011;   70.950;  706.000;  537.000
261.152;  -56.825; -479.000; -319.000
261.293;  -90.150; -576.000; -595.000
261.435;  -32.750; -219.000; -184.000
261.576;  -60.725; -455.000; -325.000
261.718;   47.150;  420.000;  470.000
261.859; -134.275; -940.000; -949.000
262.000; -135.825; -951.000;-1016.000
262.142;  -19.550;  -52.000;  -60.000
262.283; -121.275; -808.000; -691.000
262.424;  -80.975; -666.000; -625.000
262.566; -155.625;-1161.000; -983.000
262.707; -118.150; -840.000; -830.000
262.848; -117.875; -769.000; -726.000
262.990;  -51.625; -362.000; -345.000
263.131;   68.350;  650.000;  681.000
263.272;  -14.425;  -61.000;  -41.000
263.413; -106.125; -589.000; -561.000
263.555;  -68.400; -669.000; -143.000
263.696;  -99.525; -550.000; -641.000
263.837;  -51.875; -449.000; -551.000
263.978;    0.500;   -5.000;  -77.000
264.119;  -52.250; -283.000; -264.000
264.261; -113.350; -847.000; -630.000
264.402;   -7.275;   33.000;   40.000
264.543;  -66.625; -509.000; -524.000
264.684;  -18.050;   61.000;  -50.000
264.825;  -77.075; -816.000; -538.000
264.966;   -9.725;  -84.000;  -67.000
265.107; -115.525; -646.000; -670.000
265.248; -124.800; -825.000; -812.000
265.390;  -12.775;  152.000;   -9.000
265.531;  -32.450; -238.000; -107.000
265.672;  -86.500; -557.000; -630.000
265.813;   60.275;  563.000;  439.000
265.954; -150.275; -959.000; -940.000
266.095;  -11.250; -372.000; -322.000
266.236;  -88.475; -686.000; -548.000
266.377;  -42.650; -243.000; -297.000
266.518;  -76.525; -619.000; -547.000
266.659;   24.700;  170.000;  268.000
266.800;   -5.825;   83.000;   85.000
266.941;  -82.650; -487.000; -478.000
267.082;   30.375;  354.000;   99.000
267.223;  -55.775; -344.000; -273.000
267.364; -114.350; -892.000; -686.000
267.504;  -10.425;    3.000;  135.000
267.645;   -6.200;  160.000;   67.000
267.786;  -36.800; -147.000;  -86.000
267.927;  -70.625; -473.000; -379.000
268.068;   -9.850; -186.000;  -61.000
268.209;  -48.550; -175.000; -413.000
268.350;  -62.175; -388.000; -532.000
268.490;  -73.475; -648.000; -521.000
268.631;   20.325;  127.000;  225.000
268.772; -111.775; -874.000; -647.000
268.913;  -62.350; -328.000; -476.000
269.054;   -8.900; -117.000;   12.000
269.194;  -53.950; -418.000; -402.000
269.335; -149.825;-1137.000;-1074.000
269.476;  -15.175;   33.000;  -35.000
269.617;  -63.150; -347.000; -392.000
269.757;  -83.175; -713.000; -646.000
269.898; -102.000; -856.000; -613.000
270.039;  -73.175; -415.000; -405.000
270.180; -129.550; -952.000; -816.000
270.320;  -21.750; -190.000; -250.000
270.461;  -43.275; -277.000; -249.000
270.602;  -22.950; -186.000; -156.000
270.742; -118.550; -868.000; -943.000
270.883;  -47.750; -442.000; -390.000
271.023;  -55.425; -358.000; -357.000
271.164;  -67.700; -607.000; -528.000
271.305;  -93.475; -666.000; -654.000
271.445; -104.400; -722.000; -683.000
271.586;  -65.550; -462.000; -283.000
271.726;  -44.975; -397.000; -322.000
271.867;  -60.275; -594.000; -534.000
272.008;  177.225; -473.000; -285.000
272.148;  137.950;  462.000;  468.000
272.289;   11.075; -113.000; -181.000
272.429;   30.900;   19.000;  185.000
272.570;  -86.725; -633.000; -737.000
272.710; -120.975; -825.000; -775.000
272.851;  -18.750;  113.000; -130.000
272.991; -159.900;-1173.000;-1077.000
273.131;  -64.625; -419.000; -459.000
273.272; -105.150; -683.000; -723.000
273.412;    9.750; -143.000;  -31.000
273.553;  -49.625; -488.000; -507.000
273.693;  113.150;  913.000;  858.000
273.834;  -87.975; -894.000; -692.000
273.974;  -53.075; -664.000; -615.000
274.114;  -88.650; -772.000; -560.000
274.255;   67.000;  414.000;  373.000
274.395;   -2.050; -180.000; -125.000
274.535;   43.025;  199.000;  350.000
274.676;   21.325;  225.000;   94.000
274.816;   -6.700;  110.000;   34.000
274.956;  -81.050; -624.000; -690.000
275.097;  -63.125;-1014.000; -922.000
275.237; -114.750; -913.000; -803.000
275.377;  -99.300; -778.000; -689.000
275.517; -147.000; -878.000; -937.000
275.658;  -55.175; -590.000; -555.000
275.798;  -67.225; -606.000; -413.000
275.938;   12.300;  215.000;  323.000
276.078; -107.550; -626.000; -395.000
276.218;    4.200;   99.000;  104.000
276.359; -132.175;-1026.000;-1024.000
276.499;  -66.200; -605.000; -446.000
276.639;  -28.525; -305.000; -151.000
276.779;  -46.000; -475.000; -357.000
276.919; -111.250; -783.000; -624.000
277.059;  -20.800; -261.000; -212.000
277.199;  -51.475; -357.000; -259.000
277.340;   52.575;  287.000;  175.000
277.480; -112.150; -840.000; -693.000
277.620;   24.625;  192.000;   16.000
277.760; -199.250;-1533.000;-1294.000
277.900;   22.600;  113.000;   33.000
278.040;   23.600;  137.000;  159.000
278.180;   33.700;  270.000;  170.000
278.320;    2.925;   21.000;   56.000
278.460;  -69.700; -443.000; -469.000
278.600;  -83.200; -708.000; -598.000
278.740;   47.075;  448.000;  224.000
278.880;  -42.850; -768.000; -791.000
279.020;   -7.600; -194.000; -144.000
279.160;  -84.100; -672.000; -595.000
279.300; -118.175; -926.000; -873.000
279.440; -101.900; -709.000; -622.000
279.579;  -30.600;-1014.000; -929.000
279.719;  -56.400; -410.000; -394.000
279.859;   75.075;   -4.000;   41.000
279.999;   42.375; -208.000;  101.000
280.139;  -23.125; -435.000; -387.000
280.279;  -67.650; -708.000; -745.000
280.419;  -16.675; -229.000; -147.000
280.559;  -23.525; -259.000; -180.000
280.698;  -78.100; -790.000; -639.000
280.838;  -90.450; -778.000; -800.000
280.978; -104.600; -846.000; -790.000
281.118; -129.500; -811.000; -704.000
281.257;    7.750;   24.000;    6.000
281.397; -108.600;-1094.000; -960.000
281.537;  -76.650; -599.000; -712.000
281.677;  -18.275; -150.000; -101.000
281.816;  -81.050; -700.000; -630.000
281.956;  -24.775; -193.000; -257.000
282.096;  -59.900; -539.000; -396.000
282.235; -112.350; -672.000; -638.000
282.375;  -16.575; -243.000;  -98.000
282.515; -110.175; -715.000; -707.000
282.654;   25.550;   29.000;  106.000
282.794;   16.700;  388.000;  244.000
282.934;  -57.725; -530.000; -491.000
283.073; -143.300;-1030.000; -857.000
283.213;  -62.025; -460.000; -467.000
283.353;  -24.000; -408.000; -349.000
283.492;  -37.050; -264.000; -296.000
283.632;  -52.975; -254.000; -168.000
283.771;  -84.300; -859.000; -730.000
283.911;  -46.900; -369.000; -260.000
284.050; -110.975; -794.000; -748.000
284.190; -154.325;-1229.000;-1096.000
284.329; -129.950;-1055.000; -964.000
284.469;  -68.425; -516.000; -591.000
284.608;  -55.750; -559.000; -598.000
284.748;  -81.450; -614.000; -570.000
284.887;   -6.000;  -87.000;  -20.000
285.027; -126.350; -844.000; -892.000
285.166;  -33.125; -192.000; -249.000
285.306;   -1.325; -116.000;  -33.000
285.445;  -44.000; -229.000; -343.000
285.584;  -90.800; -630.000; -494.000
285.724;  -42.950; -282.000; -322.000
285.863; -113.250; -857.000; -507.000
286.002;  -50.850; -366.000; -276.000
286.142; -106.425; -715.000; -622.000
286.281;  -76.025; -525.000; -493.000
286.420;  -80.100; -554.000; -417.000
286.560;   81.700;  653.000;  623.000
286.699; -128.025; -958.000; -912.000
286.838;  -85.700; -590.000; -591.000
286.978;  -94.175; -533.000; -537.000
287.117; -137.900;-1085.000; -950.000
287.256;  -44.550; -228.000; -211.000
287.395;  -41.650; -197.000; -378.000
287.535;  -54.075; -370.000; -298.000
287.674;  -87.075; -509.000; -484.000
287.813;   48.475;  661.000;  533.000
287.952; -134.875;-1010.000; -871.000
288.091; -155.925;-1049.000; -915.000
288.231;   27.525;   13.000;   15.000
288.370; -182.050;-1217.000;-1200.000
288.509;  -92.000; -728.000; -645.000
288.648; -102.950; -770.000; -548.000
288.787;  -40.075; -243.000;  -87.000
288.926;  -61.025; -454.000; -475.000
289.065;  125.350;  859.000;  672.000
289.204;  -43.900; -377.000; -217.000
289.344;  -93.025; -791.000; -690.000
289.483;   15.075;  416.000;  304.000
289.622;  -25.025; -291.000; -149.000
289.761;   -2.825; -309.000; -166.000
289.900; -113.300; -785.000; -626.000
290.039;  -18.750;  -12.000;  -95.000
290.178;  -23.275; -274.000; -180.000
290.317;  -89.375; -618.000; -479.000
290.456;  -69.575; -463.000; -451.000
290.595; -142.950; -961.000; -833.000
290.734; -154.175; -904.000; -891.000
290.873;  -67.900; -456.000; -420.000
291.011; -122.050; -833.000; -843.000
291.150;  -93.875; -770.000; -682.000
291.289;   -5.650; -343.000; -110.000
291.428;  -92.800; -599.000; -480.000
291.567;  -69.325; -370.000; -442.000
291.706;    4.800;  109.000;  154.000
291.845;  -82.375; -597.000; -505.000
291.984; -165.800;-1234.000;-1061.000
292.122;   76.700;  602.000;  582.000
292.261;   41.000;  620.000;  463.000
292.400;   11.650; -144.000;  211.000
292.539; -124.700; -959.000; -813.000
292.678;  -24.675; -325.000; -300.000
292.816; -151.975;-1136.000; -965.000
292.955;  -94.275; -844.000; -684.000
293.094;  -25.900; -173.000; -337.000
293.233;  -56.800; -556.000; -400.000
293.371;  -41.000; -225.000;  -84.000
293.510; -110.975; -866.000; -780.000
293.649; -126.150; -959.000; -924.000
293.787;  -54.700;-1083.000;-1012.000
293.926;   -1.750; -113.000;  -32.000
294.065;  -48.600; -379.000; -290.000
294.203;   45.325;  298.000;  406.000
294.342;    6.200;   74.000;  156.000
294.481; 6356.475;51180.000; -836.000
294.619;  -28.200; -425.000; -582.000
294.758; -143.425;-1230.000;-1137.000
294.896;   73.625; -125.000;    5.000
295.035; -124.600;-1040.000;-1006.000
295.174; -109.350;-1082.000; -954.000
295.312;  -39.600; -323.000; -203.000
295.451;   -4.250; -307.000; -428.000
295.589;  -48.725; -389.000; -518.000
295.728;   12.325; -292.000; -165.000
295.866;   -6.200;  -36.000;  -51.000
296.005;  -55.725; -584.000; -341.000
296.143;  -74.650; -558.000; -596.000
296.282;  -99.425; -957.000; -881.000
296.420;  -95.100; -657.000; -557.000
296.559;  -73.225; -892.000; -633.000
296.697;   42.525; -847.000; -665.000
296.835;   85.100;-1141.000;-1002.000
296.974;   54.000;  -23.000;   39.000
297.112;   20.000; -443.000; -504.000
297.251;  -74.300; -815.000; -755.000
297.389;   93.900; -576.000; -438.000
297.527;   32.700; -145.000;  -83.000
297.666;  -58.025; -486.000; -438.000
297.804;  -41.450; -404.000; -264.000
297.942;  -17.800; -136.000; -161.000
298.081;   -0.075; -183.000;   63.000
298.219;   81.575;  -17.000;  -19.000
298.357;   65.450; -144.000;  -71.000
298.495;   43.450; -810.000; -812.000
298.634;   92.800;  245.000;  219.000
298.772;   78.875; -220.000; -338.000
298.910;  -44.325; -309.000; -182.000
299.048;   -6.800; -130.000; -153.000
299.187;  -37.150; -350.000; -250.000
299.325;   13.625;   52.000;  122.000
299.463;   52.600; -389.000; -299.000
299.601;  124.475; -327.000; -271.000
299.739; -100.175; -908.000; -883.000
299.877;  -79.250; -791.000; -703.000
300.016;  -46.850;-1095.000; -935.000
300.154;  175.525;  -19.000; -161.000
300.292;   55.375; -428.000; -348.000
300.430;   53.750; -408.000; -291.000
300.568; -101.875; -940.000; -874.000
300.706;  -64.875; -366.000; -469.000
300.844;  -78.575;-1108.000; -979.000
300.982;  115.550;  246.000;  282.000
301.120; -116.675; -965.000; -866.000
301.258;  -64.875; -812.000; -705.000
301.396;   38.525;  104.000;  -41.000
301.534;  117.425; -218.000; -293.000
301.672;   13.950; -664.000; -521.000
301.810;   60.525; -613.000; -545.000
301.948;  119.150;   53.000;  149.000
302.086;  651.000; -250.000;  -32.000
302.224; 1016.900; -610.000; -585.000
302.362;   51.350; -558.000; -622.000
302.500;   -4.375; -923.000; -893.000
302.638;  118.925;  128.000;  245.000
302.776;    7.825; -352.000; -408.000
302.913;   50.750;  447.000;  236.000
303.051;    1.100;  -86.000;  -23.000
303.189;   61.250;   90.000;  118.000
303.327;  -24.350; -341.000; -256.000
303.465;  -83.100; -832.000; -588.000
303.603;  -94.275; -805.000; -604.000
303.740;  105.650;  417.000;  241.000
303.878;   31.750; -800.000; -759.000
304.016; -108.525; -915.000; -790.000
304.154; -128.425;-1123.000;-1152.000
304.291;  -25.400; -505.000; -554.000
304.429;    6.950;  102.000;   74.000
304.567; -124.850; -908.000; -893.000
304.705;  -48.800; -408.000; -515.000
304.842;  109.500; -616.000; -540.000
304.980;   62.900;  215.000;   35.000
305.118;   51.500; -367.000; -365.000
305.255;  -51.400; -945.000; -927.000
305.393;   49.700;  178.000;  239.000
305.531; -101.450;-1173.000; -956.000
305.668;  -68.725; -663.000; -582.000
305.806;  104.700; -358.000; -439.000
305.943;  108.575; -629.000; -637.000
306.081;   62.000; -378.000; -267.000
306.219; -111.275; -863.000; -748.000
306.356;    4.875;  158.000;   27.000
306.494;   95.000;  981.000;  761.000
306.631;    9.900;  -11.000;  -55.000
306.769;    0.500; -613.000; -485.000
306.906;  -13.075; -284.000; -258.000
307.044;  -69.050; -473.000; -488.000
307.181;  -58.950; -410.000; -332.000
307.319;    6.450;  112.000;   87.000
307.456; -174.800;-1191.000;-1153.000
307.594;  -95.225; -980.000; -727.000
307.731;  -14.475; -371.000; -164.000
307.868;    3.350;  -15.000;   20.000
308.006; -143.175; -961.000; -847.000
308.143;  -67.900; -618.000; -330.000
308.281;  148.275;  -37.000; -254.000
308.418;  -15.450; -748.000; -640.000
308.555;  -72.325; -400.000; -250.000
308.693;  -73.175; -577.000; -573.000
308.830; -110.425; -712.000; -657.000
308.967;  -16.825; -215.000;  -95.000
309.105;  -47.050; -507.000; -396.000
309.242;   24.775; -468.000; -367.000
309.379;  282.675; -577.000; -655.000
309.517;  -79.400; -936.000; -948.000
309.654;  -96.850; -910.000; -734.000
309.791;  -69.225; -662.000; -580.000
309.928; -116.050; -977.000; -914.000
310.065;  174.200;  819.000;  697.000
310.203;    3.075; -825.000; -850.000
310.340;   -0.975; -465.000; -321.000
310.477;  -72.025; -412.000; -516.000
310.614;  -62.525; -383.000; -473.000
310.751;  -65.350; -427.000; -518.000
310.889;  -28.900;    1.000;   11.000
311.026; -151.175;-1161.000; -939.000
311.163;  -49.175; -386.000; -380.000
311.300;  -79.750; -512.000; -479.000
311.437;  -76.425; -658.000; -619.000
311.574; -154.850;-1226.000; -985.000
311.711;  -53.300; -595.000; -433.000
311.848;  -25.450; -380.000; -388.000
311.985;   17.300;  270.000;   93.000
312.122; -128.600; -932.000; -762.000
312.259; -130.200; -941.000; -994.000
312.396;  -90.825; -508.000; -551.000
312.533;  -94.650; -812.000; -790.000
312.670; -130.100;-1070.000; -898.000
312.807;  -29.550; -352.000; -367.000
312.944;  -77.925; -513.000; -611.000
313.081;  -36.150; -150.000; -415.000
313.218; -104.675;-1111.000; -867.000
313.355;   13.775; -531.000; -449.000
313.492;   12.400; -455.000; -292.000
313.629;  125.150;  815.000;  735.000
313.766; -156.650;-1176.000;-1008.000
313.902;  -11.675; -186.000;   21.000
314.039;  -36.075; -372.000; -289.000
314.176;   30.475;  286.000;  192.000
314.313;  -76.875; -569.000; -473.000
314.450;  -82.450; -788.000; -684.000
314.587;  -62.550; -468.000; -480.000
314.723;   -3.450;  -78.000;  130.000
314.860;   31.000;  318.000;  332.000
314.997;   21.700;  223.000;  142.000
315.134;  -20.125; -385.000; -368.000
315.270;  -24.400; -480.000; -496.000
315.407; -113.650;-1094.000; -967.000
315.544;  -50.900; -657.000; -538.000
315.681;  -58.025; -681.000; -565.000
315.817;   37.925; -133.000; -176.000
315.954;   36.650; -613.000; -392.000
316.091; -119.150;-1045.000;-1023.000
316.227;  -22.550;  -71.000; -179.000
316.364;    0.500;   23.000;    6.000
316.500;  -46.725; -113.000; -300.000
316.637;  -38.375; -181.000; -302.000
316.774;  -85.200; -625.000; -358.000
316.910; -106.525; -598.000; -629.000
317.047;  -59.700; -487.000; -351.000
317.183;  -59.875; -435.000; -566.000
317.320;   -6.475; -367.000; -321.000
317.456;  -72.775; -733.000; -805.000
317.593;  -97.050; -598.000; -641.000
317.729;    5.925;  168.000;  -67.000
317.866; -192.325;-1434.000;-1285.000
318.002;  -89.250; -708.000; -948.000
318.139;  -87.600; -883.000; -867.000
318.275;  -98.250;-1003.000; -738.000
318.412;  -57.025; -517.000; -336.000
318.548;  -15.725; -751.000; -720.000
318.685;  -92.850; -985.000; -888.000
318.821;  -94.625; -762.000; -735.000
318.957;  -21.625;   34.000;  -23.000
319.094;   38.475;  297.000;  154.000
319.230;  -45.200; -756.000; -742.000
319.367;  145.300; -471.000; -520.000
319.503;   64.300; -538.000; -436.000
319.639;  -97.425; -877.000; -793.000
319.775;  -60.275; -750.000; -685.000
319.912;  -68.200; -424.000; -519.000
320.048;  -87.450;-1184.000;-1184.000
320.184;   73.925;   59.000;   70.000
320.321;  -62.225; -497.000; -467.000
320.457;   53.125;  475.000;  662.000
320.593;  -59.900; -375.000; -382.000
320.729; -108.100; -732.000; -734.000
320.866;  -65.375; -577.000; -635.000
321.002;  -89.900; -759.000; -809.000
321.138;  -10.100; -135.000; -211.000
321.274;   88.525; -148.000; -115.000
321.410;  -20.650; -585.000; -353.000
321.546;  -28.275;-1011.000; -911.000
321.683;   57.275;  400.000;  185.000
321.819;   10.750;  -48.000; -117.000
321.955; -110.925; -743.000; -722.000
322.091;  -45.575; -585.000; -540.000
322.227;  -12.700; -382.000; -202.000
322.363;  -15.425; -320.000; -215.000
322.499;  -35.200; -343.000; -331.000
322.635;  159.925;  636.000;  443.000
322.771;   16.150; -139.000;   12.000
322.907;   79.250;  129.000;  327.000
323.043;  -17.900; -115.000; -206.000
323.179;  -38.350; -394.000; -363.000
323.315;   36.400; -401.000; -371.000
323.451;  136.325; -328.000; -236.000
323.587;   79.650;  -60.000;  -77.000
323.723;   39.575; -682.000; -601.000
323.859;  -12.825; -258.000;  -76.000
323.995;  -45.300; -467.000; -409.000
324.131; -116.725; -967.000; -892.000
324.267;  -41.500; -254.000; -276.000
324.402; -129.675; -960.000; -983.000
324.538;   -5.175; -279.000; -104.000
324.674;   14.575;  164.000;   77.000
324.810;  147.550;  226.000;  308.000
324.946;   26.075; -810.000; -658.000
325.082;  -87.750; -568.000; -475.000
325.217;   -6.675;  -62.000;   16.000
325.353; -103.750; -764.000; -659.000
325.489;  -80.750; -540.000; -506.000
325.625;  -67.625; -579.000; -525.000
325.760;   51.800;  517.000;  376.000
325.896;  -33.600; -515.000; -702.000
326.032;  -47.800; -403.000; -352.000
326.168;  -55.850; -462.000; -369.000
326.303;  -77.175; -352.000; -461.000
326.439;  -24.625; -336.000; -276.000
326.575;   -8.075; -190.000;  -29.000
326.710;   -9.575; -156.000;  -30.000
326.846;   -9.375;  146.000;  103.000
326.982;  -87.400; -530.000; -548.000
327.117;  -77.725; -481.000; -442.000
327.253;  -84.675; -745.000; -742.000
327.388; -132.400;-1137.000;-1153.000
327.524;  -28.800; -811.000; -578.000
327.659;  -22.750;  -58.000;  -22.000
327.795;   -8.725;   69.000;   45.000
327.931;  -95.025; -723.000; -499.000
328.066;  -37.625; -417.000; -276.000
328.202;    7.600;   12.000; -129.000
328.337;  109.875;  957.000;  713.000
328.473;   32.325;  -12.000;  -74.000
328.608;  -23.000; -256.000; -267.000
328.743;  -92.275; -799.000; -664.000
328.879;   15.200;  214.000;  114.000
329.014;  -26.700; -102.000; -122.000
329.150;  -90.900; -358.000; -483.000
329.285;  -74.700; -465.000; -466.000
329.421;  -55.425; -548.000; -246.000
329.556;  -29.700;  -36.000;   85.000
329.691;  -98.100; -633.000; -615.000
329.827;  -87.275; -626.000; -480.000
329.962;  -48.375;  131.000; -301.000
330.097;  -96.675; -673.000; -585.000
330.233;  -49.500; -410.000; -223.000
330.368; -128.275; -839.000; -628.000
330.503;  -16.175;    3.000;   98.000
330.638;   26.900;  -93.000; -125.000
330.774;  -56.875; -609.000; -530.000
330.909;  -43.700; -434.000; -244.000
331.044;  -96.675; -714.000; -708.000
331.179; -165.850;-1217.000;-1109.000
331.315;   -0.750;   77.000;   20.000
331.450;    3.425;  157.000;  285.000
331.585;  -96.600; -805.000; -706.000
331.720;  -77.475; -510.000; -460.000
331.855;   -1.175;  -35.000; -102.000
331.990;  221.225;   62.000;  138.000
332.126;  119.225; -110.000;   71.000
332.261;  -30.925; -379.000; -265.000
332.396;   -8.075; -135.000; -242.000
332.531; -106.225;-1074.000;-1031.000
332.666;   13.000; -519.000; -363.000
332.801; -107.675; -726.000; -807.000
332.936;  -30.425; -192.000; -122.000
333.071; -134.700; -870.000; -817.000
333.206;   15.575;  307.000;  379.000
333.341;   33.525;  344.000;  418.000
333.476;  -89.400; -627.000; -623.000
333.611;  -37.375; -251.000; -173.000
333.746;  -43.650; -381.000; -464.000
333.881; -126.350; -973.000; -935.000
334.016; -131.125; -936.000; -917.000
334.151; -115.950; -746.000; -702.000
334.286;   29.850;  152.000;  186.000
334.421;  -21.575; -125.000; -178.000
334.556;  -87.650; -611.000; -567.000
334.690;  -86.400; -631.000; -577.000
334.825;   54.100;  381.000;   83.000
334.960;  -41.450; -285.000; -413.000
335.095;    5.650;  135.000;  -91.000
335.230;  -81.575; -722.000; -738.000
335.365; -124.450;-1084.000; -990.000
335.499; -124.875;-1108.000;-1037.000
335.634;   21.775;    9.000;  534.000
335.769;  -97.175; -755.000; -720.000
335.904;  -52.150; -603.000; -561.000
336.038;  -46.475; -735.000; -657.000
336.173; -100.350;-1206.000;-1194.000
336.308;   22.475; -116.000; -189.000
336.443;   23.150; -544.000; -634.000
336.577;  -60.925; -936.000; -787.000
336.712;   71.625;   -4.000;  -12.000
336.847;  -23.875; -724.000; -607.000
336.981;   91.050; -272.000; -208.000
337.116;  331.525;  615.000;  501.000
337.250;  160.250; -434.000; -421.000
337.385;  201.525; -297.000; -208.000
337.520;   49.200; -632.000; -603.000
337.654;  -31.875; -215.000; -126.000
337.789; -124.575; -989.000; -933.000
337.923;  -35.775; -104.000; -205.000
338.058;  -94.900; -673.000; -738.000
338.192;  -30.950; -611.000; -488.000
338.327;   -3.800;  -18.000; -155.000
338.461;  -66.250; -299.000; -469.000
338.596;  -99.950; -780.000; -638.000
338.730; -113.250; -767.000; -803.000
338.865;   75.925;  -46.000; -140.000
338.999;  -70.375; -846.000; -702.000
339.134;  -31.975; -634.000; -536.000
339.268;    9.050; -741.000; -603.000
339.403;  327.575; -740.000; -775.000
339.537;   97.800; -894.000; -820.000
339.671; -124.800; -829.000; -813.000
339.806;  -58.700; -556.000; -512.000
339.940;   -7.075; -261.000; -235.000
340.074;  -99.925; -685.000; -510.000
340.209;  -42.975; -351.000; -230.000
340.343;  -84.250; -517.000; -573.000
340.477;  138.725;  998.000; 1036.000
340.612;  -64.250;-1033.000; -900.000
340.746;  103.750; -199.000; -243.000
340.880;  -64.200; -924.000; -785.000
341.014;  -14.175;  -45.000; -154.000
341.149; -107.250; -756.000; -718.000
341.283; -112.625; -839.000; -754.000
341.417;  -68.225;-1124.000; -938.000
341.551;  167.900; -768.000; -708.000
341.685;  -17.125; -633.000; -611.000
341.820;  -59.125; -562.000; -493.000
341.954;  -45.700; -218.000; -349.000
342.088; -148.225;-1102.000;-1019.000
342.222;   45.750;  565.000;  618.000
342.356;  -56.600; -395.000; -335.000
342.490;  -91.250; -880.000; -841.000
342.624;  -45.800; -339.000; -242.000
342.758;   -0.950; -364.000; -312.000
342.892;  -81.425; -710.000; -585.000
343.026;  -27.600;  -58.000; -116.000
343.160;  -62.225; -426.000; -376.000
343.294;  -80.650; -474.000; -337.000
343.428;  -31.450; -488.000; -448.000
343.562;   -7.900; -172.000;  -23.000
343.696;  -18.500; -385.000; -314.000
343.830;   -4.550; -362.000; -356.000
343.964;   16.475; -231.000; -168.000
344.098; 1003.675;  199.000;   70.000
344.232;  844.075; -266.000; -127.000
344.366;   88.925; -567.000; -453.000
344.500;   60.250; -665.000; -744.000
344.634;   42.825; -324.000; -164.000
344.768;   -5.500; -531.000; -341.000
344.902;   19.125;  278.000;  256.000
345.035;  -76.700; -556.000; -496.000
345.169; -134.550; -933.000; -656.000
345.303;  -46.300; -308.000; -482.000
345.437;  -63.050; -826.000; -717.000
345.571;  -81.600; -675.000; -594.000
345.704;  -64.825; -309.000; -532.000
345.838;  -11.025; -331.000; -284.000
345.972;  -33.725; -543.000; -495.000
346.106;  155.075; -179.000; -190.000
346.239;  436.900; -312.000; -243.000
346.373;    8.550; -343.000; -302.000
346.507; -139.050; -950.000; -962.000
346.640;  165.250;  -30.000;   13.000
346.774;  -31.225; -650.000; -797.000
346.908;  -15.375; -138.000;  -11.000
347.041;  -95.950; -646.000; -593.000
347.175;   -2.275;  259.000;   27.000
347.309;  -65.425; -698.000; -628.000
347.442;  -94.275; -883.000; -732.000
347.576;  312.375;  670.000;  668.000
347.709;  234.325; -123.000;  -52.000
347.843;  -81.550; -933.000; -825.000
347.976;   39.075;  235.000;  294.000
348.110; -178.975;-1268.000;-1186.000
348.243;  -96.825; -679.000; -772.000
348.377;   12.525;  -26.000;   60.000
348.510;   66.950;  403.000;  540.000
348.644;  -41.700;  -37.000; -159.000
348.777;   -3.075;  180.000;  191.000
348.911;  -46.400; -142.000; -112.000
349.044;  192.250;  471.000;  448.000
349.178;  170.200;-1069.000;-1006.000
349.311;  133.875;  141.000;  255.000
349.444;   -6.600; -927.000; -813.000
349.578;  -12.200; -347.000; -200.000
349.711;  -83.950; -959.000; -862.000
349.845;    9.975; -661.000; -591.000
349.978; -141.475;-1224.000;-1137.000
350.111;  -80.450; -546.000; -612.000
350.244;  -67.175; -596.000; -700.000
350.378;   14.475; -392.000; -393.000
350.511;  -76.525; -393.000; -426.000
350.644; -108.350; -808.000; -806.000
350.778;   -0.950;  168.000;  104.000
350.911;   -1.100;  134.000;  140.000
351.044;  -95.775; -685.000; -615.000
351.177;  -18.325; -321.000; -281.000
351.310;  -10.775;    3.000; -131.000
351.444;  -66.025; -888.000; -788.000
351.577;  132.750;  140.000;   90.000
351.710;   94.050;  593.000;  417.000
351.843;  -30.225; -165.000;  -77.000
351.976;    6.750;  149.000;  -79.000
352.109;  -90.200; -621.000; -612.000
352.242;  -12.725; -464.000; -419.000
352.376;  -45.425; -580.000; -636.000
352.509;  214.100; -437.000; -356.000
352.642;   31.600; -654.000; -604.000
352.775;   72.825; -141.000;  -98.000
352.908; -107.850; -933.000; -904.000
353.041;  -97.000; -814.000; -824.000
353.174;  -52.425; -551.000; -424.000
353.307;  -88.850; -753.000; -764.000
353.440;   80.850;  541.000;  453.000
353.573;  -99.125; -957.000;-1008.000
353.706;  -56.950; -384.000; -558.000
353.839;  -18.875; -264.000; -220.000
353.971;  -84.200; -657.000; -512.000
354.104;  -80.025; -896.000; -835.000
354.237;  -38.700; -627.000; -662.000
354.370;  -90.950; -846.000; -879.000
354.503; -177.950;-1231.000;-1308.000
354.636;  -21.475; -529.000; -348.000
354.769; -126.275; -937.000; -860.000
354.902;   -3.050; -230.000; -139.000
355.034;  -10.175; -164.000; -220.000
355.167;  -16.500; -262.000; -162.000
355.300;  -98.550;-1061.000; -880.000
355.433;  863.550;  -71.000;  -14.000
355.565; 1368.000; -402.000; -384.000
355.698;  343.450; -356.000; -296.000
355.831;    2.825; -882.000; -801.000
355.964;   94.450; -285.000; -170.000
356.096;  -91.575; -856.000; -843.000
356.229;   31.100; -523.000; -530.000
356.362;  301.725; -373.000; -266.000
356.494;  557.200; -229.000; -162.000
356.627;  522.975;  269.000;  377.000
356.760;  624.975;  120.000;   53.000
356.892;  840.400; -286.000; -601.000
357.025;  716.775;  403.000;  389.000
357.157;  679.500; -167.000; -179.000
357.290;  588.150; -856.000; -713.000
357.423;  183.350; -667.000; -556.000
357.555;  134.925; -217.000; -228.000
357.688;  146.000; -483.000; -364.000
357.820;  491.400; -870.000; -877.000
357.953; 3892.875; -563.000; -589.000
358.085;  870.275; -632.000; -612.000
358.218; 1316.625;-1131.000; -932.000
358.350;  245.875;  -58.000;  312.000
358.483; -114.275;-1300.000;-1187.000
358.615;   -3.850;-1182.000;-1078.000
358.747;  -55.100;-1187.000;-1058.000
358.880;   52.300; -810.000; -744.000
359.012;    0.750; -376.000; -202.000
359.145;  -30.425; -480.000; -511.000
359.277;   76.750; -962.000; -913.000
359.409; 3222.275;  536.000;  231.000
359.542;  848.200; -738.000; -688.000
359.674;   72.250;   46.000;   13.000
359.806;  -72.175; -565.000; -438.000
359.939;  -47.850; -617.000; -516.000
360.071;  -20.250; -583.000; -579.000
360.203;  -19.700; -411.000; -364.000
360.335;   56.900;  164.000;  -16.000
360.468;  197.025; -249.000; -307.000
360.600; 2527.525; -547.000; -454.000
360.732; 2493.750; -546.000; -423.000
360.864;  345.725;-1216.000;-1044.000
360.996;  332.175; -516.000; -554.000
361.129;   75.450; -389.000; -598.000
361.261;    9.850;  110.000; -113.000
361.393;  -27.125; -252.000; -214.000
361.525;   24.425;   94.000;  244.000
361.657;  -22.100; -821.000; -703.000
361.789;   15.175; -139.000; -155.000
361.921;  258.525; -642.000; -593.000
362.053;  286.625;  524.000;  541.000
362.185;   55.775;  288.000;   72.000
362.318;  -82.075; -709.000; -705.000
362.450;  155.350;  294.000;  444.000
362.582;  176.050; -913.000; -870.000
362.714;  -31.525; -353.000; -332.000
362.846;  -78.900; -606.000; -490.000
362.978; -137.575; -941.000; -811.000
363.109;   62.275; -161.000; -260.000
363.241;  482.625; -739.000; -749.000
363.373;  408.825; -649.000; -564.000
363.505;  595.800; -186.000;  -91.000
363.637;  139.000; -787.000; -601.000
363.769; -115.625;-1067.000;-1080.000
363.901;  -72.950; -596.000; -654.000
364.033; -110.575;-1103.000;-1062.000
364.165;    1.975; -283.000; -283.000
364.296;   69.675; -316.000; -177.000
364.428;   42.375;-1344.000;-1220.000
364.560;  -69.075; -679.000; -661.000
364.692;  -55.000; -738.000; -835.000
364.824;  321.025; -588.000; -456.000
364.955;  442.275; -402.000; -564.000
365.087;  772.825;-1097.000; -852.000
365.219;   24.850; -686.000; -816.000
365.351;  -66.550; -526.000; -572.000
365.482;   54.875;  300.000;  240.000
365.614;  -45.575; -402.000; -314.000
365.746;  -94.450; -729.000; -752.000
365.877; -104.300; -706.000; -672.000
366.009;  232.600;  -35.000;  -62.000
366.141;  -98.000;-1249.000;-1134.000
366.272; -109.450; -803.000; -719.000
366.404; -124.600;-1005.000; -874.000
366.535;  -18.225; -139.000;  -12.000
366.667; -105.975; -644.000; -649.000
366.799;   29.600;  353.000;  203.000
366.930; -113.500; -862.000; -996.000
367.062;  110.150; -639.000; -613.000
367.193;  117.750; -872.000; -842.000
367.325;  -58.900; -580.000; -684.000
367.456;   80.975; -246.000;   31.000
367.588;  134.925; -371.000; -318.000
367.719;   29.325;  -44.000;  -45.000
367.851;  -23.300; -222.000; -241.000
367.982;  -46.250; -875.000; -732.000
368.113;  109.475; -475.000; -358.000
368.245; -115.800; -960.000; -841.000
368.376;  -16.950; -254.000; -302.000
368.508;  -33.850; -188.000; -263.000
368.639; -143.850;-1166.000;-1034.000
368.770;   -4.200; -670.000; -589.000
368.902;  -62.025; -836.000; -926.000
369.033; -100.025; -906.000; -855.000
369.164;  -43.850; -720.000; -653.000
369.296; -103.075; -452.000; -601.000
369.427;   -2.325; -209.000; -144.000
369.558;  -45.150; -593.000; -377.000
369.689;  -83.550; -721.000; -569.000
369.821; -132.400; -951.000; -845.000
369.952;  -15.725;   42.000; -108.000
370.083;  -35.025; -229.000; -108.000
370.214;  -79.950; -735.000; -650.000
370.345;   -4.300;   65.000;   81.000
370.477;  -83.125; -810.000; -790.000
370.608;  267.600; -328.000; -264.000
370.739;  -30.125;-1233.000;-1292.000
370.870;  -16.900;-1102.000; -923.000
371.001;  104.850; -378.000; -467.000
371.132;  -67.275; -754.000; -735.000
371.263;  -12.000;  -42.000; -148.000
371.394; -135.550; -841.000; -748.000
371.525;   28.500;  345.000;  225.000
371.657;  -93.975; -808.000; -670.000
371.788;   69.025;  103.000;  199.000
371.919;  181.700; -384.000; -304.000
372.050; 3915.750;  -91.000; -156.000
372.181; 1195.825; -188.000; -294.000
372.311;  416.050;   42.000; -127.000
372.442;   50.125; -457.000; -451.000
372.573;  -27.075; -444.000; -340.000
372.704; -121.900;-1008.000; -980.000
372.835;   81.725; -228.000; -289.000
372.966;  -61.850; -646.000; -554.000
373.097;  -62.000; -575.000; -711.000
373.228;  -19.150; -717.000; -542.000
373.359;  166.300; -824.000; -536.000
373.490; 1063.825; -881.000; -727.000
373.620; 1306.375;-1001.000; -803.000
373.751; 1976.000; -332.000; -396.000
373.882;  907.750; -663.000; -733.000
374.013;   98.675; -449.000; -262.000
374.143;  -23.550; -581.000; -659.000
374.274;  -95.425; -987.000; -908.000
374.405;  198.275; -388.000; -276.000
374.536;  518.500; -526.000; -387.000
374.666; 1276.175; -759.000; -807.000
374.797;  279.275; -817.000; -868.000
374.928;  985.575; -710.000; -560.000
375.058; 1013.425; -535.000; -500.000
375.189;  102.350;  -59.000;  -93.000
375.320;  -97.850; -928.000;-1034.000
375.450;  -43.100; -625.000; -616.000
375.581;  -39.975; -526.000; -436.000
375.712;  -17.200; -574.000; -250.000
375.842;  373.050; -438.000; -415.000
375.973;  245.600; -554.000; -513.000
376.103;  -11.150; -665.000; -648.000
376.234;  -75.950; -531.000; -552.000
376.364;  -42.350; -944.000; -867.000
376.495;  341.375;  925.000;  529.000
376.625;   24.625; -472.000; -485.000
376.756;   69.925; -709.000; -678.000
376.886;  -60.625;-1178.000;-1026.000
377.017;   31.750;-1048.000;-1061.000
377.147;  301.000; -786.000; -782.000
377.278;   37.500;  174.000;  228.000
377.408; -114.975; -801.000; -815.000
377.538; -100.950; -707.000; -693.000
377.669;  -78.875; -537.000; -613.000
377.799;  -84.975; -645.000; -635.000
377.929;  -45.475; -610.000; -428.000
378.060; -125.475; -781.000; -847.000
378.190;  -55.450; -726.000; -531.000
378.320;  -48.375; -401.000; -406.000
378.451;    9.600; -131.000;  -22.000
378.581;   -1.800;  -67.000; -110.000
378.711;  155.975; 1035.000;  866.000
378.841;   -7.775; -533.000; -675.000
378.972;  -58.775; -871.000; -751.000
379.102;   10.000; -652.000; -579.000
379.232;    2.075; -126.000;  -73.000
379.362;  -99.275;-1001.000; -885.000
379.492;   24.500; -373.000; -424.000
379.623;  115.975;    0.000;  111.000
379.753;  -76.725;-1107.000; -974.000
379.883;  223.675;   59.000;  156.000
380.013;   24.200;-1081.000;-1017.000
380.143;  -94.575;-1097.000;-1056.000
380.273;  -78.150; -985.000; -861.000
380.403;   -4.200; -344.000; -257.000
380.533;  -15.700; -651.000; -664.000
380.663;   91.200;  173.000;  128.000
380.793;  -83.550;-1027.000;-1074.000
380.923;  -10.400; -103.000;  -34.000
381.053;  -87.200; -613.000; -623.000
381.183;  -26.650; -106.000; -248.000
381.313;   41.450; -656.000; -470.000
381.443;   54.950; -692.000; -473.000
381.573;  246.075; -402.000; -409.000
381.703;  333.875;-1249.000;-1095.000
381.833; -100.550;-1454.000;-1336.000
381.963;  119.225; -134.000;  -87.000
382.093; 1492.675; -925.000; -909.000
382.223;  472.100; -713.000; -602.000
382.353;   13.225; -801.000; -608.000
382.482;  442.300;-1091.000; -964.000
382.612;  850.975; -872.000; -644.000
382.742;  463.975; -695.000; -622.000
382.872;  313.850; -565.000; -551.000
383.002;   62.100;  347.000; -132.000
383.131;  -13.200; -226.000; -160.000
383.261;  -33.750; -706.000; -768.000
383.391;  292.200; -552.000; -377.000
383.521; 2822.250;  451.000;  263.000
383.650;  628.375; -947.000; -904.000
383.780;   -8.900; -783.000; -656.000
383.910;  123.475;  880.000;  802.000
384.039;   47.150; -794.000; -656.000
384.169;  250.325;-1205.000;-1017.000
384.299;  -14.450; -650.000; -662.000
384.428;  -79.500; -764.000; -680.000
384.558;  -42.425; -308.000; -275.000
384.687;  -34.875; -414.000; -334.000
384.817;   17.250;   75.000;   -2.000
384.947;   32.025; -234.000; -141.000
385.076;  323.900;  982.000;  912.000
385.206;  123.175;  369.000;  480.000
385.335;  -28.275; -549.000; -417.000
385.465;  -66.600; -655.000; -663.000
385.594;  168.900;  -53.000;  -44.000
385.724;  518.025; -868.000; -838.000
385.853;  139.425; -296.000; -270.000
385.982; 1549.500; -743.000; -787.000
386.112; 2390.850;-1052.000; -871.000
386.241;  171.975; -307.000; -312.000
386.371;   28.050; -174.000;  -87.000
386.500;   14.000; -825.000; -789.000
386.629;   36.900; -874.000; -817.000
386.759;   72.450;  -43.000;   68.000
386.888;    4.725; -170.000; -250.000
387.017;  -65.500; -648.000; -620.000
387.147;  -66.475; -771.000; -798.000
387.276;   15.175; -410.000; -397.000
387.405;   21.150; -398.000; -342.000
387.535;  -36.300; -452.000; -361.000
387.664;  -51.450; -692.000; -620.000
387.793;   86.975; -198.000; -113.000
387.922;  582.275;  255.000;  200.000
388.052;   39.650; -576.000; -423.000
388.181;   43.800; -342.000; -472.000
388.310;   38.425; -889.000; -710.000
388.439;   -5.675; -749.000; -742.000
388.568;  216.425;  365.000;  244.000
388.697; 1180.675; -756.000; -653.000
388.826;  238.225; -768.000; -666.000
388.956;   67.225; -285.000; -307.000
389.085;  -24.225; -347.000; -287.000
389.214; -103.250; -842.000; -872.000
389.343;  -52.025; -645.000; -413.000
389.472;  370.475;  126.000;  149.000
389.601;  487.175;   91.000;    0.000
389.730;   23.125; -568.000; -687.000
389.859;   61.275;  226.000;   46.000
389.988;  229.625; -423.000; -408.000
390.117;  182.575; -168.000; -146.000
390.246;    1.050; -331.000; -320.000
390.375;  133.200; -673.000; -626.000
390.504;  -58.475; -703.000; -621.000
390.633;  -89.000; -672.000; -726.000
390.761;  -74.075; -732.000; -645.000
390.890;   33.325;   -4.000; -130.000
391.019;  -27.525; -421.000; -441.000
391.148; -127.725; -826.000; -855.000
391.277;  -60.575; -576.000; -493.000
391.406;  -45.650; -821.000; -805.000
391.534;   29.750;  574.000; -301.000
391.663;  -55.975; -583.000; -645.000
391.792;  -82.250; -673.000; -701.000
391.921;  151.975;   -3.000;   15.000
392.050;  214.125; -287.000; -228.000
392.178;  -17.625;-1206.000;-1061.000
392.307;  172.650; -758.000; -712.000
392.436;   90.300; -427.000; -641.000
392.564;   20.500;  166.000;   -6.000
392.693;  -99.425; -860.000; -682.000
392.822;  240.750; -529.000; -534.000
392.950;  122.625; -880.000; -714.000
393.079;  370.375; -188.000; -328.000
393.208;   44.700; -488.000; -511.000
393.336;  -20.100; -170.000; -145.000
393.465;  -46.775; -317.000; -199.000
393.593;   13.475;   62.000;   79.000
393.722; -153.975;-1121.000; -916.000
393.850;  -27.075; -188.000;  -61.000
393.979; -167.375; -926.000; -805.000
394.107;  -69.750; -517.000; -537.000
394.236;  -22.300; -570.000; -507.000
394.364;  205.425;  383.000;  206.000
394.493;  312.125; -911.000; -767.000
394.621;  -31.900; -955.000; -916.000
394.750;  640.600; -873.000; -923.000
394.878; 2705.000; -247.000; -149.000
395.007; 3656.700; -721.000; -807.000
395.135;  257.925; -790.000; -721.000
395.263;  -93.600;-1038.000;-1040.000
395.392;    3.025;  -25.000; -107.000
395.520; -142.150; -818.000; -679.000
395.648;  -80.900; -865.000; -915.000
395.777;   -4.300; -366.000; -405.000
395.905;  -55.100; -449.000; -564.000
396.033;   15.325;  217.000;  172.000
396.162;  518.225; -399.000; -453.000
396.290;  452.325;  -17.000;   -2.000
396.418;  117.625; -555.000; -514.000
396.546;  -62.150; -571.000; -466.000
396.674; -102.300; -850.000; -878.000
396.803;    9.975;  -72.000;  -23.000
396.931;   96.975; -179.000; -199.000
397.059;   78.050;-1026.000; -989.000
397.187; -106.350;-1026.000; -975.000
397.315; -130.550; -884.000; -649.000
397.443;  -93.600; -592.000; -443.000
397.572;  -84.800; -578.000; -424.000
397.700;   -7.025; -607.000; -614.000
397.828;   16.975;  120.000;  -90.000
397.956;  -47.525; -508.000; -478.000
398.084;  -73.275; -767.000; -626.000
398.212;   35.675;  137.000;  124.000
398.340;   14.350;  -56.000;  159.000
398.468;   33.050; -390.000; -169.000
398.596; -132.050; -993.000; -953.000
398.724; -111.450; -762.000; -767.000
398.852; -161.150;-1024.000; -976.000
398.980;  -62.975; -560.000; -560.000
399.108;  -50.450; -982.000; -735.000
399.236;   39.800;   13.000;    8.000
399.363;    7.800;  222.000;  196.000
399.491;  -77.775; -404.000; -398.000
399.619; -124.525; -829.000; -800.000
399.747;  -96.525; -859.000; -771.000
399.875;   84.925;  220.000;  234.000
400.003;  -60.925; -359.000; -284.000
400.130;  -93.650; -421.000; -341.000
400.258;  -32.550;  -83.000;   38.000
400.386;  -75.375; -352.000; -168.000
400.514;  -33.125; -526.000; -587.000
400.641;  -76.550; -928.000; -802.000
400.769; -152.825; -979.000; -888.000
400.897; -108.675; -838.000; -793.000
401.025;  -26.250; -166.000; -152.000
401.152;    1.300;  220.000;   38.000
401.280;  -88.875; -430.000; -429.000
401.408; -114.600; -712.000; -576.000
401.535;  -94.150; -735.000; -758.000
401.663; -173.425;-1134.000;-1054.000
401.790;  -86.125; -514.000; -525.000
401.918;   41.625;  436.000;  405.000
402.046;  -22.900;  134.000;  122.000
402.173;  -36.250;  -18.000;    7.000
402.301;  -79.525; -519.000; -397.000
402.428;   39.400;  528.000;  383.000
402.556; -134.425;-1188.000; -913.000
402.683;  -30.275;  -20.000;   -1.000
402.811;  -10.150;  -37.000; -206.000
402.938;  -23.650;   20.000;   27.000
403.066;  245.025; -574.000; -558.000
403.193;  384.975;  299.000;  239.000
403.321;  299.725; -396.000; -574.000
403.448;  362.075;   83.000;   27.000
403.575;  171.400;  -90.000;  -46.000
403.703;  -95.525; -732.000; -557.000
403.830;  -70.650; -531.000; -496.000
403.957; -147.300;-1117.000;-1023.000
404.085;   -2.900;  -61.000; -172.000
404.212;  121.825;  -50.000;   63.000
404.339;  252.700; -566.000; -306.000
404.467; 5279.075; -612.000; -524.000
404.594; 3648.725; -287.000; -227.000
404.721;  907.350; -869.000; -764.000
404.848;   82.775; -113.000; -202.000
404.976; -114.250; -856.000; -783.000
405.103;    7.700;  -14.000;  -82.000
405.230;   -8.375;  190.000;  226.000
405.357;   25.775;  117.000;   44.000
405.484;  231.775;  -49.000;    5.000
405.612;   42.150; -548.000; -563.000
405.739;  -55.050; -488.000; -243.000
405.866;   89.300;  669.000;  385.000
405.993;  -47.750; -398.000; -102.000
406.120; -142.075; -801.000; -887.000
406.247;  -59.075; -323.000; -342.000
406.374;  509.675;  540.000;  629.000
406.501;  133.975; -632.000; -702.000
406.628;  -77.575; -621.000; -589.000
406.755;  -85.425; -803.000; -620.000
406.882;  -39.375; -228.000; -277.000
407.009; -111.900; -719.000; -628.000
407.136;   77.650; -480.000; -401.000
407.263;  159.300; -939.000; -829.000
407.390;  -76.800; -692.000; -614.000
407.517; -163.025;-1139.000;-1187.000
407.644;  -69.100; -332.000; -256.000
407.771;  -79.300; -249.000; -287.000
407.898;    0.800;  168.000;  328.000
408.025;  -66.125; -421.000; -313.000
408.151;  -10.525;   82.000;  153.000
408.278;  -66.100; -267.000; -216.000
408.405; -109.325; -931.000; -899.000
408.532;  -61.850; -549.000; -542.000
408.659; -113.725; -677.000; -648.000
408.785; -200.625;-1298.000;-1170.000
408.912;  -74.625; -412.000; -296.000
409.039; -115.150; -610.000; -686.000
409.166; -115.475; -591.000; -555.000
409.292; -109.775; -571.000; -534.000
409.419; -113.400; -665.000; -649.000
409.546;  -90.075; -431.000; -192.000
409.672; -104.550; -713.000; -545.000
409.799;  -22.450;  -36.000;   34.000
409.926;  -38.525; -180.000; -179.000
410.052; -174.200;-1127.000;-1091.000
410.179;  -57.600; -368.000; -392.000
410.305;  -84.950; -375.000; -493.000
410.432;  -59.500; -220.000; -333.000
410.558;  -86.475; -305.000; -380.000
410.685; -105.975; -688.000; -431.000
410.812;  -99.050; -409.000; -588.000
410.938; -134.775; -964.000; -808.000
411.065;  -95.075; -671.000; -645.000
411.191;  -17.250; -189.000; -174.000
411.317; -113.200; -823.000; -742.000
411.444;  -67.175; -317.000; -246.000
411.570;  -67.675; -339.000; -294.000
411.697; -129.075; -758.000; -752.000
411.823; -176.300; -989.000; -999.000
411.949;  -31.600;  -56.000;   17.000
412.076; -116.625; -539.000; -519.000
412.202; -117.150; -758.000; -757.000
412.329; -125.575; -798.000; -752.000
412.455; -109.275; -821.000; -657.000
412.581;   -9.975;  -15.000;  172.000
412.707;  -79.300; -540.000; -457.000
412.834;   17.275;  156.000;  219.000
412.960;  -92.150; -785.000; -784.000
413.086; -110.200; -743.000; -701.000
413.212;  158.000;  604.000;  578.000
413.339;  -51.950; -685.000; -701.000
413.465;   21.675; -364.000; -310.000
413.591;  -94.675; -757.000; -474.000
413.717;  -53.150; -358.000; -366.000
413.843; -148.025; -839.000; -861.000
413.969;  -49.200;  -47.000; -292.000
414.096;  -86.700; -679.000; -679.000
414.222;  -18.550;  -33.000;   85.000
414.348;  -31.800; -652.000; -385.000
414.474;  101.275;   38.000;  -52.000
414.600;  -14.500; -126.000; -144.000
414.726;  -27.825;  -96.000;  -55.000
414.852;  -59.975; -365.000; -342.000
414.978;   18.500;  104.000;  -18.000
415.104;   46.400;   38.000;   80.000
415.230;   14.550; -329.000; -330.000
415.356;   33.000; -409.000; -514.000
415.482;  189.825;   13.000;  -35.000
415.608;  253.275; -247.000; -323.000
415.734;  920.025;   67.000;   38.000
415.860;18926.475; -875.000; -767.000
415.986;13698.575; -685.000; -607.000
416.111; 1177.425; -798.000; -652.000
416.237;  235.075; -424.000; -571.000
416.363; 1028.450; -765.000; -733.000
416.489; 3803.600; -324.000; -251.000
416.615;  391.625; -707.000; -742.000
416.741;  -39.375; -677.000; -784.000
416.866;  -98.075; -673.000; -736.000
416.992; -124.375; -801.000; -818.000
417.118;  -14.475;  -41.000;  -80.000
417.244;  -67.375; -798.000; -531.000
417.369; -103.375; -801.000; -612.000
417.495;  -12.575; -325.000; -254.000
417.621;  -96.125;-1015.000; -803.000
417.746;    0.000; -579.000; -572.000
417.872;   35.200; -254.000; -144.000
417.998;   37.475; -515.000; -530.000
418.123;  980.725;-1073.000; -845.000
418.249; 5013.275; -512.000; -601.000
418.374;  673.150; -916.000; -824.000
418.500;   91.075; -383.000; -482.000
418.626;  111.975;   70.000;  -59.000
418.751;  109.750; -549.000; -448.000
418.877;  171.475; -637.000; -643.000
419.002; 1682.600; -688.000; -560.000
419.128;11659.650; -930.000; -721.000
419.253; 2804.275; -967.000; -837.000
419.379;  367.775; -391.000; -338.000
419.504;  359.875;  325.000;  415.000
419.629;  468.850; -393.000; -212.000
419.755; 3193.400; -317.000; -254.000
419.880;18953.025;  -98.000;   67.000
420.006;10497.350; -280.000; -221.000
420.131;27495.375; -662.000; -775.000
420.256; 3956.200; -315.000; -316.000
420.382;  502.225; -665.000; -687.000
420.507;   72.775; -649.000; -778.000
420.632;  154.750; -337.000; -339.000
420.758;  295.150; -251.000; -425.000
420.883;  -73.450; -876.000; -672.000
421.008;  -99.825; -775.000; -619.000
421.133;  -85.600; -509.000; -467.000
421.259;  -41.600; -325.000; -259.000
421.384;  -97.325; -834.000; -693.000
421.509;  -21.000;-1052.000; -862.000
421.634; 1400.375; -936.000; -820.000
421.759;  610.975; -359.000; -327.000
421.885;  -34.375; -717.000; -656.000
422.010;  -75.800; -673.000; -542.000
422.135; -156.150; -695.000; -727.000
422.260;   37.925;  340.000;  280.000
422.385;  -48.050;   12.000;  -98.000
422.510;    8.975;  151.000;  -26.000
422.635;   15.175;  -87.000;  -43.000
422.760;   89.500; -766.000; -791.000
422.885;   61.750;  -57.000;  -80.000
423.010;  -40.875; -112.000; -169.000
423.135;  -87.850; -481.000; -561.000
423.260;   -6.100; -150.000; -245.000
423.385;   84.975;  476.000;  222.000
423.510;   25.275;   71.000;  -22.000
423.635;  110.400;  133.000;   45.000
423.760;   50.675;  383.000;  328.000
423.885;   50.625;  336.000;  391.000
424.010;   18.050;  -68.000;  -13.000
424.135;  -12.025;    5.000;  -33.000
424.259;  -87.300; -654.000; -457.000
424.384;  -64.400; -279.000; -272.000
424.509;  -30.050; -260.000; -186.000
424.634;  -97.900; -761.000; -623.000
424.759;  -24.675; -688.000; -544.000
424.883;  -18.050; -506.000; -527.000
425.008;  155.250; -502.000; -410.000
425.133; 1865.975; -679.000; -653.000
425.258;  861.425; -517.000; -381.000
425.382; 1102.775; -867.000; -774.000
425.507; 2870.050; -487.000; -543.000
425.632;  434.900; -802.000; -663.000
425.756;  410.350; -256.000; -146.000
425.881; 5776.625; -831.000; -857.000
426.006;15525.300; -604.000; -355.000
426.130; 2485.125; -696.000; -508.000
426.255;  331.375; -611.000; -491.000
426.379;  138.875; -189.000; -577.000
426.504;  353.950;  660.000;  544.000
426.629; 3859.225; -519.000; -466.000
426.753; 2666.450;   64.000;  -46.000
426.878;  290.725; -252.000; -288.000
427.002;  165.825; -651.000; -668.000
427.127; 1507.925;  -35.000; -158.000
427.251;10484.325;  372.000;  401.000
427.375; 3028.275; -191.000; -173.000
427.500; 2457.175; -616.000; -610.000
427.624;  839.775; -234.000; -400.000
427.749;  109.200; -216.000; -225.000
427.873;  -23.375; -499.000; -412.000
427.997;  -25.375; -222.000; -230.000
428.122;   72.600;  795.000;  703.000
428.246;   75.275;  433.000;  434.000
428.371; -128.250; -869.000; -773.000
428.495; -102.275; -624.000; -646.000
428.619;  -35.550; -186.000; -117.000
428.743;   27.150;   65.000;  132.000
428.868;   28.650; -732.000; -643.000
428.992; 1556.850; -219.000; -326.000
429.116;  617.750; -329.000; -357.000
429.240;  318.075;  419.000;  426.000
429.365;   -9.875; -454.000; -574.000
429.489;  -24.025; -638.000; -647.000
429.613;   19.800; -236.000; -177.000
429.737;   29.650; -563.000; -432.000
429.861;  251.350; -247.000; -133.000
429.985; 5175.650; -425.000; -305.000
430.109; 5698.925; -770.000; -908.000
430.234;  656.300;   76.000;  -50.000
430.358;   58.875; -250.000; -160.000
430.482;  -66.275; -672.000; -564.000
430.606;  -64.075; -655.000; -375.000
430.730;   18.500; -437.000; -388.000
430.854;  166.925; -909.000; -835.000
430.978;  -61.650; -795.000; -764.000
431.102;  -93.450; -499.000; -422.000
431.226; -113.125; -874.000; -815.000
431.350;   36.100;  345.000;  422.000
431.474;  -76.250; -661.000; -373.000
431.597; -160.650;-1060.000; -848.000
431.721;  -77.700; -276.000; -267.000
431.845; -132.375; -704.000; -472.000
431.969;  -77.525; -304.000; -349.000
432.093;  -98.500; -395.000; -317.000
432.217;  -16.225;   32.000;   82.000
432.341; -115.200; -523.000; -518.000
432.464;   14.375;   96.000;   40.000
432.588;  243.250; -401.000; -329.000
432.712;  110.950;  -52.000;  -52.000
432.836;   47.250;  213.000;  263.000
432.959;  -30.650; -372.000; -311.000
433.083;   63.700;   11.000;    2.000
433.207;  351.450;  285.000;  930.000
433.330; 4633.100; -391.000; -200.000
433.454; 5729.975; -654.000; -638.000
433.578; 3330.875;  583.000;  278.000
433.701;  620.075; -623.000; -675.000
433.825;  177.125; -292.000; -299.000
433.949;  206.950;   28.000;  -72.000
434.072;   95.325; -410.000; -323.000
434.196;   -7.850; -309.000; -117.000
434.319; 3718.300;25482.000;25124.000
434.443;  719.700; -656.000; -603.000
434.566; 2469.450;  281.000;   62.000
434.690;  425.075; -637.000; -383.000
434.813;   53.125; -251.000; -173.000
434.937;  -87.300; -569.000; -696.000
435.060;  -38.600; -423.000; -332.000
435.184;  411.575; -492.000; -217.000
435.307;  223.800;  159.000;  102.000
435.431;  -13.300;  -40.000;   24.000
435.554;  -76.500; -399.000; -240.000
435.677;  -80.950; -350.000; -258.000
435.801;  -54.725;  -25.000;   49.000
435.924;    4.650;    1.000;  -67.000
436.048;  -90.375;-1019.000; -732.000
436.171;  -69.725; -240.000;  -66.000
436.294;  -27.400; -248.000; -229.000
436.417;   71.675; -963.000; -849.000
436.541;  -90.725; -814.000; -840.000
436.664;  -50.575; -242.000; -316.000
436.787;  -23.975;   13.000;  113.000
436.910; -111.925; -792.000; -422.000
437.034;   21.325;  142.000;  143.000
437.157;   64.725;  -11.000;    0.000
437.280;  -39.775; -392.000; -292.000
437.403;  -69.575; -982.000; -869.000
437.526;  754.800; -903.000; -865.000
437.649; 2751.350; -505.000; -332.000
437.772;  410.350; -692.000; -540.000
437.896;  122.700;  700.000;  544.000
438.019;  -80.825; -758.000; -503.000
438.142;  -84.400; -596.000; -506.000
438.265;    5.300; -639.000; -670.000
438.388;  632.350; -520.000; -410.000
438.511;  140.300; -597.000; -394.000
438.634;  -34.950; -247.000; -125.000
438.757; -142.250; -693.000; -619.000
438.880;  -19.200;  -34.000;  -57.000
439.003;  -74.575; -417.000; -437.000
439.126;  -74.250; -287.000; -167.000
439.248;  -60.375;  -98.000; -139.000
439.371;  -58.075;    9.000;  -53.000
439.494;   21.125;  510.000;  439.000
439.617;  -52.950;   65.000;  -88.000
439.740; -168.875; -968.000; -816.000
439.863; -142.550; -755.000; -595.000
439.986; -127.375; -476.000; -431.000
440.108;  -54.300; -161.000; -112.000
440.231; -156.550; -950.000; -836.000
440.354;  -50.475;  -64.000; -150.000
440.477;   50.750; -566.000; -542.000
440.599;    7.950; -200.000; -225.000
440.722; -122.800; -709.000; -586.000
440.845;   58.200;  751.000;  928.000
440.968;  -97.125; -415.000; -311.000
441.090;  -70.425; -199.000;  -33.000
441.213; -167.675;-1021.000; -825.000
441.336;  -52.800; -159.000;   -5.000
441.458;  -88.825; -549.000; -396.000
441.581;  -83.350; -628.000; -629.000
441.703;  -62.000; -152.000;   13.000
441.826; -115.300; -557.000; -400.000
441.948;  -60.600;   56.000;   51.000
442.071;   20.950;  555.000;  424.000
442.193; -104.300; -531.000; -485.000
442.316;    2.575;  152.000;   97.000
442.438;   35.425; -233.000;  -10.000
442.561;   78.475;  272.000;  262.000
442.683;  650.650; -809.000; -522.000
442.806; 1396.825;   -8.000;   74.000
442.928;   60.425; -859.000; -604.000
443.051;  -77.150; -577.000; -373.000
443.173; -101.825; -341.000; -339.000
443.295;  -96.300; -263.000; -371.000
443.418;  -70.050; -321.000;  -29.000
443.540;  -10.300; -106.000;   -4.000
443.662; -108.300; -563.000; -465.000
443.785;   -8.475;  335.000;  199.000
443.907; -108.400; -362.000; -208.000
444.029; -126.025; -767.000; -494.000
444.152; -143.275; -644.000; -554.000
444.274;  -23.575;  -18.000;  -24.000
444.396; -103.075; -461.000; -221.000
444.518; -136.125; -691.000; -454.000
444.640; -112.775; -268.000; -111.000
444.763;  -19.250;  388.000;  249.000
444.885; -114.425; -432.000; -392.000
445.007;  -39.175;   35.000;   86.000
445.129; -122.350; -610.000; -515.000
445.251; -113.825; -372.000; -439.000
445.373; -131.750; -537.000; -386.000
445.495;   -8.800;  242.000;  350.000
445.617;   55.675;  853.000;  753.000
445.739;  -76.200; -215.000;  -97.000
445.861;  -23.825; -245.000; -112.000
445.984;  -34.275; -267.000; -101.000
446.105;  228.575; -418.000; -251.000
446.227;  707.075; -176.000;  -19.000
446.349;   27.325; -358.000; -249.000
446.471;  -94.475; -615.000; -448.000
446.593;  -61.225; -316.000;   19.000
446.715;   12.475;  -67.000;   41.000
446.837;   63.325;  697.000;  832.000
446.959;  -98.925; -457.000; -478.000
447.081; -131.175; -628.000; -518.000
447.203;   41.750;  862.000;  834.000
447.325;  -95.725; -270.000;   42.000
447.446;   -6.225;  286.000;  530.000
447.568; -154.425; -921.000; -803.000
447.690;  -76.200; -236.000; -245.000
447.812; -158.575; -798.000; -519.000
447.933;  -35.600;  155.000;  127.000
448.055;  -53.250; -306.000; -261.000
448.177;  162.200;   31.000;   79.000
448.299;  126.375; -935.000; -727.000
448.420;   10.950;  -25.000;  159.000
448.542;  -46.400;   -3.000;   33.000
448.664;  -30.500;  109.000;  322.000
448.785;  -39.600;  265.000;   83.000
448.907;  -77.200; -614.000; -353.000
449.028;  -25.175; -771.000; -471.000
449.150;   62.600;  492.000;  589.000
449.272; -177.725;-1044.000; -913.000
449.393;   35.550;  612.000;  694.000
449.515; -152.875; -634.000; -581.000
449.636;  -56.400; -264.000; -155.000
449.758;   75.175;  763.000;  622.000
449.879;  -93.475; -498.000; -396.000
450.001;  -72.875; -149.000;  -49.000
450.122;  -31.850;  -95.000;  162.000
450.244;  -34.850;   37.000;  364.000
450.365;  -90.575; -495.000; -301.000
450.486;  -29.725;   80.000;  268.000
450.608;   22.275;  393.000;  326.000
450.729;   65.125;  578.000;  645.000
450.850;   -7.025; -574.000; -466.000
450.972;  637.800; -552.000; -389.000
451.093; 4410.700;  190.000;  588.000
451.214; 1891.825; -516.000; -337.000
451.336;  352.075;  773.000;  579.000
451.457;   44.625;  264.000;  393.000
451.578;  -44.150; -118.000;  -74.000
451.699; -115.150; -546.000; -540.000
451.821;  -74.650; -284.000;  -50.000
451.942;    1.100;  278.000;  285.000
452.063;   33.775;  228.000;  419.000
452.184;  502.450;  -54.000;  -49.000
452.305;  996.625;  103.000;  170.000
452.427;  108.650; -549.000; -301.000
452.548;  -23.650;   23.000;   79.000
452.669;  -48.550; -257.000;  -89.000
452.790;  -44.125;    3.000;  -18.000
452.911;    1.300;  195.000;  259.000
453.032;  -69.050; -289.000;  -60.000
453.153;  -48.450;  -29.000;   81.000
453.274;   54.875;  737.000;  868.000
453.395;  -57.975;  -51.000;  175.000
453.516;  142.600; 1317.000; 1388.000
453.637;  -59.050; -205.000; -150.000
453.758;  -63.925;   15.000;   69.000
453.879; -120.275; -462.000; -250.000
454.000;   80.475; 1086.000;  948.000
454.121; -102.400; -554.000; -326.000
454.242; -119.875; -599.000; -383.000
454.362;  -56.850;  -99.000;  114.000
454.483;  -45.425; -309.000; -229.000
454.604;   53.225;  512.000;  580.000
454.725; -128.025; -627.000; -555.000
454.846; -127.775; -474.000; -406.000
454.967;  -37.725;  230.000;  539.000
455.087;  -46.000;  179.000;  153.000
455.208;    9.150;  554.000;  856.000
455.329;  -65.400;  -22.000;   82.000
455.450;   21.625;  473.000;  633.000
455.570; -100.225; -234.000; -211.000
455.691;  -46.600;  201.000;  407.000
455.812; -105.350; -270.000;  -92.000
455.932;  -68.825;  107.000;  -97.000
456.053;  -79.850;   36.000;   24.000
456.173; -122.850; -433.000; -355.000
456.294; -137.250; -476.000; -303.000
456.415;  -69.700;  -73.000;   70.000
456.535;  -42.300;  297.000;  273.000
456.656;  -45.725;  132.000;  240.000
456.776;  -85.800;    3.000;  298.000
456.897;   -7.800;  308.000;  513.000
457.017;  -85.350; -153.000;   -3.000
457.138; -118.175; -402.000; -249.000
457.258;  -21.725;  263.000;  224.000
457.379;  -22.625;  509.000;  521.000
457.499;  -44.925;  443.000;  432.000
457.620; -131.050; -407.000; -231.000
457.740;  -96.050; -132.000;  -11.000
457.860;  -60.825;   87.000;   44.000
457.981;  -43.900;  132.000;  124.000
458.101;  -73.925;  -89.000;   40.000
458.221;  -24.950;  336.000;  402.000
458.342;  -60.700;   -4.000;  -37.000
458.462;   15.750;  617.000;  352.000
458.582;  -48.250; -302.000; -294.000
458.703;   -1.975;  303.000;  154.000
458.823;  -35.600;   22.000;  163.000
458.943;    8.000;  341.000;  467.000
459.063;   -6.100; 1124.000;  192.000
459.183;  -18.225;  328.000;  313.000
459.304;    3.875;  315.000;  517.000
459.424;  -63.475; -246.000;  -89.000
459.544;  304.600;  388.000;  764.000
459.664;  746.150;  499.000;  506.000
459.784;  280.475; 1004.000; 1175.000
459.904;   52.850;  867.000;  744.000
460.024;   63.475;  867.000;  684.000
460.144;   13.375;  449.000;  554.000
460.264;   -4.575;  515.000;  327.000
460.385; -103.350; -145.000; -119.000
460.505;   20.300;  905.000;  858.000
460.625;  -99.175;  -17.000;  -68.000
460.745;  -21.675;  396.000;  541.000
460.864;  -54.150;  153.000;  469.000
460.984;   11.150;  499.000;  573.000
461.104;  146.700; 1656.000; 1775.000
461.224;   24.700;  657.000;  650.000
461.344;  -29.700;  431.000;  360.000
461.464;  -31.500;  258.000;  513.000
461.584;  -30.175;  283.000;  466.000
461.704;  -35.275;   58.000;  108.000
461.824;  -59.950;  238.000;  259.000
461.943;  -55.175;  191.000;  130.000
462.063;  -75.000;    2.000;  324.000
462.183;   24.675;  639.000;  717.000
462.303;  100.600; 1678.000; 1230.000
462.422;   17.850;  781.000;  840.000
462.542;  -34.525;  271.000;  391.000
462.662;   32.825;  353.000;  380.000
462.782;  221.825;  833.000;  572.000
462.901;  469.225;  545.000;  717.000
463.021;  273.450; 1702.000; 1638.000
463.141;  -18.375;  337.000;  770.000
463.260;  -22.175;  614.000;  474.000
463.380;    6.675;  902.000;  884.000
463.499;  -47.075;  342.000;  332.000
463.619;  -32.975;  581.000;  559.000
463.738;  109.750; 1644.000;  903.000
463.858;   32.500;  657.000;  811.000
463.978;  -33.425;  542.000;  396.000
464.097;   42.100;  921.000; 1114.000
464.217;   99.800; 1196.000; 1143.000
464.336;  100.025; 1068.000; 1130.000
464.455;  -37.325;  328.000;  659.000
464.575;   43.400;  597.000;  602.000
464.694;  160.700; 1204.000; 1179.000
464.814;  111.525; 1190.000; 1138.000
464.933;   71.650; 1095.000; 1027.000
465.052;   88.650; 1412.000; 1054.000
465.172;   68.175;  922.000;  799.000
465.291;  125.475; 1376.000; 1320.000
465.410;    5.200;  462.000;  735.000
465.530;   94.250; 1355.000; 1310.000
465.649;   53.750; 1209.000; 1273.000
465.768;  130.500; 1673.000; 1508.000
465.888;   47.775;  941.000; 1174.000
466.007;   90.775; 1335.000; 1440.000
466.126;   -5.825;  721.000;  641.000
466.245;   42.400; 1176.000; 1187.000
466.364;   15.450;  950.000; 1060.000
466.484;   58.275; 1024.000; 1213.000
466.603;   35.325; 1101.000; 1222.000
466.722;  118.450; 1490.000; 1769.000
466.841;   76.075; 1151.000; 1401.000
466.960;   36.850; 1069.000;  972.000
467.079;  133.450; 1971.000; 1786.000
467.198;   40.400; 1238.000; 1181.000
467.317;  102.500; 1768.000; 1162.000
467.436;   57.900; 1709.000; 1261.000
467.555;  133.725; 1796.000; 1746.000
467.674;   55.300; 1227.000; 1329.000
467.793;   38.925; 1376.000; 1374.000
467.912;   92.375; 1658.000; 1539.000
468.031;  134.575; 2038.000; 1930.000
468.150;  138.125; 1842.000; 1837.000
468.269;  186.250; 2313.000; 2090.000
468.388;  184.150; 2168.000; 2339.000
468.507;  255.950; 2884.000; 2903.000
468.626;  228.725; 2555.000; 2541.000
468.744;  145.850; 2018.000; 2174.000
468.863;  198.725; 2312.000; 2523.000
468.982;   88.200; 1503.000; 1555.000
469.101;  223.900; 2788.000; 2692.000
469.220;  138.800; 2333.000; 2176.000
469.338;  267.200; 2935.000; 3051.000
469.457;  196.825; 2719.000; 2545.000
469.576;  341.875; 3953.000; 3784.000
469.695;  243.025; 2877.000; 3066.000
469.813;  426.725; 4148.000; 4192.000
469.932;  390.375; 4255.000; 4485.000
470.051;  430.150; 4075.000; 4161.000
470.169;  814.700; 4470.000; 4338.000
470.288; 1410.950; 4700.000; 4809.000
470.406;  842.050; 5059.000; 5194.000
470.525;  631.600; 6101.000; 5787.000
470.644;  652.200; 6847.000; 6794.000
470.762;  830.050; 8397.000; 7873.000
470.881;  900.800; 8651.000; 8464.000
470.999; 1028.575; 9685.000; 9151.000
471.118; 1090.700;11174.000;10711.000

