
Integration time [ms]: 200.000
Averaging Nr. [scans]: 10
Smoothing Nr. [pixels]: 0
Data measured with spectrometer [name]: 2101012U2
Wave   ;Sample   ;Dark     ;Reference
[nm]   ;[counts] ;[counts] ;[counts] 

197.733;   97.800;  516.000;  404.000
197.879; -168.100; -610.000; -634.000
198.025; -123.100; -475.000; -420.000
198.171; -143.600; -602.000; -612.000
198.317;  -76.600; -401.000; -316.000
198.463; -143.200; -655.000; -404.000
198.609;   41.800;  181.000; -137.000
198.755; -208.400; -644.000; -410.000
198.901; -169.200; -505.000; -424.000
199.047; -141.800; -615.000; -488.000
199.193;  -60.900; -230.000; -468.000
199.339;  -77.400; -222.000; -369.000
199.485;   74.400;  330.000;  271.000
199.631;   30.400;  227.000;  310.000
199.777;  -86.800; -466.000; -398.000
199.923; -127.400; -610.000; -424.000
200.069;  -25.600; -141.000;  -58.000
200.215;  100.400;  128.000;  453.000
200.361;   81.600;  243.000;  477.000
200.507; -168.500; -600.000; -373.000
200.653;  -64.300; -371.000; -194.000
200.798; -101.400; -215.000; -125.000
200.944;  -26.800; -146.000;  -41.000
201.090;   34.700;   61.000;  222.000
201.236;    0.300; -116.000; -158.000
201.382;  236.900;  874.000;  903.000
201.528;   -8.800;  -58.000;  -48.000
201.674;  -68.400; -386.000; -293.000
201.819; -154.700; -540.000; -439.000
201.965; -167.700; -699.000; -447.000
202.111;  -73.300; -273.000; -226.000
202.257;  -89.100; -250.000; -238.000
202.402;   11.600;   13.000;  -36.000
202.548;  -73.900; -169.000; -116.000
202.694;  138.100;  410.000; -183.000
202.840; -132.800; -603.000; -531.000
202.985; -163.500; -681.000; -639.000
203.131; -232.700; -832.000; -666.000
203.277;  -45.900; -199.000; -262.000
203.423; -114.900; -434.000; -520.000
203.568;  -90.900; -462.000; -237.000
203.714; -117.200; -535.000; -542.000
203.860; -163.600; -682.000; -641.000
204.005;   23.300;  112.000;  167.000
204.151;  136.000;  561.000;  556.000
204.296; -108.100; -354.000; -221.000
204.442; -170.400; -600.000; -547.000
204.588; -212.400; -592.000; -579.000
204.733;   51.000;  178.000;  168.000
204.879; -279.400;-1018.000; -822.000
205.025;   19.100;  -99.000;  126.000
205.170;  -17.800;  -17.000;   94.000
205.316;  159.200;  438.000;  661.000
205.461; -187.100; -698.000; -554.000
205.607;  159.000;  609.000;  665.000
205.752; -154.300; -626.000; -551.000
205.898; -118.100; -501.000; -391.000
206.043; -119.500; -578.000; -506.000
206.189; -107.100; -243.000; -285.000
206.334;  154.300;  554.000;  606.000
206.480;  169.800;  409.000;  239.000
206.625; -176.900; -529.000; -552.000
206.771; -123.300; -451.000; -373.000
206.916;  -71.000; -210.000; -537.000
207.062; -151.400; -545.000; -591.000
207.207; -126.900; -546.000; -443.000
207.353;   85.500;  185.000;  460.000
207.498;   18.200;  196.000;   85.000
207.643; -120.800; -501.000; -370.000
207.789; -282.300;-1069.000; -910.000
207.934; -188.200; -665.000; -713.000
208.080;  -54.700; -154.000;   66.000
208.225;  -15.400;  -22.000;  -57.000
208.370; -202.300; -727.000; -619.000
208.516; -164.500; -741.000; -487.000
208.661;  -90.100; -127.000;  -69.000
208.806;  -56.100; -165.000; -171.000
208.952; -257.800;-1044.000; -731.000
209.097;  172.900;  378.000;  349.000
209.242;  -77.000; -307.000; -382.000
209.387;  147.100;  392.000;  350.000
209.533; -126.100; -321.000; -350.000
209.678;  139.600;  472.000;  543.000
209.823; -100.900; -408.000; -310.000
209.969; -195.500; -860.000; -757.000
210.114; -228.500; -907.000; -719.000
210.259; -241.200; -939.000; -889.000
210.404;  -36.700; -171.000;  103.000
210.549;   -1.200;  108.000;    3.000
210.695;  -34.900;   -3.000;  -95.000
210.840;   50.200;   94.000;   67.000
210.985; -147.100; -484.000; -303.000
211.130;  125.700;  268.000;  406.000
211.275;   42.600;  207.000;  199.000
211.420; -110.600; -300.000; -289.000
211.566; -150.000; -536.000; -489.000
211.711;   30.100;  218.000;  157.000
211.856; -151.600; -545.000; -519.000
212.001;   19.300;  151.000;   44.000
212.146;   -4.400;  153.000;   49.000
212.291;  -57.100; -210.000; -186.000
212.436;  -64.800; -280.000;   -6.000
212.581; -181.400; -685.000; -653.000
212.726; -188.900; -487.000; -538.000
212.871;  -83.300; -552.000; -217.000
213.016; -309.500;-1172.000;-1029.000
213.161;  144.500;  406.000;  291.000
213.306; -158.600; -435.000; -577.000
213.451; -177.800; -778.000; -689.000
213.596; -104.100; -455.000; -347.000
213.741; -110.800; -448.000; -538.000
213.886; -172.000; -498.000; -517.000
214.031;  -58.000; -294.000; -124.000
214.176; -123.400; -408.000; -341.000
214.321;  -38.500; -296.000; -157.000
214.466;  -62.500; -163.000;  -43.000
214.611;  -28.000;  -61.000;  -10.000
214.756; -253.200; -948.000; -858.000
214.901;  -73.200; -388.000; -226.000
215.046; -245.700; -797.000; -825.000
215.191;   34.800;  128.000;   35.000
215.336;  -31.600; -157.000;  -19.000
215.480; -136.000; -684.000; -505.000
215.625;  -18.400; -175.000;  -19.000
215.770; -188.900; -757.000; -662.000
215.915;  -25.300;   -5.000;  -97.000
216.060;  -19.600; -113.000;  -21.000
216.205; -229.200; -731.000; -779.000
216.349; -131.500; -470.000; -533.000
216.494; -289.200; -939.000; -867.000
216.639; -237.200; -823.000; -888.000
216.784; -185.100; -577.000; -525.000
216.929;   82.100;  392.000;  281.000
217.073;  -36.100; -244.000;  -31.000
217.218;   20.000;   78.000;  -47.000
217.363; -153.100; -656.000; -618.000
217.507; -161.200; -623.000; -588.000
217.652; -234.400; -845.000; -874.000
217.797; -197.900; -708.000; -659.000
217.942; -235.000; -856.000; -720.000
218.086;  125.400;  608.000;  539.000
218.231;  -24.800; -174.000;  -26.000
218.376;  -51.300; -337.000; -229.000
218.520;   15.900;  -41.000;   96.000
218.665;  -56.800; -338.000; -204.000
218.810;  -86.700; -275.000; -233.000
218.954;   31.800;  201.000;   35.000
219.099; -230.600; -713.000; -963.000
219.243; -125.100; -589.000; -554.000
219.388;  -59.000; -264.000; -136.000
219.532;  -36.900; -116.000; -116.000
219.677; -151.700; -564.000; -521.000
219.822;   15.700;   33.000;   89.000
219.966;   35.500;   17.000;  -99.000
220.111;  -52.800; -328.000;  -40.000
220.255; -210.400; -797.000; -750.000
220.400;  -45.800; -180.000; -146.000
220.544; -142.900; -516.000; -450.000
220.689; -110.400; -422.000; -451.000
220.833;  -54.900; -123.000;  -58.000
220.978; -100.100; -393.000; -563.000
221.122;   24.300;  319.000;  307.000
221.267; -245.700; -906.000; -837.000
221.411; -152.000; -478.000; -394.000
221.555;  -36.000; -104.000;  -23.000
221.700; -130.000; -329.000; -222.000
221.844;   55.300;  255.000;  272.000
221.989; -102.500; -328.000; -311.000
222.133;  -66.600; -289.000; -307.000
222.277;  -15.100;    5.000;   78.000
222.422;   18.900;  227.000;  113.000
222.566;  -77.300; -381.000; -214.000
222.711; -122.600; -414.000; -479.000
222.855; -156.700; -643.000; -586.000
222.999; -162.800; -642.000; -717.000
223.144;  -43.300; -195.000; -194.000
223.288;  123.600;  423.000;  251.000
223.432;    3.000;  184.000;  230.000
223.576;   26.000;  152.000;  -21.000
223.721;   85.600;  364.000;  273.000
223.865; -144.500; -472.000; -475.000
224.009;  457.800; 1673.000; 1631.000
224.153; -147.300; -660.000; -671.000
224.298; -151.200; -531.000; -489.000
224.442;  -13.900;  -74.000;  -33.000
224.586;  -33.200; -169.000; -106.000
224.730; -195.800; -858.000; -670.000
224.875; -223.600; -739.000; -688.000
225.019;   31.600;  102.000;  188.000
225.163;  116.200;  208.000;  341.000
225.307;    4.300;   97.000;  -91.000
225.451;  100.900;  360.000;  481.000
225.595;   97.300;  264.000;  176.000
225.739;  -18.400; -170.000;  -94.000
225.884;   49.800;   86.000;    5.000
226.028; -204.500; -760.000; -626.000
226.172;  -64.600; -260.000; -273.000
226.316; -273.400; -941.000; -902.000
226.460; -137.800; -645.000; -493.000
226.604; -108.100; -406.000; -400.000
226.748; -196.000; -836.000; -733.000
226.892;  -67.300; -227.000; -181.000
227.036; -113.200; -537.000; -447.000
227.180; -105.900; -551.000; -375.000
227.324; -134.400; -561.000; -580.000
227.468; -215.600; -819.000; -717.000
227.612;    4.000;  242.000;  -28.000
227.756; -205.400; -845.000; -698.000
227.900;  133.900;  342.000;  441.000
228.044; -120.800; -509.000; -290.000
228.188;  139.500;  448.000;  568.000
228.332; -207.300; -546.000; -472.000
228.476;  -57.400; -223.000; -149.000
228.620;  -68.800; -210.000; -150.000
228.764;  159.800;  431.000;  349.000
228.908;  -21.000; -155.000;   30.000
229.052; -150.400; -615.000; -528.000
229.195;  -37.700; -172.000;   13.000
229.339;  -40.900; -235.000; -305.000
229.483;  -61.500;    5.000; -162.000
229.627;  -17.400; -156.000;  139.000
229.771;  -80.000; -218.000; -294.000
229.915;   21.300;  230.000;   79.000
230.059; -177.000; -648.000; -663.000
230.202;  -93.000; -370.000; -317.000
230.346;  -17.200; -107.000;  107.000
230.490; -146.800; -489.000; -521.000
230.634; -213.100; -736.000; -553.000
230.777;  152.400;  478.000;  509.000
230.921; -123.100; -450.000; -359.000
231.065;  -86.600; -246.000; -286.000
231.209;   29.100;  261.000;  265.000
231.352;   36.400;   54.000;   40.000
231.496;   51.500;  568.000;  188.000
231.640; -153.900; -693.000; -621.000
231.783;  144.800;  546.000;  525.000
231.927;  -95.200; -294.000; -365.000
232.071; -244.500; -962.000; -736.000
232.214; -225.100; -980.000; -764.000
232.358; -207.000; -683.000; -599.000
232.502;   53.400;  -19.000;    7.000
232.645; -277.600;-1090.000; -927.000
232.789;  -54.000; -257.000; -218.000
232.933;  -87.800; -407.000; -224.000
233.076; -260.900;-1038.000; -897.000
233.220; -226.100; -752.000; -777.000
233.363; -152.500; -669.000; -477.000
233.507;  106.800;  371.000;  129.000
233.650; -193.300; -764.000; -834.000
233.794;   96.800;  438.000;  461.000
233.938; -123.900; -530.000; -362.000
234.081;  -65.200;  -93.000;   31.000
234.225; -149.000; -631.000; -539.000
234.368; -217.600; -773.000; -723.000
234.512;  -60.800; -385.000; -299.000
234.655; -212.400; -582.000; -555.000
234.798; -168.900; -493.000; -466.000
234.942; -258.300; -884.000;-1002.000
235.085; -132.200; -651.000; -443.000
235.229; -159.500; -405.000; -410.000
235.372;  -87.800; -247.000; -191.000
235.516; -149.100; -397.000; -321.000
235.659;   55.800;   92.000;  121.000
235.802;  -36.400;  -38.000;  -22.000
235.946;   70.500;  335.000;  215.000
236.089;   34.500;  126.000;  250.000
236.233;   96.600;  275.000;  298.000
236.376;  -85.000; -235.000; -378.000
236.519;  -89.400; -297.000; -319.000
236.663;  -43.400; -215.000; -117.000
236.806; -286.700;-1029.000; -999.000
236.949;  124.200;  543.000;  431.000
237.092;   93.200;  412.000;  391.000
237.236; -177.000; -589.000; -502.000
237.379;  125.900;  352.000;  428.000
237.522; -230.200; -879.000; -768.000
237.666;  -49.100; -271.000;   18.000
237.809; -262.900; -851.000; -823.000
237.952;   98.200;  469.000;  271.000
238.095; -130.200; -447.000; -442.000
238.238;  184.500;  688.000;  700.000
238.382;   -9.300;  166.000;  103.000
238.525; -165.800; -598.000; -511.000
238.668; -278.400;-1060.000; -985.000
238.811; -173.600; -638.000; -643.000
238.954; -103.300; -483.000; -334.000
239.097;  196.900;  617.000;  664.000
239.241;   66.000;  394.000;  326.000
239.384;  -48.100; -254.000; -214.000
239.527; -127.800; -424.000; -224.000
239.670; -286.800; -994.000;-1091.000
239.813; -225.700; -696.000; -658.000
239.956;  149.400;  579.000;  473.000
240.099; -239.500; -778.000; -725.000
240.242;  122.900;  428.000;  432.000
240.385;  103.000;  466.000;  450.000
240.528; -131.400; -706.000; -473.000
240.671;   38.900;  189.000;  134.000
240.814; -103.200; -441.000; -158.000
240.957; -189.300; -767.000; -578.000
241.100; -179.500; -779.000; -755.000
241.243; -295.400;-1234.000; -893.000
241.386; -129.100; -508.000; -379.000
241.529; -142.000; -735.000; -547.000
241.672; -136.900; -566.000; -495.000
241.815; -231.800; -832.000; -808.000
241.958;  -70.800; -125.000; -182.000
242.101; -163.400; -545.000; -390.000
242.244;  -77.400; -270.000; -325.000
242.387; -110.500; -304.000; -246.000
242.530;   98.900;  470.000;  134.000
242.673;  -89.600; -381.000; -309.000
242.815; -227.100; -925.000; -899.000
242.958; -138.100; -482.000; -381.000
243.101;   10.100;  132.000;  187.000
243.244; -168.400; -564.000; -521.000
243.387;  -88.100; -313.000; -316.000
243.530; -186.300; -657.000; -674.000
243.672;   21.600;   43.000;  -92.000
243.815; -108.500; -355.000; -283.000
243.958;    4.700;   98.000;  -26.000
244.101;   28.200;   59.000;  -16.000
244.243;  -11.100;  -47.000;  101.000
244.386; -230.100; -761.000; -630.000
244.529;  -49.900; -132.000; -139.000
244.672; -309.200;-1154.000; -951.000
244.814; -189.200; -621.000; -794.000
244.957;  -74.000; -380.000; -304.000
245.100; -155.300; -489.000; -489.000
245.242; -113.400; -387.000; -374.000
245.385;   -7.300;  -59.000;  -39.000
245.528; -253.600; -871.000; -705.000
245.670;  198.200;  612.000;  634.000
245.813; -197.700; -599.000; -547.000
245.956;  -54.700; -324.000; -275.000
246.098; -150.100; -508.000; -650.000
246.241;   35.800;  194.000;   48.000
246.383;  -57.400; -119.000;  -73.000
246.526; -159.300; -454.000; -525.000
246.669; -214.700; -889.000; -780.000
246.811;   31.500;  172.000;   -1.000
246.954; -112.700; -512.000; -426.000
247.096;  -68.100;  -84.000;   -6.000
247.239; -173.300; -482.000; -445.000
247.381; -153.900; -647.000; -488.000
247.524;  175.300;  645.000;  679.000
247.666;  -34.400;   58.000;   11.000
247.809; -232.400; -887.000; -691.000
247.951;  -12.800;  -75.000;  138.000
248.094;   63.600;  432.000;  308.000
248.236; -319.000;-1262.000;-1238.000
248.378; -102.900; -356.000;  -81.000
248.521;  -53.600; -334.000; -337.000
248.663;  -88.400; -236.000; -267.000
248.806;  -73.700; -300.000; -266.000
248.948; -246.300; -886.000; -763.000
249.090; -137.000; -428.000; -398.000
249.233; -136.200; -344.000; -381.000
249.375; -139.000; -474.000; -451.000
249.518;  -31.000;  -83.000; -133.000
249.660;  -10.900; -103.000;    3.000
249.802; -362.600;-1303.000;-1189.000
249.945; -145.000; -612.000; -540.000
250.087; -249.700; -834.000; -768.000
250.229; -157.700; -362.000; -480.000
250.371; -139.900; -494.000; -439.000
250.514;  -96.500; -310.000; -244.000
250.656; -101.900;   69.000;  102.000
250.798; -239.400; -849.000; -800.000
250.940; -129.600; -322.000; -322.000
251.083;  -80.600; -335.000; -111.000
251.225;  112.900;  338.000;  310.000
251.367; -113.100; -274.000; -373.000
251.509;  -75.400; -265.000; -210.000
251.651; -208.900; -731.000; -671.000
251.794;  141.900;  538.000;  632.000
251.936; -250.900; -821.000; -747.000
252.078; -169.200; -540.000; -461.000
252.220; -161.700; -645.000; -477.000
252.362;   77.000;  344.000;  462.000
252.504; -178.000; -677.000; -584.000
252.646; -247.700; -875.000; -722.000
252.788;  -24.200;   14.000; -128.000
252.931; -109.100; -257.000; -253.000
253.073;  -94.100; -376.000; -317.000
253.215;  -29.700;  141.000;  122.000
253.357;  -32.200;   82.000; -153.000
253.499; -109.400; -374.000; -234.000
253.641; -176.700; -749.000; -594.000
253.783; -197.700; -609.000; -527.000
253.925; -165.200; -586.000; -591.000
254.067; -204.200; -744.000; -667.000
254.209;  -59.800; -391.000; -259.000
254.351; -274.600; -865.000; -883.000
254.493; -132.200; -441.000; -417.000
254.635; -268.500; -936.000; -818.000
254.777; -219.100; -752.000; -687.000
254.918; -147.700; -512.000; -430.000
255.060; -132.600; -551.000; -395.000
255.202;  -86.200; -473.000; -261.000
255.344; -174.700; -658.000; -455.000
255.486; -126.200; -471.000; -406.000
255.628; -188.100; -780.000; -781.000
255.770; -168.100; -676.000; -536.000
255.912; -144.300; -559.000; -468.000
256.053; -178.800; -730.000; -508.000
256.195;  290.700; 1008.000;  903.000
256.337; -239.800; -861.000; -595.000
256.479;   98.800;  532.000;  416.000
256.621;  -86.000; -394.000; -212.000
256.762; -200.500; -789.000; -742.000
256.904;  107.600;  485.000;  487.000
257.046;  -77.100; -381.000; -271.000
257.188;  -79.800; -351.000; -264.000
257.329; -141.000; -525.000; -464.000
257.471; -237.500; -939.000; -807.000
257.613; -132.300; -584.000; -498.000
257.755; -313.800;-1073.000; -982.000
257.896;   53.800;  286.000;  392.000
258.038; -134.400; -403.000; -352.000
258.180;  -71.600; -354.000; -279.000
258.321; -195.400; -581.000; -457.000
258.463;  -14.700;  -71.000;  133.000
258.605; -173.900; -562.000; -570.000
258.746; -185.000; -886.000; -772.000
258.888; -314.900;-1026.000;-1020.000
259.029;   12.200;  121.000;   -8.000
259.171; -184.400; -614.000; -550.000
259.313;  -11.900;  -49.000;  -47.000
259.454; -163.000; -536.000; -414.000
259.596; -115.100; -483.000; -390.000
259.737; -124.600; -590.000; -474.000
259.879;   83.800;  217.000;  311.000
260.020;  171.900;  901.000;  636.000
260.162;  -59.600; -146.000; -253.000
260.303; -213.400; -768.000; -687.000
260.445; -145.900; -609.000; -613.000
260.586;   66.100;  392.000;  157.000
260.728; -101.200; -360.000; -248.000
260.869; -139.900; -350.000; -343.000
261.011;  172.800;  706.000;  537.000
261.152; -138.600; -479.000; -319.000
261.293; -173.900; -576.000; -595.000
261.435;  -72.900; -219.000; -184.000
261.576;  -93.200; -455.000; -325.000
261.718;   93.000;  420.000;  470.000
261.859; -259.300; -940.000; -949.000
262.000; -260.900; -951.000;-1016.000
262.142;  -64.000;  -52.000;  -60.000
262.283; -234.300; -808.000; -691.000
262.424; -176.700; -666.000; -625.000
262.566; -314.700;-1161.000; -983.000
262.707; -237.200; -840.000; -830.000
262.848; -225.800; -769.000; -726.000
262.990; -113.300; -362.000; -345.000
263.131;  174.900;  650.000;  681.000
263.272;  -28.900;  -61.000;  -41.000
263.413; -193.900; -589.000; -561.000
263.555; -128.900; -669.000; -143.000
263.696; -168.600; -550.000; -641.000
263.837; -122.300; -449.000; -551.000
263.978;    9.500;   -5.000;  -77.000
264.119;  -89.800; -283.000; -264.000
264.261; -242.100; -847.000; -630.000
264.402;  -11.900;   33.000;   40.000
264.543; -152.200; -509.000; -524.000
264.684;  -13.500;   61.000;  -50.000
264.825; -215.000; -816.000; -538.000
264.966;  -19.100;  -84.000;  -67.000
265.107; -208.200; -646.000; -670.000
265.248; -223.700; -825.000; -812.000
265.390;  -42.700;  152.000;   -9.000
265.531;  -25.700; -238.000; -107.000
265.672; -174.400; -557.000; -630.000
265.813;  131.400;  563.000;  439.000
265.954; -301.200; -959.000; -940.000
266.095;  -63.900; -372.000; -322.000
266.236; -204.400; -686.000; -548.000
266.377;  -90.600; -243.000; -297.000
266.518; -151.900; -619.000; -547.000
266.659;   43.500;  170.000;  268.000
266.800;   14.600;   83.000;   85.000
266.941; -157.700; -487.000; -478.000
267.082;    9.300;  354.000;   99.000
267.223; -102.900; -344.000; -273.000
267.364; -224.700; -892.000; -686.000
267.504;  -42.900;    3.000;  135.000
267.645;   -9.500;  160.000;   67.000
267.786;  -48.900; -147.000;  -86.000
267.927; -144.800; -473.000; -379.000
268.068;  -44.200; -186.000;  -61.000
268.209;  -91.000; -175.000; -413.000
268.350;  -75.600; -388.000; -532.000
268.490; -193.500; -648.000; -521.000
268.631;   79.600;  127.000;  225.000
268.772; -231.600; -874.000; -647.000
268.913; -106.200; -328.000; -476.000
269.054;  -12.400; -117.000;   12.000
269.194; -104.800; -418.000; -402.000
269.335; -311.700;-1137.000;-1074.000
269.476;  -11.900;   33.000;  -35.000
269.617;  -91.700; -347.000; -392.000
269.757; -206.200; -713.000; -646.000
269.898; -221.100; -856.000; -613.000
270.039; -130.700; -415.000; -405.000
270.180; -292.700; -952.000; -816.000
270.320;  -50.600; -190.000; -250.000
270.461;  -94.100; -277.000; -249.000
270.602;  -36.100; -186.000; -156.000
270.742; -252.900; -868.000; -943.000
270.883; -122.900; -442.000; -390.000
271.023; -130.200; -358.000; -357.000
271.164; -170.800; -607.000; -528.000
271.305; -190.000; -666.000; -654.000
271.445; -186.500; -722.000; -683.000
271.586; -157.000; -462.000; -283.000
271.726;  -71.900; -397.000; -322.000
271.867; -161.900; -594.000; -534.000
272.008;  -66.600; -473.000; -285.000
272.148;   41.100;  462.000;  468.000
272.289;  -48.100; -113.000; -181.000
272.429;  -13.800;   19.000;  185.000
272.570; -188.800; -633.000; -737.000
272.710; -224.400; -825.000; -775.000
272.851;  -86.400;  113.000; -130.000
272.991; -319.100;-1173.000;-1077.000
273.131; -132.700; -419.000; -459.000
273.272; -200.400; -683.000; -723.000
273.412;  -26.800; -143.000;  -31.000
273.553; -157.700; -488.000; -507.000
273.693;  239.500;  913.000;  858.000
273.834; -260.800; -894.000; -692.000
273.974; -183.900; -664.000; -615.000
274.114; -208.800; -772.000; -560.000
274.255;   78.600;  414.000;  373.000
274.395;  -87.400; -180.000; -125.000
274.535;   43.000;  199.000;  350.000
274.676;   52.500;  225.000;   94.000
274.816;   -5.000;  110.000;   34.000
274.956; -191.500; -624.000; -690.000
275.097; -256.500;-1014.000; -922.000
275.237; -241.500; -913.000; -803.000
275.377; -218.500; -778.000; -689.000
275.517; -338.500; -878.000; -937.000
275.658; -165.000; -590.000; -555.000
275.798; -175.200; -606.000; -413.000
275.938;   53.300;  215.000;  323.000
276.078; -196.200; -626.000; -395.000
276.218;    9.000;   99.000;  104.000
276.359; -304.900;-1026.000;-1024.000
276.499; -158.600; -605.000; -446.000
276.639;  -50.300; -305.000; -151.000
276.779; -107.800; -475.000; -357.000
276.919; -210.100; -783.000; -624.000
277.059;  -72.500; -261.000; -212.000
277.199;  -88.400; -357.000; -259.000
277.340;   81.500;  287.000;  175.000
277.480; -220.400; -840.000; -693.000
277.620;   30.500;  192.000;   16.000
277.760; -399.800;-1533.000;-1294.000
277.900;   31.500;  113.000;   33.000
278.040;   14.400;  137.000;  159.000
278.180;   29.700;  270.000;  170.000
278.320;   17.000;   21.000;   56.000
278.460; -166.700; -443.000; -469.000
278.600; -207.700; -708.000; -598.000
278.740;  117.400;  448.000;  224.000
278.880; -291.200; -768.000; -791.000
279.020;  -61.300; -194.000; -144.000
279.160; -194.100; -672.000; -595.000
279.300; -245.700; -926.000; -873.000
279.440; -193.500; -709.000; -622.000
279.579; -264.900;-1014.000; -929.000
279.719; -153.800; -410.000; -394.000
279.859;   21.600;   -4.000;   41.000
279.999;  -73.400; -208.000;  101.000
280.139; -126.500; -435.000; -387.000
280.279; -243.500; -708.000; -745.000
280.419;  -35.300; -229.000; -147.000
280.559; -100.000; -259.000; -180.000
280.698; -194.800; -790.000; -639.000
280.838; -216.000; -778.000; -800.000
280.978; -203.000; -846.000; -790.000
281.118; -253.200; -811.000; -704.000
281.257;   -2.200;   24.000;    6.000
281.397; -320.000;-1094.000; -960.000
281.537; -181.000; -599.000; -712.000
281.677;  -65.300; -150.000; -101.000
281.816; -207.700; -700.000; -630.000
281.956;  -53.800; -193.000; -257.000
282.096; -132.500; -539.000; -396.000
282.235; -200.600; -672.000; -638.000
282.375;  -72.800; -243.000;  -98.000
282.515; -258.700; -715.000; -707.000
282.654;   -2.700;   29.000;  106.000
282.794;   59.000;  388.000;  244.000
282.934; -131.800; -530.000; -491.000
283.073; -272.800;-1030.000; -857.000
283.213;  -96.000; -460.000; -467.000
283.353; -137.800; -408.000; -349.000
283.492;  -70.400; -264.000; -296.000
283.632; -125.600; -254.000; -168.000
283.771; -190.800; -859.000; -730.000
283.911; -108.800; -369.000; -260.000
284.050; -213.700; -794.000; -748.000
284.190; -333.700;-1229.000;-1096.000
284.329; -287.700;-1055.000; -964.000
284.469; -189.700; -516.000; -591.000
284.608; -135.700; -559.000; -598.000
284.748; -165.400; -614.000; -570.000
284.887;    4.200;  -87.000;  -20.000
285.027; -252.100; -844.000; -892.000
285.166;  -89.100; -192.000; -249.000
285.306;  -38.600; -116.000;  -33.000
285.445;  -84.900; -229.000; -343.000
285.584; -193.900; -630.000; -494.000
285.724; -107.600; -282.000; -322.000
285.863; -220.300; -857.000; -507.000
286.002; -135.400; -366.000; -276.000
286.142; -220.400; -715.000; -622.000
286.281; -166.100; -525.000; -493.000
286.420; -158.500; -554.000; -417.000
286.560;  165.700;  653.000;  623.000
286.699; -283.700; -958.000; -912.000
286.838; -171.900; -590.000; -591.000
286.978; -200.500; -533.000; -537.000
287.117; -268.800;-1085.000; -950.000
287.256;  -72.400; -228.000; -211.000
287.395; -123.800; -197.000; -378.000
287.535;  -95.300; -370.000; -298.000
287.674; -191.900; -509.000; -484.000
287.813;   96.200;  661.000;  533.000
287.952; -269.800;-1010.000; -871.000
288.091; -314.900;-1049.000; -915.000
288.231;    0.600;   13.000;   15.000
288.370; -393.900;-1217.000;-1200.000
288.509; -178.900; -728.000; -645.000
288.648; -188.700; -770.000; -548.000
288.787;  -37.300; -243.000;  -87.000
288.926; -165.700; -454.000; -475.000
289.065;  202.000;  859.000;  672.000
289.204; -108.900; -377.000; -217.000
289.344; -225.900; -791.000; -690.000
289.483;   17.800;  416.000;  304.000
289.622;  -70.600; -291.000; -149.000
289.761;  -41.700; -309.000; -166.000
289.900; -240.100; -785.000; -626.000
290.039;  -29.700;  -12.000;  -95.000
290.178;  -90.800; -274.000; -180.000
290.317; -173.800; -618.000; -479.000
290.456; -132.000; -463.000; -451.000
290.595; -287.200; -961.000; -833.000
290.734; -283.000; -904.000; -891.000
290.873; -144.700; -456.000; -420.000
291.011; -243.800; -833.000; -843.000
291.150; -217.700; -770.000; -682.000
291.289;  -69.900; -343.000; -110.000
291.428; -198.600; -599.000; -480.000
291.567;  -95.900; -370.000; -442.000
291.706;  -15.200;  109.000;  154.000
291.845; -220.100; -597.000; -505.000
291.984; -335.500;-1234.000;-1061.000
292.122;  141.600;  602.000;  582.000
292.261;  101.300;  620.000;  463.000
292.400;   -4.300; -144.000;  211.000
292.539; -266.100; -959.000; -813.000
292.678;  -63.400; -325.000; -300.000
292.816; -306.900;-1136.000; -965.000
292.955; -214.600; -844.000; -684.000
293.094;  -60.400; -173.000; -337.000
293.233; -131.800; -556.000; -400.000
293.371;  -69.600; -225.000;  -84.000
293.510; -233.400; -866.000; -780.000
293.649; -270.300; -959.000; -924.000
293.787; -308.100;-1083.000;-1012.000
293.926;  -63.000; -113.000;  -32.000
294.065;  -93.100; -379.000; -290.000
294.203;   70.200;  298.000;  406.000
294.342;   16.100;   74.000;  156.000
294.481;13010.500;51180.000; -836.000
294.619;  -61.700; -425.000; -582.000
294.758; -346.200;-1230.000;-1137.000
294.896;   23.800; -125.000;    5.000
295.035; -291.700;-1040.000;-1006.000
295.174; -273.700;-1082.000; -954.000
295.312;  -88.500; -323.000; -203.000
295.451;  -94.700; -307.000; -428.000
295.589; -187.400; -389.000; -518.000
295.728;  -12.000; -292.000; -165.000
295.866;  -27.700;  -36.000;  -51.000
296.005; -175.200; -584.000; -341.000
296.143; -184.700; -558.000; -596.000
296.282; -255.000; -957.000; -881.000
296.420; -197.500; -657.000; -557.000
296.559; -233.100; -892.000; -633.000
296.697; -180.800; -847.000; -665.000
296.835; -311.000;-1141.000;-1002.000
296.974;  -22.100;  -23.000;   39.000
297.112; -152.700; -443.000; -504.000
297.251; -251.200; -815.000; -755.000
297.389; -165.400; -576.000; -438.000
297.527;  -49.100; -145.000;  -83.000
297.666; -170.600; -486.000; -438.000
297.804; -121.600; -404.000; -264.000
297.942;  -41.600; -136.000; -161.000
298.081;  -26.100; -183.000;   63.000
298.219;  -31.600;  -17.000;  -19.000
298.357;  -96.000; -144.000;  -71.000
298.495; -244.300; -810.000; -812.000
298.634;   -6.800;  245.000;  219.000
298.772;  -57.600; -220.000; -338.000
298.910; -134.900; -309.000; -182.000
299.048;  -18.900; -130.000; -153.000
299.187; -110.200; -350.000; -250.000
299.325;    1.000;   52.000;  122.000
299.463; -116.400; -389.000; -299.000
299.601;  -97.700; -327.000; -271.000
299.739; -285.900; -908.000; -883.000
299.877; -206.200; -791.000; -703.000
300.016; -292.700;-1095.000; -935.000
300.154;  -44.400;  -19.000; -161.000
300.292; -141.700; -428.000; -348.000
300.430; -122.600; -408.000; -291.000
300.568; -245.100; -940.000; -874.000
300.706; -151.700; -366.000; -469.000
300.844; -316.500;-1108.000; -979.000
300.982;   94.000;  246.000;  282.000
301.120; -274.000; -965.000; -866.000
301.258; -193.300; -812.000; -705.000
301.396;  -23.500;  104.000;  -41.000
301.534;  -99.900; -218.000; -293.000
301.672; -184.100; -664.000; -521.000
301.810; -187.500; -613.000; -545.000
301.948;   22.700;   53.000;  149.000
302.086;  -52.600; -250.000;  -32.000
302.224; -194.300; -610.000; -585.000
302.362; -203.200; -558.000; -622.000
302.500; -266.800; -923.000; -893.000
302.638;   25.400;  128.000;  245.000
302.776;  -99.600; -352.000; -408.000
302.913;   81.900;  447.000;  236.000
303.051;  -65.900;  -86.000;  -23.000
303.189;   56.400;   90.000;  118.000
303.327; -136.200; -341.000; -256.000
303.465; -198.400; -832.000; -588.000
303.603; -201.600; -805.000; -604.000
303.740;   51.300;  417.000;  241.000
303.878; -242.600; -800.000; -759.000
304.016; -218.000; -915.000; -790.000
304.154; -346.000;-1123.000;-1152.000
304.291; -152.700; -505.000; -554.000
304.429;   -2.000;  102.000;   74.000
304.567; -287.800; -908.000; -893.000
304.705; -148.500; -408.000; -515.000
304.842; -192.900; -616.000; -540.000
304.980;    8.900;  215.000;   35.000
305.118; -123.000; -367.000; -365.000
305.255; -271.900; -945.000; -927.000
305.393;   49.800;  178.000;  239.000
305.531; -308.700;-1173.000; -956.000
305.668; -196.800; -663.000; -582.000
305.806; -143.300; -358.000; -439.000
305.943; -182.800; -629.000; -637.000
306.081; -104.800; -378.000; -267.000
306.219; -251.500; -863.000; -748.000
306.356;  -12.200;  158.000;   27.000
306.494;  150.800;  981.000;  761.000
306.631;  -14.300;  -11.000;  -55.000
306.769; -128.800; -613.000; -485.000
306.906; -131.700; -284.000; -258.000
307.044; -150.300; -473.000; -488.000
307.181; -123.800; -410.000; -332.000
307.319;   30.600;  112.000;   87.000
307.456; -371.300;-1191.000;-1153.000
307.594; -278.700; -980.000; -727.000
307.731;  -99.100; -371.000; -164.000
307.868;  -18.400;  -15.000;   20.000
308.006; -275.400; -961.000; -847.000
308.143; -151.800; -618.000; -330.000
308.281;  -69.700;  -37.000; -254.000
308.418; -198.400; -748.000; -640.000
308.555; -186.200; -400.000; -250.000
308.693; -149.200; -577.000; -573.000
308.830; -237.800; -712.000; -657.000
308.967;  -43.600; -215.000;  -95.000
309.105; -154.900; -507.000; -396.000
309.242; -155.300; -468.000; -367.000
309.379; -204.700; -577.000; -655.000
309.517; -280.100; -936.000; -948.000
309.654; -251.900; -910.000; -734.000
309.791; -180.900; -662.000; -580.000
309.928; -293.800; -977.000; -914.000
310.065;  135.900;  819.000;  697.000
310.203; -257.500; -825.000; -850.000
310.340; -165.000; -465.000; -321.000
310.477; -179.500; -412.000; -516.000
310.614; -167.800; -383.000; -473.000
310.751; -164.600; -427.000; -518.000
310.889;  -44.800;    1.000;   11.000
311.026; -330.000;-1161.000; -939.000
311.163; -145.400; -386.000; -380.000
311.300; -181.600; -512.000; -479.000
311.437; -164.700; -658.000; -619.000
311.574; -344.500;-1226.000; -985.000
311.711; -160.800; -595.000; -433.000
311.848; -113.300; -380.000; -388.000
311.985;   -3.500;  270.000;   93.000
312.122; -276.600; -932.000; -762.000
312.259; -284.400; -941.000; -994.000
312.396; -187.600; -508.000; -551.000
312.533; -210.300; -812.000; -790.000
312.670; -320.300;-1070.000; -898.000
312.807; -116.700; -352.000; -367.000
312.944; -209.200; -513.000; -611.000
313.081; -136.900; -150.000; -415.000
313.218; -283.300;-1111.000; -867.000
313.355; -156.900; -531.000; -449.000
313.492; -140.500; -455.000; -292.000
313.629;  184.800;  815.000;  735.000
313.766; -355.700;-1176.000;-1008.000
313.902;  -36.200; -186.000;   21.000
314.039; -125.700; -372.000; -289.000
314.176;    3.100;  286.000;  192.000
314.313; -170.500; -569.000; -473.000
314.450; -217.800; -788.000; -684.000
314.587; -165.600; -468.000; -480.000
314.723;  -36.900;  -78.000;  130.000
314.860;   18.300;  318.000;  332.000
314.997;   10.700;  223.000;  142.000
315.134; -149.900; -385.000; -368.000
315.270; -145.600; -480.000; -496.000
315.407; -342.600;-1094.000; -967.000
315.544; -181.000; -657.000; -538.000
315.681; -231.800; -681.000; -565.000
315.817;  -60.800; -133.000; -176.000
315.954; -191.200; -613.000; -392.000
316.091; -329.500;-1045.000;-1023.000
316.227;  -60.300;  -71.000; -179.000
316.364;    2.600;   23.000;    6.000
316.500; -105.300; -113.000; -300.000
316.637; -133.600; -181.000; -302.000
316.774; -186.500; -625.000; -358.000
316.910; -207.600; -598.000; -629.000
317.047; -190.200; -487.000; -351.000
317.183; -158.700; -435.000; -566.000
317.320; -133.800; -367.000; -321.000
317.456; -238.800; -733.000; -805.000
317.593; -174.000; -598.000; -641.000
317.729;   -1.700;  168.000;  -67.000
317.866; -398.800;-1434.000;-1285.000
318.002; -172.200; -708.000; -948.000
318.139; -276.100; -883.000; -867.000
318.275; -282.200;-1003.000; -738.000
318.412; -165.800; -517.000; -336.000
318.548; -193.600; -751.000; -720.000
318.685; -292.300; -985.000; -888.000
318.821; -247.900; -762.000; -735.000
318.957;  -73.300;   34.000;  -23.000
319.094;   70.600;  297.000;  154.000
319.230; -232.800; -756.000; -742.000
319.367; -150.500; -471.000; -520.000
319.503; -148.500; -538.000; -436.000
319.639; -230.200; -877.000; -793.000
319.775; -206.600; -750.000; -685.000
319.912; -137.800; -424.000; -519.000
320.048; -325.500;-1184.000;-1184.000
320.184;   14.700;   59.000;   70.000
320.321; -137.100; -497.000; -467.000
320.457;   99.700;  475.000;  662.000
320.593; -181.200; -375.000; -382.000
320.729; -227.200; -732.000; -734.000
320.866; -196.700; -577.000; -635.000
321.002; -250.900; -759.000; -809.000
321.138; -109.100; -135.000; -211.000
321.274;  -38.500; -148.000; -115.000
321.410; -162.500; -585.000; -353.000
321.546; -285.600;-1011.000; -911.000
321.683;   47.000;  400.000;  185.000
321.819;  -22.800;  -48.000; -117.000
321.955; -241.400; -743.000; -722.000
322.091; -153.600; -585.000; -540.000
322.227;  -69.600; -382.000; -202.000
322.363;  -95.900; -320.000; -215.000
322.499; -107.800; -343.000; -331.000
322.635;  124.700;  636.000;  443.000
322.771;  -51.000; -139.000;   12.000
322.907;  100.600;  129.000;  327.000
323.043; -107.600; -115.000; -206.000
323.179; -123.400; -394.000; -363.000
323.315; -143.200; -401.000; -371.000
323.451; -107.900; -328.000; -236.000
323.587;  -57.400;  -60.000;  -77.000
323.723; -207.200; -682.000; -601.000
323.859;  -91.100; -258.000;  -76.000
323.995; -142.400; -467.000; -409.000
324.131; -278.400; -967.000; -892.000
324.267;  -85.900; -254.000; -276.000
324.402; -283.700; -960.000; -983.000
324.538;  -88.800; -279.000; -104.000
324.674;   14.000;  164.000;   77.000
324.810;    1.800;  226.000;  308.000
324.946; -148.500; -810.000; -658.000
325.082; -142.300; -568.000; -475.000
325.217;  -18.300;  -62.000;   16.000
325.353; -210.000; -764.000; -659.000
325.489; -179.500; -540.000; -506.000
325.625; -157.200; -579.000; -525.000
325.760;   74.200;  517.000;  376.000
325.896; -170.900; -515.000; -702.000
326.032; -103.000; -403.000; -352.000
326.168; -134.900; -462.000; -369.000
326.303; -141.700; -352.000; -461.000
326.439;  -80.800; -336.000; -276.000
326.575;  -72.300; -190.000;  -29.000
326.710;  -42.100; -156.000;  -30.000
326.846;  -17.700;  146.000;  103.000
326.982; -186.300; -530.000; -548.000
327.117; -149.500; -481.000; -442.000
327.253; -216.500; -745.000; -742.000
327.388; -372.400;-1137.000;-1153.000
327.524; -207.100; -811.000; -578.000
327.659;  -48.800;  -58.000;  -22.000
327.795;  -22.800;   69.000;   45.000
327.931; -169.400; -723.000; -499.000
328.066;  -89.800; -417.000; -276.000
328.202;  -82.800;   12.000; -129.000
328.337;  214.000;  957.000;  713.000
328.473;  -14.900;  -12.000;  -74.000
328.608;  -81.400; -256.000; -267.000
328.743; -236.300; -799.000; -664.000
328.879;   31.700;  214.000;  114.000
329.014; -162.500; -102.000; -122.000
329.150; -181.000; -358.000; -483.000
329.285; -179.300; -465.000; -466.000
329.421; -117.300; -548.000; -246.000
329.556;  -21.700;  -36.000;   85.000
329.691; -177.300; -633.000; -615.000
329.827; -154.600; -626.000; -480.000
329.962;  -87.500;  131.000; -301.000
330.097; -212.700; -673.000; -585.000
330.233; -111.700; -410.000; -223.000
330.368; -249.000; -839.000; -628.000
330.503;  -38.900;    3.000;   98.000
330.638;  -69.800;  -93.000; -125.000
330.774; -191.900; -609.000; -530.000
330.909;  -94.400; -434.000; -244.000
331.044; -178.100; -714.000; -708.000
331.179; -351.300;-1217.000;-1109.000
331.315;   15.700;   77.000;   20.000
331.450;   13.000;  157.000;  285.000
331.585; -213.500; -805.000; -706.000
331.720; -207.600; -510.000; -460.000
331.855;  -48.700;  -35.000; -102.000
331.990;   -5.800;   62.000;  138.000
332.126;  -16.600; -110.000;   71.000
332.261; -124.700; -379.000; -265.000
332.396;  -74.100; -135.000; -242.000
332.531; -314.800;-1074.000;-1031.000
332.666; -129.500; -519.000; -363.000
332.801; -253.800; -726.000; -807.000
332.936;  -27.300; -192.000; -122.000
333.071; -305.900; -870.000; -817.000
333.206;   21.600;  307.000;  379.000
333.341;   77.800;  344.000;  418.000
333.476; -191.500; -627.000; -623.000
333.611;  -98.000; -251.000; -173.000
333.746; -111.800; -381.000; -464.000
333.881; -271.400; -973.000; -935.000
334.016; -279.600; -936.000; -917.000
334.151; -251.100; -746.000; -702.000
334.286;    1.200;  152.000;  186.000
334.421;  -50.400; -125.000; -178.000
334.556; -175.500; -611.000; -567.000
334.690; -183.400; -631.000; -577.000
334.825;   83.200;  381.000;   83.000
334.960; -165.800; -285.000; -413.000
335.095;  -16.900;  135.000;  -91.000
335.230; -242.300; -722.000; -738.000
335.365; -302.600;-1084.000; -990.000
335.499; -320.700;-1108.000;-1037.000
335.634;  -22.900;    9.000;  534.000
335.769; -229.200; -755.000; -720.000
335.904; -183.600; -603.000; -561.000
336.038; -245.500; -735.000; -657.000
336.173; -339.100;-1206.000;-1194.000
336.308; -100.200; -116.000; -189.000
336.443; -186.300; -544.000; -634.000
336.577; -275.900; -936.000; -787.000
336.712;  -12.900;   -4.000;  -12.000
336.847; -216.000; -724.000; -607.000
336.981; -110.100; -272.000; -208.000
337.116;  130.000;  615.000;  501.000
337.250; -150.300; -434.000; -421.000
337.385; -128.100; -297.000; -208.000
337.520; -175.700; -632.000; -603.000
337.654; -103.100; -215.000; -126.000
337.789; -271.100; -989.000; -933.000
337.923; -119.800; -104.000; -205.000
338.058; -224.800; -673.000; -738.000
338.192; -193.200; -611.000; -488.000
338.327;  -88.300;  -18.000; -155.000
338.461; -160.700; -299.000; -469.000
338.596; -218.500; -780.000; -638.000
338.730; -258.700; -767.000; -803.000
338.865;  -41.000;  -46.000; -140.000
338.999; -244.900; -846.000; -702.000
339.134; -191.800; -634.000; -536.000
339.268; -195.900; -741.000; -603.000
339.403; -233.900; -740.000; -775.000
339.537; -247.700; -894.000; -820.000
339.671; -251.600; -829.000; -813.000
339.806; -208.400; -556.000; -512.000
339.940;  -82.300; -261.000; -235.000
340.074; -215.400; -685.000; -510.000
340.209;  -90.600; -351.000; -230.000
340.343; -198.100; -517.000; -573.000
340.477;  293.400;  998.000; 1036.000
340.612; -252.900;-1033.000; -900.000
340.746; -102.900; -199.000; -243.000
340.880; -276.600; -924.000; -785.000
341.014;  -36.600;  -45.000; -154.000
341.149; -239.000; -756.000; -718.000
341.283; -238.600; -839.000; -754.000
341.417; -318.200;-1124.000; -938.000
341.551; -213.200; -768.000; -708.000
341.685; -192.500; -633.000; -611.000
341.820; -189.600; -562.000; -493.000
341.954; -138.100; -218.000; -349.000
342.088; -283.400;-1102.000;-1019.000
342.222;   73.800;  565.000;  618.000
342.356; -186.500; -395.000; -335.000
342.490; -243.400; -880.000; -841.000
342.624; -106.000; -339.000; -242.000
342.758; -102.200; -364.000; -312.000
342.892; -224.100; -710.000; -585.000
343.026; -101.700;  -58.000; -116.000
343.160; -124.700; -426.000; -376.000
343.294; -205.300; -474.000; -337.000
343.428; -187.700; -488.000; -448.000
343.562;  -68.400; -172.000;  -23.000
343.696;  -88.900; -385.000; -314.000
343.830; -136.700; -362.000; -356.000
343.964;  -63.600; -231.000; -168.000
344.098;  -23.400;  199.000;   70.000
344.232; -104.900; -266.000; -127.000
344.366; -187.700; -567.000; -453.000
344.500; -207.900; -665.000; -744.000
344.634; -108.800; -324.000; -164.000
344.768; -160.500; -531.000; -341.000
344.902;   19.800;  278.000;  256.000
345.035; -148.000; -556.000; -496.000
345.169; -265.900; -933.000; -656.000
345.303; -191.700; -308.000; -482.000
345.437; -232.500; -826.000; -717.000
345.571; -209.700; -675.000; -594.000
345.704; -150.800; -309.000; -532.000
345.838;  -79.600; -331.000; -284.000
345.972; -170.000; -543.000; -495.000
346.106;  -24.200; -179.000; -190.000
346.239; -100.900; -312.000; -243.000
346.373; -100.300; -343.000; -302.000
346.507; -337.200; -950.000; -962.000
346.640;  -61.700;  -30.000;   13.000
346.774; -222.900; -650.000; -797.000
346.908;  -62.300; -138.000;  -11.000
347.041; -195.000; -646.000; -593.000
347.175;   -5.900;  259.000;   27.000
347.309; -213.200; -698.000; -628.000
347.442; -236.600; -883.000; -732.000
347.576;  145.200;  670.000;  668.000
347.709;  -57.500; -123.000;  -52.000
347.843; -310.600; -933.000; -825.000
347.976;   75.500;  235.000;  294.000
348.110; -370.500;-1268.000;-1186.000
348.243; -238.200; -679.000; -772.000
348.377;  -33.400;  -26.000;   60.000
348.510;   69.100;  403.000;  540.000
348.644; -111.600;  -37.000; -159.000
348.777;   -1.800;  180.000;  191.000
348.911;  -89.000; -142.000; -112.000
349.044;   99.900;  471.000;  448.000
349.178; -323.000;-1069.000;-1006.000
349.311;   27.000;  141.000;  255.000
349.444; -259.100; -927.000; -813.000
349.578;  -78.700; -347.000; -200.000
349.711; -316.900; -959.000; -862.000
349.845; -247.800; -661.000; -591.000
349.978; -370.000;-1224.000;-1137.000
350.111; -190.500; -546.000; -612.000
350.244; -224.400; -596.000; -700.000
350.378; -143.300; -392.000; -393.000
350.511; -151.400; -393.000; -426.000
350.644; -254.000; -808.000; -806.000
350.778;  -24.300;  168.000;  104.000
350.911;  -39.400;  134.000;  140.000
351.044; -205.900; -685.000; -615.000
351.177; -100.100; -321.000; -281.000
351.310;  -24.600;    3.000; -131.000
351.444; -259.100; -888.000; -788.000
351.577;  -34.100;  140.000;   90.000
351.710;  153.300;  593.000;  417.000
351.843;  -61.400; -165.000;  -77.000
351.976;  -17.800;  149.000;  -79.000
352.109; -232.300; -621.000; -612.000
352.242; -130.700; -464.000; -419.000
352.376; -222.900; -580.000; -636.000
352.509; -143.400; -437.000; -356.000
352.642; -322.000; -654.000; -604.000
352.775;  -67.400; -141.000;  -98.000
352.908; -252.400; -933.000; -904.000
353.041; -260.100; -814.000; -824.000
353.174; -126.100; -551.000; -424.000
353.307; -236.000; -753.000; -764.000
353.440;   99.800;  541.000;  453.000
353.573; -299.500; -957.000;-1008.000
353.706; -234.900; -384.000; -558.000
353.839;  -94.300; -264.000; -220.000
353.971; -199.800; -657.000; -512.000
354.104; -285.100; -896.000; -835.000
354.237; -201.100; -627.000; -662.000
354.370; -246.500; -846.000; -879.000
354.503; -378.100;-1231.000;-1308.000
354.636; -132.600; -529.000; -348.000
354.769; -286.400; -937.000; -860.000
354.902;  -70.000; -230.000; -139.000
355.034;  -84.900; -164.000; -220.000
355.167; -131.200; -262.000; -162.000
355.300; -320.800;-1061.000; -880.000
355.433;   -6.000;  -71.000;  -14.000
355.565; -143.200; -402.000; -384.000
355.698; -111.600; -356.000; -296.000
355.831; -302.900; -882.000; -801.000
355.964;  -65.600; -285.000; -170.000
356.096; -284.600; -856.000; -843.000
356.229; -178.500; -523.000; -530.000
356.362; -109.000; -373.000; -266.000
356.494;  -71.500; -229.000; -162.000
356.627;   46.800;  269.000;  377.000
356.760;   -1.000;  120.000;   53.000
356.892; -203.600; -286.000; -601.000
357.025;   90.300;  403.000;  389.000
357.157;  -78.700; -167.000; -179.000
357.290; -248.400; -856.000; -713.000
357.423; -206.900; -667.000; -556.000
357.555;  -53.600; -217.000; -228.000
357.688; -130.800; -483.000; -364.000
357.820; -247.000; -870.000; -877.000
357.953; -204.600; -563.000; -589.000
358.085; -212.500; -632.000; -612.000
358.218; -335.900;-1131.000; -932.000
358.350;  -33.200;  -58.000;  312.000
358.483; -374.500;-1300.000;-1187.000
358.615; -318.100;-1182.000;-1078.000
358.747; -346.000;-1187.000;-1058.000
358.880; -231.500; -810.000; -744.000
359.012; -138.100; -376.000; -202.000
359.145; -164.500; -480.000; -511.000
359.277; -295.700; -962.000; -913.000
359.409;  100.200;  536.000;  231.000
359.542; -259.800; -738.000; -688.000
359.674;  -51.700;   46.000;   13.000
359.806; -177.800; -565.000; -438.000
359.939; -145.200; -617.000; -516.000
360.071; -193.400; -583.000; -579.000
360.203; -122.700; -411.000; -364.000
360.335;  -33.700;  164.000;  -16.000
360.468; -118.600; -249.000; -307.000
360.600; -204.300; -547.000; -454.000
360.732; -198.000; -546.000; -423.000
360.864; -367.300;-1216.000;-1044.000
360.996; -143.400; -516.000; -554.000
361.129; -187.800; -389.000; -598.000
361.261;  -29.900;  110.000; -113.000
361.393; -113.300; -252.000; -214.000
361.525;  -14.100;   94.000;  244.000
361.657; -259.300; -821.000; -703.000
361.789;  -63.900; -139.000; -155.000
361.921; -196.300; -642.000; -593.000
362.053;  132.400;  524.000;  541.000
362.185;   22.500;  288.000;   72.000
362.318; -238.200; -709.000; -705.000
362.450;   34.600;  294.000;  444.000
362.582; -282.500; -913.000; -870.000
362.714; -103.500; -353.000; -332.000
362.846; -158.500; -606.000; -490.000
362.978; -315.400; -941.000; -811.000
363.109; -109.200; -161.000; -260.000
363.241; -221.600; -739.000; -749.000
363.373; -193.900; -649.000; -564.000
363.505;  -68.500; -186.000;  -91.000
363.637; -215.200; -787.000; -601.000
363.769; -357.200;-1067.000;-1080.000
363.901; -192.200; -596.000; -654.000
364.033; -322.900;-1103.000;-1062.000
364.165;  -81.700; -283.000; -283.000
364.296; -143.000; -316.000; -177.000
364.428; -391.800;-1344.000;-1220.000
364.560; -162.900; -679.000; -661.000
364.692; -191.100; -738.000; -835.000
364.824; -200.100; -588.000; -456.000
364.955; -128.600; -402.000; -564.000
365.087; -330.100;-1097.000; -852.000
365.219; -220.200; -686.000; -816.000
365.351; -200.700; -526.000; -572.000
365.482;   46.700;  300.000;  240.000
365.614; -146.200; -402.000; -314.000
365.746; -228.000; -729.000; -752.000
365.877; -237.600; -706.000; -672.000
366.009;  -39.400;  -35.000;  -62.000
366.141; -367.000;-1249.000;-1134.000
366.272; -221.200; -803.000; -719.000
366.404; -293.800;-1005.000; -874.000
366.535;  -33.100; -139.000;  -12.000
366.667; -216.600; -644.000; -649.000
366.799;   62.400;  353.000;  203.000
366.930; -283.800; -862.000; -996.000
367.062; -171.000; -639.000; -613.000
367.193; -271.500; -872.000; -842.000
367.325; -176.000; -580.000; -684.000
367.456; -115.500; -246.000;   31.000
367.588; -121.200; -371.000; -318.000
367.719;  -79.600;  -44.000;  -45.000
367.851;  -92.400; -222.000; -241.000
367.982; -297.500; -875.000; -732.000
368.113; -141.600; -475.000; -358.000
368.245; -306.400; -960.000; -841.000
368.376; -100.100; -254.000; -302.000
368.508; -120.900; -188.000; -263.000
368.639; -344.600;-1166.000;-1034.000
368.770; -215.800; -670.000; -589.000
368.902; -254.500; -836.000; -926.000
369.033; -286.100; -906.000; -855.000
369.164; -182.900; -720.000; -653.000
369.296; -224.500; -452.000; -601.000
369.427;  -84.400; -209.000; -144.000
369.558; -150.700; -593.000; -377.000
369.689; -156.900; -721.000; -569.000
369.821; -297.000; -951.000; -845.000
369.952;  -43.300;   42.000; -108.000
370.083;  -92.000; -229.000; -108.000
370.214; -193.100; -735.000; -650.000
370.345;  -45.200;   65.000;   81.000
370.477; -255.800; -810.000; -790.000
370.608; -132.300; -328.000; -264.000
370.739; -358.200;-1233.000;-1292.000
370.870; -327.000;-1102.000; -923.000
371.001; -119.700; -378.000; -467.000
371.132; -214.500; -754.000; -735.000
371.263;  -45.900;  -42.000; -148.000
371.394; -272.200; -841.000; -748.000
371.525;   39.500;  345.000;  225.000
371.657; -260.400; -808.000; -670.000
371.788;   10.700;  103.000;  199.000
371.919; -163.000; -384.000; -304.000
372.050;  -58.200;  -91.000; -156.000
372.181;  -57.300; -188.000; -294.000
372.311;  -24.800;   42.000; -127.000
372.442; -142.300; -457.000; -451.000
372.573; -119.300; -444.000; -340.000
372.704; -297.100;-1008.000; -980.000
372.835; -145.900; -228.000; -289.000
372.966; -187.800; -646.000; -554.000
373.097; -222.000; -575.000; -711.000
373.228; -200.800; -717.000; -542.000
373.359; -231.900; -824.000; -536.000
373.490; -261.900; -881.000; -727.000
373.620; -292.100;-1001.000; -803.000
373.751; -170.100; -332.000; -396.000
373.882; -210.300; -663.000; -733.000
374.013; -144.400; -449.000; -262.000
374.143; -187.400; -581.000; -659.000
374.274; -303.200; -987.000; -908.000
374.405;  -98.500; -388.000; -276.000
374.536; -160.600; -526.000; -387.000
374.666; -230.200; -759.000; -807.000
374.797; -281.000; -817.000; -868.000
374.928; -227.700; -710.000; -560.000
375.058; -194.300; -535.000; -500.000
375.189;  -87.500;  -59.000;  -93.000
375.320; -320.800; -928.000;-1034.000
375.450; -180.700; -625.000; -616.000
375.581; -189.400; -526.000; -436.000
375.712;  -91.300; -574.000; -250.000
375.842; -183.600; -438.000; -415.000
375.973; -177.800; -554.000; -513.000
376.103; -219.200; -665.000; -648.000
376.234; -196.200; -531.000; -552.000
376.364; -301.200; -944.000; -867.000
376.495;  189.400;  925.000;  529.000
376.625; -168.500; -472.000; -485.000
376.756; -250.900; -709.000; -678.000
376.886; -374.400;-1178.000;-1026.000
377.017; -300.000;-1048.000;-1061.000
377.147; -266.200; -786.000; -782.000
377.278;   28.200;  174.000;  228.000
377.408; -278.100; -801.000; -815.000
377.538; -225.900; -707.000; -693.000
377.669; -190.800; -537.000; -613.000
377.799; -219.400; -645.000; -635.000
377.929; -194.400; -610.000; -428.000
378.060; -277.800; -781.000; -847.000
378.190; -233.200; -726.000; -531.000
378.320; -156.100; -401.000; -406.000
378.451;  -74.800; -131.000;  -22.000
378.581;  -56.200;  -67.000; -110.000
378.711;  156.000; 1035.000;  866.000
378.841; -197.900; -533.000; -675.000
378.972; -263.600; -871.000; -751.000
379.102; -202.700; -652.000; -579.000
379.232;  -83.900; -126.000;  -73.000
379.362; -302.100;-1001.000; -885.000
379.492; -156.800; -373.000; -424.000
379.623;   30.200;    0.000;  111.000
379.753; -309.500;-1107.000; -974.000
379.883;  -31.000;   59.000;  156.000
380.013; -324.200;-1081.000;-1017.000
380.143; -342.500;-1097.000;-1056.000
380.273; -285.600; -985.000; -861.000
380.403; -117.400; -344.000; -257.000
380.533; -252.900; -651.000; -664.000
380.663;   20.200;  173.000;  128.000
380.793; -372.400;-1027.000;-1074.000
380.923;  -96.100; -103.000;  -34.000
381.053; -235.300; -613.000; -623.000
381.183;  -89.800; -106.000; -248.000
381.313; -206.100; -656.000; -470.000
381.443; -201.700; -692.000; -473.000
381.573; -173.200; -402.000; -409.000
381.703; -351.200;-1249.000;-1095.000
381.833; -413.500;-1454.000;-1336.000
381.963;  -61.800; -134.000;  -87.000
382.093; -292.700; -925.000; -909.000
382.223; -223.400; -713.000; -602.000
382.353; -243.400; -801.000; -608.000
382.482; -313.800;-1091.000; -964.000
382.612; -277.500; -872.000; -644.000
382.742; -229.900; -695.000; -622.000
382.872; -160.100; -565.000; -551.000
383.002;  -22.100;  347.000; -132.000
383.131; -137.900; -226.000; -160.000
383.261; -224.500; -706.000; -768.000
383.391; -195.500; -552.000; -377.000
383.521;   89.900;  451.000;  263.000
383.650; -329.700; -947.000; -904.000
383.780; -216.100; -783.000; -656.000
383.910;  166.400;  880.000;  802.000
384.039; -266.500; -794.000; -656.000
384.169; -345.700;-1205.000;-1017.000
384.299; -204.500; -650.000; -662.000
384.428; -240.700; -764.000; -680.000
384.558; -146.800; -308.000; -275.000
384.687; -118.500; -414.000; -334.000
384.817;  -53.500;   75.000;   -2.000
384.947; -107.400; -234.000; -141.000
385.076;  209.600;  982.000;  912.000
385.206;   66.900;  369.000;  480.000
385.335; -149.600; -549.000; -417.000
385.465; -248.200; -655.000; -663.000
385.594;  -37.200;  -53.000;  -44.000
385.724; -262.600; -868.000; -838.000
385.853; -117.500; -296.000; -270.000
385.982; -270.100; -743.000; -787.000
386.112; -291.900;-1052.000; -871.000
386.241; -133.500; -307.000; -312.000
386.371;  -96.500; -174.000;  -87.000
386.500; -294.100; -825.000; -789.000
386.629; -244.100; -874.000; -817.000
386.759;  -56.200;  -43.000;   68.000
386.888;  -70.700; -170.000; -250.000
387.017; -231.900; -648.000; -620.000
387.147; -255.600; -771.000; -798.000
387.276; -204.700; -410.000; -397.000
387.405; -122.400; -398.000; -342.000
387.535; -162.900; -452.000; -361.000
387.664; -212.500; -692.000; -620.000
387.793;  -95.100; -198.000; -113.000
387.922;  -10.200;  255.000;  200.000
388.052; -197.700; -576.000; -423.000
388.181; -129.300; -342.000; -472.000
388.310; -253.500; -889.000; -710.000
388.439; -275.400; -749.000; -742.000
388.568;    9.100;  365.000;  244.000
388.697; -229.800; -756.000; -653.000
388.826; -201.000; -768.000; -666.000
388.956; -100.600; -285.000; -307.000
389.085; -148.300; -347.000; -287.000
389.214; -261.700; -842.000; -872.000
389.343; -203.100; -645.000; -413.000
389.472;   29.900;  126.000;  149.000
389.601;  -30.000;   91.000;    0.000
389.730; -199.700; -568.000; -687.000
389.859;    0.700;  226.000;   46.000
389.988; -127.500; -423.000; -408.000
390.117; -132.700; -168.000; -146.000
390.246; -126.400; -331.000; -320.000
390.375; -249.200; -673.000; -626.000
390.504; -156.900; -703.000; -621.000
390.633; -280.000; -672.000; -726.000
390.761; -247.800; -732.000; -645.000
390.890;  -64.500;   -4.000; -130.000
391.019; -157.500; -421.000; -441.000
391.148; -280.400; -826.000; -855.000
391.277; -178.200; -576.000; -493.000
391.406; -271.300; -821.000; -805.000
391.534;  -13.200;  574.000; -301.000
391.663; -203.500; -583.000; -645.000
391.792; -226.400; -673.000; -701.000
391.921;  -66.000;   -3.000;   15.000
392.050; -107.400; -287.000; -228.000
392.178; -343.400;-1206.000;-1061.000
392.307; -268.900; -758.000; -712.000
392.436; -256.200; -427.000; -641.000
392.564;    5.100;  166.000;   -6.000
392.693; -248.700; -860.000; -682.000
392.822; -192.400; -529.000; -534.000
392.950; -242.100; -880.000; -714.000
393.079; -125.600; -188.000; -328.000
393.208; -189.400; -488.000; -511.000
393.336;  -81.300; -170.000; -145.000
393.465; -102.900; -317.000; -199.000
393.593;   11.100;   62.000;   79.000
393.722; -328.500;-1121.000; -916.000
393.850;  -70.000; -188.000;  -61.000
393.979; -328.300; -926.000; -805.000
394.107; -194.000; -517.000; -537.000
394.236; -203.700; -570.000; -507.000
394.364;   44.500;  383.000;  206.000
394.493; -264.800; -911.000; -767.000
394.621; -282.400; -955.000; -916.000
394.750; -286.300; -873.000; -923.000
394.878; -119.400; -247.000; -149.000
395.007; -279.700; -721.000; -807.000
395.135; -229.800; -790.000; -721.000
395.263; -316.900;-1038.000;-1040.000
395.392;  -47.400;  -25.000; -107.000
395.520; -191.500; -818.000; -679.000
395.648; -281.500; -865.000; -915.000
395.777; -161.100; -366.000; -405.000
395.905; -176.400; -449.000; -564.000
396.033;   -8.700;  217.000;  172.000
396.162; -157.700; -399.000; -453.000
396.290;  -52.000;  -17.000;   -2.000
396.418; -185.800; -555.000; -514.000
396.546; -277.700; -571.000; -466.000
396.674; -261.400; -850.000; -878.000
396.803;  -47.700;  -72.000;  -23.000
396.931;  -65.800; -179.000; -199.000
397.059; -360.200;-1026.000; -989.000
397.187; -283.300;-1026.000; -975.000
397.315; -311.100; -884.000; -649.000
397.443; -181.200; -592.000; -443.000
397.572; -201.500; -578.000; -424.000
397.700; -226.500; -607.000; -614.000
397.828;  -81.200;  120.000;  -90.000
397.956; -154.600; -508.000; -478.000
398.084; -232.000; -767.000; -626.000
398.212;  -31.400;  137.000;  124.000
398.340;  -24.400;  -56.000;  159.000
398.468; -126.700; -390.000; -169.000
398.596; -299.200; -993.000; -953.000
398.724; -258.600; -762.000; -767.000
398.852; -325.300;-1024.000; -976.000
398.980; -160.900; -560.000; -560.000
399.108; -255.900; -982.000; -735.000
399.236;  -50.200;   13.000;    8.000
399.363;    1.100;  222.000;  196.000
399.491; -160.300; -404.000; -398.000
399.619; -271.800; -829.000; -800.000
399.747; -281.000; -859.000; -771.000
399.875;   38.500;  220.000;  234.000
400.003;  -93.700; -359.000; -284.000
400.130; -138.800; -421.000; -341.000
400.258;  -70.500;  -83.000;   38.000
400.386; -105.300; -352.000; -168.000
400.514; -171.500; -526.000; -587.000
400.641; -311.500; -928.000; -802.000
400.769; -292.800; -979.000; -888.000
400.897; -273.800; -838.000; -793.000
401.025;  -87.100; -166.000; -152.000
401.152;    3.300;  220.000;   38.000
401.280; -169.600; -430.000; -429.000
401.408; -262.100; -712.000; -576.000
401.535; -206.300; -735.000; -758.000
401.663; -396.500;-1134.000;-1054.000
401.790; -176.000; -514.000; -525.000
401.918;   95.600;  436.000;  405.000
402.046;  -34.800;  134.000;  122.000
402.173;  -58.500;  -18.000;    7.000
402.301; -127.500; -519.000; -397.000
402.428;   56.100;  528.000;  383.000
402.556; -328.600;-1188.000; -913.000
402.683;  -75.500;  -20.000;   -1.000
402.811;  -86.600;  -37.000; -206.000
402.938;  -52.700;   20.000;   27.000
403.066; -178.300; -574.000; -558.000
403.193;  -31.100;  299.000;  239.000
403.321; -151.200; -396.000; -574.000
403.448;  -42.500;   83.000;   27.000
403.575;  -62.600;  -90.000;  -46.000
403.703; -232.800; -732.000; -557.000
403.830; -184.100; -531.000; -496.000
403.957; -363.000;-1117.000;-1023.000
404.085;  -95.700;  -61.000; -172.000
404.212;  -50.900;  -50.000;   63.000
404.339; -165.100; -566.000; -306.000
404.467; -185.000; -612.000; -524.000
404.594; -107.600; -287.000; -227.000
404.721; -250.600; -869.000; -764.000
404.848;  -66.800; -113.000; -202.000
404.976; -284.400; -856.000; -783.000
405.103;  -36.000;  -14.000;  -82.000
405.230;   -0.800;  190.000;  226.000
405.357;  -11.600;  117.000;   44.000
405.484;  -60.300;  -49.000;    5.000
405.612; -183.200; -548.000; -563.000
405.739; -147.400; -488.000; -243.000
405.866;  110.300;  669.000;  385.000
405.993; -137.400; -398.000; -102.000
406.120; -256.600; -801.000; -887.000
406.247; -158.100; -323.000; -342.000
406.374;  110.400;  540.000;  629.000
406.501; -238.500; -632.000; -702.000
406.628; -173.300; -621.000; -589.000
406.755; -245.100; -803.000; -620.000
406.882; -111.400; -228.000; -277.000
407.009; -226.100; -719.000; -628.000
407.136; -138.400; -480.000; -401.000
407.263; -305.000; -939.000; -829.000
407.390; -223.200; -692.000; -614.000
407.517; -371.400;-1139.000;-1187.000
407.644; -146.100; -332.000; -256.000
407.771; -146.300; -249.000; -287.000
407.898;    1.900;  168.000;  328.000
408.025; -191.500; -421.000; -313.000
408.151;  -39.300;   82.000;  153.000
408.278; -153.600; -267.000; -216.000
408.405; -273.300; -931.000; -899.000
408.532; -211.500; -549.000; -542.000
408.659; -227.500; -677.000; -648.000
408.785; -380.700;-1298.000;-1170.000
408.912; -118.300; -412.000; -296.000
409.039; -199.100; -610.000; -686.000
409.166; -203.500; -591.000; -555.000
409.292; -211.800; -571.000; -534.000
409.419; -236.300; -665.000; -649.000
409.546; -150.800; -431.000; -192.000
409.672; -200.800; -713.000; -545.000
409.799;  -48.700;  -36.000;   34.000
409.926; -120.200; -180.000; -179.000
410.052; -349.500;-1127.000;-1091.000
410.179; -164.400; -368.000; -392.000
410.305; -162.900; -375.000; -493.000
410.432;  -80.800; -220.000; -333.000
410.558; -169.800; -305.000; -380.000
410.685; -196.800; -688.000; -431.000
410.812; -209.300; -409.000; -588.000
410.938; -273.100; -964.000; -808.000
411.065; -204.000; -671.000; -645.000
411.191; -101.100; -189.000; -174.000
411.317; -263.300; -823.000; -742.000
411.444; -148.400; -317.000; -246.000
411.570; -160.900; -339.000; -294.000
411.697; -239.100; -758.000; -752.000
411.823; -354.500; -989.000; -999.000
411.949;  -83.700;  -56.000;   17.000
412.076; -224.800; -539.000; -519.000
412.202; -234.300; -758.000; -757.000
412.329; -291.200; -798.000; -752.000
412.455; -237.300; -821.000; -657.000
412.581;  -38.500;  -15.000;  172.000
412.707; -176.900; -540.000; -457.000
412.834;    4.400;  156.000;  219.000
412.960; -245.000; -785.000; -784.000
413.086; -262.200; -743.000; -701.000
413.212;   60.600;  604.000;  578.000
413.339; -244.100; -685.000; -701.000
413.465; -185.800; -364.000; -310.000
413.591; -258.600; -757.000; -474.000
413.717; -127.800; -358.000; -366.000
413.843; -313.700; -839.000; -861.000
413.969; -138.500;  -47.000; -292.000
414.096; -242.500; -679.000; -679.000
414.222;  -45.500;  -33.000;   85.000
414.348; -183.500; -652.000; -385.000
414.474;  -77.500;   38.000;  -52.000
414.600;  -65.400; -126.000; -144.000
414.726;  -62.700;  -96.000;  -55.000
414.852; -167.600; -365.000; -342.000
414.978;  -44.300;  104.000;  -18.000
415.104;  -11.000;   38.000;   80.000
415.230; -152.200; -329.000; -330.000
415.356; -181.500; -409.000; -514.000
415.482;  -37.800;   13.000;  -35.000
415.608; -124.400; -247.000; -323.000
415.734;  -42.400;   67.000;   38.000
415.860; -257.200; -875.000; -767.000
415.986; -217.100; -685.000; -607.000
416.111; -242.600; -798.000; -652.000
416.237; -155.700; -424.000; -571.000
416.363; -276.900; -765.000; -733.000
416.489; -125.000; -324.000; -251.000
416.615; -266.200; -707.000; -742.000
416.741; -228.600; -677.000; -784.000
416.866; -217.000; -673.000; -736.000
416.992; -282.900; -801.000; -818.000
417.118; -127.300;  -41.000;  -80.000
417.244; -243.100; -798.000; -531.000
417.369; -291.600; -801.000; -612.000
417.495; -127.300; -325.000; -254.000
417.621; -312.600;-1015.000; -803.000
417.746; -147.600; -579.000; -572.000
417.872; -108.800; -254.000; -144.000
417.998; -176.100; -515.000; -530.000
418.123; -329.900;-1073.000; -845.000
418.249; -211.300; -512.000; -601.000
418.374; -281.500; -916.000; -824.000
418.500; -216.800; -383.000; -482.000
418.626;  -61.300;   70.000;  -59.000
418.751; -175.800; -549.000; -448.000
418.877; -245.700; -637.000; -643.000
419.002; -186.200; -688.000; -560.000
419.128; -281.900; -930.000; -721.000
419.253; -279.500; -967.000; -837.000
419.379; -213.200; -391.000; -338.000
419.504;   50.600;  325.000;  415.000
419.629; -152.900; -393.000; -212.000
419.755; -110.400; -317.000; -254.000
419.880;  -99.600;  -98.000;   67.000
420.006; -142.400; -280.000; -221.000
420.131; -242.600; -662.000; -775.000
420.256; -135.100; -315.000; -316.000
420.382; -220.600; -665.000; -687.000
420.507; -258.100; -649.000; -778.000
420.632; -169.400; -337.000; -339.000
420.758; -116.600; -251.000; -425.000
420.883; -253.000; -876.000; -672.000
421.008; -248.000; -775.000; -619.000
421.133; -200.900; -509.000; -467.000
421.259; -117.800; -325.000; -259.000
421.384; -285.700; -834.000; -693.000
421.509; -273.000;-1052.000; -862.000
421.634; -338.400; -936.000; -820.000
421.759; -137.800; -359.000; -327.000
421.885; -248.200; -717.000; -656.000
422.010; -208.900; -673.000; -542.000
422.135; -303.100; -695.000; -727.000
422.260;   60.800;  340.000;  280.000
422.385;  -83.900;   12.000;  -98.000
422.510;    0.500;  151.000;  -26.000
422.635;  -44.100;  -87.000;  -43.000
422.760; -228.400; -766.000; -791.000
422.885;  -62.100;  -57.000;  -80.000
423.010;  -75.800; -112.000; -169.000
423.135; -199.300; -481.000; -561.000
423.260;  -80.800; -150.000; -245.000
423.385;   40.000;  476.000;  222.000
423.510;   -6.500;   71.000;  -22.000
423.635;  -78.200;  133.000;   45.000
423.760;   45.500;  383.000;  328.000
423.885;   48.000;  336.000;  391.000
424.010;  -33.300;  -68.000;  -13.000
424.135;  -80.600;    5.000;  -33.000
424.259; -214.800; -654.000; -457.000
424.384; -173.100; -279.000; -272.000
424.509;  -70.200; -260.000; -186.000
424.634; -257.900; -761.000; -623.000
424.759; -205.600; -688.000; -544.000
424.883; -199.200; -506.000; -527.000
425.008; -198.100; -502.000; -410.000
425.133; -233.500; -679.000; -653.000
425.258; -189.900; -517.000; -381.000
425.382; -277.200; -867.000; -774.000
425.507; -225.000; -487.000; -543.000
425.632; -272.700; -802.000; -663.000
425.756; -107.200; -256.000; -146.000
425.881; -258.600; -831.000; -857.000
426.006; -170.800; -604.000; -355.000
426.130; -256.300; -696.000; -508.000
426.255; -217.500; -611.000; -491.000
426.379; -116.900; -189.000; -577.000
426.504;  119.200;  660.000;  544.000
426.629; -208.200; -519.000; -466.000
426.753;  -78.800;   64.000;  -46.000
426.878; -124.600; -252.000; -288.000
427.002; -258.700; -651.000; -668.000
427.127; -131.100;  -35.000; -158.000
427.251;   54.700;  372.000;  401.000
427.375; -114.800; -191.000; -173.000
427.500; -207.600; -616.000; -610.000
427.624; -155.900; -234.000; -400.000
427.749; -107.900; -216.000; -225.000
427.873; -188.400; -499.000; -412.000
427.997; -130.400; -222.000; -230.000
428.122;   87.800;  795.000;  703.000
428.246;   60.400;  433.000;  434.000
428.371; -293.900; -869.000; -773.000
428.495; -226.100; -624.000; -646.000
428.619; -119.700; -186.000; -117.000
428.743;  -15.200;   65.000;  132.000
428.868; -277.200; -732.000; -643.000
428.992; -148.400; -219.000; -326.000
429.116; -128.400; -329.000; -357.000
429.240;   41.000;  419.000;  426.000
429.365; -192.200; -454.000; -574.000
429.489; -215.600; -638.000; -647.000
429.613;  -92.700; -236.000; -177.000
429.737; -187.400; -563.000; -432.000
429.861; -143.400; -247.000; -133.000
429.985; -164.000; -425.000; -305.000
430.109; -315.000; -770.000; -908.000
430.234;    0.400;   76.000;  -50.000
430.358; -158.700; -250.000; -160.000
430.482; -258.800; -672.000; -564.000
430.606; -212.700; -655.000; -375.000
430.730; -157.200; -437.000; -388.000
430.854; -311.200; -909.000; -835.000
430.978; -270.500; -795.000; -764.000
431.102; -196.600; -499.000; -422.000
431.226; -285.000; -874.000; -815.000
431.350;   51.800;  345.000;  422.000
431.474; -174.800; -661.000; -373.000
431.597; -326.000;-1060.000; -848.000
431.721; -150.200; -276.000; -267.000
431.845; -244.500; -704.000; -472.000
431.969; -146.100; -304.000; -349.000
432.093; -172.900; -395.000; -317.000
432.217;  -46.100;   32.000;   82.000
432.341; -190.200; -523.000; -518.000
432.464;  -31.100;   96.000;   40.000
432.588; -196.700; -401.000; -329.000
432.712;  -85.400;  -52.000;  -52.000
432.836;   -4.500;  213.000;  263.000
432.959; -176.500; -372.000; -311.000
433.083;  -56.200;   11.000;    2.000
433.207;   76.700;  285.000;  930.000
433.330; -130.000; -391.000; -200.000
433.454; -237.000; -654.000; -638.000
433.578;   57.500;  583.000;  278.000
433.701; -224.700; -623.000; -675.000
433.825; -173.700; -292.000; -299.000
433.949;  -85.500;   28.000;  -72.000
434.072; -145.400; -410.000; -323.000
434.196; -119.500; -309.000; -117.000
434.319; 7422.500;25482.000;25124.000
434.443; -229.500; -656.000; -603.000
434.566;  -69.600;  281.000;   62.000
434.690; -197.000; -637.000; -383.000
434.813; -122.400; -251.000; -173.000
434.937; -212.300; -569.000; -696.000
435.060; -175.800; -423.000; -332.000
435.184; -182.700; -492.000; -217.000
435.307;  -47.700;  159.000;  102.000
435.431;  -65.300;  -40.000;   24.000
435.554; -126.300; -399.000; -240.000
435.677; -150.900; -350.000; -258.000
435.801;  -45.500;  -25.000;   49.000
435.924;  -60.300;    1.000;  -67.000
436.048; -311.200;-1019.000; -732.000
436.171; -140.100; -240.000;  -66.000
436.294; -130.300; -248.000; -229.000
436.417; -293.800; -963.000; -849.000
436.541; -289.600; -814.000; -840.000
436.664;  -98.300; -242.000; -316.000
436.787;  -63.600;   13.000;  113.000
436.910; -229.700; -792.000; -422.000
437.034;  -23.500;  142.000;  143.000
437.157;  -53.200;  -11.000;    0.000
437.280; -181.200; -392.000; -292.000
437.403; -277.000; -982.000; -869.000
437.526; -330.800; -903.000; -865.000
437.649; -167.400; -505.000; -332.000
437.772; -218.900; -692.000; -540.000
437.896;  101.000;  700.000;  544.000
438.019; -258.300; -758.000; -503.000
438.142; -200.400; -596.000; -506.000
438.265; -255.500; -639.000; -670.000
438.388; -165.500; -520.000; -410.000
438.511; -205.300; -597.000; -394.000
438.634; -143.300; -247.000; -125.000
438.757; -244.600; -693.000; -619.000
438.880;  -84.300;  -34.000;  -57.000
439.003; -206.900; -417.000; -437.000
439.126; -118.500; -287.000; -167.000
439.248;  -90.600;  -98.000; -139.000
439.371;  -39.700;    9.000;  -53.000
439.494;   66.900;  510.000;  439.000
439.617;  -68.800;   65.000;  -88.000
439.740; -305.900; -968.000; -816.000
439.863; -256.700; -755.000; -595.000
439.986; -221.200; -476.000; -431.000
440.108;  -95.800; -161.000; -112.000
440.231; -362.100; -950.000; -836.000
440.354;  -94.300;  -64.000; -150.000
440.477; -226.400; -566.000; -542.000
440.599; -156.900; -200.000; -225.000
440.722; -226.800; -709.000; -586.000
440.845;  198.200;  751.000;  928.000
440.968; -174.600; -415.000; -311.000
441.090; -124.700; -199.000;  -33.000
441.213; -287.600;-1021.000; -825.000
441.336;  -62.900; -159.000;   -5.000
441.458; -175.000; -549.000; -396.000
441.581; -268.900; -628.000; -629.000
441.703;  -85.100; -152.000;   13.000
441.826; -192.000; -557.000; -400.000
441.948;  -69.800;   56.000;   51.000
442.071;   74.100;  555.000;  424.000
442.193; -200.500; -531.000; -485.000
442.316;  -25.300;  152.000;   97.000
442.438; -125.900; -233.000;  -10.000
442.561;   17.700;  272.000;  262.000
442.683; -261.700; -809.000; -522.000
442.806;  -54.800;   -8.000;   74.000
442.928; -321.700; -859.000; -604.000
443.051; -203.000; -577.000; -373.000
443.173; -157.900; -341.000; -339.000
443.295; -181.900; -263.000; -371.000
443.418; -137.000; -321.000;  -29.000
443.540;  -87.300; -106.000;   -4.000
443.662; -225.200; -563.000; -465.000
443.785;   -4.400;  335.000;  199.000
443.907; -215.500; -362.000; -208.000
444.029; -216.800; -767.000; -494.000
444.152; -283.000; -644.000; -554.000
444.274;  -70.600;  -18.000;  -24.000
444.396; -197.100; -461.000; -221.000
444.518; -229.700; -691.000; -454.000
444.640; -164.400; -268.000; -111.000
444.763;  -15.700;  388.000;  249.000
444.885; -197.400; -432.000; -392.000
445.007;  -49.800;   35.000;   86.000
445.129; -244.100; -610.000; -515.000
445.251; -187.100; -372.000; -439.000
445.373; -243.300; -537.000; -386.000
445.495;   10.200;  242.000;  350.000
445.617;  123.100;  853.000;  753.000
445.739; -110.800; -215.000;  -97.000
445.861; -114.400; -245.000; -112.000
445.984; -143.100; -267.000; -101.000
446.105; -196.700; -418.000; -251.000
446.227; -116.100; -176.000;  -19.000
446.349; -232.400; -358.000; -249.000
446.471; -210.500; -615.000; -448.000
446.593; -176.300; -316.000;   19.000
446.715;  -90.100;  -67.000;   41.000
446.837;  130.900;  697.000;  832.000
446.959; -181.600; -457.000; -478.000
447.081; -241.800; -628.000; -518.000
447.203;  163.600;  862.000;  834.000
447.325; -124.300; -270.000;   42.000
447.446;   16.900;  286.000;  530.000
447.568; -323.000; -921.000; -803.000
447.690; -195.900; -236.000; -245.000
447.812; -256.900; -798.000; -519.000
447.933;  -74.000;  155.000;  127.000
448.055; -154.800; -306.000; -261.000
448.177;  -56.600;   31.000;   79.000
448.299; -344.500; -935.000; -727.000
448.420;  -33.400;  -25.000;  159.000
448.542; -104.300;   -3.000;   33.000
448.664;   -1.300;  109.000;  322.000
448.785;  -20.600;  265.000;   83.000
448.907; -218.800; -614.000; -353.000
449.028; -293.200; -771.000; -471.000
449.150;   89.100;  492.000;  589.000
449.272; -348.900;-1044.000; -913.000
449.393;   98.800;  612.000;  694.000
449.515; -274.300; -634.000; -581.000
449.636; -121.600; -264.000; -155.000
449.758;   86.400;  763.000;  622.000
449.879; -202.200; -498.000; -396.000
450.001; -140.200; -149.000;  -49.000
450.122;  -77.600;  -95.000;  162.000
450.244;  -71.500;   37.000;  364.000
450.365; -144.100; -495.000; -301.000
450.486;  -77.300;   80.000;  268.000
450.608;   14.100;  393.000;  326.000
450.729;   67.600;  578.000;  645.000
450.850; -220.600; -574.000; -466.000
450.972; -229.800; -552.000; -389.000
451.093;   26.500;  190.000;  588.000
451.214; -168.600; -516.000; -337.000
451.336;  146.500;  773.000;  579.000
451.457;    2.100;  264.000;  393.000
451.578; -128.200; -118.000;  -74.000
451.699; -248.000; -546.000; -540.000
451.821; -123.200; -284.000;  -50.000
451.942;  -43.600;  278.000;  285.000
452.063;   27.900;  228.000;  419.000
452.184; -128.500;  -54.000;  -49.000
452.305;  -24.400;  103.000;  170.000
452.427; -204.100; -549.000; -301.000
452.548;  -96.400;   23.000;   79.000
452.669; -122.900; -257.000;  -89.000
452.790; -147.900;    3.000;  -18.000
452.911;  -20.600;  195.000;  259.000
453.032; -117.600; -289.000;  -60.000
453.153;  -74.200;  -29.000;   81.000
453.274;  141.900;  737.000;  868.000
453.395; -109.600;  -51.000;  175.000
453.516;  232.600; 1317.000; 1388.000
453.637; -169.200; -205.000; -150.000
453.758;  -73.200;   15.000;   69.000
453.879; -184.100; -462.000; -250.000
454.000;  181.200; 1086.000;  948.000
454.121; -253.300; -554.000; -326.000
454.242; -205.100; -599.000; -383.000
454.362;  -98.200;  -99.000;  114.000
454.483; -165.800; -309.000; -229.000
454.604;   18.100;  512.000;  580.000
454.725; -246.400; -627.000; -555.000
454.846; -190.000; -474.000; -406.000
454.967;    4.900;  230.000;  539.000
455.087;  -27.700;  179.000;  153.000
455.208;   66.000;  554.000;  856.000
455.329; -129.000;  -22.000;   82.000
455.450;   53.900;  473.000;  633.000
455.570; -130.500; -234.000; -211.000
455.691;  -42.000;  201.000;  407.000
455.812; -181.000; -270.000;  -92.000
455.932;  -85.400;  107.000;  -97.000
456.053; -133.300;   36.000;   24.000
456.173; -166.900; -433.000; -355.000
456.294; -206.800; -476.000; -303.000
456.415;  -88.500;  -73.000;   70.000
456.535;  -31.800;  297.000;  273.000
456.656;  -46.500;  132.000;  240.000
456.776; -109.000;    3.000;  298.000
456.897;   43.100;  308.000;  513.000
457.017; -127.700; -153.000;   -3.000
457.138; -195.200; -402.000; -249.000
457.258;  -44.100;  263.000;  224.000
457.379;   45.100;  509.000;  521.000
457.499;   -2.500;  443.000;  432.000
457.620; -237.500; -407.000; -231.000
457.740; -155.400; -132.000;  -11.000
457.860;  -78.100;   87.000;   44.000
457.981;  -84.200;  132.000;  124.000
458.101; -133.900;  -89.000;   40.000
458.221;   -9.800;  336.000;  402.000
458.342;  -96.100;   -4.000;  -37.000
458.462;   31.200;  617.000;  352.000
458.582; -173.400; -302.000; -294.000
458.703;  -84.400;  303.000;  154.000
458.823; -103.200;   22.000;  163.000
458.943;   13.100;  341.000;  467.000
459.063; -101.700; 1124.000;  192.000
459.183;  -39.400;  328.000;  313.000
459.304;   14.800;  315.000;  517.000
459.424; -176.400; -246.000;  -89.000
459.544;   43.000;  388.000;  764.000
459.664;   45.100;  499.000;  506.000
459.784;  141.500; 1004.000; 1175.000
459.904;   78.300;  867.000;  744.000
460.024;  110.500;  867.000;  684.000
460.144;  -14.400;  449.000;  554.000
460.264;   10.300;  515.000;  327.000
460.385; -169.400; -145.000; -119.000
460.505;   97.500;  905.000;  858.000
460.625; -132.800;  -17.000;  -68.000
460.745;  -21.400;  396.000;  541.000
460.864;  -24.400;  153.000;  469.000
460.984;   31.600;  499.000;  573.000
461.104;  302.800; 1656.000; 1775.000
461.224;  111.500;  657.000;  650.000
461.344;  -57.200;  431.000;  360.000
461.464;    2.900;  258.000;  513.000
461.584;  -29.000;  283.000;  466.000
461.704;  -85.800;   58.000;  108.000
461.824; -105.500;  238.000;  259.000
461.943;  -37.200;  191.000;  130.000
462.063; -118.800;    2.000;  324.000
462.183;   57.500;  639.000;  717.000
462.303;  253.000; 1678.000; 1230.000
462.422;   99.600;  781.000;  840.000
462.542;  -87.400;  271.000;  391.000
462.662;   -2.900;  353.000;  380.000
462.782;   57.000;  833.000;  572.000
462.901;   15.700;  545.000;  717.000
463.021;  322.000; 1702.000; 1638.000
463.141;    3.800;  337.000;  770.000
463.260;   19.200;  614.000;  474.000
463.380;   75.100;  902.000;  884.000
463.499;  -40.400;  342.000;  332.000
463.619;  -11.100;  581.000;  559.000
463.738;  235.700; 1644.000;  903.000
463.858;   45.000;  657.000;  811.000
463.978;  -59.300;  542.000;  396.000
464.097;  158.200;  921.000; 1114.000
464.217;  174.600; 1196.000; 1143.000
464.336;  224.700; 1068.000; 1130.000
464.455;  -45.900;  328.000;  659.000
464.575;   28.300;  597.000;  602.000
464.694;  156.100; 1204.000; 1179.000
464.814;  104.500; 1190.000; 1138.000
464.933;  139.300; 1095.000; 1027.000
465.052;  202.900; 1412.000; 1054.000
465.172;   52.000;  922.000;  799.000
465.291;  203.000; 1376.000; 1320.000
465.410;   46.500;  462.000;  735.000
465.530;  210.400; 1355.000; 1310.000
465.649;  173.400; 1209.000; 1273.000
465.768;  277.100; 1673.000; 1508.000
465.888;  130.200;  941.000; 1174.000
466.007;  256.400; 1335.000; 1440.000
466.126;   95.500;  721.000;  641.000
466.245;  122.600; 1176.000; 1187.000
466.364;   90.900;  950.000; 1060.000
466.484;  142.900; 1024.000; 1213.000
466.603;  118.900; 1101.000; 1222.000
466.722;  254.000; 1490.000; 1769.000
466.841;  148.300; 1151.000; 1401.000
466.960;  124.500; 1069.000;  972.000
467.079;  309.200; 1971.000; 1786.000
467.198;  146.400; 1238.000; 1181.000
467.317;  219.700; 1768.000; 1162.000
467.436;  200.700; 1709.000; 1261.000
467.555;  322.100; 1796.000; 1746.000
467.674;  161.500; 1227.000; 1329.000
467.793;  117.800; 1376.000; 1374.000
467.912;  220.400; 1658.000; 1539.000
468.031;  303.700; 2038.000; 1930.000
468.150;  294.900; 1842.000; 1837.000
468.269;  425.500; 2313.000; 2090.000
468.388;  412.700; 2168.000; 2339.000
468.507;  564.900; 2884.000; 2903.000
468.626;  593.500; 2555.000; 2541.000
468.744;  342.900; 2018.000; 2174.000
468.863;  442.700; 2312.000; 2523.000
468.982;  255.600; 1503.000; 1555.000
469.101;  495.900; 2788.000; 2692.000
469.220;  337.600; 2333.000; 2176.000
469.338;  562.600; 2935.000; 3051.000
469.457;  468.300; 2719.000; 2545.000
469.576;  715.300; 3953.000; 3784.000
469.695;  496.300; 2877.000; 3066.000
469.813;  873.200; 4148.000; 4192.000
469.932;  823.900; 4255.000; 4485.000
470.051;  792.600; 4075.000; 4161.000
470.169;  817.200; 4470.000; 4338.000
470.288;  940.100; 4700.000; 4809.000
470.406;  987.200; 5059.000; 5194.000
470.525; 1194.000; 6101.000; 5787.000
470.644; 1321.900; 6847.000; 6794.000
470.762; 1616.000; 8397.000; 7873.000
470.881; 1759.000; 8651.000; 8464.000
470.999; 2021.700; 9685.000; 9151.000
471.118; 2223.100;11174.000;10711.000

