
Integration time [ms]: 100.000
Averaging Nr. [scans]: 40
Smoothing Nr. [pixels]: 0
Data measured with spectrometer [name]: 2101012U2
Wave   ;Sample   ;Dark     ;Reference
[nm]   ;[counts] ;[counts] ;[counts] 

197.733;   49.750;  516.000;  404.000
197.879;  -75.800; -610.000; -634.000
198.025;  -51.725; -475.000; -420.000
198.171;  -66.000; -602.000; -612.000
198.317;  -30.200; -401.000; -316.000
198.463;  -63.150; -655.000; -404.000
198.609;   26.775;  181.000; -137.000
198.755;  -84.375; -644.000; -410.000
198.901;  -61.700; -505.000; -424.000
199.047;  -75.200; -615.000; -488.000
199.193;  -35.300; -230.000; -468.000
199.339;  -34.325; -222.000; -369.000
199.485;   33.250;  330.000;  271.000
199.631;   14.425;  227.000;  310.000
199.777;  -48.325; -466.000; -398.000
199.923;  -66.000; -610.000; -424.000
200.069;    2.475; -141.000;  -58.000
200.215;   45.825;  128.000;  453.000
200.361;   43.375;  243.000;  477.000
200.507;  -79.875; -600.000; -373.000
200.653;  -26.200; -371.000; -194.000
200.798;  -32.050; -215.000; -125.000
200.944;   -9.575; -146.000;  -41.000
201.090;   37.950;   61.000;  222.000
201.236;   -8.225; -116.000; -158.000
201.382;  141.775;  874.000;  903.000
201.528;    8.050;  -58.000;  -48.000
201.674;  -55.150; -386.000; -293.000
201.819;  -62.075; -540.000; -439.000
201.965;  -73.700; -699.000; -447.000
202.111;  -24.800; -273.000; -226.000
202.257;  -46.150; -250.000; -238.000
202.402;    9.475;   13.000;  -36.000
202.548;  -29.100; -169.000; -116.000
202.694;   81.550;  410.000; -183.000
202.840;  -68.450; -603.000; -531.000
202.985;  -71.550; -681.000; -639.000
203.131;  -92.675; -832.000; -666.000
203.277;  -25.400; -199.000; -262.000
203.423;  -53.975; -434.000; -520.000
203.568;  -37.175; -462.000; -237.000
203.714;  -72.175; -535.000; -542.000
203.860;  -86.225; -682.000; -641.000
204.005;   17.350;  112.000;  167.000
204.151;   74.400;  561.000;  556.000
204.296;  -37.625; -354.000; -221.000
204.442;  -80.775; -600.000; -547.000
204.588;  -73.825; -592.000; -579.000
204.733;   10.850;  178.000;  168.000
204.879; -130.900;-1018.000; -822.000
205.025;   13.900;  -99.000;  126.000
205.170;    1.875;  -17.000;   94.000
205.316;   73.700;  438.000;  661.000
205.461;  -81.000; -698.000; -554.000
205.607;   80.925;  609.000;  665.000
205.752;  -93.025; -626.000; -551.000
205.898;  -46.100; -501.000; -391.000
206.043;  -50.400; -578.000; -506.000
206.189;  -33.850; -243.000; -285.000
206.334;   80.800;  554.000;  606.000
206.480;   81.350;  409.000;  239.000
206.625;  -78.700; -529.000; -552.000
206.771;  -48.100; -451.000; -373.000
206.916;  -26.600; -210.000; -537.000
207.062;  -80.600; -545.000; -591.000
207.207;  -55.100; -546.000; -443.000
207.353;   49.725;  185.000;  460.000
207.498;   16.025;  196.000;   85.000
207.643;  -39.075; -501.000; -370.000
207.789; -126.900;-1069.000; -910.000
207.934;  -88.975; -665.000; -713.000
208.080;  -15.250; -154.000;   66.000
208.225;  -12.025;  -22.000;  -57.000
208.370;  -76.300; -727.000; -619.000
208.516;  -83.100; -741.000; -487.000
208.661;  -29.625; -127.000;  -69.000
208.806;  -21.250; -165.000; -171.000
208.952; -122.450;-1044.000; -731.000
209.097;   87.500;  378.000;  349.000
209.242;  -52.000; -307.000; -382.000
209.387;   58.475;  392.000;  350.000
209.533;  -56.875; -321.000; -350.000
209.678;   87.100;  472.000;  543.000
209.823;  -49.075; -408.000; -310.000
209.969; -101.400; -860.000; -757.000
210.114; -103.875; -907.000; -719.000
210.259; -115.250; -939.000; -889.000
210.404;   -2.675; -171.000;  103.000
210.549;   10.425;  108.000;    3.000
210.695;  -20.250;   -3.000;  -95.000
210.840;   28.625;   94.000;   67.000
210.985;  -55.200; -484.000; -303.000
211.130;   70.450;  268.000;  406.000
211.275;    2.400;  207.000;  199.000
211.420;  -46.675; -300.000; -289.000
211.566;  -72.450; -536.000; -489.000
211.711;    2.650;  218.000;  157.000
211.856;  -56.325; -545.000; -519.000
212.001;   -1.850;  151.000;   44.000
212.146;   22.975;  153.000;   49.000
212.291;  -20.125; -210.000; -186.000
212.436;  -20.325; -280.000;   -6.000
212.581;  -82.425; -685.000; -653.000
212.726;  -67.900; -487.000; -538.000
212.871;  -45.600; -552.000; -217.000
213.016; -147.225;-1172.000;-1029.000
213.161;   57.775;  406.000;  291.000
213.306;  -80.450; -435.000; -577.000
213.451;  -93.125; -778.000; -689.000
213.596;  -50.800; -455.000; -347.000
213.741;  -63.750; -448.000; -538.000
213.886;  -74.625; -498.000; -517.000
214.031;  -16.250; -294.000; -124.000
214.176;  -54.350; -408.000; -341.000
214.321;  -18.950; -296.000; -157.000
214.466;  -15.550; -163.000;  -43.000
214.611;   -7.225;  -61.000;  -10.000
214.756; -105.275; -948.000; -858.000
214.901;  -20.000; -388.000; -226.000
215.046; -110.625; -797.000; -825.000
215.191;   17.150;  128.000;   35.000
215.336;   -8.350; -157.000;  -19.000
215.480;  -76.950; -684.000; -505.000
215.625;  -17.050; -175.000;  -19.000
215.770;  -88.850; -757.000; -662.000
215.915;  -12.000;   -5.000;  -97.000
216.060;  -16.575; -113.000;  -21.000
216.205; -109.725; -731.000; -779.000
216.349;  -79.775; -470.000; -533.000
216.494; -127.025; -939.000; -867.000
216.639; -117.050; -823.000; -888.000
216.784;  -74.250; -577.000; -525.000
216.929;   40.500;  392.000;  281.000
217.073;  -13.175; -244.000;  -31.000
217.218;   -0.150;   78.000;  -47.000
217.363;  -99.925; -656.000; -618.000
217.507;  -88.125; -623.000; -588.000
217.652; -133.375; -845.000; -874.000
217.797;  -82.075; -708.000; -659.000
217.942; -107.050; -856.000; -720.000
218.086;   60.000;  608.000;  539.000
218.231;  -14.425; -174.000;  -26.000
218.376;  -29.775; -337.000; -229.000
218.520;    2.525;  -41.000;   96.000
218.665;  -37.125; -338.000; -204.000
218.810;  -29.425; -275.000; -233.000
218.954;   28.050;  201.000;   35.000
219.099; -116.575; -713.000; -963.000
219.243;  -77.475; -589.000; -554.000
219.388;  -27.650; -264.000; -136.000
219.532;  -11.125; -116.000; -116.000
219.677;  -81.125; -564.000; -521.000
219.822;    0.375;   33.000;   89.000
219.966;   -1.850;   17.000;  -99.000
220.111;  -37.575; -328.000;  -40.000
220.255;  -96.600; -797.000; -750.000
220.400;  -25.700; -180.000; -146.000
220.544;  -76.250; -516.000; -450.000
220.689;  -52.900; -422.000; -451.000
220.833;  -18.500; -123.000;  -58.000
220.978;  -37.250; -393.000; -563.000
221.122;   33.800;  319.000;  307.000
221.267; -111.725; -906.000; -837.000
221.411;  -69.425; -478.000; -394.000
221.555;   -0.675; -104.000;  -23.000
221.700;  -47.650; -329.000; -222.000
221.844;   34.500;  255.000;  272.000
221.989;  -45.775; -328.000; -311.000
222.133;  -39.175; -289.000; -307.000
222.277;   -5.675;    5.000;   78.000
222.422;   19.350;  227.000;  113.000
222.566;  -43.775; -381.000; -214.000
222.711;  -59.800; -414.000; -479.000
222.855;  -75.975; -643.000; -586.000
222.999;  -83.075; -642.000; -717.000
223.144;  -46.850; -195.000; -194.000
223.288;   39.800;  423.000;  251.000
223.432;   28.500;  184.000;  230.000
223.576;    8.200;  152.000;  -21.000
223.721;   36.250;  364.000;  273.000
223.865;  -60.850; -472.000; -475.000
224.009;  261.075; 1673.000; 1631.000
224.153;  -91.950; -660.000; -671.000
224.298;  -67.975; -531.000; -489.000
224.442;  -17.525;  -74.000;  -33.000
224.586;   -9.500; -169.000; -106.000
224.730; -106.825; -858.000; -670.000
224.875;  -95.700; -739.000; -688.000
225.019;   24.225;  102.000;  188.000
225.163;   56.225;  208.000;  341.000
225.307;   19.775;   97.000;  -91.000
225.451;   29.700;  360.000;  481.000
225.595;   24.575;  264.000;  176.000
225.739;  -20.125; -170.000;  -94.000
225.884;    3.325;   86.000;    5.000
226.028; -102.550; -760.000; -626.000
226.172;  -45.500; -260.000; -273.000
226.316; -117.475; -941.000; -902.000
226.460;  -61.975; -645.000; -493.000
226.604;  -49.750; -406.000; -400.000
226.748; -107.400; -836.000; -733.000
226.892;  -39.175; -227.000; -181.000
227.036;  -62.450; -537.000; -447.000
227.180;  -63.600; -551.000; -375.000
227.324;  -74.700; -561.000; -580.000
227.468; -108.900; -819.000; -717.000
227.612;    8.300;  242.000;  -28.000
227.756; -104.125; -845.000; -698.000
227.900;   46.250;  342.000;  441.000
228.044;  -59.050; -509.000; -290.000
228.188;   61.325;  448.000;  568.000
228.332;  -99.325; -546.000; -472.000
228.476;  -14.575; -223.000; -149.000
228.620;  -31.200; -210.000; -150.000
228.764;   67.050;  431.000;  349.000
228.908;  -31.025; -155.000;   30.000
229.052;  -65.875; -615.000; -528.000
229.195;  -18.700; -172.000;   13.000
229.339;  -22.175; -235.000; -305.000
229.483;  -20.575;    5.000; -162.000
229.627;   -1.975; -156.000;  139.000
229.771;  -49.975; -218.000; -294.000
229.915;    2.275;  230.000;   79.000
230.059;  -92.425; -648.000; -663.000
230.202;  -42.450; -370.000; -317.000
230.346;   -5.625; -107.000;  107.000
230.490;  -64.975; -489.000; -521.000
230.634;  -99.175; -736.000; -553.000
230.777;   60.000;  478.000;  509.000
230.921;  -54.450; -450.000; -359.000
231.065;  -38.250; -246.000; -286.000
231.209;   16.425;  261.000;  265.000
231.352;   21.400;   54.000;   40.000
231.496;   17.750;  568.000;  188.000
231.640;  -90.625; -693.000; -621.000
231.783;   62.500;  546.000;  525.000
231.927;  -50.725; -294.000; -365.000
232.071; -114.225; -962.000; -736.000
232.214; -118.025; -980.000; -764.000
232.358; -102.075; -683.000; -599.000
232.502;    9.250;  -19.000;    7.000
232.645; -143.175;-1090.000; -927.000
232.789;  -16.625; -257.000; -218.000
232.933;  -50.375; -407.000; -224.000
233.076; -119.600;-1038.000; -897.000
233.220; -109.225; -752.000; -777.000
233.363;  -74.575; -669.000; -477.000
233.507;   51.675;  371.000;  129.000
233.650;  -97.550; -764.000; -834.000
233.794;   42.100;  438.000;  461.000
233.938;  -63.825; -530.000; -362.000
234.081;  -20.200;  -93.000;   31.000
234.225;  -69.825; -631.000; -539.000
234.368; -105.100; -773.000; -723.000
234.512;  -48.850; -385.000; -299.000
234.655;  -97.575; -582.000; -555.000
234.798;  -71.950; -493.000; -466.000
234.942; -132.625; -884.000;-1002.000
235.085;  -71.675; -651.000; -443.000
235.229;  -81.525; -405.000; -410.000
235.372;  -34.875; -247.000; -191.000
235.516;  -66.625; -397.000; -321.000
235.659;    6.125;   92.000;  121.000
235.802;  -19.475;  -38.000;  -22.000
235.946;   31.700;  335.000;  215.000
236.089;   46.650;  126.000;  250.000
236.233;   45.875;  275.000;  298.000
236.376;  -50.075; -235.000; -378.000
236.519;  -54.500; -297.000; -319.000
236.663;  -24.050; -215.000; -117.000
236.806; -133.725;-1029.000; -999.000
236.949;   61.700;  543.000;  431.000
237.092;   52.250;  412.000;  391.000
237.236;  -88.825; -589.000; -502.000
237.379;   78.275;  352.000;  428.000
237.522; -122.200; -879.000; -768.000
237.666;   -8.650; -271.000;   18.000
237.809; -120.075; -851.000; -823.000
237.952;   40.700;  469.000;  271.000
238.095;  -70.250; -447.000; -442.000
238.238;   85.650;  688.000;  700.000
238.382;   -4.550;  166.000;  103.000
238.525;  -70.600; -598.000; -511.000
238.668; -144.025;-1060.000; -985.000
238.811;  -80.400; -638.000; -643.000
238.954;  -67.375; -483.000; -334.000
239.097;   80.775;  617.000;  664.000
239.241;    6.100;  394.000;  326.000
239.384;  -40.950; -254.000; -214.000
239.527;  -51.350; -424.000; -224.000
239.670; -146.600; -994.000;-1091.000
239.813; -108.050; -696.000; -658.000
239.956;   78.700;  579.000;  473.000
240.099; -101.525; -778.000; -725.000
240.242;   55.800;  428.000;  432.000
240.385;   35.075;  466.000;  450.000
240.528;  -82.325; -706.000; -473.000
240.671;   18.425;  189.000;  134.000
240.814;  -49.125; -441.000; -158.000
240.957; -101.925; -767.000; -578.000
241.100;  -98.900; -779.000; -755.000
241.243; -158.175;-1234.000; -893.000
241.386;  -75.675; -508.000; -379.000
241.529; -104.675; -735.000; -547.000
241.672;  -72.600; -566.000; -495.000
241.815; -115.650; -832.000; -808.000
241.958;  -21.350; -125.000; -182.000
242.101;  -70.700; -545.000; -390.000
242.244;  -42.650; -270.000; -325.000
242.387;  -37.225; -304.000; -246.000
242.530;   42.925;  470.000;  134.000
242.673;  -40.700; -381.000; -309.000
242.815; -120.050; -925.000; -899.000
242.958;  -76.625; -482.000; -381.000
243.101;   14.800;  132.000;  187.000
243.244;  -76.450; -564.000; -521.000
243.387;  -57.950; -313.000; -316.000
243.530; -106.550; -657.000; -674.000
243.672;   -2.700;   43.000;  -92.000
243.815;  -56.650; -355.000; -283.000
243.958;  -14.300;   98.000;  -26.000
244.101;    3.725;   59.000;  -16.000
244.243;   -5.625;  -47.000;  101.000
244.386; -108.375; -761.000; -630.000
244.529;  -19.550; -132.000; -139.000
244.672; -155.550;-1154.000; -951.000
244.814;  -92.225; -621.000; -794.000
244.957;  -40.050; -380.000; -304.000
245.100;  -79.725; -489.000; -489.000
245.242;  -78.825; -387.000; -374.000
245.385;    0.400;  -59.000;  -39.000
245.528; -116.900; -871.000; -705.000
245.670;   85.025;  612.000;  634.000
245.813;  -80.875; -599.000; -547.000
245.956;  -29.675; -324.000; -275.000
246.098;  -74.025; -508.000; -650.000
246.241;    9.350;  194.000;   48.000
246.383;  -30.225; -119.000;  -73.000
246.526;  -75.475; -454.000; -525.000
246.669; -115.775; -889.000; -780.000
246.811;   23.850;  172.000;   -1.000
246.954;  -59.925; -512.000; -426.000
247.096;  -10.800;  -84.000;   -6.000
247.239;  -80.650; -482.000; -445.000
247.381;  -79.525; -647.000; -488.000
247.524;   93.400;  645.000;  679.000
247.666;   -3.675;   58.000;   11.000
247.809; -119.950; -887.000; -691.000
247.951;  -11.500;  -75.000;  138.000
248.094;   24.625;  432.000;  308.000
248.236; -156.075;-1262.000;-1238.000
248.378;   10.525; -356.000;  -81.000
248.521;  -25.850; -334.000; -337.000
248.663;  -51.850; -236.000; -267.000
248.806;  -31.800; -300.000; -266.000
248.948;  -90.950; -886.000; -763.000
249.090;  -46.075; -428.000; -398.000
249.233;  -58.725; -344.000; -381.000
249.375;  -61.775; -474.000; -451.000
249.518;  -17.075;  -83.000; -133.000
249.660;   -0.100; -103.000;    3.000
249.802; -179.500;-1303.000;-1189.000
249.945;  -71.775; -612.000; -540.000
250.087; -126.375; -834.000; -768.000
250.229;  -53.275; -362.000; -480.000
250.371;  -83.825; -494.000; -439.000
250.514;  -37.100; -310.000; -244.000
250.656;   -2.025;   69.000;  102.000
250.798; -114.625; -849.000; -800.000
250.940;  -69.700; -322.000; -322.000
251.083;  -21.300; -335.000; -111.000
251.225;   49.375;  338.000;  310.000
251.367;  -46.075; -274.000; -373.000
251.509;  -34.200; -265.000; -210.000
251.651;  -90.825; -731.000; -671.000
251.794;   49.750;  538.000;  632.000
251.936; -103.925; -821.000; -747.000
252.078;  -80.975; -540.000; -461.000
252.220;  -71.975; -645.000; -477.000
252.362;   86.050;  344.000;  462.000
252.504;  -66.825; -677.000; -584.000
252.646; -115.975; -875.000; -722.000
252.788;   -3.125;   14.000; -128.000
252.931;  -36.650; -257.000; -253.000
253.073;  -40.350; -376.000; -317.000
253.215;  -19.600;  141.000;  122.000
253.357;  -22.025;   82.000; -153.000
253.499;  -56.325; -374.000; -234.000
253.641;  -77.525; -749.000; -594.000
253.783;  -91.425; -609.000; -527.000
253.925;  -95.350; -586.000; -591.000
254.067; -116.275; -744.000; -667.000
254.209;  -23.075; -391.000; -259.000
254.351; -137.625; -865.000; -883.000
254.493;  -76.725; -441.000; -417.000
254.635; -134.175; -936.000; -818.000
254.777;  -86.500; -752.000; -687.000
254.918;  -76.200; -512.000; -430.000
255.060;  -64.925; -551.000; -395.000
255.202;  -64.525; -473.000; -261.000
255.344;  -72.275; -658.000; -455.000
255.486;  -77.000; -471.000; -406.000
255.628; -118.300; -780.000; -781.000
255.770;  -91.175; -676.000; -536.000
255.912;  -76.325; -559.000; -468.000
256.053;  -93.150; -730.000; -508.000
256.195;  134.325; 1008.000;  903.000
256.337; -104.500; -861.000; -595.000
256.479;   66.825;  532.000;  416.000
256.621;  -45.250; -394.000; -212.000
256.762; -100.225; -789.000; -742.000
256.904;   52.975;  485.000;  487.000
257.046;  -44.475; -381.000; -271.000
257.188;  -34.025; -351.000; -264.000
257.329;  -74.850; -525.000; -464.000
257.471; -120.100; -939.000; -807.000
257.613;  -60.250; -584.000; -498.000
257.755; -154.825;-1073.000; -982.000
257.896;   34.775;  286.000;  392.000
258.038;  -69.200; -403.000; -352.000
258.180;  -39.700; -354.000; -279.000
258.321;  -87.200; -581.000; -457.000
258.463;   -1.225;  -71.000;  133.000
258.605;  -92.200; -562.000; -570.000
258.746; -125.225; -886.000; -772.000
258.888; -151.525;-1026.000;-1020.000
259.029;    5.275;  121.000;   -8.000
259.171;  -89.975; -614.000; -550.000
259.313;   -5.000;  -49.000;  -47.000
259.454;  -79.250; -536.000; -414.000
259.596;  -54.325; -483.000; -390.000
259.737;  -70.250; -590.000; -474.000
259.879;   25.475;  217.000;  311.000
260.020;  102.675;  901.000;  636.000
260.162;  -27.725; -146.000; -253.000
260.303; -108.975; -768.000; -687.000
260.445; -104.125; -609.000; -613.000
260.586;   40.600;  392.000;  157.000
260.728;  -52.375; -360.000; -248.000
260.869; -126.100; -350.000; -343.000
261.011;   74.925;  706.000;  537.000
261.152;  -60.525; -479.000; -319.000
261.293;  -83.525; -576.000; -595.000
261.435;  -40.300; -219.000; -184.000
261.576;  -43.125; -455.000; -325.000
261.718;   52.675;  420.000;  470.000
261.859; -128.175; -940.000; -949.000
262.000; -136.125; -951.000;-1016.000
262.142;  -27.225;  -52.000;  -60.000
262.283; -119.925; -808.000; -691.000
262.424;  -78.275; -666.000; -625.000
262.566; -146.850;-1161.000; -983.000
262.707; -119.200; -840.000; -830.000
262.848; -119.575; -769.000; -726.000
262.990;  -47.175; -362.000; -345.000
263.131;   88.175;  650.000;  681.000
263.272;  -16.775;  -61.000;  -41.000
263.413;  -98.725; -589.000; -561.000
263.555;  -76.000; -669.000; -143.000
263.696;  -72.650; -550.000; -641.000
263.837;  -65.800; -449.000; -551.000
263.978;   -5.400;   -5.000;  -77.000
264.119;  -47.825; -283.000; -264.000
264.261; -122.125; -847.000; -630.000
264.402;  -18.525;   33.000;   40.000
264.543;  -89.000; -509.000; -524.000
264.684;   -9.800;   61.000;  -50.000
264.825;  -67.725; -816.000; -538.000
264.966;   -4.825;  -84.000;  -67.000
265.107; -112.675; -646.000; -670.000
265.248; -123.300; -825.000; -812.000
265.390;  -15.125;  152.000;   -9.000
265.531;  -23.500; -238.000; -107.000
265.672;  -95.300; -557.000; -630.000
265.813;   54.525;  563.000;  439.000
265.954; -132.675; -959.000; -940.000
266.095;  -32.275; -372.000; -322.000
266.236; -100.200; -686.000; -548.000
266.377;  -33.650; -243.000; -297.000
266.518;  -72.025; -619.000; -547.000
266.659;   26.475;  170.000;  268.000
266.800;    8.950;   83.000;   85.000
266.941;  -76.475; -487.000; -478.000
267.082;   15.725;  354.000;   99.000
267.223;  -60.725; -344.000; -273.000
267.364; -115.550; -892.000; -686.000
267.504;  -13.175;    3.000;  135.000
267.645;    4.000;  160.000;   67.000
267.786;  -41.225; -147.000;  -86.000
267.927;  -86.525; -473.000; -379.000
268.068;   -3.675; -186.000;  -61.000
268.209;  -56.900; -175.000; -413.000
268.350;  -72.325; -388.000; -532.000
268.490;  -94.875; -648.000; -521.000
268.631;   28.025;  127.000;  225.000
268.772; -126.825; -874.000; -647.000
268.913;  -51.750; -328.000; -476.000
269.054;  -21.950; -117.000;   12.000
269.194;  -53.525; -418.000; -402.000
269.335; -159.250;-1137.000;-1074.000
269.476;  -13.625;   33.000;  -35.000
269.617;  -50.225; -347.000; -392.000
269.757;  -93.325; -713.000; -646.000
269.898;  -98.475; -856.000; -613.000
270.039;  -56.900; -415.000; -405.000
270.180; -150.325; -952.000; -816.000
270.320;  -22.525; -190.000; -250.000
270.461;  -60.400; -277.000; -249.000
270.602;  -18.200; -186.000; -156.000
270.742; -110.650; -868.000; -943.000
270.883;  -67.625; -442.000; -390.000
271.023;  -63.975; -358.000; -357.000
271.164;  -76.225; -607.000; -528.000
271.305;  -90.050; -666.000; -654.000
271.445;  -93.150; -722.000; -683.000
271.586;  -82.225; -462.000; -283.000
271.726;  -50.825; -397.000; -322.000
271.867;  -72.625; -594.000; -534.000
272.008;  187.625; -473.000; -285.000
272.148;  141.550;  462.000;  468.000
272.289;    7.600; -113.000; -181.000
272.429;    5.325;   19.000;  185.000
272.570;  -88.525; -633.000; -737.000
272.710;  -93.875; -825.000; -775.000
272.851;  -17.725;  113.000; -130.000
272.991; -165.875;-1173.000;-1077.000
273.131;  -63.575; -419.000; -459.000
273.272; -111.775; -683.000; -723.000
273.412;   18.750; -143.000;  -31.000
273.553;  -60.775; -488.000; -507.000
273.693;  146.475;  913.000;  858.000
273.834;  -91.750; -894.000; -692.000
273.974;  -74.825; -664.000; -615.000
274.114;  -98.550; -772.000; -560.000
274.255;   79.225;  414.000;  373.000
274.395;   11.800; -180.000; -125.000
274.535;   34.525;  199.000;  350.000
274.676;   18.725;  225.000;   94.000
274.816;    0.875;  110.000;   34.000
274.956;  -87.100; -624.000; -690.000
275.097;  -70.900;-1014.000; -922.000
275.237; -108.550; -913.000; -803.000
275.377;  -96.425; -778.000; -689.000
275.517; -133.175; -878.000; -937.000
275.658;  -59.925; -590.000; -555.000
275.798;  -72.450; -606.000; -413.000
275.938;   23.400;  215.000;  323.000
276.078;  -98.375; -626.000; -395.000
276.218;    7.950;   99.000;  104.000
276.359; -128.425;-1026.000;-1024.000
276.499;  -70.475; -605.000; -446.000
276.639;  -28.925; -305.000; -151.000
276.779;  -55.050; -475.000; -357.000
276.919; -105.325; -783.000; -624.000
277.059;  -15.600; -261.000; -212.000
277.199;  -44.400; -357.000; -259.000
277.340;   42.125;  287.000;  175.000
277.480; -126.150; -840.000; -693.000
277.620;   19.625;  192.000;   16.000
277.760; -195.325;-1533.000;-1294.000
277.900;   14.125;  113.000;   33.000
278.040;   16.450;  137.000;  159.000
278.180;   42.725;  270.000;  170.000
278.320;   -0.800;   21.000;   56.000
278.460;  -65.475; -443.000; -469.000
278.600;  -78.550; -708.000; -598.000
278.740;   42.125;  448.000;  224.000
278.880;  -51.600; -768.000; -791.000
279.020;   -9.825; -194.000; -144.000
279.160;  -83.925; -672.000; -595.000
279.300; -132.150; -926.000; -873.000
279.440;  -90.250; -709.000; -622.000
279.579;  -16.750;-1014.000; -929.000
279.719;  -44.750; -410.000; -394.000
279.859;   67.325;   -4.000;   41.000
279.999;   19.625; -208.000;  101.000
280.139;   -7.975; -435.000; -387.000
280.279;  -70.875; -708.000; -745.000
280.419;   -8.000; -229.000; -147.000
280.559;  -24.575; -259.000; -180.000
280.698;  -86.175; -790.000; -639.000
280.838; -106.525; -778.000; -800.000
280.978; -108.925; -846.000; -790.000
281.118; -110.600; -811.000; -704.000
281.257;    6.200;   24.000;    6.000
281.397; -109.100;-1094.000; -960.000
281.537;  -82.075; -599.000; -712.000
281.677;  -21.500; -150.000; -101.000
281.816;  -87.675; -700.000; -630.000
281.956;  -28.950; -193.000; -257.000
282.096;  -77.175; -539.000; -396.000
282.235;  -94.625; -672.000; -638.000
282.375;  -24.100; -243.000;  -98.000
282.515; -104.450; -715.000; -707.000
282.654;   33.775;   29.000;  106.000
282.794;   27.525;  388.000;  244.000
282.934;  -61.625; -530.000; -491.000
283.073; -135.200;-1030.000; -857.000
283.213;  -57.925; -460.000; -467.000
283.353;  -43.675; -408.000; -349.000
283.492;  -28.475; -264.000; -296.000
283.632;  -37.575; -254.000; -168.000
283.771;  -95.150; -859.000; -730.000
283.911;  -46.600; -369.000; -260.000
284.050; -111.300; -794.000; -748.000
284.190; -150.550;-1229.000;-1096.000
284.329; -147.575;-1055.000; -964.000
284.469;  -58.200; -516.000; -591.000
284.608;  -52.175; -559.000; -598.000
284.748;  -82.575; -614.000; -570.000
284.887;  -26.075;  -87.000;  -20.000
285.027; -122.100; -844.000; -892.000
285.166;  -20.775; -192.000; -249.000
285.306;    8.925; -116.000;  -33.000
285.445;  -47.800; -229.000; -343.000
285.584;  -95.900; -630.000; -494.000
285.724;  -40.500; -282.000; -322.000
285.863; -118.150; -857.000; -507.000
286.002;  -61.675; -366.000; -276.000
286.142; -123.000; -715.000; -622.000
286.281;  -65.650; -525.000; -493.000
286.420;  -86.825; -554.000; -417.000
286.560;   96.725;  653.000;  623.000
286.699; -135.025; -958.000; -912.000
286.838;  -89.125; -590.000; -591.000
286.978;  -80.400; -533.000; -537.000
287.117; -140.725;-1085.000; -950.000
287.256;  -32.525; -228.000; -211.000
287.395;  -51.675; -197.000; -378.000
287.535;  -40.125; -370.000; -298.000
287.674;  -78.775; -509.000; -484.000
287.813;   54.975;  661.000;  533.000
287.952; -123.925;-1010.000; -871.000
288.091; -156.450;-1049.000; -915.000
288.231;    9.500;   13.000;   15.000
288.370; -174.025;-1217.000;-1200.000
288.509;  -85.400; -728.000; -645.000
288.648;  -90.050; -770.000; -548.000
288.787;  -33.275; -243.000;  -87.000
288.926;  -52.125; -454.000; -475.000
289.065;  124.875;  859.000;  672.000
289.204;  -52.175; -377.000; -217.000
289.344;  -96.150; -791.000; -690.000
289.483;   24.725;  416.000;  304.000
289.622;  -27.425; -291.000; -149.000
289.761;  -19.200; -309.000; -166.000
289.900; -128.450; -785.000; -626.000
290.039;  -25.600;  -12.000;  -95.000
290.178;  -44.850; -274.000; -180.000
290.317; -103.125; -618.000; -479.000
290.456;  -58.325; -463.000; -451.000
290.595; -148.225; -961.000; -833.000
290.734; -146.550; -904.000; -891.000
290.873;  -68.525; -456.000; -420.000
291.011; -107.950; -833.000; -843.000
291.150;  -89.350; -770.000; -682.000
291.289;  -34.575; -343.000; -110.000
291.428;  -82.825; -599.000; -480.000
291.567;  -58.000; -370.000; -442.000
291.706;    4.925;  109.000;  154.000
291.845;  -93.350; -597.000; -505.000
291.984; -157.900;-1234.000;-1061.000
292.122;   73.725;  602.000;  582.000
292.261;   40.425;  620.000;  463.000
292.400;    9.425; -144.000;  211.000
292.539; -122.975; -959.000; -813.000
292.678;  -39.800; -325.000; -300.000
292.816; -155.725;-1136.000; -965.000
292.955;  -90.125; -844.000; -684.000
293.094;  -30.400; -173.000; -337.000
293.233;  -52.350; -556.000; -400.000
293.371;  -28.300; -225.000;  -84.000
293.510; -103.675; -866.000; -780.000
293.649; -128.300; -959.000; -924.000
293.787;  -59.325;-1083.000;-1012.000
293.926;   -5.325; -113.000;  -32.000
294.065;  -52.325; -379.000; -290.000
294.203;   35.275;  298.000;  406.000
294.342;   25.950;   74.000;  156.000
294.481; 6133.650;51180.000; -836.000
294.619;  -34.500; -425.000; -582.000
294.758; -143.125;-1230.000;-1137.000
294.896;   87.375; -125.000;    5.000
295.035; -122.775;-1040.000;-1006.000
295.174; -127.050;-1082.000; -954.000
295.312;  -51.100; -323.000; -203.000
295.451;   -3.775; -307.000; -428.000
295.589;  -40.025; -389.000; -518.000
295.728;   28.925; -292.000; -165.000
295.866;    6.175;  -36.000;  -51.000
296.005;  -55.050; -584.000; -341.000
296.143;  -67.025; -558.000; -596.000
296.282; -106.875; -957.000; -881.000
296.420;  -83.050; -657.000; -557.000
296.559;  -79.375; -892.000; -633.000
296.697;   25.025; -847.000; -665.000
296.835;   76.275;-1141.000;-1002.000
296.974;   57.825;  -23.000;   39.000
297.112;   18.575; -443.000; -504.000
297.251;  -67.375; -815.000; -755.000
297.389;  116.275; -576.000; -438.000
297.527;   67.350; -145.000;  -83.000
297.666;  -35.575; -486.000; -438.000
297.804;  -58.300; -404.000; -264.000
297.942;  -11.475; -136.000; -161.000
298.081;   -2.650; -183.000;   63.000
298.219;   79.325;  -17.000;  -19.000
298.357;   59.050; -144.000;  -71.000
298.495;   54.150; -810.000; -812.000
298.634;   89.250;  245.000;  219.000
298.772;   64.275; -220.000; -338.000
298.910;  -38.075; -309.000; -182.000
299.048;  -11.125; -130.000; -153.000
299.187;  -27.575; -350.000; -250.000
299.325;   27.300;   52.000;  122.000
299.463;   63.375; -389.000; -299.000
299.601;  132.000; -327.000; -271.000
299.739;  -95.675; -908.000; -883.000
299.877;  -81.425; -791.000; -703.000
300.016;  -39.675;-1095.000; -935.000
300.154;  178.300;  -19.000; -161.000
300.292;   67.375; -428.000; -348.000
300.430;   29.750; -408.000; -291.000
300.568;  -98.000; -940.000; -874.000
300.706;  -50.800; -366.000; -469.000
300.844;  -57.600;-1108.000; -979.000
300.982;  111.125;  246.000;  282.000
301.120; -112.050; -965.000; -866.000
301.258;  -68.975; -812.000; -705.000
301.396;   39.300;  104.000;  -41.000
301.534;  106.450; -218.000; -293.000
301.672;    5.550; -664.000; -521.000
301.810;   32.975; -613.000; -545.000
301.948;  135.750;   53.000;  149.000
302.086;  690.875; -250.000;  -32.000
302.224; 1025.325; -610.000; -585.000
302.362;   49.075; -558.000; -622.000
302.500;   -0.275; -923.000; -893.000
302.638;  120.275;  128.000;  245.000
302.776;   -2.650; -352.000; -408.000
302.913;   46.150;  447.000;  236.000
303.051;   -1.350;  -86.000;  -23.000
303.189;   62.375;   90.000;  118.000
303.327;  -36.575; -341.000; -256.000
303.465;  -87.575; -832.000; -588.000
303.603;  -85.875; -805.000; -604.000
303.740;  107.075;  417.000;  241.000
303.878;   29.325; -800.000; -759.000
304.016;  -79.825; -915.000; -790.000
304.154; -126.925;-1123.000;-1152.000
304.291;  -34.825; -505.000; -554.000
304.429;    9.050;  102.000;   74.000
304.567; -129.950; -908.000; -893.000
304.705;  -59.400; -408.000; -515.000
304.842;  104.825; -616.000; -540.000
304.980;   59.775;  215.000;   35.000
305.118;   45.775; -367.000; -365.000
305.255;  -66.025; -945.000; -927.000
305.393;   62.075;  178.000;  239.000
305.531; -103.525;-1173.000; -956.000
305.668;  -62.900; -663.000; -582.000
305.806;  116.450; -358.000; -439.000
305.943;  117.225; -629.000; -637.000
306.081;   68.400; -378.000; -267.000
306.219;  -92.775; -863.000; -748.000
306.356;   11.500;  158.000;   27.000
306.494;  119.475;  981.000;  761.000
306.631;   -9.675;  -11.000;  -55.000
306.769;   12.300; -613.000; -485.000
306.906;  -15.775; -284.000; -258.000
307.044;  -64.000; -473.000; -488.000
307.181;  -62.625; -410.000; -332.000
307.319;   13.650;  112.000;   87.000
307.456; -176.550;-1191.000;-1153.000
307.594;  -83.525; -980.000; -727.000
307.731;  -20.250; -371.000; -164.000
307.868;    3.425;  -15.000;   20.000
308.006; -129.950; -961.000; -847.000
308.143;  -57.875; -618.000; -330.000
308.281;  155.175;  -37.000; -254.000
308.418;   -8.400; -748.000; -640.000
308.555;  -53.275; -400.000; -250.000
308.693;  -68.875; -577.000; -573.000
308.830; -102.450; -712.000; -657.000
308.967;  -19.750; -215.000;  -95.000
309.105;  -41.425; -507.000; -396.000
309.242;   38.875; -468.000; -367.000
309.379;  294.150; -577.000; -655.000
309.517;  -78.175; -936.000; -948.000
309.654; -109.925; -910.000; -734.000
309.791;  -65.500; -662.000; -580.000
309.928; -109.275; -977.000; -914.000
310.065;  194.325;  819.000;  697.000
310.203;   -9.850; -825.000; -850.000
310.340;    1.625; -465.000; -321.000
310.477;  -80.925; -412.000; -516.000
310.614;  -65.250; -383.000; -473.000
310.751;  -86.225; -427.000; -518.000
310.889;  -19.075;    1.000;   11.000
311.026; -155.950;-1161.000; -939.000
311.163;  -39.275; -386.000; -380.000
311.300;  -83.125; -512.000; -479.000
311.437;  -68.800; -658.000; -619.000
311.574; -147.475;-1226.000; -985.000
311.711;  -54.300; -595.000; -433.000
311.848;  -43.875; -380.000; -388.000
311.985;   20.975;  270.000;   93.000
312.122; -119.025; -932.000; -762.000
312.259; -106.825; -941.000; -994.000
312.396;  -74.475; -508.000; -551.000
312.533;  -80.450; -812.000; -790.000
312.670; -134.075;-1070.000; -898.000
312.807;  -35.700; -352.000; -367.000
312.944;  -76.475; -513.000; -611.000
313.081;  -45.700; -150.000; -415.000
313.218;  -97.925;-1111.000; -867.000
313.355;   25.500; -531.000; -449.000
313.492;    4.375; -455.000; -292.000
313.629;  135.000;  815.000;  735.000
313.766; -159.925;-1176.000;-1008.000
313.902;  -16.450; -186.000;   21.000
314.039;  -57.175; -372.000; -289.000
314.176;   16.850;  286.000;  192.000
314.313;  -68.075; -569.000; -473.000
314.450;  -90.300; -788.000; -684.000
314.587;  -58.075; -468.000; -480.000
314.723;    2.925;  -78.000;  130.000
314.860;   23.750;  318.000;  332.000
314.997;   24.250;  223.000;  142.000
315.134;  -46.700; -385.000; -368.000
315.270;  -32.700; -480.000; -496.000
315.407; -116.275;-1094.000; -967.000
315.544;  -48.725; -657.000; -538.000
315.681;  -59.725; -681.000; -565.000
315.817;   29.025; -133.000; -176.000
315.954;   14.000; -613.000; -392.000
316.091; -118.825;-1045.000;-1023.000
316.227;  -32.600;  -71.000; -179.000
316.364;   -7.125;   23.000;    6.000
316.500;  -48.950; -113.000; -300.000
316.637;  -50.025; -181.000; -302.000
316.774;  -85.750; -625.000; -358.000
316.910;  -99.975; -598.000; -629.000
317.047;  -73.750; -487.000; -351.000
317.183;  -56.925; -435.000; -566.000
317.320;  -17.500; -367.000; -321.000
317.456;  -74.575; -733.000; -805.000
317.593; -103.500; -598.000; -641.000
317.729;    3.750;  168.000;  -67.000
317.866; -202.825;-1434.000;-1285.000
318.002;  -94.325; -708.000; -948.000
318.139;  -85.250; -883.000; -867.000
318.275; -112.300;-1003.000; -738.000
318.412;  -68.900; -517.000; -336.000
318.548;  -22.475; -751.000; -720.000
318.685;  -89.850; -985.000; -888.000
318.821;  -81.150; -762.000; -735.000
318.957;  -20.150;   34.000;  -23.000
319.094;   31.400;  297.000;  154.000
319.230;  -63.200; -756.000; -742.000
319.367;  143.175; -471.000; -520.000
319.503;   65.000; -538.000; -436.000
319.639;  -86.825; -877.000; -793.000
319.775;  -66.750; -750.000; -685.000
319.912;  -49.525; -424.000; -519.000
320.048;  -93.100;-1184.000;-1184.000
320.184;   70.675;   59.000;   70.000
320.321;  -59.450; -497.000; -467.000
320.457;   57.225;  475.000;  662.000
320.593;  -60.800; -375.000; -382.000
320.729; -105.000; -732.000; -734.000
320.866;  -81.025; -577.000; -635.000
321.002;  -73.025; -759.000; -809.000
321.138;  -18.675; -135.000; -211.000
321.274;   79.875; -148.000; -115.000
321.410;  -28.300; -585.000; -353.000
321.546;  -26.525;-1011.000; -911.000
321.683;   53.725;  400.000;  185.000
321.819;   14.950;  -48.000; -117.000
321.955; -100.100; -743.000; -722.000
322.091;  -58.850; -585.000; -540.000
322.227;  -26.675; -382.000; -202.000
322.363;   -6.725; -320.000; -215.000
322.499;  -43.525; -343.000; -331.000
322.635;  172.675;  636.000;  443.000
322.771;   29.150; -139.000;   12.000
322.907;  103.325;  129.000;  327.000
323.043;  -28.350; -115.000; -206.000
323.179;  -33.475; -394.000; -363.000
323.315;   40.800; -401.000; -371.000
323.451;  118.625; -328.000; -236.000
323.587;   74.650;  -60.000;  -77.000
323.723;   25.000; -682.000; -601.000
323.859;  -10.025; -258.000;  -76.000
323.995;  -29.175; -467.000; -409.000
324.131; -113.600; -967.000; -892.000
324.267;  -48.800; -254.000; -276.000
324.402; -125.950; -960.000; -983.000
324.538;  -16.250; -279.000; -104.000
324.674;   24.475;  164.000;   77.000
324.810;  144.100;  226.000;  308.000
324.946;   31.050; -810.000; -658.000
325.082;  -72.875; -568.000; -475.000
325.217;    1.650;  -62.000;   16.000
325.353; -104.075; -764.000; -659.000
325.489;  -71.950; -540.000; -506.000
325.625;  -75.650; -579.000; -525.000
325.760;   44.550;  517.000;  376.000
325.896;  -37.950; -515.000; -702.000
326.032;  -64.950; -403.000; -352.000
326.168;  -54.775; -462.000; -369.000
326.303;  -49.250; -352.000; -461.000
326.439;  -27.275; -336.000; -276.000
326.575;    8.950; -190.000;  -29.000
326.710;   -1.000; -156.000;  -30.000
326.846;    1.025;  146.000;  103.000
326.982;  -94.575; -530.000; -548.000
327.117;  -66.075; -481.000; -442.000
327.253;  -89.025; -745.000; -742.000
327.388; -156.600;-1137.000;-1153.000
327.524;  -44.300; -811.000; -578.000
327.659;  -31.550;  -58.000;  -22.000
327.795;  -21.150;   69.000;   45.000
327.931;  -82.275; -723.000; -499.000
328.066;  -30.150; -417.000; -276.000
328.202;  -23.375;   12.000; -129.000
328.337;  105.725;  957.000;  713.000
328.473;   35.500;  -12.000;  -74.000
328.608;  -33.600; -256.000; -267.000
328.743;  -80.900; -799.000; -664.000
328.879;   19.550;  214.000;  114.000
329.014;  -42.525; -102.000; -122.000
329.150;  -86.275; -358.000; -483.000
329.285;  -81.075; -465.000; -466.000
329.421;  -51.925; -548.000; -246.000
329.556;  -25.000;  -36.000;   85.000
329.691; -109.150; -633.000; -615.000
329.827;  -84.475; -626.000; -480.000
329.962;  -30.925;  131.000; -301.000
330.097;  -90.650; -673.000; -585.000
330.233;  -50.600; -410.000; -223.000
330.368; -135.850; -839.000; -628.000
330.503;  -11.275;    3.000;   98.000
330.638;    9.750;  -93.000; -125.000
330.774;  -54.600; -609.000; -530.000
330.909;  -51.450; -434.000; -244.000
331.044;  -94.350; -714.000; -708.000
331.179; -175.950;-1217.000;-1109.000
331.315;    6.900;   77.000;   20.000
331.450;   14.975;  157.000;  285.000
331.585;  -83.475; -805.000; -706.000
331.720;  -95.900; -510.000; -460.000
331.855;  -10.300;  -35.000; -102.000
331.990;  231.350;   62.000;  138.000
332.126;  118.575; -110.000;   71.000
332.261;  -16.850; -379.000; -265.000
332.396;    0.250; -135.000; -242.000
332.531; -100.600;-1074.000;-1031.000
332.666;   22.675; -519.000; -363.000
332.801;  -96.825; -726.000; -807.000
332.936;  -35.375; -192.000; -122.000
333.071; -136.825; -870.000; -817.000
333.206;   30.025;  307.000;  379.000
333.341;   36.200;  344.000;  418.000
333.476;  -93.775; -627.000; -623.000
333.611;  -43.825; -251.000; -173.000
333.746;  -38.200; -381.000; -464.000
333.881; -111.750; -973.000; -935.000
334.016; -128.250; -936.000; -917.000
334.151; -119.825; -746.000; -702.000
334.286;   24.400;  152.000;  186.000
334.421;  -17.600; -125.000; -178.000
334.556;  -78.775; -611.000; -567.000
334.690;  -96.775; -631.000; -577.000
334.825;   45.525;  381.000;   83.000
334.960;  -52.700; -285.000; -413.000
335.095;   17.675;  135.000;  -91.000
335.230;  -98.125; -722.000; -738.000
335.365; -137.050;-1084.000; -990.000
335.499; -125.400;-1108.000;-1037.000
335.634;   17.525;    9.000;  534.000
335.769;  -92.000; -755.000; -720.000
335.904;  -68.025; -603.000; -561.000
336.038;  -64.775; -735.000; -657.000
336.173; -114.000;-1206.000;-1194.000
336.308;   18.350; -116.000; -189.000
336.443;   24.150; -544.000; -634.000
336.577;  -56.275; -936.000; -787.000
336.712;   81.400;   -4.000;  -12.000
336.847;  -28.500; -724.000; -607.000
336.981;   85.325; -272.000; -208.000
337.116;  293.150;  615.000;  501.000
337.250;  185.150; -434.000; -421.000
337.385;  229.225; -297.000; -208.000
337.520;   64.300; -632.000; -603.000
337.654;  -41.900; -215.000; -126.000
337.789; -129.775; -989.000; -933.000
337.923;  -24.200; -104.000; -205.000
338.058;  -82.750; -673.000; -738.000
338.192;  -29.425; -611.000; -488.000
338.327;   -6.650;  -18.000; -155.000
338.461;  -66.750; -299.000; -469.000
338.596;  -95.450; -780.000; -638.000
338.730;  -96.825; -767.000; -803.000
338.865;   77.525;  -46.000; -140.000
338.999;  -65.575; -846.000; -702.000
339.134;  -34.050; -634.000; -536.000
339.268;    5.950; -741.000; -603.000
339.403;  353.625; -740.000; -775.000
339.537;  108.900; -894.000; -820.000
339.671; -110.850; -829.000; -813.000
339.806;  -67.425; -556.000; -512.000
339.940;    8.100; -261.000; -235.000
340.074; -105.325; -685.000; -510.000
340.209;  -51.400; -351.000; -230.000
340.343;  -90.425; -517.000; -573.000
340.477;  136.350;  998.000; 1036.000
340.612;  -77.275;-1033.000; -900.000
340.746;  119.700; -199.000; -243.000
340.880;  -60.575; -924.000; -785.000
341.014;  -25.850;  -45.000; -154.000
341.149; -116.025; -756.000; -718.000
341.283; -105.250; -839.000; -754.000
341.417;  -83.875;-1124.000; -938.000
341.551;  169.775; -768.000; -708.000
341.685;  -24.400; -633.000; -611.000
341.820;  -63.375; -562.000; -493.000
341.954;  -43.900; -218.000; -349.000
342.088; -153.625;-1102.000;-1019.000
342.222;   42.350;  565.000;  618.000
342.356;  -58.250; -395.000; -335.000
342.490;  -85.575; -880.000; -841.000
342.624;  -46.500; -339.000; -242.000
342.758;    8.575; -364.000; -312.000
342.892;  -59.000; -710.000; -585.000
343.026;  -43.150;  -58.000; -116.000
343.160;  -55.175; -426.000; -376.000
343.294;  -96.600; -474.000; -337.000
343.428;  -25.525; -488.000; -448.000
343.562;  -21.000; -172.000;  -23.000
343.696;  -29.375; -385.000; -314.000
343.830;  -25.800; -362.000; -356.000
343.964;   20.225; -231.000; -168.000
344.098;  986.400;  199.000;   70.000
344.232;  845.925; -266.000; -127.000
344.366;   82.550; -567.000; -453.000
344.500;   60.250; -665.000; -744.000
344.634;   38.725; -324.000; -164.000
344.768;   -8.550; -531.000; -341.000
344.902;   17.950;  278.000;  256.000
345.035;  -78.875; -556.000; -496.000
345.169; -134.350; -933.000; -656.000
345.303;  -22.550; -308.000; -482.000
345.437;  -62.825; -826.000; -717.000
345.571;  -91.450; -675.000; -594.000
345.704;  -60.300; -309.000; -532.000
345.838;  -12.275; -331.000; -284.000
345.972;  -30.375; -543.000; -495.000
346.106;  151.950; -179.000; -190.000
346.239;  429.125; -312.000; -243.000
346.373;   17.175; -343.000; -302.000
346.507; -145.850; -950.000; -962.000
346.640;  165.975;  -30.000;   13.000
346.774;  -36.050; -650.000; -797.000
346.908;  -11.875; -138.000;  -11.000
347.041;  -94.700; -646.000; -593.000
347.175;   -4.325;  259.000;   27.000
347.309;  -61.750; -698.000; -628.000
347.442;  -82.650; -883.000; -732.000
347.576;  302.775;  670.000;  668.000
347.709;  230.750; -123.000;  -52.000
347.843;  -78.825; -933.000; -825.000
347.976;   40.750;  235.000;  294.000
348.110; -180.575;-1268.000;-1186.000
348.243;  -94.900; -679.000; -772.000
348.377;   -3.225;  -26.000;   60.000
348.510;   40.700;  403.000;  540.000
348.644;  -39.875;  -37.000; -159.000
348.777;    9.350;  180.000;  191.000
348.911;  -59.800; -142.000; -112.000
349.044;  176.300;  471.000;  448.000
349.178;  184.225;-1069.000;-1006.000
349.311;  124.600;  141.000;  255.000
349.444;  -10.775; -927.000; -813.000
349.578;  -10.450; -347.000; -200.000
349.711;  -91.400; -959.000; -862.000
349.845;    7.525; -661.000; -591.000
349.978; -147.600;-1224.000;-1137.000
350.111;  -85.225; -546.000; -612.000
350.244;  -72.200; -596.000; -700.000
350.378;   18.200; -392.000; -393.000
350.511;  -61.775; -393.000; -426.000
350.644; -114.450; -808.000; -806.000
350.778;    1.950;  168.000;  104.000
350.911;   -1.725;  134.000;  140.000
351.044;  -95.550; -685.000; -615.000
351.177;  -32.925; -321.000; -281.000
351.310;  -32.900;    3.000; -131.000
351.444;  -77.325; -888.000; -788.000
351.577;  128.650;  140.000;   90.000
351.710;  101.825;  593.000;  417.000
351.843;  -41.275; -165.000;  -77.000
351.976;    1.425;  149.000;  -79.000
352.109;  -82.100; -621.000; -612.000
352.242;  -30.700; -464.000; -419.000
352.376;  -45.800; -580.000; -636.000
352.509;  201.275; -437.000; -356.000
352.642;   38.375; -654.000; -604.000
352.775;   67.650; -141.000;  -98.000
352.908; -120.225; -933.000; -904.000
353.041;  -97.725; -814.000; -824.000
353.174;  -58.950; -551.000; -424.000
353.307;  -84.800; -753.000; -764.000
353.440;   72.575;  541.000;  453.000
353.573; -109.900; -957.000;-1008.000
353.706;  -49.625; -384.000; -558.000
353.839;  -27.750; -264.000; -220.000
353.971;  -84.375; -657.000; -512.000
354.104;  -84.125; -896.000; -835.000
354.237;  -36.600; -627.000; -662.000
354.370;  -88.725; -846.000; -879.000
354.503; -174.900;-1231.000;-1308.000
354.636;  -39.175; -529.000; -348.000
354.769; -120.875; -937.000; -860.000
354.902;   -4.475; -230.000; -139.000
355.034;  -42.000; -164.000; -220.000
355.167;  -21.775; -262.000; -162.000
355.300;  -99.300;-1061.000; -880.000
355.433;  917.225;  -71.000;  -14.000
355.565; 1431.800; -402.000; -384.000
355.698;  360.700; -356.000; -296.000
355.831;    5.525; -882.000; -801.000
355.964;   95.800; -285.000; -170.000
356.096;  -77.825; -856.000; -843.000
356.229;   16.975; -523.000; -530.000
356.362;  312.725; -373.000; -266.000
356.494;  562.950; -229.000; -162.000
356.627;  509.200;  269.000;  377.000
356.760;  623.325;  120.000;   53.000
356.892;  897.100; -286.000; -601.000
357.025;  710.250;  403.000;  389.000
357.157;  667.325; -167.000; -179.000
357.290;  618.650; -856.000; -713.000
357.423;  193.150; -667.000; -556.000
357.555;  120.175; -217.000; -228.000
357.688;  148.375; -483.000; -364.000
357.820;  490.825; -870.000; -877.000
357.953; 3946.550; -563.000; -589.000
358.085;  891.050; -632.000; -612.000
358.218; 1322.900;-1131.000; -932.000
358.350;  231.125;  -58.000;  312.000
358.483; -111.000;-1300.000;-1187.000
358.615;   -3.600;-1182.000;-1078.000
358.747;  -45.825;-1187.000;-1058.000
358.880;   36.500; -810.000; -744.000
359.012;    0.950; -376.000; -202.000
359.145;  -58.050; -480.000; -511.000
359.277;   73.550; -962.000; -913.000
359.409; 3281.025;  536.000;  231.000
359.542;  854.750; -738.000; -688.000
359.674;   81.100;   46.000;   13.000
359.806;  -63.175; -565.000; -438.000
359.939;  -53.800; -617.000; -516.000
360.071;  -23.375; -583.000; -579.000
360.203;  -31.700; -411.000; -364.000
360.335;   38.225;  164.000;  -16.000
360.468;  195.250; -249.000; -307.000
360.600; 2616.050; -547.000; -454.000
360.732; 2676.275; -546.000; -423.000
360.864;  368.500;-1216.000;-1044.000
360.996;  311.875; -516.000; -554.000
361.129;   65.500; -389.000; -598.000
361.261;   18.175;  110.000; -113.000
361.393;  -39.325; -252.000; -214.000
361.525;   29.500;   94.000;  244.000
361.657;  -37.075; -821.000; -703.000
361.789;    9.100; -139.000; -155.000
361.921;  269.575; -642.000; -593.000
362.053;  278.675;  524.000;  541.000
362.185;   64.425;  288.000;   72.000
362.318;  -68.275; -709.000; -705.000
362.450;  126.275;  294.000;  444.000
362.582;  152.350; -913.000; -870.000
362.714;  -46.175; -353.000; -332.000
362.846;  -93.750; -606.000; -490.000
362.978; -139.800; -941.000; -811.000
363.109;   53.625; -161.000; -260.000
363.241;  476.000; -739.000; -749.000
363.373;  423.475; -649.000; -564.000
363.505;  621.325; -186.000;  -91.000
363.637;  140.450; -787.000; -601.000
363.769; -116.525;-1067.000;-1080.000
363.901;  -61.425; -596.000; -654.000
364.033; -113.350;-1103.000;-1062.000
364.165;    1.225; -283.000; -283.000
364.296;   77.825; -316.000; -177.000
364.428;   53.000;-1344.000;-1220.000
364.560;  -71.875; -679.000; -661.000
364.692;  -61.825; -738.000; -835.000
364.824;  317.700; -588.000; -456.000
364.955;  433.650; -402.000; -564.000
365.087;  838.550;-1097.000; -852.000
365.219;   27.700; -686.000; -816.000
365.351;  -72.875; -526.000; -572.000
365.482;   57.275;  300.000;  240.000
365.614;  -50.625; -402.000; -314.000
365.746; -102.775; -729.000; -752.000
365.877; -105.725; -706.000; -672.000
366.009;  238.000;  -35.000;  -62.000
366.141;  -90.125;-1249.000;-1134.000
366.272; -107.425; -803.000; -719.000
366.404; -116.125;-1005.000; -874.000
366.535;  -20.500; -139.000;  -12.000
366.667;  -86.675; -644.000; -649.000
366.799;   37.200;  353.000;  203.000
366.930; -120.125; -862.000; -996.000
367.062;  116.100; -639.000; -613.000
367.193;  128.125; -872.000; -842.000
367.325;  -70.850; -580.000; -684.000
367.456;   73.775; -246.000;   31.000
367.588;  145.300; -371.000; -318.000
367.719;   14.925;  -44.000;  -45.000
367.851;  -19.525; -222.000; -241.000
367.982;  -47.200; -875.000; -732.000
368.113;  130.600; -475.000; -358.000
368.245; -120.300; -960.000; -841.000
368.376;  -15.825; -254.000; -302.000
368.508;  -34.000; -188.000; -263.000
368.639; -138.400;-1166.000;-1034.000
368.770;  -29.525; -670.000; -589.000
368.902;  -58.025; -836.000; -926.000
369.033; -102.675; -906.000; -855.000
369.164;  -46.000; -720.000; -653.000
369.296; -101.450; -452.000; -601.000
369.427;   -9.725; -209.000; -144.000
369.558;  -47.475; -593.000; -377.000
369.689;  -79.175; -721.000; -569.000
369.821; -136.750; -951.000; -845.000
369.952;  -14.275;   42.000; -108.000
370.083;  -48.850; -229.000; -108.000
370.214;  -84.625; -735.000; -650.000
370.345;  -13.750;   65.000;   81.000
370.477;  -82.775; -810.000; -790.000
370.608;  253.400; -328.000; -264.000
370.739;  -35.950;-1233.000;-1292.000
370.870;  -16.075;-1102.000; -923.000
371.001;  110.925; -378.000; -467.000
371.132;  -67.000; -754.000; -735.000
371.263;  -22.275;  -42.000; -148.000
371.394; -122.525; -841.000; -748.000
371.525;   29.700;  345.000;  225.000
371.657;  -85.275; -808.000; -670.000
371.788;   64.475;  103.000;  199.000
371.919;  187.450; -384.000; -304.000
372.050; 3960.375;  -91.000; -156.000
372.181; 1172.000; -188.000; -294.000
372.311;  430.350;   42.000; -127.000
372.442;   43.000; -457.000; -451.000
372.573;  -27.375; -444.000; -340.000
372.704; -115.400;-1008.000; -980.000
372.835;   98.400; -228.000; -289.000
372.966;  -58.250; -646.000; -554.000
373.097;  -59.625; -575.000; -711.000
373.228;  -22.700; -717.000; -542.000
373.359;  165.075; -824.000; -536.000
373.490; 1042.850; -881.000; -727.000
373.620; 1310.950;-1001.000; -803.000
373.751; 1978.525; -332.000; -396.000
373.882;  903.175; -663.000; -733.000
374.013;   83.625; -449.000; -262.000
374.143;  -37.350; -581.000; -659.000
374.274;  -99.475; -987.000; -908.000
374.405;  178.750; -388.000; -276.000
374.536;  487.025; -526.000; -387.000
374.666; 1255.200; -759.000; -807.000
374.797;  280.125; -817.000; -868.000
374.928;  973.400; -710.000; -560.000
375.058; 1017.200; -535.000; -500.000
375.189;   83.700;  -59.000;  -93.000
375.320; -113.500; -928.000;-1034.000
375.450;  -42.275; -625.000; -616.000
375.581;  -40.675; -526.000; -436.000
375.712;  -35.500; -574.000; -250.000
375.842;  360.800; -438.000; -415.000
375.973;  272.075; -554.000; -513.000
376.103;  -30.825; -665.000; -648.000
376.234;  -68.175; -531.000; -552.000
376.364;  -35.400; -944.000; -867.000
376.495;  352.100;  925.000;  529.000
376.625;    5.725; -472.000; -485.000
376.756;   67.725; -709.000; -678.000
376.886;  -63.500;-1178.000;-1026.000
377.017;   37.975;-1048.000;-1061.000
377.147;  310.275; -786.000; -782.000
377.278;   61.925;  174.000;  228.000
377.408; -122.400; -801.000; -815.000
377.538; -106.525; -707.000; -693.000
377.669;  -81.550; -537.000; -613.000
377.799;  -82.975; -645.000; -635.000
377.929;  -44.475; -610.000; -428.000
378.060; -119.275; -781.000; -847.000
378.190;  -54.525; -726.000; -531.000
378.320;  -55.825; -401.000; -406.000
378.451;  -16.650; -131.000;  -22.000
378.581;  -19.400;  -67.000; -110.000
378.711;  168.100; 1035.000;  866.000
378.841;  -16.050; -533.000; -675.000
378.972;  -69.350; -871.000; -751.000
379.102;   -3.925; -652.000; -579.000
379.232;  -12.750; -126.000;  -73.000
379.362; -104.725;-1001.000; -885.000
379.492;   17.375; -373.000; -424.000
379.623;  117.625;    0.000;  111.000
379.753;  -87.275;-1107.000; -974.000
379.883;  214.050;   59.000;  156.000
380.013;   28.775;-1081.000;-1017.000
380.143; -100.725;-1097.000;-1056.000
380.273; -107.600; -985.000; -861.000
380.403;    4.300; -344.000; -257.000
380.533;  -16.400; -651.000; -664.000
380.663;  100.975;  173.000;  128.000
380.793;  -84.025;-1027.000;-1074.000
380.923;  -22.775; -103.000;  -34.000
381.053;  -96.625; -613.000; -623.000
381.183;  -38.500; -106.000; -248.000
381.313;   47.700; -656.000; -470.000
381.443;   58.925; -692.000; -473.000
381.573;  236.100; -402.000; -409.000
381.703;  350.150;-1249.000;-1095.000
381.833; -117.975;-1454.000;-1336.000
381.963;  118.325; -134.000;  -87.000
382.093; 1532.525; -925.000; -909.000
382.223;  480.575; -713.000; -602.000
382.353;   -2.375; -801.000; -608.000
382.482;  433.675;-1091.000; -964.000
382.612;  856.525; -872.000; -644.000
382.742;  465.625; -695.000; -622.000
382.872;  295.025; -565.000; -551.000
383.002;   72.100;  347.000; -132.000
383.131;  -18.075; -226.000; -160.000
383.261;  -47.125; -706.000; -768.000
383.391;  299.850; -552.000; -377.000
383.521; 3032.075;  451.000;  263.000
383.650;  698.850; -947.000; -904.000
383.780;  -19.975; -783.000; -656.000
383.910;  104.325;  880.000;  802.000
384.039;   41.825; -794.000; -656.000
384.169;  250.900;-1205.000;-1017.000
384.299;  -23.050; -650.000; -662.000
384.428;  -87.175; -764.000; -680.000
384.558;  -43.750; -308.000; -275.000
384.687;  -29.575; -414.000; -334.000
384.817;   19.625;   75.000;   -2.000
384.947;   30.800; -234.000; -141.000
385.076;  311.400;  982.000;  912.000
385.206;  108.675;  369.000;  480.000
385.335;  -23.000; -549.000; -417.000
385.465;  -73.475; -655.000; -663.000
385.594;  149.000;  -53.000;  -44.000
385.724;  493.975; -868.000; -838.000
385.853;  124.975; -296.000; -270.000
385.982; 1515.375; -743.000; -787.000
386.112; 2377.850;-1052.000; -871.000
386.241;  166.775; -307.000; -312.000
386.371;   22.400; -174.000;  -87.000
386.500;   11.300; -825.000; -789.000
386.629;   30.075; -874.000; -817.000
386.759;   65.175;  -43.000;   68.000
386.888;  -21.225; -170.000; -250.000
387.017;  -76.650; -648.000; -620.000
387.147;  -89.925; -771.000; -798.000
387.276;    1.525; -410.000; -397.000
387.405;    9.850; -398.000; -342.000
387.535;  -41.400; -452.000; -361.000
387.664;  -55.650; -692.000; -620.000
387.793;   63.175; -198.000; -113.000
387.922;  591.275;  255.000;  200.000
388.052;   37.125; -576.000; -423.000
388.181;   21.900; -342.000; -472.000
388.310;   22.500; -889.000; -710.000
388.439;  -40.125; -749.000; -742.000
388.568;  195.600;  365.000;  244.000
388.697; 1167.200; -756.000; -653.000
388.826;  234.750; -768.000; -666.000
388.956;   52.875; -285.000; -307.000
389.085;  -40.975; -347.000; -287.000
389.214; -115.175; -842.000; -872.000
389.343;  -45.825; -645.000; -413.000
389.472;  386.350;  126.000;  149.000
389.601;  519.100;   91.000;    0.000
389.730;    8.025; -568.000; -687.000
389.859;   73.950;  226.000;   46.000
389.988;  204.450; -423.000; -408.000
390.117;  174.375; -168.000; -146.000
390.246;   -3.950; -331.000; -320.000
390.375;  117.050; -673.000; -626.000
390.504;  -52.625; -703.000; -621.000
390.633; -103.800; -672.000; -726.000
390.761;  -61.725; -732.000; -645.000
390.890;    8.300;   -4.000; -130.000
391.019;  -19.725; -421.000; -441.000
391.148; -130.450; -826.000; -855.000
391.277;  -63.800; -576.000; -493.000
391.406;  -80.775; -821.000; -805.000
391.534;   19.700;  574.000; -301.000
391.663;  -56.800; -583.000; -645.000
391.792;  -91.625; -673.000; -701.000
391.921;  118.700;   -3.000;   15.000
392.050;  213.525; -287.000; -228.000
392.178;  -32.225;-1206.000;-1061.000
392.307;  163.575; -758.000; -712.000
392.436;   92.200; -427.000; -641.000
392.564;   14.750;  166.000;   -6.000
392.693;  -92.125; -860.000; -682.000
392.822;  242.300; -529.000; -534.000
392.950;  135.775; -880.000; -714.000
393.079;  363.900; -188.000; -328.000
393.208;   37.375; -488.000; -511.000
393.336;   -9.400; -170.000; -145.000
393.465;  -46.925; -317.000; -199.000
393.593;    7.375;   62.000;   79.000
393.722; -165.900;-1121.000; -916.000
393.850;  -31.625; -188.000;  -61.000
393.979; -153.000; -926.000; -805.000
394.107;  -70.850; -517.000; -537.000
394.236;  -21.425; -570.000; -507.000
394.364;  209.500;  383.000;  206.000
394.493;  340.375; -911.000; -767.000
394.621;  -11.400; -955.000; -916.000
394.750;  675.625; -873.000; -923.000
394.878; 2796.425; -247.000; -149.000
395.007; 3786.125; -721.000; -807.000
395.135;  292.275; -790.000; -721.000
395.263;  -97.400;-1038.000;-1040.000
395.392;   -1.575;  -25.000; -107.000
395.520; -144.525; -818.000; -679.000
395.648;  -87.250; -865.000; -915.000
395.777;   -4.550; -366.000; -405.000
395.905;  -53.975; -449.000; -564.000
396.033;   13.700;  217.000;  172.000
396.162;  558.325; -399.000; -453.000
396.290;  507.050;  -17.000;   -2.000
396.418;  115.150; -555.000; -514.000
396.546;  -61.125; -571.000; -466.000
396.674;  -83.600; -850.000; -878.000
396.803;   22.250;  -72.000;  -23.000
396.931;  105.550; -179.000; -199.000
397.059;   76.275;-1026.000; -989.000
397.187; -111.300;-1026.000; -975.000
397.315; -134.850; -884.000; -649.000
397.443;  -93.225; -592.000; -443.000
397.572;  -82.750; -578.000; -424.000
397.700;    2.350; -607.000; -614.000
397.828;   29.850;  120.000;  -90.000
397.956;  -51.700; -508.000; -478.000
398.084;  -79.800; -767.000; -626.000
398.212;   45.300;  137.000;  124.000
398.340;   11.975;  -56.000;  159.000
398.468;   45.500; -390.000; -169.000
398.596; -142.400; -993.000; -953.000
398.724; -124.900; -762.000; -767.000
398.852; -159.775;-1024.000; -976.000
398.980;  -67.825; -560.000; -560.000
399.108;  -47.850; -982.000; -735.000
399.236;   33.650;   13.000;    8.000
399.363;    9.425;  222.000;  196.000
399.491;  -71.550; -404.000; -398.000
399.619; -115.825; -829.000; -800.000
399.747;  -94.275; -859.000; -771.000
399.875;   73.900;  220.000;  234.000
400.003;  -41.400; -359.000; -284.000
400.130;  -91.475; -421.000; -341.000
400.258;  -38.850;  -83.000;   38.000
400.386;  -53.025; -352.000; -168.000
400.514;  -41.400; -526.000; -587.000
400.641;  -80.650; -928.000; -802.000
400.769; -139.750; -979.000; -888.000
400.897; -113.375; -838.000; -793.000
401.025;  -18.200; -166.000; -152.000
401.152;   -7.900;  220.000;   38.000
401.280;  -83.700; -430.000; -429.000
401.408; -117.175; -712.000; -576.000
401.535; -117.075; -735.000; -758.000
401.663; -186.850;-1134.000;-1054.000
401.790;  -91.425; -514.000; -525.000
401.918;   44.125;  436.000;  405.000
402.046;  -16.075;  134.000;  122.000
402.173;  -24.325;  -18.000;    7.000
402.301;  -71.050; -519.000; -397.000
402.428;   28.150;  528.000;  383.000
402.556; -139.800;-1188.000; -913.000
402.683;  -32.375;  -20.000;   -1.000
402.811;  -24.075;  -37.000; -206.000
402.938;  -22.075;   20.000;   27.000
403.066;  236.600; -574.000; -558.000
403.193;  378.100;  299.000;  239.000
403.321;  293.525; -396.000; -574.000
403.448;  367.625;   83.000;   27.000
403.575;  167.125;  -90.000;  -46.000
403.703;  -84.700; -732.000; -557.000
403.830;  -69.750; -531.000; -496.000
403.957; -133.425;-1117.000;-1023.000
404.085;   18.075;  -61.000; -172.000
404.212;  103.000;  -50.000;   63.000
404.339;  254.425; -566.000; -306.000
404.467; 5449.575; -612.000; -524.000
404.594; 3738.850; -287.000; -227.000
404.721;  933.775; -869.000; -764.000
404.848;   69.225; -113.000; -202.000
404.976; -112.975; -856.000; -783.000
405.103;  -14.675;  -14.000;  -82.000
405.230;    0.600;  190.000;  226.000
405.357;   41.975;  117.000;   44.000
405.484;  261.900;  -49.000;    5.000
405.612;   46.175; -548.000; -563.000
405.739;  -65.850; -488.000; -243.000
405.866;   87.375;  669.000;  385.000
405.993;  -37.600; -398.000; -102.000
406.120; -144.100; -801.000; -887.000
406.247;  -60.600; -323.000; -342.000
406.374;  474.675;  540.000;  629.000
406.501;  117.750; -632.000; -702.000
406.628;  -77.475; -621.000; -589.000
406.755;  -95.075; -803.000; -620.000
406.882;  -44.125; -228.000; -277.000
407.009; -115.125; -719.000; -628.000
407.136;   41.750; -480.000; -401.000
407.263;  173.175; -939.000; -829.000
407.390;  -82.950; -692.000; -614.000
407.517; -176.425;-1139.000;-1187.000
407.644;  -50.100; -332.000; -256.000
407.771;  -62.650; -249.000; -287.000
407.898;   -3.500;  168.000;  328.000
408.025;  -78.350; -421.000; -313.000
408.151;  -17.850;   82.000;  153.000
408.278;  -64.450; -267.000; -216.000
408.405; -120.075; -931.000; -899.000
408.532;  -78.600; -549.000; -542.000
408.659; -126.075; -677.000; -648.000
408.785; -199.050;-1298.000;-1170.000
408.912;  -69.050; -412.000; -296.000
409.039; -118.300; -610.000; -686.000
409.166; -121.375; -591.000; -555.000
409.292; -114.275; -571.000; -534.000
409.419; -126.875; -665.000; -649.000
409.546;  -88.625; -431.000; -192.000
409.672; -112.325; -713.000; -545.000
409.799;  -24.125;  -36.000;   34.000
409.926;  -43.975; -180.000; -179.000
410.052; -190.975;-1127.000;-1091.000
410.179;  -58.025; -368.000; -392.000
410.305;  -92.700; -375.000; -493.000
410.432;  -48.725; -220.000; -333.000
410.558;  -83.275; -305.000; -380.000
410.685; -105.325; -688.000; -431.000
410.812; -122.525; -409.000; -588.000
410.938; -136.100; -964.000; -808.000
411.065;  -97.475; -671.000; -645.000
411.191;  -17.225; -189.000; -174.000
411.317; -112.425; -823.000; -742.000
411.444;  -75.325; -317.000; -246.000
411.570;  -77.050; -339.000; -294.000
411.697; -127.650; -758.000; -752.000
411.823; -169.200; -989.000; -999.000
411.949;  -21.125;  -56.000;   17.000
412.076; -112.500; -539.000; -519.000
412.202; -121.525; -758.000; -757.000
412.329; -123.225; -798.000; -752.000
412.455; -119.300; -821.000; -657.000
412.581;  -20.525;  -15.000;  172.000
412.707;  -64.300; -540.000; -457.000
412.834;    6.875;  156.000;  219.000
412.960;  -74.800; -785.000; -784.000
413.086;  -95.150; -743.000; -701.000
413.212;  157.550;  604.000;  578.000
413.339;  -45.475; -685.000; -701.000
413.465;    6.175; -364.000; -310.000
413.591;  -89.175; -757.000; -474.000
413.717;  -54.525; -358.000; -366.000
413.843; -140.225; -839.000; -861.000
413.969;  -51.350;  -47.000; -292.000
414.096;  -98.350; -679.000; -679.000
414.222;   -2.550;  -33.000;   85.000
414.348;  -28.200; -652.000; -385.000
414.474;  105.775;   38.000;  -52.000
414.600;  -21.850; -126.000; -144.000
414.726;  -34.725;  -96.000;  -55.000
414.852;  -70.025; -365.000; -342.000
414.978;   23.975;  104.000;  -18.000
415.104;   38.025;   38.000;   80.000
415.230;   14.750; -329.000; -330.000
415.356;   39.925; -409.000; -514.000
415.482;  209.325;   13.000;  -35.000
415.608;  272.200; -247.000; -323.000
415.734;  935.825;   67.000;   38.000
415.860;19312.375; -875.000; -767.000
415.986;14178.625; -685.000; -607.000
416.111; 1226.800; -798.000; -652.000
416.237;  237.725; -424.000; -571.000
416.363; 1043.050; -765.000; -733.000
416.489; 4026.750; -324.000; -251.000
416.615;  441.375; -707.000; -742.000
416.741;  -27.425; -677.000; -784.000
416.866;  -96.150; -673.000; -736.000
416.992; -130.075; -801.000; -818.000
417.118;  -15.825;  -41.000;  -80.000
417.244;  -70.425; -798.000; -531.000
417.369;  -80.725; -801.000; -612.000
417.495;   -4.475; -325.000; -254.000
417.621;  -74.325;-1015.000; -803.000
417.746;   -1.975; -579.000; -572.000
417.872;   45.925; -254.000; -144.000
417.998;   41.875; -515.000; -530.000
418.123;  995.225;-1073.000; -845.000
418.249; 5188.500; -512.000; -601.000
418.374;  724.075; -916.000; -824.000
418.500;  105.100; -383.000; -482.000
418.626;  104.175;   70.000;  -59.000
418.751;  117.725; -549.000; -448.000
418.877;  190.250; -637.000; -643.000
419.002; 1700.150; -688.000; -560.000
419.128;11979.600; -930.000; -721.000
419.253; 2955.100; -967.000; -837.000
419.379;  395.875; -391.000; -338.000
419.504;  374.575;  325.000;  415.000
419.629;  498.625; -393.000; -212.000
419.755; 3307.100; -317.000; -254.000
419.880;19939.775;  -98.000;   67.000
420.006;10936.975; -280.000; -221.000
420.131;28320.575; -662.000; -775.000
420.256; 4170.300; -315.000; -316.000
420.382;  527.925; -665.000; -687.000
420.507;   52.900; -649.000; -778.000
420.632;  150.275; -337.000; -339.000
420.758;  285.800; -251.000; -425.000
420.883;  -79.475; -876.000; -672.000
421.008;  -97.275; -775.000; -619.000
421.133;  -81.875; -509.000; -467.000
421.259;  -51.275; -325.000; -259.000
421.384; -110.600; -834.000; -693.000
421.509;  -33.200;-1052.000; -862.000
421.634; 1325.525; -936.000; -820.000
421.759;  584.625; -359.000; -327.000
421.885;  -30.400; -717.000; -656.000
422.010;  -88.400; -673.000; -542.000
422.135; -144.100; -695.000; -727.000
422.260;   24.125;  340.000;  280.000
422.385;  -45.600;   12.000;  -98.000
422.510;   -3.425;  151.000;  -26.000
422.635;   26.925;  -87.000;  -43.000
422.760;  105.100; -766.000; -791.000
422.885;   51.500;  -57.000;  -80.000
423.010;  -47.725; -112.000; -169.000
423.135; -105.825; -481.000; -561.000
423.260;  -14.875; -150.000; -245.000
423.385;   78.200;  476.000;  222.000
423.510;   33.275;   71.000;  -22.000
423.635;   95.900;  133.000;   45.000
423.760;   50.250;  383.000;  328.000
423.885;   40.950;  336.000;  391.000
424.010;    9.600;  -68.000;  -13.000
424.135;  -22.250;    5.000;  -33.000
424.259;  -92.075; -654.000; -457.000
424.384;  -54.525; -279.000; -272.000
424.509;  -22.175; -260.000; -186.000
424.634; -105.925; -761.000; -623.000
424.759;  -26.725; -688.000; -544.000
424.883;  -22.350; -506.000; -527.000
425.008;  153.675; -502.000; -410.000
425.133; 1885.375; -679.000; -653.000
425.258;  892.125; -517.000; -381.000
425.382; 1089.575; -867.000; -774.000
425.507; 2866.200; -487.000; -543.000
425.632;  443.800; -802.000; -663.000
425.756;  442.900; -256.000; -146.000
425.881; 6037.400; -831.000; -857.000
426.006;16549.175; -604.000; -355.000
426.130; 2654.400; -696.000; -508.000
426.255;  340.450; -611.000; -491.000
426.379;  146.150; -189.000; -577.000
426.504;  363.800;  660.000;  544.000
426.629; 3893.200; -519.000; -466.000
426.753; 2720.200;   64.000;  -46.000
426.878;  310.275; -252.000; -288.000
427.002;  144.975; -651.000; -668.000
427.127; 1516.800;  -35.000; -158.000
427.251;10882.125;  372.000;  401.000
427.375; 3147.325; -191.000; -173.000
427.500; 2462.700; -616.000; -610.000
427.624;  861.550; -234.000; -400.000
427.749;  104.800; -216.000; -225.000
427.873;  -40.575; -499.000; -412.000
427.997;  -44.225; -222.000; -230.000
428.122;   78.275;  795.000;  703.000
428.246;   65.625;  433.000;  434.000
428.371; -126.500; -869.000; -773.000
428.495; -106.675; -624.000; -646.000
428.619;  -34.475; -186.000; -117.000
428.743;   25.075;   65.000;  132.000
428.868;   19.475; -732.000; -643.000
428.992; 1529.500; -219.000; -326.000
429.116;  636.600; -329.000; -357.000
429.240;  298.650;  419.000;  426.000
429.365;  -25.575; -454.000; -574.000
429.489;  -37.450; -638.000; -647.000
429.613;    7.250; -236.000; -177.000
429.737;   30.225; -563.000; -432.000
429.861;  260.925; -247.000; -133.000
429.985; 5262.200; -425.000; -305.000
430.109; 5920.875; -770.000; -908.000
430.234;  707.050;   76.000;  -50.000
430.358;   47.800; -250.000; -160.000
430.482;  -82.175; -672.000; -564.000
430.606;  -56.950; -655.000; -375.000
430.730;   18.625; -437.000; -388.000
430.854;  145.650; -909.000; -835.000
430.978;  -72.000; -795.000; -764.000
431.102;  -85.350; -499.000; -422.000
431.226; -126.750; -874.000; -815.000
431.350;   33.275;  345.000;  422.000
431.474;  -77.525; -661.000; -373.000
431.597; -149.475;-1060.000; -848.000
431.721;  -78.975; -276.000; -267.000
431.845; -131.300; -704.000; -472.000
431.969;  -92.375; -304.000; -349.000
432.093;  -83.850; -395.000; -317.000
432.217;  -10.400;   32.000;   82.000
432.341;  -92.625; -523.000; -518.000
432.464;   -0.350;   96.000;   40.000
432.588;  215.750; -401.000; -329.000
432.712;  112.600;  -52.000;  -52.000
432.836;   38.275;  213.000;  263.000
432.959;  -23.125; -372.000; -311.000
433.083;   74.875;   11.000;    2.000
433.207;  348.750;  285.000;  930.000
433.330; 4788.775; -391.000; -200.000
433.454; 6005.525; -654.000; -638.000
433.578; 3433.400;  583.000;  278.000
433.701;  653.950; -623.000; -675.000
433.825;  160.350; -292.000; -299.000
433.949;  210.500;   28.000;  -72.000
434.072;   75.250; -410.000; -323.000
434.196;  -12.325; -309.000; -117.000
434.319; 3711.400;25482.000;25124.000
434.443;  717.300; -656.000; -603.000
434.566; 2549.350;  281.000;   62.000
434.690;  444.550; -637.000; -383.000
434.813;   54.100; -251.000; -173.000
434.937;  -82.100; -569.000; -696.000
435.060;  -30.125; -423.000; -332.000
435.184;  368.100; -492.000; -217.000
435.307;  201.475;  159.000;  102.000
435.431;  -16.775;  -40.000;   24.000
435.554;  -83.100; -399.000; -240.000
435.677;  -97.625; -350.000; -258.000
435.801;  -44.650;  -25.000;   49.000
435.924;  -12.025;    1.000;  -67.000
436.048; -118.675;-1019.000; -732.000
436.171;  -65.900; -240.000;  -66.000
436.294;  -29.725; -248.000; -229.000
436.417;   86.725; -963.000; -849.000
436.541;  -91.650; -814.000; -840.000
436.664;  -70.700; -242.000; -316.000
436.787;  -18.875;   13.000;  113.000
436.910; -104.325; -792.000; -422.000
437.034;    3.625;  142.000;  143.000
437.157;   41.250;  -11.000;    0.000
437.280;  -57.700; -392.000; -292.000
437.403;  -89.000; -982.000; -869.000
437.526;  711.475; -903.000; -865.000
437.649; 2653.100; -505.000; -332.000
437.772;  412.000; -692.000; -540.000
437.896;  120.250;  700.000;  544.000
438.019;  -90.450; -758.000; -503.000
438.142;  -88.750; -596.000; -506.000
438.265;  -19.175; -639.000; -670.000
438.388;  629.150; -520.000; -410.000
438.511;  141.150; -597.000; -394.000
438.634;  -48.625; -247.000; -125.000
438.757; -127.475; -693.000; -619.000
438.880;  -34.400;  -34.000;  -57.000
439.003;  -85.725; -417.000; -437.000
439.126;  -73.700; -287.000; -167.000
439.248;  -70.575;  -98.000; -139.000
439.371;  -47.825;    9.000;  -53.000
439.494;   21.325;  510.000;  439.000
439.617;  -56.875;   65.000;  -88.000
439.740; -176.200; -968.000; -816.000
439.863; -149.275; -755.000; -595.000
439.986; -130.800; -476.000; -431.000
440.108;  -50.425; -161.000; -112.000
440.231; -160.150; -950.000; -836.000
440.354;  -44.450;  -64.000; -150.000
440.477;   46.925; -566.000; -542.000
440.599;   20.475; -200.000; -225.000
440.722; -126.975; -709.000; -586.000
440.845;   68.800;  751.000;  928.000
440.968; -102.600; -415.000; -311.000
441.090;  -83.000; -199.000;  -33.000
441.213; -175.825;-1021.000; -825.000
441.336;  -47.650; -159.000;   -5.000
441.458;  -79.350; -549.000; -396.000
441.581;  -80.800; -628.000; -629.000
441.703;  -74.075; -152.000;   13.000
441.826; -119.425; -557.000; -400.000
441.948;  -49.800;   56.000;   51.000
442.071;   22.600;  555.000;  424.000
442.193; -133.600; -531.000; -485.000
442.316;   19.400;  152.000;   97.000
442.438;   40.900; -233.000;  -10.000
442.561;   60.400;  272.000;  262.000
442.683;  624.800; -809.000; -522.000
442.806; 1342.675;   -8.000;   74.000
442.928;   53.550; -859.000; -604.000
443.051;  -68.850; -577.000; -373.000
443.173;  -85.775; -341.000; -339.000
443.295; -104.075; -263.000; -371.000
443.418;  -81.050; -321.000;  -29.000
443.540;  -11.775; -106.000;   -4.000
443.662; -127.100; -563.000; -465.000
443.785;   -6.675;  335.000;  199.000
443.907;  -92.100; -362.000; -208.000
444.029; -143.350; -767.000; -494.000
444.152; -143.675; -644.000; -554.000
444.274;  -42.375;  -18.000;  -24.000
444.396; -120.300; -461.000; -221.000
444.518; -127.725; -691.000; -454.000
444.640; -114.175; -268.000; -111.000
444.763;  -18.275;  388.000;  249.000
444.885; -113.600; -432.000; -392.000
445.007;  -44.400;   35.000;   86.000
445.129; -136.775; -610.000; -515.000
445.251;  -98.950; -372.000; -439.000
445.373; -128.425; -537.000; -386.000
445.495;    1.725;  242.000;  350.000
445.617;   50.175;  853.000;  753.000
445.739;  -74.050; -215.000;  -97.000
445.861;  -39.125; -245.000; -112.000
445.984;  -36.275; -267.000; -101.000
446.105;  207.475; -418.000; -251.000
446.227;  688.800; -176.000;  -19.000
446.349;   21.600; -358.000; -249.000
446.471; -102.675; -615.000; -448.000
446.593;  -73.100; -316.000;   19.000
446.715;   -8.400;  -67.000;   41.000
446.837;   53.175;  697.000;  832.000
446.959; -111.475; -457.000; -478.000
447.081; -144.675; -628.000; -518.000
447.203;   48.950;  862.000;  834.000
447.325;  -79.575; -270.000;   42.000
447.446;   -9.175;  286.000;  530.000
447.568; -155.750; -921.000; -803.000
447.690;  -74.225; -236.000; -245.000
447.812; -155.125; -798.000; -519.000
447.933;  -39.700;  155.000;  127.000
448.055;  -77.600; -306.000; -261.000
448.177;  157.250;   31.000;   79.000
448.299;  119.450; -935.000; -727.000
448.420;   22.225;  -25.000;  159.000
448.542;  -52.425;   -3.000;   33.000
448.664;  -13.100;  109.000;  322.000
448.785;  -46.000;  265.000;   83.000
448.907;  -83.475; -614.000; -353.000
449.028;  -23.750; -771.000; -471.000
449.150;   65.450;  492.000;  589.000
449.272; -180.525;-1044.000; -913.000
449.393;   12.550;  612.000;  694.000
449.515; -143.675; -634.000; -581.000
449.636;  -64.825; -264.000; -155.000
449.758;   56.200;  763.000;  622.000
449.879;  -94.475; -498.000; -396.000
450.001;  -85.575; -149.000;  -49.000
450.122;  -43.400;  -95.000;  162.000
450.244;  -22.925;   37.000;  364.000
450.365;  -93.050; -495.000; -301.000
450.486;  -34.625;   80.000;  268.000
450.608;    7.650;  393.000;  326.000
450.729;   46.350;  578.000;  645.000
450.850;   -6.125; -574.000; -466.000
450.972;  693.225; -552.000; -389.000
451.093; 4631.725;  190.000;  588.000
451.214; 2015.450; -516.000; -337.000
451.336;  326.500;  773.000;  579.000
451.457;   58.650;  264.000;  393.000
451.578;  -39.050; -118.000;  -74.000
451.699; -124.225; -546.000; -540.000
451.821;  -76.300; -284.000;  -50.000
451.942;   -2.225;  278.000;  285.000
452.063;   28.500;  228.000;  419.000
452.184;  512.450;  -54.000;  -49.000
452.305; 1049.150;  103.000;  170.000
452.427;  110.875; -549.000; -301.000
452.548;  -17.750;   23.000;   79.000
452.669;  -62.625; -257.000;  -89.000
452.790;  -43.750;    3.000;  -18.000
452.911;   -2.575;  195.000;  259.000
453.032;  -77.175; -289.000;  -60.000
453.153;  -44.550;  -29.000;   81.000
453.274;   54.025;  737.000;  868.000
453.395;  -51.025;  -51.000;  175.000
453.516;   18.300; 1317.000; 1388.000
453.637;  -52.250; -205.000; -150.000
453.758;  -62.475;   15.000;   69.000
453.879; -127.550; -462.000; -250.000
454.000;   68.475; 1086.000;  948.000
454.121; -118.250; -554.000; -326.000
454.242; -117.250; -599.000; -383.000
454.362;  -75.600;  -99.000;  114.000
454.483;  -32.650; -309.000; -229.000
454.604;   52.250;  512.000;  580.000
454.725; -135.625; -627.000; -555.000
454.846; -125.125; -474.000; -406.000
454.967;  -23.275;  230.000;  539.000
455.087;  -48.850;  179.000;  153.000
455.208;   11.600;  554.000;  856.000
455.329;  -62.050;  -22.000;   82.000
455.450;   18.625;  473.000;  633.000
455.570;  -87.650; -234.000; -211.000
455.691;  -37.150;  201.000;  407.000
455.812; -111.625; -270.000;  -92.000
455.932;  -68.050;  107.000;  -97.000
456.053;  -89.325;   36.000;   24.000
456.173; -118.500; -433.000; -355.000
456.294; -141.550; -476.000; -303.000
456.415;  -74.850;  -73.000;   70.000
456.535;  -43.175;  297.000;  273.000
456.656;  -46.475;  132.000;  240.000
456.776;  -66.150;    3.000;  298.000
456.897;  -18.050;  308.000;  513.000
457.017;  -77.000; -153.000;   -3.000
457.138; -101.600; -402.000; -249.000
457.258;  -26.275;  263.000;  224.000
457.379;  -26.825;  509.000;  521.000
457.499;  -29.950;  443.000;  432.000
457.620; -120.175; -407.000; -231.000
457.740; -102.050; -132.000;  -11.000
457.860;  -65.175;   87.000;   44.000
457.981;  -44.700;  132.000;  124.000
458.101;  -65.825;  -89.000;   40.000
458.221;  -14.025;  336.000;  402.000
458.342;  -62.550;   -4.000;  -37.000
458.462;   12.175;  617.000;  352.000
458.582;  -46.850; -302.000; -294.000
458.703;    1.900;  303.000;  154.000
458.823;  -29.675;   22.000;  163.000
458.943;   24.825;  341.000;  467.000
459.063;  -14.975; 1124.000;  192.000
459.183;  -29.300;  328.000;  313.000
459.304;    4.575;  315.000;  517.000
459.424;  -67.225; -246.000;  -89.000
459.544;  305.075;  388.000;  764.000
459.664;  791.500;  499.000;  506.000
459.784;  298.150; 1004.000; 1175.000
459.904;   51.500;  867.000;  744.000
460.024;   61.525;  867.000;  684.000
460.144;   23.675;  449.000;  554.000
460.264;   -1.850;  515.000;  327.000
460.385;  -98.100; -145.000; -119.000
460.505;   42.425;  905.000;  858.000
460.625;  -99.250;  -17.000;  -68.000
460.745;  -23.725;  396.000;  541.000
460.864;  -53.325;  153.000;  469.000
460.984;    5.800;  499.000;  573.000
461.104;  149.875; 1656.000; 1775.000
461.224;   20.675;  657.000;  650.000
461.344;  -38.925;  431.000;  360.000
461.464;  -25.250;  258.000;  513.000
461.584;   -6.050;  283.000;  466.000
461.704;  -58.575;   58.000;  108.000
461.824;  -64.750;  238.000;  259.000
461.943;  -45.650;  191.000;  130.000
462.063;  -80.175;    2.000;  324.000
462.183;   24.825;  639.000;  717.000
462.303;  109.400; 1678.000; 1230.000
462.422;   27.375;  781.000;  840.000
462.542;  -43.500;  271.000;  391.000
462.662;   35.025;  353.000;  380.000
462.782;  235.750;  833.000;  572.000
462.901;  460.200;  545.000;  717.000
463.021;  273.550; 1702.000; 1638.000
463.141;  -12.150;  337.000;  770.000
463.260;  -24.375;  614.000;  474.000
463.380;   18.125;  902.000;  884.000
463.499;  -40.025;  342.000;  332.000
463.619;  -33.400;  581.000;  559.000
463.738;  114.675; 1644.000;  903.000
463.858;   19.950;  657.000;  811.000
463.978;  -37.600;  542.000;  396.000
464.097;   43.225;  921.000; 1114.000
464.217;  104.900; 1196.000; 1143.000
464.336;   95.450; 1068.000; 1130.000
464.455;  -40.225;  328.000;  659.000
464.575;   39.900;  597.000;  602.000
464.694;  161.775; 1204.000; 1179.000
464.814;  136.375; 1190.000; 1138.000
464.933;   74.775; 1095.000; 1027.000
465.052;   93.250; 1412.000; 1054.000
465.172;   79.850;  922.000;  799.000
465.291;  132.775; 1376.000; 1320.000
465.410;   16.050;  462.000;  735.000
465.530;   82.900; 1355.000; 1310.000
465.649;   60.500; 1209.000; 1273.000
465.768;  153.450; 1673.000; 1508.000
465.888;   54.600;  941.000; 1174.000
466.007;  107.725; 1335.000; 1440.000
466.126;   -4.600;  721.000;  641.000
466.245;   45.875; 1176.000; 1187.000
466.364;   16.875;  950.000; 1060.000
466.484;   48.475; 1024.000; 1213.000
466.603;   44.725; 1101.000; 1222.000
466.722;  129.050; 1490.000; 1769.000
466.841;   71.425; 1151.000; 1401.000
466.960;   52.550; 1069.000;  972.000
467.079;  129.975; 1971.000; 1786.000
467.198;   54.750; 1238.000; 1181.000
467.317;   76.250; 1768.000; 1162.000
467.436;   62.150; 1709.000; 1261.000
467.555;  136.700; 1796.000; 1746.000
467.674;   52.575; 1227.000; 1329.000
467.793;   38.000; 1376.000; 1374.000
467.912;   87.450; 1658.000; 1539.000
468.031;  134.125; 2038.000; 1930.000
468.150;  136.350; 1842.000; 1837.000
468.269;  187.100; 2313.000; 2090.000
468.388;  183.300; 2168.000; 2339.000
468.507;  241.425; 2884.000; 2903.000
468.626;  222.925; 2555.000; 2541.000
468.744;  136.425; 2018.000; 2174.000
468.863;  209.275; 2312.000; 2523.000
468.982;   93.025; 1503.000; 1555.000
469.101;  226.075; 2788.000; 2692.000
469.220;  136.625; 2333.000; 2176.000
469.338;  247.675; 2935.000; 3051.000
469.457;  189.175; 2719.000; 2545.000
469.576;  332.125; 3953.000; 3784.000
469.695;  244.800; 2877.000; 3066.000
469.813;  432.375; 4148.000; 4192.000
469.932;  404.625; 4255.000; 4485.000
470.051;  408.625; 4075.000; 4161.000
470.169;  820.025; 4470.000; 4338.000
470.288; 1430.275; 4700.000; 4809.000
470.406;  840.875; 5059.000; 5194.000
470.525;  626.500; 6101.000; 5787.000
470.644;  650.125; 6847.000; 6794.000
470.762;  798.300; 8397.000; 7873.000
470.881;  888.725; 8651.000; 8464.000
470.999; 1033.325; 9685.000; 9151.000
471.118; 1116.650;11174.000;10711.000

