
Integration time [ms]: 100.000
Averaging Nr. [scans]: 40
Smoothing Nr. [pixels]: 0
Data measured with spectrometer [name]: 2101012U2
Wave   ;Sample   ;Dark     ;Reference
[nm]   ;[counts] ;[counts] ;[counts] 

197.733;   57.925;  516.000;  404.000
197.879;  -62.700; -610.000; -634.000
198.025;  -48.150; -475.000; -420.000
198.171;  -52.175; -602.000; -612.000
198.317;  -20.450; -401.000; -316.000
198.463;  -42.400; -655.000; -404.000
198.609;   16.925;  181.000; -137.000
198.755;  -73.500; -644.000; -410.000
198.901;  -63.700; -505.000; -424.000
199.047;  -57.400; -615.000; -488.000
199.193;  -42.300; -230.000; -468.000
199.339;  -30.675; -222.000; -369.000
199.485;   46.650;  330.000;  271.000
199.631;   14.625;  227.000;  310.000
199.777;  -54.775; -466.000; -398.000
199.923;  -58.550; -610.000; -424.000
200.069;   -1.725; -141.000;  -58.000
200.215;   61.125;  128.000;  453.000
200.361;   44.300;  243.000;  477.000
200.507;  -59.950; -600.000; -373.000
200.653;  -23.450; -371.000; -194.000
200.798;  -27.600; -215.000; -125.000
200.944;  -14.500; -146.000;  -41.000
201.090;   22.000;   61.000;  222.000
201.236;    4.950; -116.000; -158.000
201.382;  113.050;  874.000;  903.000
201.528;    5.775;  -58.000;  -48.000
201.674;  -45.400; -386.000; -293.000
201.819;  -57.475; -540.000; -439.000
201.965;  -76.250; -699.000; -447.000
202.111;  -14.975; -273.000; -226.000
202.257;  -33.925; -250.000; -238.000
202.402;    1.025;   13.000;  -36.000
202.548;  -23.325; -169.000; -116.000
202.694;   81.975;  410.000; -183.000
202.840;  -70.275; -603.000; -531.000
202.985;  -55.375; -681.000; -639.000
203.131;  -92.200; -832.000; -666.000
203.277;  -33.075; -199.000; -262.000
203.423;  -44.600; -434.000; -520.000
203.568;  -18.425; -462.000; -237.000
203.714;  -56.225; -535.000; -542.000
203.860;  -67.000; -682.000; -641.000
204.005;   13.200;  112.000;  167.000
204.151;   64.175;  561.000;  556.000
204.296;  -32.850; -354.000; -221.000
204.442;  -65.975; -600.000; -547.000
204.588;  -65.500; -592.000; -579.000
204.733;   12.650;  178.000;  168.000
204.879; -124.850;-1018.000; -822.000
205.025;   14.450;  -99.000;  126.000
205.170;   18.575;  -17.000;   94.000
205.316;   77.400;  438.000;  661.000
205.461;  -66.400; -698.000; -554.000
205.607;   71.400;  609.000;  665.000
205.752;  -75.600; -626.000; -551.000
205.898;  -47.425; -501.000; -391.000
206.043;  -54.750; -578.000; -506.000
206.189;  -30.275; -243.000; -285.000
206.334;   78.825;  554.000;  606.000
206.480;   64.325;  409.000;  239.000
206.625;  -81.825; -529.000; -552.000
206.771;  -41.900; -451.000; -373.000
206.916;  -27.100; -210.000; -537.000
207.062;  -55.525; -545.000; -591.000
207.207;  -45.775; -546.000; -443.000
207.353;   59.725;  185.000;  460.000
207.498;   16.950;  196.000;   85.000
207.643;  -46.350; -501.000; -370.000
207.789; -118.325;-1069.000; -910.000
207.934;  -85.575; -665.000; -713.000
208.080;  -14.775; -154.000;   66.000
208.225;   -8.675;  -22.000;  -57.000
208.370;  -72.975; -727.000; -619.000
208.516;  -74.225; -741.000; -487.000
208.661;  -15.750; -127.000;  -69.000
208.806;  -25.300; -165.000; -171.000
208.952; -108.650;-1044.000; -731.000
209.097;   45.650;  378.000;  349.000
209.242;  -31.500; -307.000; -382.000
209.387;   64.600;  392.000;  350.000
209.533;  -32.800; -321.000; -350.000
209.678;   69.250;  472.000;  543.000
209.823;  -32.200; -408.000; -310.000
209.969;  -83.250; -860.000; -757.000
210.114;  -97.775; -907.000; -719.000
210.259; -106.025; -939.000; -889.000
210.404;   -3.375; -171.000;  103.000
210.549;   21.850;  108.000;    3.000
210.695;   -6.575;   -3.000;  -95.000
210.840;   35.900;   94.000;   67.000
210.985;  -57.400; -484.000; -303.000
211.130;   63.600;  268.000;  406.000
211.275;   19.675;  207.000;  199.000
211.420;  -48.375; -300.000; -289.000
211.566;  -55.350; -536.000; -489.000
211.711;   25.225;  218.000;  157.000
211.856;  -48.175; -545.000; -519.000
212.001;   12.900;  151.000;   44.000
212.146;   23.275;  153.000;   49.000
212.291;  -23.525; -210.000; -186.000
212.436;  -23.300; -280.000;   -6.000
212.581;  -69.625; -685.000; -653.000
212.726;  -55.300; -487.000; -538.000
212.871;  -45.425; -552.000; -217.000
213.016; -135.250;-1172.000;-1029.000
213.161;   63.875;  406.000;  291.000
213.306;  -69.425; -435.000; -577.000
213.451;  -80.300; -778.000; -689.000
213.596;  -38.075; -455.000; -347.000
213.741;  -52.150; -448.000; -538.000
213.886;  -71.450; -498.000; -517.000
214.031;   -8.400; -294.000; -124.000
214.176;  -39.100; -408.000; -341.000
214.321;  -14.700; -296.000; -157.000
214.466;  -33.025; -163.000;  -43.000
214.611;  -11.650;  -61.000;  -10.000
214.756; -116.300; -948.000; -858.000
214.901;  -19.975; -388.000; -226.000
215.046; -108.650; -797.000; -825.000
215.191;    7.675;  128.000;   35.000
215.336;   -8.400; -157.000;  -19.000
215.480;  -63.025; -684.000; -505.000
215.625;   -9.950; -175.000;  -19.000
215.770;  -65.275; -757.000; -662.000
215.915;   -3.275;   -5.000;  -97.000
216.060;    0.900; -113.000;  -21.000
216.205;  -83.375; -731.000; -779.000
216.349;  -60.400; -470.000; -533.000
216.494; -121.550; -939.000; -867.000
216.639;  -94.375; -823.000; -888.000
216.784;  -83.650; -577.000; -525.000
216.929;   48.550;  392.000;  281.000
217.073;  -11.550; -244.000;  -31.000
217.218;   -5.800;   78.000;  -47.000
217.363;  -81.800; -656.000; -618.000
217.507;  -69.275; -623.000; -588.000
217.652; -118.325; -845.000; -874.000
217.797;  -86.025; -708.000; -659.000
217.942;  -99.300; -856.000; -720.000
218.086;   68.725;  608.000;  539.000
218.231;  -12.100; -174.000;  -26.000
218.376;  -28.850; -337.000; -229.000
218.520;    7.175;  -41.000;   96.000
218.665;  -21.600; -338.000; -204.000
218.810;  -48.925; -275.000; -233.000
218.954;   21.850;  201.000;   35.000
219.099;  -92.750; -713.000; -963.000
219.243;  -47.925; -589.000; -554.000
219.388;  -26.700; -264.000; -136.000
219.532;   -5.750; -116.000; -116.000
219.677;  -58.250; -564.000; -521.000
219.822;   13.725;   33.000;   89.000
219.966;   12.800;   17.000;  -99.000
220.111;  -39.725; -328.000;  -40.000
220.255;  -99.975; -797.000; -750.000
220.400;  -16.675; -180.000; -146.000
220.544;  -65.700; -516.000; -450.000
220.689;  -51.550; -422.000; -451.000
220.833;   -4.525; -123.000;  -58.000
220.978;  -38.950; -393.000; -563.000
221.122;   18.825;  319.000;  307.000
221.267; -114.625; -906.000; -837.000
221.411;  -51.025; -478.000; -394.000
221.555;   -0.925; -104.000;  -23.000
221.700;  -36.800; -329.000; -222.000
221.844;   32.725;  255.000;  272.000
221.989;  -32.675; -328.000; -311.000
222.133;  -14.300; -289.000; -307.000
222.277;   -6.000;    5.000;   78.000
222.422;   15.875;  227.000;  113.000
222.566;  -31.750; -381.000; -214.000
222.711;  -48.375; -414.000; -479.000
222.855;  -66.275; -643.000; -586.000
222.999;  -87.300; -642.000; -717.000
223.144;  -19.750; -195.000; -194.000
223.288;   41.100;  423.000;  251.000
223.432;   30.700;  184.000;  230.000
223.576;    9.400;  152.000;  -21.000
223.721;   40.375;  364.000;  273.000
223.865;  -50.800; -472.000; -475.000
224.009;  234.350; 1673.000; 1631.000
224.153;  -72.925; -660.000; -671.000
224.298;  -58.575; -531.000; -489.000
224.442;  -18.925;  -74.000;  -33.000
224.586;  -10.875; -169.000; -106.000
224.730;  -96.525; -858.000; -670.000
224.875;  -93.325; -739.000; -688.000
225.019;   13.475;  102.000;  188.000
225.163;   37.500;  208.000;  341.000
225.307;   25.325;   97.000;  -91.000
225.451;   41.575;  360.000;  481.000
225.595;   25.175;  264.000;  176.000
225.739;  -18.150; -170.000;  -94.000
225.884;    9.850;   86.000;    5.000
226.028;  -85.450; -760.000; -626.000
226.172;  -28.225; -260.000; -273.000
226.316; -103.325; -941.000; -902.000
226.460;  -43.850; -645.000; -493.000
226.604;  -40.750; -406.000; -400.000
226.748; -100.375; -836.000; -733.000
226.892;  -25.725; -227.000; -181.000
227.036;  -37.175; -537.000; -447.000
227.180;  -46.650; -551.000; -375.000
227.324;  -59.975; -561.000; -580.000
227.468;  -93.075; -819.000; -717.000
227.612;   18.600;  242.000;  -28.000
227.756; -101.550; -845.000; -698.000
227.900;   41.875;  342.000;  441.000
228.044;  -57.000; -509.000; -290.000
228.188;   50.975;  448.000;  568.000
228.332;  -73.575; -546.000; -472.000
228.476;  -36.175; -223.000; -149.000
228.620;  -33.150; -210.000; -150.000
228.764;   52.750;  431.000;  349.000
228.908;   -6.275; -155.000;   30.000
229.052;  -46.300; -615.000; -528.000
229.195;  -11.875; -172.000;   13.000
229.339;  -25.700; -235.000; -305.000
229.483;  -20.625;    5.000; -162.000
229.627;   -2.475; -156.000;  139.000
229.771;  -43.925; -218.000; -294.000
229.915;    7.925;  230.000;   79.000
230.059;  -79.725; -648.000; -663.000
230.202;  -32.600; -370.000; -317.000
230.346;   -2.775; -107.000;  107.000
230.490;  -57.025; -489.000; -521.000
230.634;  -95.450; -736.000; -553.000
230.777;   66.525;  478.000;  509.000
230.921;  -45.775; -450.000; -359.000
231.065;  -44.975; -246.000; -286.000
231.209;   33.100;  261.000;  265.000
231.352;   24.750;   54.000;   40.000
231.496;   25.550;  568.000;  188.000
231.640;  -83.350; -693.000; -621.000
231.783;   63.675;  546.000;  525.000
231.927;  -40.600; -294.000; -365.000
232.071; -107.750; -962.000; -736.000
232.214;  -94.725; -980.000; -764.000
232.358;  -90.925; -683.000; -599.000
232.502;   -0.500;  -19.000;    7.000
232.645; -118.575;-1090.000; -927.000
232.789;  -11.125; -257.000; -218.000
232.933;  -49.025; -407.000; -224.000
233.076; -114.475;-1038.000; -897.000
233.220; -106.000; -752.000; -777.000
233.363;  -56.100; -669.000; -477.000
233.507;   54.550;  371.000;  129.000
233.650;  -92.975; -764.000; -834.000
233.794;   45.300;  438.000;  461.000
233.938;  -54.175; -530.000; -362.000
234.081;  -14.500;  -93.000;   31.000
234.225;  -66.300; -631.000; -539.000
234.368;  -91.125; -773.000; -723.000
234.512;  -34.550; -385.000; -299.000
234.655;  -71.025; -582.000; -555.000
234.798;  -56.625; -493.000; -466.000
234.942; -108.125; -884.000;-1002.000
235.085;  -63.875; -651.000; -443.000
235.229;  -71.650; -405.000; -410.000
235.372;  -45.475; -247.000; -191.000
235.516;  -50.175; -397.000; -321.000
235.659;   13.425;   92.000;  121.000
235.802;  -11.350;  -38.000;  -22.000
235.946;   28.775;  335.000;  215.000
236.089;   25.775;  126.000;  250.000
236.233;   46.775;  275.000;  298.000
236.376;  -33.325; -235.000; -378.000
236.519;  -44.000; -297.000; -319.000
236.663;  -29.475; -215.000; -117.000
236.806; -121.100;-1029.000; -999.000
236.949;   66.750;  543.000;  431.000
237.092;   47.850;  412.000;  391.000
237.236;  -89.425; -589.000; -502.000
237.379;   55.475;  352.000;  428.000
237.522; -106.950; -879.000; -768.000
237.666;   -9.325; -271.000;   18.000
237.809; -114.025; -851.000; -823.000
237.952;   45.825;  469.000;  271.000
238.095;  -54.075; -447.000; -442.000
238.238;   73.525;  688.000;  700.000
238.382;    7.075;  166.000;  103.000
238.525;  -63.575; -598.000; -511.000
238.668; -127.050;-1060.000; -985.000
238.811;  -73.550; -638.000; -643.000
238.954;  -46.675; -483.000; -334.000
239.097;   85.425;  617.000;  664.000
239.241;   11.550;  394.000;  326.000
239.384;  -29.000; -254.000; -214.000
239.527;  -58.400; -424.000; -224.000
239.670; -136.450; -994.000;-1091.000
239.813;  -93.400; -696.000; -658.000
239.956;   73.450;  579.000;  473.000
240.099;  -99.900; -778.000; -725.000
240.242;   50.400;  428.000;  432.000
240.385;   51.425;  466.000;  450.000
240.528;  -66.050; -706.000; -473.000
240.671;    4.500;  189.000;  134.000
240.814;  -46.775; -441.000; -158.000
240.957;  -88.750; -767.000; -578.000
241.100;  -94.300; -779.000; -755.000
241.243; -130.150;-1234.000; -893.000
241.386;  -62.825; -508.000; -379.000
241.529;  -87.000; -735.000; -547.000
241.672;  -42.725; -566.000; -495.000
241.815; -106.775; -832.000; -808.000
241.958;  -17.300; -125.000; -182.000
242.101;  -68.100; -545.000; -390.000
242.244;  -36.550; -270.000; -325.000
242.387;  -32.950; -304.000; -246.000
242.530;   53.300;  470.000;  134.000
242.673;  -35.275; -381.000; -309.000
242.815; -109.675; -925.000; -899.000
242.958;  -60.000; -482.000; -381.000
243.101;   19.275;  132.000;  187.000
243.244;  -72.150; -564.000; -521.000
243.387;  -45.825; -313.000; -316.000
243.530;  -84.125; -657.000; -674.000
243.672;   -6.975;   43.000;  -92.000
243.815;  -38.050; -355.000; -283.000
243.958;   -3.225;   98.000;  -26.000
244.101;   -1.050;   59.000;  -16.000
244.243;  -10.525;  -47.000;  101.000
244.386;  -97.575; -761.000; -630.000
244.529;  -21.450; -132.000; -139.000
244.672; -142.650;-1154.000; -951.000
244.814;  -87.600; -621.000; -794.000
244.957;  -30.650; -380.000; -304.000
245.100;  -74.175; -489.000; -489.000
245.242;  -48.225; -387.000; -374.000
245.385;   -0.150;  -59.000;  -39.000
245.528;  -99.950; -871.000; -705.000
245.670;   87.075;  612.000;  634.000
245.813;  -75.075; -599.000; -547.000
245.956;  -36.050; -324.000; -275.000
246.098;  -73.150; -508.000; -650.000
246.241;   10.875;  194.000;   48.000
246.383;  -16.375; -119.000;  -73.000
246.526;  -65.850; -454.000; -525.000
246.669;  -95.500; -889.000; -780.000
246.811;    7.950;  172.000;   -1.000
246.954;  -69.625; -512.000; -426.000
247.096;  -16.275;  -84.000;   -6.000
247.239;  -74.175; -482.000; -445.000
247.381;  -77.200; -647.000; -488.000
247.524;   69.100;  645.000;  679.000
247.666;   -7.825;   58.000;   11.000
247.809; -113.475; -887.000; -691.000
247.951;  -11.750;  -75.000;  138.000
248.094;   24.050;  432.000;  308.000
248.236; -148.150;-1262.000;-1238.000
248.378;  -27.375; -356.000;  -81.000
248.521;  -44.925; -334.000; -337.000
248.663;  -48.925; -236.000; -267.000
248.806;  -25.775; -300.000; -266.000
248.948; -108.525; -886.000; -763.000
249.090;  -52.275; -428.000; -398.000
249.233;  -67.425; -344.000; -381.000
249.375;  -57.925; -474.000; -451.000
249.518;  -19.575;  -83.000; -133.000
249.660;   -8.275; -103.000;    3.000
249.802; -155.225;-1303.000;-1189.000
249.945;  -75.900; -612.000; -540.000
250.087; -104.075; -834.000; -768.000
250.229;  -48.750; -362.000; -480.000
250.371;  -59.275; -494.000; -439.000
250.514;  -43.400; -310.000; -244.000
250.656;   -4.525;   69.000;  102.000
250.798; -110.375; -849.000; -800.000
250.940;  -56.075; -322.000; -322.000
251.083;  -27.025; -335.000; -111.000
251.225;   38.525;  338.000;  310.000
251.367;  -37.550; -274.000; -373.000
251.509;  -29.475; -265.000; -210.000
251.651;  -95.850; -731.000; -671.000
251.794;   49.825;  538.000;  632.000
251.936; -106.025; -821.000; -747.000
252.078;  -70.650; -540.000; -461.000
252.220;  -66.475; -645.000; -477.000
252.362;   31.300;  344.000;  462.000
252.504;  -78.225; -677.000; -584.000
252.646;  -98.100; -875.000; -722.000
252.788;  -17.775;   14.000; -128.000
252.931;  -53.950; -257.000; -253.000
253.073;  -46.300; -376.000; -317.000
253.215;   -1.850;  141.000;  122.000
253.357;   -9.850;   82.000; -153.000
253.499;  -49.375; -374.000; -234.000
253.641;  -90.000; -749.000; -594.000
253.783;  -89.125; -609.000; -527.000
253.925;  -73.775; -586.000; -591.000
254.067;  -97.675; -744.000; -667.000
254.209;  -48.325; -391.000; -259.000
254.351; -115.800; -865.000; -883.000
254.493;  -51.400; -441.000; -417.000
254.635; -134.550; -936.000; -818.000
254.777;  -83.750; -752.000; -687.000
254.918;  -58.675; -512.000; -430.000
255.060;  -68.825; -551.000; -395.000
255.202;  -53.950; -473.000; -261.000
255.344;  -77.175; -658.000; -455.000
255.486;  -61.625; -471.000; -406.000
255.628; -100.100; -780.000; -781.000
255.770;  -87.775; -676.000; -536.000
255.912;  -63.600; -559.000; -468.000
256.053;  -88.675; -730.000; -508.000
256.195;  131.975; 1008.000;  903.000
256.337;  -89.825; -861.000; -595.000
256.479;   45.675;  532.000;  416.000
256.621;  -47.775; -394.000; -212.000
256.762;  -94.675; -789.000; -742.000
256.904;   37.325;  485.000;  487.000
257.046;  -50.225; -381.000; -271.000
257.188;  -51.925; -351.000; -264.000
257.329;  -69.525; -525.000; -464.000
257.471; -113.425; -939.000; -807.000
257.613;  -66.350; -584.000; -498.000
257.755; -131.725;-1073.000; -982.000
257.896;   21.575;  286.000;  392.000
258.038;  -69.875; -403.000; -352.000
258.180;  -37.350; -354.000; -279.000
258.321;  -74.750; -581.000; -457.000
258.463;  -20.075;  -71.000;  133.000
258.605;  -81.850; -562.000; -570.000
258.746; -101.625; -886.000; -772.000
258.888; -139.150;-1026.000;-1020.000
259.029;   15.600;  121.000;   -8.000
259.171;  -83.425; -614.000; -550.000
259.313;  -14.225;  -49.000;  -47.000
259.454;  -70.525; -536.000; -414.000
259.596;  -54.425; -483.000; -390.000
259.737;  -74.050; -590.000; -474.000
259.879;   28.625;  217.000;  311.000
260.020;   69.200;  901.000;  636.000
260.162;  -30.325; -146.000; -253.000
260.303; -104.850; -768.000; -687.000
260.445;  -84.725; -609.000; -613.000
260.586;   31.300;  392.000;  157.000
260.728;  -43.550; -360.000; -248.000
260.869;  -63.150; -350.000; -343.000
261.011;   55.525;  706.000;  537.000
261.152;  -63.125; -479.000; -319.000
261.293;  -76.850; -576.000; -595.000
261.435;  -36.225; -219.000; -184.000
261.576;  -44.575; -455.000; -325.000
261.718;   44.600;  420.000;  470.000
261.859; -118.500; -940.000; -949.000
262.000; -124.625; -951.000;-1016.000
262.142;  -18.875;  -52.000;  -60.000
262.283; -109.000; -808.000; -691.000
262.424;  -84.200; -666.000; -625.000
262.566; -137.075;-1161.000; -983.000
262.707; -103.675; -840.000; -830.000
262.848; -108.425; -769.000; -726.000
262.990;  -45.125; -362.000; -345.000
263.131;   75.575;  650.000;  681.000
263.272;  -16.400;  -61.000;  -41.000
263.413;  -93.925; -589.000; -561.000
263.555;  -63.950; -669.000; -143.000
263.696;  -72.075; -550.000; -641.000
263.837;  -53.775; -449.000; -551.000
263.978;   -4.225;   -5.000;  -77.000
264.119;  -43.800; -283.000; -264.000
264.261; -109.425; -847.000; -630.000
264.402;    1.575;   33.000;   40.000
264.543;  -66.100; -509.000; -524.000
264.684;  -21.375;   61.000;  -50.000
264.825;  -60.500; -816.000; -538.000
264.966;   -3.800;  -84.000;  -67.000
265.107; -108.750; -646.000; -670.000
265.248; -120.800; -825.000; -812.000
265.390;  -17.100;  152.000;   -9.000
265.531;  -27.250; -238.000; -107.000
265.672;  -80.950; -557.000; -630.000
265.813;   48.650;  563.000;  439.000
265.954; -144.475; -959.000; -940.000
266.095;  -20.575; -372.000; -322.000
266.236; -100.850; -686.000; -548.000
266.377;  -49.850; -243.000; -297.000
266.518;  -75.750; -619.000; -547.000
266.659;   20.350;  170.000;  268.000
266.800;    5.125;   83.000;   85.000
266.941;  -73.575; -487.000; -478.000
267.082;   30.025;  354.000;   99.000
267.223;  -65.400; -344.000; -273.000
267.364; -106.500; -892.000; -686.000
267.504;  -19.575;    3.000;  135.000
267.645;   -4.900;  160.000;   67.000
267.786;  -35.175; -147.000;  -86.000
267.927;  -78.225; -473.000; -379.000
268.068;  -26.275; -186.000;  -61.000
268.209;  -50.075; -175.000; -413.000
268.350;  -66.275; -388.000; -532.000
268.490;  -94.500; -648.000; -521.000
268.631;   23.775;  127.000;  225.000
268.772;  -96.550; -874.000; -647.000
268.913;  -58.225; -328.000; -476.000
269.054;  -35.725; -117.000;   12.000
269.194;  -66.650; -418.000; -402.000
269.335; -137.250;-1137.000;-1074.000
269.476;   -9.650;   33.000;  -35.000
269.617;  -56.375; -347.000; -392.000
269.757;  -93.225; -713.000; -646.000
269.898;  -99.425; -856.000; -613.000
270.039;  -65.300; -415.000; -405.000
270.180; -124.425; -952.000; -816.000
270.320;  -32.350; -190.000; -250.000
270.461;  -46.875; -277.000; -249.000
270.602;  -29.975; -186.000; -156.000
270.742; -120.100; -868.000; -943.000
270.883;  -57.700; -442.000; -390.000
271.023;  -74.600; -358.000; -357.000
271.164;  -83.550; -607.000; -528.000
271.305;  -99.050; -666.000; -654.000
271.445;  -98.625; -722.000; -683.000
271.586;  -68.975; -462.000; -283.000
271.726;  -61.825; -397.000; -322.000
271.867;  -86.075; -594.000; -534.000
272.008;  -25.850; -473.000; -285.000
272.148;   32.500;  462.000;  468.000
272.289;  -25.825; -113.000; -181.000
272.429;  -13.625;   19.000;  185.000
272.570; -108.900; -633.000; -737.000
272.710; -103.825; -825.000; -775.000
272.851;  -14.400;  113.000; -130.000
272.991; -154.725;-1173.000;-1077.000
273.131;  -70.800; -419.000; -459.000
273.272; -104.350; -683.000; -723.000
273.412;  -24.700; -143.000;  -31.000
273.553;  -71.125; -488.000; -507.000
273.693;   90.925;  913.000;  858.000
273.834; -122.650; -894.000; -692.000
273.974;  -91.700; -664.000; -615.000
274.114;  -81.625; -772.000; -560.000
274.255;   26.675;  414.000;  373.000
274.395;  -32.200; -180.000; -125.000
274.535;   17.200;  199.000;  350.000
274.676;    9.175;  225.000;   94.000
274.816;  -12.200;  110.000;   34.000
274.956; -105.850; -624.000; -690.000
275.097; -130.650;-1014.000; -922.000
275.237; -109.575; -913.000; -803.000
275.377;  -99.025; -778.000; -689.000
275.517; -153.825; -878.000; -937.000
275.658;  -88.725; -590.000; -555.000
275.798;  -81.350; -606.000; -413.000
275.938;   24.950;  215.000;  323.000
276.078;  -84.475; -626.000; -395.000
276.218;   -8.500;   99.000;  104.000
276.359; -125.900;-1026.000;-1024.000
276.499;  -79.100; -605.000; -446.000
276.639;  -45.725; -305.000; -151.000
276.779;  -64.150; -475.000; -357.000
276.919; -107.750; -783.000; -624.000
277.059;  -31.350; -261.000; -212.000
277.199;  -45.900; -357.000; -259.000
277.340;   19.350;  287.000;  175.000
277.480; -115.550; -840.000; -693.000
277.620;    4.350;  192.000;   16.000
277.760; -200.950;-1533.000;-1294.000
277.900;   -0.375;  113.000;   33.000
278.040;  -10.400;  137.000;  159.000
278.180;   30.600;  270.000;  170.000
278.320;   -7.225;   21.000;   56.000
278.460;  -81.550; -443.000; -469.000
278.600;  -86.175; -708.000; -598.000
278.740;   34.825;  448.000;  224.000
278.880; -118.325; -768.000; -791.000
279.020;  -27.200; -194.000; -144.000
279.160;  -90.150; -672.000; -595.000
279.300; -120.575; -926.000; -873.000
279.440;  -92.400; -709.000; -622.000
279.579; -123.250;-1014.000; -929.000
279.719;  -74.775; -410.000; -394.000
279.859;   17.425;   -4.000;   41.000
279.999;  -33.050; -208.000;  101.000
280.139;  -66.100; -435.000; -387.000
280.279; -101.800; -708.000; -745.000
280.419;  -31.275; -229.000; -147.000
280.559;  -47.600; -259.000; -180.000
280.698;  -96.775; -790.000; -639.000
280.838;  -99.600; -778.000; -800.000
280.978; -109.800; -846.000; -790.000
281.118; -107.750; -811.000; -704.000
281.257;   -5.775;   24.000;    6.000
281.397; -144.000;-1094.000; -960.000
281.537;  -95.425; -599.000; -712.000
281.677;  -26.025; -150.000; -101.000
281.816;  -89.675; -700.000; -630.000
281.956;  -35.825; -193.000; -257.000
282.096;  -76.000; -539.000; -396.000
282.235; -105.825; -672.000; -638.000
282.375;  -46.825; -243.000;  -98.000
282.515; -102.050; -715.000; -707.000
282.654;  -14.875;   29.000;  106.000
282.794;   10.200;  388.000;  244.000
282.934;  -60.750; -530.000; -491.000
283.073; -146.600;-1030.000; -857.000
283.213;  -69.250; -460.000; -467.000
283.353;  -60.225; -408.000; -349.000
283.492;  -37.600; -264.000; -296.000
283.632;  -49.950; -254.000; -168.000
283.771;  -87.900; -859.000; -730.000
283.911;  -73.475; -369.000; -260.000
284.050; -113.925; -794.000; -748.000
284.190; -139.125;-1229.000;-1096.000
284.329; -140.050;-1055.000; -964.000
284.469;  -92.400; -516.000; -591.000
284.608;  -73.450; -559.000; -598.000
284.748;  -86.100; -614.000; -570.000
284.887;  -13.550;  -87.000;  -20.000
285.027; -125.750; -844.000; -892.000
285.166;  -48.150; -192.000; -249.000
285.306;  -24.050; -116.000;  -33.000
285.445;  -55.225; -229.000; -343.000
285.584; -103.050; -630.000; -494.000
285.724;  -53.625; -282.000; -322.000
285.863; -122.975; -857.000; -507.000
286.002;  -53.575; -366.000; -276.000
286.142; -101.725; -715.000; -622.000
286.281;  -77.375; -525.000; -493.000
286.420;  -90.625; -554.000; -417.000
286.560;   75.075;  653.000;  623.000
286.699; -140.900; -958.000; -912.000
286.838;  -73.200; -590.000; -591.000
286.978;  -92.775; -533.000; -537.000
287.117; -137.400;-1085.000; -950.000
287.256;  -50.325; -228.000; -211.000
287.395;  -62.950; -197.000; -378.000
287.535;  -58.975; -370.000; -298.000
287.674;  -79.400; -509.000; -484.000
287.813;   48.200;  661.000;  533.000
287.952; -133.725;-1010.000; -871.000
288.091; -147.200;-1049.000; -915.000
288.231;  -16.275;   13.000;   15.000
288.370; -162.500;-1217.000;-1200.000
288.509;  -87.950; -728.000; -645.000
288.648;  -88.600; -770.000; -548.000
288.787;  -52.700; -243.000;  -87.000
288.926;  -74.150; -454.000; -475.000
289.065;   87.550;  859.000;  672.000
289.204;  -65.300; -377.000; -217.000
289.344; -104.475; -791.000; -690.000
289.483;   -2.100;  416.000;  304.000
289.622;  -36.525; -291.000; -149.000
289.761;  -23.775; -309.000; -166.000
289.900; -113.850; -785.000; -626.000
290.039;  -26.050;  -12.000;  -95.000
290.178;  -50.175; -274.000; -180.000
290.317;  -81.775; -618.000; -479.000
290.456;  -66.200; -463.000; -451.000
290.595; -124.925; -961.000; -833.000
290.734; -139.750; -904.000; -891.000
290.873;  -69.500; -456.000; -420.000
291.011; -115.375; -833.000; -843.000
291.150; -106.550; -770.000; -682.000
291.289;  -50.200; -343.000; -110.000
291.428;  -89.925; -599.000; -480.000
291.567;  -54.575; -370.000; -442.000
291.706;   -9.775;  109.000;  154.000
291.845;  -96.425; -597.000; -505.000
291.984; -163.300;-1234.000;-1061.000
292.122;   48.175;  602.000;  582.000
292.261;   28.750;  620.000;  463.000
292.400;  -10.650; -144.000;  211.000
292.539; -127.950; -959.000; -813.000
292.678;  -43.100; -325.000; -300.000
292.816; -157.550;-1136.000; -965.000
292.955; -116.425; -844.000; -684.000
293.094;  -33.325; -173.000; -337.000
293.233;  -69.075; -556.000; -400.000
293.371;  -39.275; -225.000;  -84.000
293.510; -107.125; -866.000; -780.000
293.649; -140.300; -959.000; -924.000
293.787; -147.350;-1083.000;-1012.000
293.926;  -25.400; -113.000;  -32.000
294.065;  -48.875; -379.000; -290.000
294.203;   25.150;  298.000;  406.000
294.342;    1.175;   74.000;  156.000
294.481; 5096.600;51180.000; -836.000
294.619;  -52.600; -425.000; -582.000
294.758; -150.175;-1230.000;-1137.000
294.896;  -16.925; -125.000;    5.000
295.035; -141.375;-1040.000;-1006.000
295.174; -140.575;-1082.000; -954.000
295.312;  -53.825; -323.000; -203.000
295.451;  -71.075; -307.000; -428.000
295.589;  -82.575; -389.000; -518.000
295.728;   -5.775; -292.000; -165.000
295.866;  -30.800;  -36.000;  -51.000
296.005;  -80.700; -584.000; -341.000
296.143;  -95.525; -558.000; -596.000
296.282; -125.800; -957.000; -881.000
296.420; -101.650; -657.000; -557.000
296.559; -101.175; -892.000; -633.000
296.697; -103.425; -847.000; -665.000
296.835; -149.600;-1141.000;-1002.000
296.974;   -4.875;  -23.000;   39.000
297.112;  -78.650; -443.000; -504.000
297.251; -111.250; -815.000; -755.000
297.389;  -85.100; -576.000; -438.000
297.527;  -18.725; -145.000;  -83.000
297.666;  -83.525; -486.000; -438.000
297.804;  -69.200; -404.000; -264.000
297.942;  -38.150; -136.000; -161.000
298.081;  -24.675; -183.000;   63.000
298.219;  -33.475;  -17.000;  -19.000
298.357;  -44.950; -144.000;  -71.000
298.495; -110.075; -810.000; -812.000
298.634;   -7.350;  245.000;  219.000
298.772;  -51.525; -220.000; -338.000
298.910;  -61.525; -309.000; -182.000
299.048;  -34.950; -130.000; -153.000
299.187;  -54.350; -350.000; -250.000
299.325;  -20.325;   52.000;  122.000
299.463;  -69.300; -389.000; -299.000
299.601;  -56.725; -327.000; -271.000
299.739; -135.275; -908.000; -883.000
299.877; -112.175; -791.000; -703.000
300.016; -142.050;-1095.000; -935.000
300.154;  -16.750;  -19.000; -161.000
300.292;  -72.850; -428.000; -348.000
300.430;  -63.100; -408.000; -291.000
300.568; -139.475; -940.000; -874.000
300.706;  -69.600; -366.000; -469.000
300.844; -149.400;-1108.000; -979.000
300.982;   44.700;  246.000;  282.000
301.120; -133.800; -965.000; -866.000
301.258; -100.200; -812.000; -705.000
301.396;  -11.550;  104.000;  -41.000
301.534;  -51.625; -218.000; -293.000
301.672;  -86.225; -664.000; -521.000
301.810;  -97.750; -613.000; -545.000
301.948;   -3.700;   53.000;  149.000
302.086;  -36.675; -250.000;  -32.000
302.224; -102.375; -610.000; -585.000
302.362;  -93.525; -558.000; -622.000
302.500; -133.150; -923.000; -893.000
302.638;    0.850;  128.000;  245.000
302.776;  -45.850; -352.000; -408.000
302.913;   11.400;  447.000;  236.000
303.051;  -34.425;  -86.000;  -23.000
303.189;   -4.700;   90.000;  118.000
303.327;  -62.475; -341.000; -256.000
303.465; -102.825; -832.000; -588.000
303.603; -111.125; -805.000; -604.000
303.740;    8.275;  417.000;  241.000
303.878; -115.550; -800.000; -759.000
304.016; -107.450; -915.000; -790.000
304.154; -165.600;-1123.000;-1152.000
304.291;  -84.325; -505.000; -554.000
304.429;   -3.250;  102.000;   74.000
304.567; -127.450; -908.000; -893.000
304.705;  -77.125; -408.000; -515.000
304.842;  -90.175; -616.000; -540.000
304.980;  -13.475;  215.000;   35.000
305.118;  -61.275; -367.000; -365.000
305.255; -136.575; -945.000; -927.000
305.393;    7.500;  178.000;  239.000
305.531; -141.075;-1173.000; -956.000
305.668;  -98.250; -663.000; -582.000
305.806;  -56.175; -358.000; -439.000
305.943;  -91.375; -629.000; -637.000
306.081;  -55.175; -378.000; -267.000
306.219; -117.575; -863.000; -748.000
306.356;  -17.425;  158.000;   27.000
306.494;   69.975;  981.000;  761.000
306.631;  -27.825;  -11.000;  -55.000
306.769;  -41.625; -613.000; -485.000
306.906;  -79.925; -284.000; -258.000
307.044;  -88.550; -473.000; -488.000
307.181;  -68.175; -410.000; -332.000
307.319;   -7.350;  112.000;   87.000
307.456; -171.050;-1191.000;-1153.000
307.594; -128.775; -980.000; -727.000
307.731;  -49.150; -371.000; -164.000
307.868;  -27.600;  -15.000;   20.000
308.006; -144.425; -961.000; -847.000
308.143;  -92.075; -618.000; -330.000
308.281;  -31.550;  -37.000; -254.000
308.418;  -91.600; -748.000; -640.000
308.555;  -83.350; -400.000; -250.000
308.693;  -94.900; -577.000; -573.000
308.830; -115.775; -712.000; -657.000
308.967;  -29.825; -215.000;  -95.000
309.105;  -64.825; -507.000; -396.000
309.242;  -68.775; -468.000; -367.000
309.379;  -98.900; -577.000; -655.000
309.517; -120.775; -936.000; -948.000
309.654; -117.850; -910.000; -734.000
309.791;  -93.175; -662.000; -580.000
309.928; -133.800; -977.000; -914.000
310.065;   71.300;  819.000;  697.000
310.203; -123.150; -825.000; -850.000
310.340;  -80.350; -465.000; -321.000
310.477;  -86.050; -412.000; -516.000
310.614;  -73.925; -383.000; -473.000
310.751;  -96.100; -427.000; -518.000
310.889;  -40.475;    1.000;   11.000
311.026; -155.650;-1161.000; -939.000
311.163;  -69.500; -386.000; -380.000
311.300;  -96.400; -512.000; -479.000
311.437;  -93.550; -658.000; -619.000
311.574; -153.275;-1226.000; -985.000
311.711;  -81.525; -595.000; -433.000
311.848;  -64.675; -380.000; -388.000
311.985;    6.200;  270.000;   93.000
312.122; -127.825; -932.000; -762.000
312.259; -126.825; -941.000; -994.000
312.396; -108.725; -508.000; -551.000
312.533; -108.375; -812.000; -790.000
312.670; -147.125;-1070.000; -898.000
312.807;  -69.000; -352.000; -367.000
312.944; -102.775; -513.000; -611.000
313.081;  -54.575; -150.000; -415.000
313.218; -138.875;-1111.000; -867.000
313.355;  -68.275; -531.000; -449.000
313.492;  -55.850; -455.000; -292.000
313.629;   71.100;  815.000;  735.000
313.766; -167.600;-1176.000;-1008.000
313.902;  -41.100; -186.000;   21.000
314.039;  -67.575; -372.000; -289.000
314.176;   -7.225;  286.000;  192.000
314.313;  -92.375; -569.000; -473.000
314.450; -117.425; -788.000; -684.000
314.587;  -81.825; -468.000; -480.000
314.723;  -35.100;  -78.000;  130.000
314.860;   -6.825;  318.000;  332.000
314.997;  -10.350;  223.000;  142.000
315.134;  -69.450; -385.000; -368.000
315.270;  -76.675; -480.000; -496.000
315.407; -159.225;-1094.000; -967.000
315.544;  -91.175; -657.000; -538.000
315.681;  -96.250; -681.000; -565.000
315.817;  -37.400; -133.000; -176.000
315.954;  -88.000; -613.000; -392.000
316.091; -161.325;-1045.000;-1023.000
316.227;  -42.625;  -71.000; -179.000
316.364;  -21.175;   23.000;    6.000
316.500;  -60.675; -113.000; -300.000
316.637;  -52.750; -181.000; -302.000
316.774;  -91.875; -625.000; -358.000
316.910; -107.275; -598.000; -629.000
317.047;  -96.375; -487.000; -351.000
317.183;  -74.950; -435.000; -566.000
317.320;  -79.825; -367.000; -321.000
317.456; -114.175; -733.000; -805.000
317.593; -114.100; -598.000; -641.000
317.729;  -13.850;  168.000;  -67.000
317.866; -198.400;-1434.000;-1285.000
318.002;  -91.400; -708.000; -948.000
318.139; -125.550; -883.000; -867.000
318.275; -112.025;-1003.000; -738.000
318.412;  -74.075; -517.000; -336.000
318.548; -113.950; -751.000; -720.000
318.685; -142.775; -985.000; -888.000
318.821; -112.100; -762.000; -735.000
318.957;  -54.175;   34.000;  -23.000
319.094;   20.800;  297.000;  154.000
319.230; -122.375; -756.000; -742.000
319.367;  -81.350; -471.000; -520.000
319.503;  -88.000; -538.000; -436.000
319.639; -139.150; -877.000; -793.000
319.775; -113.100; -750.000; -685.000
319.912;  -80.975; -424.000; -519.000
320.048; -164.475;-1184.000;-1184.000
320.184;   -4.200;   59.000;   70.000
320.321;  -79.250; -497.000; -467.000
320.457;   29.825;  475.000;  662.000
320.593;  -86.850; -375.000; -382.000
320.729; -124.700; -732.000; -734.000
320.866;  -97.425; -577.000; -635.000
321.002; -117.825; -759.000; -809.000
321.138;  -72.500; -135.000; -211.000
321.274;  -38.450; -148.000; -115.000
321.410;  -93.625; -585.000; -353.000
321.546; -142.275;-1011.000; -911.000
321.683;    4.650;  400.000;  185.000
321.819;  -45.650;  -48.000; -117.000
321.955; -118.875; -743.000; -722.000
322.091;  -83.450; -585.000; -540.000
322.227;  -78.125; -382.000; -202.000
322.363;  -60.000; -320.000; -215.000
322.499;  -70.300; -343.000; -331.000
322.635;   35.700;  636.000;  443.000
322.771;  -45.200; -139.000;   12.000
322.907;   10.700;  129.000;  327.000
323.043;  -55.925; -115.000; -206.000
323.179;  -84.975; -394.000; -363.000
323.315;  -95.425; -401.000; -371.000
323.451;  -76.675; -328.000; -236.000
323.587;  -39.850;  -60.000;  -77.000
323.723; -102.075; -682.000; -601.000
323.859;  -51.400; -258.000;  -76.000
323.995;  -73.950; -467.000; -409.000
324.131; -144.450; -967.000; -892.000
324.267;  -57.700; -254.000; -276.000
324.402; -160.650; -960.000; -983.000
324.538;  -50.700; -279.000; -104.000
324.674;  -15.650;  164.000;   77.000
324.810;   -8.950;  226.000;  308.000
324.946;  -81.050; -810.000; -658.000
325.082;  -96.925; -568.000; -475.000
325.217;  -26.925;  -62.000;   16.000
325.353; -114.600; -764.000; -659.000
325.489;  -97.750; -540.000; -506.000
325.625;  -79.450; -579.000; -525.000
325.760;    7.450;  517.000;  376.000
325.896; -100.125; -515.000; -702.000
326.032;  -71.825; -403.000; -352.000
326.168;  -76.700; -462.000; -369.000
326.303;  -75.575; -352.000; -461.000
326.439;  -52.425; -336.000; -276.000
326.575;  -28.375; -190.000;  -29.000
326.710;  -47.075; -156.000;  -30.000
326.846;  -15.725;  146.000;  103.000
326.982; -101.625; -530.000; -548.000
327.117;  -95.275; -481.000; -442.000
327.253; -110.325; -745.000; -742.000
327.388; -167.550;-1137.000;-1153.000
327.524; -115.025; -811.000; -578.000
327.659;  -37.900;  -58.000;  -22.000
327.795;  -29.075;   69.000;   45.000
327.931;  -96.250; -723.000; -499.000
328.066;  -66.650; -417.000; -276.000
328.202;  -39.575;   12.000; -129.000
328.337;   75.275;  957.000;  713.000
328.473;   10.975;  -12.000;  -74.000
328.608;  -46.800; -256.000; -267.000
328.743; -117.650; -799.000; -664.000
328.879;    1.450;  214.000;  114.000
329.014;  -47.875; -102.000; -122.000
329.150;  -99.775; -358.000; -483.000
329.285;  -91.850; -465.000; -466.000
329.421;  -78.025; -548.000; -246.000
329.556;  -41.875;  -36.000;   85.000
329.691; -109.375; -633.000; -615.000
329.827;  -94.800; -626.000; -480.000
329.962;  -11.875;  131.000; -301.000
330.097; -106.000; -673.000; -585.000
330.233;  -72.425; -410.000; -223.000
330.368; -121.625; -839.000; -628.000
330.503;  -24.875;    3.000;   98.000
330.638;  -31.475;  -93.000; -125.000
330.774; -113.700; -609.000; -530.000
330.909;  -65.375; -434.000; -244.000
331.044; -111.125; -714.000; -708.000
331.179; -174.700;-1217.000;-1109.000
331.315;  -16.850;   77.000;   20.000
331.450;  -15.325;  157.000;  285.000
331.585; -128.850; -805.000; -706.000
331.720; -102.175; -510.000; -460.000
331.855;  -35.950;  -35.000; -102.000
331.990;  -30.275;   62.000;  138.000
332.126;  -34.250; -110.000;   71.000
332.261;  -77.600; -379.000; -265.000
332.396;  -64.825; -135.000; -242.000
332.531; -162.900;-1074.000;-1031.000
332.666;  -74.250; -519.000; -363.000
332.801; -120.575; -726.000; -807.000
332.936;  -39.125; -192.000; -122.000
333.071; -139.325; -870.000; -817.000
333.206;    5.750;  307.000;  379.000
333.341;    7.850;  344.000;  418.000
333.476;  -97.600; -627.000; -623.000
333.611;  -50.650; -251.000; -173.000
333.746;  -64.800; -381.000; -464.000
333.881; -136.300; -973.000; -935.000
334.016; -131.425; -936.000; -917.000
334.151; -130.000; -746.000; -702.000
334.286;  -26.900;  152.000;  186.000
334.421;  -36.800; -125.000; -178.000
334.556;  -94.025; -611.000; -567.000
334.690; -107.875; -631.000; -577.000
334.825;   13.900;  381.000;   83.000
334.960;  -86.125; -285.000; -413.000
335.095;  -31.600;  135.000;  -91.000
335.230; -132.200; -722.000; -738.000
335.365; -147.875;-1084.000; -990.000
335.499; -153.600;-1108.000;-1037.000
335.634;  -23.475;    9.000;  534.000
335.769; -126.350; -755.000; -720.000
335.904; -110.950; -603.000; -561.000
336.038; -122.325; -735.000; -657.000
336.173; -189.500;-1206.000;-1194.000
336.308;  -66.925; -116.000; -189.000
336.443;  -96.800; -544.000; -634.000
336.577; -147.200; -936.000; -787.000
336.712;  -24.325;   -4.000;  -12.000
336.847; -116.550; -724.000; -607.000
336.981;  -70.000; -272.000; -208.000
337.116;   13.550;  615.000;  501.000
337.250;  -98.275; -434.000; -421.000
337.385;  -78.875; -297.000; -208.000
337.520; -116.650; -632.000; -603.000
337.654;  -69.525; -215.000; -126.000
337.789; -133.675; -989.000; -933.000
337.923;  -53.550; -104.000; -205.000
338.058; -122.850; -673.000; -738.000
338.192; -103.550; -611.000; -488.000
338.327;  -48.675;  -18.000; -155.000
338.461; -102.250; -299.000; -469.000
338.596; -105.200; -780.000; -638.000
338.730; -123.275; -767.000; -803.000
338.865;  -39.075;  -46.000; -140.000
338.999; -139.450; -846.000; -702.000
339.134; -115.625; -634.000; -536.000
339.268; -121.525; -741.000; -603.000
339.403; -120.450; -740.000; -775.000
339.537; -135.050; -894.000; -820.000
339.671; -135.825; -829.000; -813.000
339.806; -100.000; -556.000; -512.000
339.940;  -60.825; -261.000; -235.000
340.074; -118.925; -685.000; -510.000
340.209;  -67.450; -351.000; -230.000
340.343; -117.425; -517.000; -573.000
340.477;  106.625;  998.000; 1036.000
340.612; -145.150;-1033.000; -900.000
340.746;  -64.475; -199.000; -243.000
340.880; -149.400; -924.000; -785.000
341.014;  -50.250;  -45.000; -154.000
341.149; -131.625; -756.000; -718.000
341.283; -126.400; -839.000; -754.000
341.417; -166.500;-1124.000; -938.000
341.551; -123.625; -768.000; -708.000
341.685; -105.650; -633.000; -611.000
341.820; -103.400; -562.000; -493.000
341.954;  -84.550; -218.000; -349.000
342.088; -155.725;-1102.000;-1019.000
342.222;   21.150;  565.000;  618.000
342.356;  -86.025; -395.000; -335.000
342.490; -120.675; -880.000; -841.000
342.624;  -72.375; -339.000; -242.000
342.758;  -71.900; -364.000; -312.000
342.892; -106.500; -710.000; -585.000
343.026;  -59.150;  -58.000; -116.000
343.160;  -80.525; -426.000; -376.000
343.294;  -95.900; -474.000; -337.000
343.428; -101.025; -488.000; -448.000
343.562;  -55.050; -172.000;  -23.000
343.696;  -75.375; -385.000; -314.000
343.830;  -76.925; -362.000; -356.000
343.964;  -48.925; -231.000; -168.000
344.098;  -21.800;  199.000;   70.000
344.232;  -56.875; -266.000; -127.000
344.366; -113.350; -567.000; -453.000
344.500; -120.325; -665.000; -744.000
344.634;  -81.700; -324.000; -164.000
344.768; -100.675; -531.000; -341.000
344.902;   -6.925;  278.000;  256.000
345.035;  -90.700; -556.000; -496.000
345.169; -144.850; -933.000; -656.000
345.303;  -90.200; -308.000; -482.000
345.437; -121.700; -826.000; -717.000
345.571; -120.700; -675.000; -594.000
345.704;  -77.375; -309.000; -532.000
345.838;  -63.800; -331.000; -284.000
345.972;  -95.825; -543.000; -495.000
346.106;  -29.000; -179.000; -190.000
346.239;  -71.200; -312.000; -243.000
346.373;  -69.300; -343.000; -302.000
346.507; -160.225; -950.000; -962.000
346.640;  -47.100;  -30.000;   13.000
346.774; -130.100; -650.000; -797.000
346.908;  -45.650; -138.000;  -11.000
347.041; -109.225; -646.000; -593.000
347.175;  -15.425;  259.000;   27.000
347.309; -116.875; -698.000; -628.000
347.442; -123.450; -883.000; -732.000
347.576;   44.775;  670.000;  668.000
347.709;  -43.950; -123.000;  -52.000
347.843; -156.500; -933.000; -825.000
347.976;    1.825;  235.000;  294.000
348.110; -184.575;-1268.000;-1186.000
348.243; -118.300; -679.000; -772.000
348.377;  -23.800;  -26.000;   60.000
348.510;    9.675;  403.000;  540.000
348.644;  -65.375;  -37.000; -159.000
348.777;  -21.525;  180.000;  191.000
348.911;  -70.125; -142.000; -112.000
349.044;   26.000;  471.000;  448.000
349.178; -162.500;-1069.000;-1006.000
349.311;  -11.600;  141.000;  255.000
349.444; -142.325; -927.000; -813.000
349.578;  -54.875; -347.000; -200.000
349.711; -146.100; -959.000; -862.000
349.845; -103.450; -661.000; -591.000
349.978; -192.075;-1224.000;-1137.000
350.111;  -96.800; -546.000; -612.000
350.244; -120.725; -596.000; -700.000
350.378;  -79.500; -392.000; -393.000
350.511;  -96.900; -393.000; -426.000
350.644; -127.400; -808.000; -806.000
350.778;  -35.400;  168.000;  104.000
350.911;  -14.775;  134.000;  140.000
351.044; -133.675; -685.000; -615.000
351.177;  -75.125; -321.000; -281.000
351.310;  -34.475;    3.000; -131.000
351.444; -130.425; -888.000; -788.000
351.577;  -20.975;  140.000;   90.000
351.710;   51.050;  593.000;  417.000
351.843;  -54.950; -165.000;  -77.000
351.976;  -21.350;  149.000;  -79.000
352.109; -101.075; -621.000; -612.000
352.242;  -84.150; -464.000; -419.000
352.376; -105.325; -580.000; -636.000
352.509;  -79.500; -437.000; -356.000
352.642; -153.400; -654.000; -604.000
352.775;  -42.700; -141.000;  -98.000
352.908; -151.850; -933.000; -904.000
353.041; -133.725; -814.000; -824.000
353.174;  -99.175; -551.000; -424.000
353.307; -126.350; -753.000; -764.000
353.440;   22.850;  541.000;  453.000
353.573; -145.750; -957.000;-1008.000
353.706; -129.200; -384.000; -558.000
353.839;  -66.550; -264.000; -220.000
353.971; -105.725; -657.000; -512.000
354.104; -130.400; -896.000; -835.000
354.237; -126.800; -627.000; -662.000
354.370; -126.875; -846.000; -879.000
354.503; -191.200;-1231.000;-1308.000
354.636;  -77.500; -529.000; -348.000
354.769; -156.375; -937.000; -860.000
354.902;  -73.150; -230.000; -139.000
355.034;  -59.975; -164.000; -220.000
355.167;  -60.975; -262.000; -162.000
355.300; -157.725;-1061.000; -880.000
355.433;  -29.250;  -71.000;  -14.000
355.565; -110.650; -402.000; -384.000
355.698;  -71.550; -356.000; -296.000
355.831; -145.050; -882.000; -801.000
355.964;  -54.350; -285.000; -170.000
356.096; -144.425; -856.000; -843.000
356.229;  -99.325; -523.000; -530.000
356.362;  -69.375; -373.000; -266.000
356.494;  -59.650; -229.000; -162.000
356.627;  -11.550;  269.000;  377.000
356.760;  -17.525;  120.000;   53.000
356.892;  -68.975; -286.000; -601.000
357.025;   10.725;  403.000;  389.000
357.157;  -62.250; -167.000; -179.000
357.290; -140.475; -856.000; -713.000
357.423; -123.150; -667.000; -556.000
357.555;  -47.925; -217.000; -228.000
357.688;  -90.800; -483.000; -364.000
357.820; -142.675; -870.000; -877.000
357.953; -105.775; -563.000; -589.000
358.085; -107.025; -632.000; -612.000
358.218; -166.825;-1131.000; -932.000
358.350;  -50.200;  -58.000;  312.000
358.483; -194.325;-1300.000;-1187.000
358.615; -168.450;-1182.000;-1078.000
358.747; -185.200;-1187.000;-1058.000
358.880; -117.575; -810.000; -744.000
359.012;  -85.775; -376.000; -202.000
359.145; -103.300; -480.000; -511.000
359.277; -161.825; -962.000; -913.000
359.409;    6.150;  536.000;  231.000
359.542; -136.475; -738.000; -688.000
359.674;  -21.525;   46.000;   13.000
359.806;  -94.825; -565.000; -438.000
359.939;  -91.600; -617.000; -516.000
360.071; -123.325; -583.000; -579.000
360.203;  -81.475; -411.000; -364.000
360.335;  -40.175;  164.000;  -16.000
360.468;  -70.800; -249.000; -307.000
360.600; -104.675; -547.000; -454.000
360.732; -112.050; -546.000; -423.000
360.864; -182.150;-1216.000;-1044.000
360.996;  -97.150; -516.000; -554.000
361.129;  -90.000; -389.000; -598.000
361.261;  -37.950;  110.000; -113.000
361.393;  -69.200; -252.000; -214.000
361.525;  -24.800;   94.000;  244.000
361.657; -136.850; -821.000; -703.000
361.789;  -42.275; -139.000; -155.000
361.921; -115.175; -642.000; -593.000
362.053;   20.425;  524.000;  541.000
362.185;  -22.000;  288.000;   72.000
362.318; -134.750; -709.000; -705.000
362.450;    4.025;  294.000;  444.000
362.582; -149.175; -913.000; -870.000
362.714;  -77.425; -353.000; -332.000
362.846; -116.200; -606.000; -490.000
362.978; -159.050; -941.000; -811.000
363.109;  -79.975; -161.000; -260.000
363.241; -141.975; -739.000; -749.000
363.373; -105.300; -649.000; -564.000
363.505;  -56.800; -186.000;  -91.000
363.637; -114.950; -787.000; -601.000
363.769; -183.800;-1067.000;-1080.000
363.901;  -99.350; -596.000; -654.000
364.033; -162.900;-1103.000;-1062.000
364.165;  -71.475; -283.000; -283.000
364.296;  -89.200; -316.000; -177.000
364.428; -190.575;-1344.000;-1220.000
364.560; -110.750; -679.000; -661.000
364.692; -115.400; -738.000; -835.000
364.824; -109.025; -588.000; -456.000
364.955;  -90.700; -402.000; -564.000
365.087; -162.725;-1097.000; -852.000
365.219; -125.200; -686.000; -816.000
365.351; -116.950; -526.000; -572.000
365.482;   -7.250;  300.000;  240.000
365.614;  -71.775; -402.000; -314.000
365.746; -120.750; -729.000; -752.000
365.877; -127.475; -706.000; -672.000
366.009;  -42.375;  -35.000;  -62.000
366.141; -189.125;-1249.000;-1134.000
366.272; -131.575; -803.000; -719.000
366.404; -142.575;-1005.000; -874.000
366.535;  -36.500; -139.000;  -12.000
366.667; -133.400; -644.000; -649.000
366.799;    7.125;  353.000;  203.000
366.930; -157.550; -862.000; -996.000
367.062; -108.350; -639.000; -613.000
367.193; -145.450; -872.000; -842.000
367.325; -101.800; -580.000; -684.000
367.456;  -68.325; -246.000;   31.000
367.588;  -89.375; -371.000; -318.000
367.719;  -59.200;  -44.000;  -45.000
367.851;  -67.425; -222.000; -241.000
367.982; -154.275; -875.000; -732.000
368.113;  -84.050; -475.000; -358.000
368.245; -166.750; -960.000; -841.000
368.376;  -57.500; -254.000; -302.000
368.508;  -67.275; -188.000; -263.000
368.639; -179.225;-1166.000;-1034.000
368.770; -121.175; -670.000; -589.000
368.902; -141.925; -836.000; -926.000
369.033; -152.425; -906.000; -855.000
369.164; -121.575; -720.000; -653.000
369.296; -130.350; -452.000; -601.000
369.427;  -60.300; -209.000; -144.000
369.558; -105.975; -593.000; -377.000
369.689; -111.775; -721.000; -569.000
369.821; -152.050; -951.000; -845.000
369.952;  -48.175;   42.000; -108.000
370.083;  -81.575; -229.000; -108.000
370.214; -115.775; -735.000; -650.000
370.345;  -45.725;   65.000;   81.000
370.477; -147.550; -810.000; -790.000
370.608;  -65.100; -328.000; -264.000
370.739; -182.275;-1233.000;-1292.000
370.870; -158.600;-1102.000; -923.000
371.001;  -77.625; -378.000; -467.000
371.132; -125.575; -754.000; -735.000
371.263;  -50.950;  -42.000; -148.000
371.394; -148.275; -841.000; -748.000
371.525;  -16.250;  345.000;  225.000
371.657; -143.125; -808.000; -670.000
371.788;  -16.075;  103.000;  199.000
371.919;  -75.000; -384.000; -304.000
372.050;  -48.375;  -91.000; -156.000
372.181;  -59.425; -188.000; -294.000
372.311;  -48.450;   42.000; -127.000
372.442; -104.450; -457.000; -451.000
372.573;  -75.450; -444.000; -340.000
372.704; -161.200;-1008.000; -980.000
372.835;  -78.775; -228.000; -289.000
372.966; -128.850; -646.000; -554.000
373.097; -125.750; -575.000; -711.000
373.228; -121.250; -717.000; -542.000
373.359; -133.950; -824.000; -536.000
373.490; -149.875; -881.000; -727.000
373.620; -152.525;-1001.000; -803.000
373.751;  -97.900; -332.000; -396.000
373.882; -104.200; -663.000; -733.000
374.013;  -82.100; -449.000; -262.000
374.143; -115.325; -581.000; -659.000
374.274; -155.150; -987.000; -908.000
374.405;  -82.400; -388.000; -276.000
374.536;  -93.575; -526.000; -387.000
374.666; -128.475; -759.000; -807.000
374.797; -139.700; -817.000; -868.000
374.928; -123.225; -710.000; -560.000
375.058; -104.450; -535.000; -500.000
375.189;  -54.525;  -59.000;  -93.000
375.320; -156.125; -928.000;-1034.000
375.450; -115.200; -625.000; -616.000
375.581; -103.300; -526.000; -436.000
375.712;  -71.650; -574.000; -250.000
375.842; -110.400; -438.000; -415.000
375.973; -114.975; -554.000; -513.000
376.103; -115.075; -665.000; -648.000
376.234; -106.725; -531.000; -552.000
376.364; -152.475; -944.000; -867.000
376.495;   42.200;  925.000;  529.000
376.625; -103.850; -472.000; -485.000
376.756; -112.500; -709.000; -678.000
376.886; -182.175;-1178.000;-1026.000
377.017; -164.700;-1048.000;-1061.000
377.147; -152.850; -786.000; -782.000
377.278;  -22.625;  174.000;  228.000
377.408; -143.250; -801.000; -815.000
377.538; -126.700; -707.000; -693.000
377.669; -125.850; -537.000; -613.000
377.799; -128.825; -645.000; -635.000
377.929; -124.825; -610.000; -428.000
378.060; -152.200; -781.000; -847.000
378.190; -130.900; -726.000; -531.000
378.320;  -92.325; -401.000; -406.000
378.451;  -50.625; -131.000;  -22.000
378.581;  -60.100;  -67.000; -110.000
378.711;   44.450; 1035.000;  866.000
378.841; -105.300; -533.000; -675.000
378.972; -148.825; -871.000; -751.000
379.102; -118.000; -652.000; -579.000
379.232;  -72.550; -126.000;  -73.000
379.362; -155.900;-1001.000; -885.000
379.492; -104.425; -373.000; -424.000
379.623;  -24.950;    0.000;  111.000
379.753; -179.375;-1107.000; -974.000
379.883;  -25.725;   59.000;  156.000
380.013; -179.050;-1081.000;-1017.000
380.143; -187.025;-1097.000;-1056.000
380.273; -149.900; -985.000; -861.000
380.403;  -75.575; -344.000; -257.000
380.533; -124.675; -651.000; -664.000
380.663;  -18.100;  173.000;  128.000
380.793; -177.175;-1027.000;-1074.000
380.923;  -59.775; -103.000;  -34.000
381.053; -125.425; -613.000; -623.000
381.183;  -68.825; -106.000; -248.000
381.313; -112.225; -656.000; -470.000
381.443; -107.325; -692.000; -473.000
381.573; -103.825; -402.000; -409.000
381.703; -192.800;-1249.000;-1095.000
381.833; -203.775;-1454.000;-1336.000
381.963;  -35.925; -134.000;  -87.000
382.093; -163.400; -925.000; -909.000
382.223; -122.850; -713.000; -602.000
382.353; -136.625; -801.000; -608.000
382.482; -166.275;-1091.000; -964.000
382.612; -134.925; -872.000; -644.000
382.742; -119.875; -695.000; -622.000
382.872; -112.150; -565.000; -551.000
383.002;  -29.075;  347.000; -132.000
383.131;  -84.175; -226.000; -160.000
383.261; -131.950; -706.000; -768.000
383.391; -100.100; -552.000; -377.000
383.521;   -4.975;  451.000;  263.000
383.650; -165.500; -947.000; -904.000
383.780; -115.725; -783.000; -656.000
383.910;   35.075;  880.000;  802.000
384.039; -146.075; -794.000; -656.000
384.169; -186.800;-1205.000;-1017.000
384.299; -126.025; -650.000; -662.000
384.428; -118.900; -764.000; -680.000
384.558;  -69.400; -308.000; -275.000
384.687;  -99.550; -414.000; -334.000
384.817;  -39.125;   75.000;   -2.000
384.947;  -62.850; -234.000; -141.000
385.076;   53.500;  982.000;  912.000
385.206;    2.450;  369.000;  480.000
385.335;  -96.350; -549.000; -417.000
385.465; -124.675; -655.000; -663.000
385.594;  -61.475;  -53.000;  -44.000
385.724; -154.725; -868.000; -838.000
385.853;  -83.575; -296.000; -270.000
385.982; -142.700; -743.000; -787.000
386.112; -152.325;-1052.000; -871.000
386.241; -104.375; -307.000; -312.000
386.371;  -69.875; -174.000;  -87.000
386.500; -146.400; -825.000; -789.000
386.629; -141.600; -874.000; -817.000
386.759;  -49.050;  -43.000;   68.000
386.888;  -58.800; -170.000; -250.000
387.017; -114.025; -648.000; -620.000
387.147; -126.775; -771.000; -798.000
387.276; -110.875; -410.000; -397.000
387.405;  -75.625; -398.000; -342.000
387.535; -104.075; -452.000; -361.000
387.664; -108.050; -692.000; -620.000
387.793;  -65.400; -198.000; -113.000
387.922;  -28.775;  255.000;  200.000
388.052; -110.825; -576.000; -423.000
388.181;  -92.325; -342.000; -472.000
388.310; -148.425; -889.000; -710.000
388.439; -140.250; -749.000; -742.000
388.568;  -32.925;  365.000;  244.000
388.697; -125.225; -756.000; -653.000
388.826; -113.375; -768.000; -666.000
388.956;  -85.475; -285.000; -307.000
389.085;  -83.850; -347.000; -287.000
389.214; -143.350; -842.000; -872.000
389.343; -131.825; -645.000; -413.000
389.472;  -20.500;  126.000;  149.000
389.601;  -37.375;   91.000;    0.000
389.730; -114.175; -568.000; -687.000
389.859;  -25.725;  226.000;   46.000
389.988;  -98.350; -423.000; -408.000
390.117;  -78.325; -168.000; -146.000
390.246;  -77.325; -331.000; -320.000
390.375; -124.000; -673.000; -626.000
390.504; -110.450; -703.000; -621.000
390.633; -147.975; -672.000; -726.000
390.761; -130.225; -732.000; -645.000
390.890;  -61.475;   -4.000; -130.000
391.019; -105.950; -421.000; -441.000
391.148; -154.800; -826.000; -855.000
391.277; -116.600; -576.000; -493.000
391.406; -144.250; -821.000; -805.000
391.534;  -25.425;  574.000; -301.000
391.663; -121.325; -583.000; -645.000
391.792; -146.525; -673.000; -701.000
391.921;  -52.425;   -3.000;   15.000
392.050;  -84.000; -287.000; -228.000
392.178; -189.100;-1206.000;-1061.000
392.307; -140.025; -758.000; -712.000
392.436; -123.275; -427.000; -641.000
392.564;  -34.475;  166.000;   -6.000
392.693; -132.875; -860.000; -682.000
392.822; -108.250; -529.000; -534.000
392.950; -137.800; -880.000; -714.000
393.079;  -87.725; -188.000; -328.000
393.208; -117.450; -488.000; -511.000
393.336;  -47.100; -170.000; -145.000
393.465;  -76.300; -317.000; -199.000
393.593;  -36.900;   62.000;   79.000
393.722; -169.075;-1121.000; -916.000
393.850;  -64.700; -188.000;  -61.000
393.979; -175.575; -926.000; -805.000
394.107; -125.250; -517.000; -537.000
394.236; -112.050; -570.000; -507.000
394.364;   -8.250;  383.000;  206.000
394.493; -150.425; -911.000; -767.000
394.621; -149.000; -955.000; -916.000
394.750; -159.450; -873.000; -923.000
394.878;  -76.250; -247.000; -149.000
395.007; -142.025; -721.000; -807.000
395.135; -144.575; -790.000; -721.000
395.263; -174.525;-1038.000;-1040.000
395.392;  -52.000;  -25.000; -107.000
395.520; -164.700; -818.000; -679.000
395.648; -141.100; -865.000; -915.000
395.777;  -96.425; -366.000; -405.000
395.905; -110.175; -449.000; -564.000
396.033;  -24.600;  217.000;  172.000
396.162;  -93.275; -399.000; -453.000
396.290;  -72.325;  -17.000;   -2.000
396.418; -104.725; -555.000; -514.000
396.546; -123.975; -571.000; -466.000
396.674; -151.225; -850.000; -878.000
396.803;  -60.925;  -72.000;  -23.000
396.931;  -72.950; -179.000; -199.000
397.059; -189.650;-1026.000; -989.000
397.187; -164.250;-1026.000; -975.000
397.315; -144.325; -884.000; -649.000
397.443; -116.525; -592.000; -443.000
397.572; -114.350; -578.000; -424.000
397.700; -107.900; -607.000; -614.000
397.828;  -57.425;  120.000;  -90.000
397.956; -113.700; -508.000; -478.000
398.084; -138.925; -767.000; -626.000
398.212;  -42.950;  137.000;  124.000
398.340;  -58.125;  -56.000;  159.000
398.468;  -82.300; -390.000; -169.000
398.596; -161.375; -993.000; -953.000
398.724; -130.450; -762.000; -767.000
398.852; -171.500;-1024.000; -976.000
398.980; -110.875; -560.000; -560.000
399.108; -137.800; -982.000; -735.000
399.236;  -46.900;   13.000;    8.000
399.363;  -32.600;  222.000;  196.000
399.491; -101.425; -404.000; -398.000
399.619; -152.750; -829.000; -800.000
399.747; -149.700; -859.000; -771.000
399.875;  -27.275;  220.000;  234.000
400.003;  -90.200; -359.000; -284.000
400.130; -111.425; -421.000; -341.000
400.258;  -55.150;  -83.000;   38.000
400.386;  -71.600; -352.000; -168.000
400.514; -105.450; -526.000; -587.000
400.641; -157.850; -928.000; -802.000
400.769; -163.075; -979.000; -888.000
400.897; -143.825; -838.000; -793.000
401.025;  -61.700; -166.000; -152.000
401.152;  -29.025;  220.000;   38.000
401.280; -112.150; -430.000; -429.000
401.408; -139.125; -712.000; -576.000
401.535; -124.050; -735.000; -758.000
401.663; -198.650;-1134.000;-1054.000
401.790; -113.175; -514.000; -525.000
401.918;    3.500;  436.000;  405.000
402.046;  -42.725;  134.000;  122.000
402.173;  -55.525;  -18.000;    7.000
402.301; -113.250; -519.000; -397.000
402.428;    0.700;  528.000;  383.000
402.556; -182.475;-1188.000; -913.000
402.683;  -68.200;  -20.000;   -1.000
402.811;  -64.475;  -37.000; -206.000
402.938;  -53.425;   20.000;   27.000
403.066; -110.600; -574.000; -558.000
403.193;  -48.900;  299.000;  239.000
403.321; -103.250; -396.000; -574.000
403.448;  -36.800;   83.000;   27.000
403.575;  -43.050;  -90.000;  -46.000
403.703; -151.125; -732.000; -557.000
403.830; -112.625; -531.000; -496.000
403.957; -178.850;-1117.000;-1023.000
404.085;  -71.200;  -61.000; -172.000
404.212;  -60.275;  -50.000;   63.000
404.339;  -95.900; -566.000; -306.000
404.467; -115.550; -612.000; -524.000
404.594;  -84.825; -287.000; -227.000
404.721; -143.300; -869.000; -764.000
404.848;  -67.850; -113.000; -202.000
404.976; -162.000; -856.000; -783.000
405.103;  -53.725;  -14.000;  -82.000
405.230;  -43.825;  190.000;  226.000
405.357;  -39.525;  117.000;   44.000
405.484;  -67.200;  -49.000;    5.000
405.612; -108.700; -548.000; -563.000
405.739; -100.250; -488.000; -243.000
405.866;    8.825;  669.000;  385.000
405.993;  -91.775; -398.000; -102.000
406.120; -137.100; -801.000; -887.000
406.247;  -98.400; -323.000; -342.000
406.374;   14.875;  540.000;  629.000
406.501; -139.275; -632.000; -702.000
406.628; -111.050; -621.000; -589.000
406.755; -137.200; -803.000; -620.000
406.882;  -93.750; -228.000; -277.000
407.009; -128.400; -719.000; -628.000
407.136; -100.875; -480.000; -401.000
407.263; -177.350; -939.000; -829.000
407.390; -139.575; -692.000; -614.000
407.517; -193.450;-1139.000;-1187.000
407.644;  -96.075; -332.000; -256.000
407.771; -176.625; -249.000; -287.000
407.898;  -30.300;  168.000;  328.000
408.025; -112.575; -421.000; -313.000
408.151;  -38.050;   82.000;  153.000
408.278;  -93.875; -267.000; -216.000
408.405; -149.850; -931.000; -899.000
408.532; -116.575; -549.000; -542.000
408.659; -145.550; -677.000; -648.000
408.785; -193.925;-1298.000;-1170.000
408.912;  -96.675; -412.000; -296.000
409.039; -120.125; -610.000; -686.000
409.166; -112.575; -591.000; -555.000
409.292; -119.825; -571.000; -534.000
409.419; -127.375; -665.000; -649.000
409.546;  -99.225; -431.000; -192.000
409.672; -123.700; -713.000; -545.000
409.799;  -66.500;  -36.000;   34.000
409.926;  -81.800; -180.000; -179.000
410.052; -191.250;-1127.000;-1091.000
410.179; -101.000; -368.000; -392.000
410.305; -103.825; -375.000; -493.000
410.432;  -88.100; -220.000; -333.000
410.558; -101.950; -305.000; -380.000
410.685; -114.125; -688.000; -431.000
410.812; -123.750; -409.000; -588.000
410.938; -161.100; -964.000; -808.000
411.065; -130.025; -671.000; -645.000
411.191;  -71.650; -189.000; -174.000
411.317; -146.975; -823.000; -742.000
411.444;  -82.300; -317.000; -246.000
411.570; -101.775; -339.000; -294.000
411.697; -133.075; -758.000; -752.000
411.823; -188.825; -989.000; -999.000
411.949;  -57.125;  -56.000;   17.000
412.076; -119.100; -539.000; -519.000
412.202; -152.775; -758.000; -757.000
412.329; -145.050; -798.000; -752.000
412.455; -132.400; -821.000; -657.000
412.581;  -53.475;  -15.000;  172.000
412.707; -120.850; -540.000; -457.000
412.834;  -26.750;  156.000;  219.000
412.960; -133.925; -785.000; -784.000
413.086; -137.975; -743.000; -701.000
413.212;    0.225;  604.000;  578.000
413.339; -136.250; -685.000; -701.000
413.465;  -95.975; -364.000; -310.000
413.591; -139.300; -757.000; -474.000
413.717;  -97.875; -358.000; -366.000
413.843; -167.050; -839.000; -861.000
413.969;  -91.425;  -47.000; -292.000
414.096; -132.225; -679.000; -679.000
414.222;  -44.050;  -33.000;   85.000
414.348; -127.425; -652.000; -385.000
414.474;  -58.625;   38.000;  -52.000
414.600;  -62.025; -126.000; -144.000
414.726;  -66.525;  -96.000;  -55.000
414.852; -108.375; -365.000; -342.000
414.978;  -37.375;  104.000;  -18.000
415.104;  -48.575;   38.000;   80.000
415.230;  -93.575; -329.000; -330.000
415.356; -117.550; -409.000; -514.000
415.482;  -61.875;   13.000;  -35.000
415.608;  -87.950; -247.000; -323.000
415.734;  -49.325;   67.000;   38.000
415.860; -152.325; -875.000; -767.000
415.986; -138.350; -685.000; -607.000
416.111; -150.175; -798.000; -652.000
416.237; -113.575; -424.000; -571.000
416.363; -154.625; -765.000; -733.000
416.489; -113.800; -324.000; -251.000
416.615; -155.525; -707.000; -742.000
416.741; -122.050; -677.000; -784.000
416.866; -147.350; -673.000; -736.000
416.992; -159.325; -801.000; -818.000
417.118;  -74.600;  -41.000;  -80.000
417.244; -147.175; -798.000; -531.000
417.369; -130.475; -801.000; -612.000
417.495;  -92.075; -325.000; -254.000
417.621; -172.450;-1015.000; -803.000
417.746; -106.725; -579.000; -572.000
417.872;  -80.350; -254.000; -144.000
417.998; -106.425; -515.000; -530.000
418.123; -177.525;-1073.000; -845.000
418.249; -121.275; -512.000; -601.000
418.374; -169.175; -916.000; -824.000
418.500; -103.150; -383.000; -482.000
418.626;  -61.400;   70.000;  -59.000
418.751; -108.825; -549.000; -448.000
418.877; -128.600; -637.000; -643.000
419.002; -118.225; -688.000; -560.000
419.128; -168.825; -930.000; -721.000
419.253; -167.400; -967.000; -837.000
419.379; -127.100; -391.000; -338.000
419.504;  -25.800;  325.000;  415.000
419.629;  -93.250; -393.000; -212.000
419.755;  -85.925; -317.000; -254.000
419.880;  -81.500;  -98.000;   67.000
420.006;  -84.500; -280.000; -221.000
420.131; -144.700; -662.000; -775.000
420.256;  -90.750; -315.000; -316.000
420.382; -135.125; -665.000; -687.000
420.507; -143.575; -649.000; -778.000
420.632;  -88.125; -337.000; -339.000
420.758;  -90.350; -251.000; -425.000
420.883; -140.550; -876.000; -672.000
421.008; -141.100; -775.000; -619.000
421.133; -112.050; -509.000; -467.000
421.259;  -92.500; -325.000; -259.000
421.384; -154.425; -834.000; -693.000
421.509; -156.225;-1052.000; -862.000
421.634; -179.550; -936.000; -820.000
421.759; -105.750; -359.000; -327.000
421.885; -128.150; -717.000; -656.000
422.010; -117.825; -673.000; -542.000
422.135; -168.575; -695.000; -727.000
422.260;  -11.600;  340.000;  280.000
422.385;  -86.950;   12.000;  -98.000
422.510;  -33.300;  151.000;  -26.000
422.635;  -65.100;  -87.000;  -43.000
422.760; -135.925; -766.000; -791.000
422.885;  -57.425;  -57.000;  -80.000
423.010;  -75.925; -112.000; -169.000
423.135; -137.125; -481.000; -561.000
423.260;  -84.750; -150.000; -245.000
423.385;  -36.375;  476.000;  222.000
423.510;  -38.150;   71.000;  -22.000
423.635;  -44.375;  133.000;   45.000
423.760;   -9.400;  383.000;  328.000
423.885;  -31.600;  336.000;  391.000
424.010;  -62.975;  -68.000;  -13.000
424.135;  -64.575;    5.000;  -33.000
424.259; -119.750; -654.000; -457.000
424.384; -105.550; -279.000; -272.000
424.509;  -69.500; -260.000; -186.000
424.634; -152.525; -761.000; -623.000
424.759; -121.150; -688.000; -544.000
424.883; -113.475; -506.000; -527.000
425.008; -136.725; -502.000; -410.000
425.133; -153.625; -679.000; -653.000
425.258; -126.000; -517.000; -381.000
425.382; -141.950; -867.000; -774.000
425.507; -125.050; -487.000; -543.000
425.632; -167.825; -802.000; -663.000
425.756;  -84.050; -256.000; -146.000
425.881; -160.800; -831.000; -857.000
426.006; -103.350; -604.000; -355.000
426.130; -144.200; -696.000; -508.000
426.255; -128.900; -611.000; -491.000
426.379;  -84.175; -189.000; -577.000
426.504;   29.100;  660.000;  544.000
426.629; -127.150; -519.000; -466.000
426.753;  -68.475;   64.000;  -46.000
426.878; -104.175; -252.000; -288.000
427.002; -159.725; -651.000; -668.000
427.127;  -70.025;  -35.000; -158.000
427.251;  -13.200;  372.000;  401.000
427.375;  -89.275; -191.000; -173.000
427.500; -131.425; -616.000; -610.000
427.624; -105.525; -234.000; -400.000
427.749;  -92.475; -216.000; -225.000
427.873; -117.125; -499.000; -412.000
427.997;  -87.950; -222.000; -230.000
428.122;   -2.525;  795.000;  703.000
428.246;    8.150;  433.000;  434.000
428.371; -170.175; -869.000; -773.000
428.495; -150.075; -624.000; -646.000
428.619;  -71.450; -186.000; -117.000
428.743;  -32.150;   65.000;  132.000
428.868; -151.950; -732.000; -643.000
428.992;  -87.775; -219.000; -326.000
429.116; -110.825; -329.000; -357.000
429.240;  -22.225;  419.000;  426.000
429.365; -118.500; -454.000; -574.000
429.489; -143.575; -638.000; -647.000
429.613;  -74.925; -236.000; -177.000
429.737; -102.550; -563.000; -432.000
429.861;  -91.200; -247.000; -133.000
429.985; -108.200; -425.000; -305.000
430.109; -162.700; -770.000; -908.000
430.234;  -43.225;   76.000;  -50.000
430.358; -102.075; -250.000; -160.000
430.482; -142.675; -672.000; -564.000
430.606; -134.900; -655.000; -375.000
430.730; -118.900; -437.000; -388.000
430.854; -170.400; -909.000; -835.000
430.978; -152.550; -795.000; -764.000
431.102; -130.875; -499.000; -422.000
431.226; -174.775; -874.000; -815.000
431.350;  -19.750;  345.000;  422.000
431.474; -127.950; -661.000; -373.000
431.597; -194.225;-1060.000; -848.000
431.721;  -86.900; -276.000; -267.000
431.845; -145.075; -704.000; -472.000
431.969; -103.050; -304.000; -349.000
432.093; -118.475; -395.000; -317.000
432.217;  -35.675;   32.000;   82.000
432.341; -117.300; -523.000; -518.000
432.464;  -67.675;   96.000;   40.000
432.588; -120.825; -401.000; -329.000
432.712;  -67.350;  -52.000;  -52.000
432.836;  -21.050;  213.000;  263.000
432.959; -103.350; -372.000; -311.000
433.083;  -63.325;   11.000;    2.000
433.207;    2.150;  285.000;  930.000
433.330;  -76.175; -391.000; -200.000
433.454; -123.050; -654.000; -638.000
433.578;    4.075;  583.000;  278.000
433.701; -144.925; -623.000; -675.000
433.825; -103.825; -292.000; -299.000
433.949;  -61.600;   28.000;  -72.000
434.072;  -97.700; -410.000; -323.000
434.196;  -89.600; -309.000; -117.000
434.319; 3233.050;25482.000;25124.000
434.443; -135.375; -656.000; -603.000
434.566;  -46.275;  281.000;   62.000
434.690; -130.550; -637.000; -383.000
434.813; -103.525; -251.000; -173.000
434.937; -136.625; -569.000; -696.000
435.060; -121.200; -423.000; -332.000
435.184;  -95.775; -492.000; -217.000
435.307;  -56.850;  159.000;  102.000
435.431;  -57.275;  -40.000;   24.000
435.554;  -99.225; -399.000; -240.000
435.677; -109.700; -350.000; -258.000
435.801;  -66.925;  -25.000;   49.000
435.924;  -59.075;    1.000;  -67.000
436.048; -176.525;-1019.000; -732.000
436.171;  -95.750; -240.000;  -66.000
436.294;  -92.325; -248.000; -229.000
436.417; -175.375; -963.000; -849.000
436.541; -156.625; -814.000; -840.000
436.664;  -72.200; -242.000; -316.000
436.787;  -62.275;   13.000;  113.000
436.910; -133.550; -792.000; -422.000
437.034;  -46.500;  142.000;  143.000
437.157;  -52.000;  -11.000;    0.000
437.280; -109.275; -392.000; -292.000
437.403; -162.575; -982.000; -869.000
437.526; -166.850; -903.000; -865.000
437.649; -117.675; -505.000; -332.000
437.772; -144.700; -692.000; -540.000
437.896;   -2.075;  700.000;  544.000
438.019; -148.275; -758.000; -503.000
438.142; -129.700; -596.000; -506.000
438.265; -154.200; -639.000; -670.000
438.388; -103.325; -520.000; -410.000
438.511; -134.000; -597.000; -394.000
438.634; -107.875; -247.000; -125.000
438.757; -144.125; -693.000; -619.000
438.880;  -73.250;  -34.000;  -57.000
439.003; -114.200; -417.000; -437.000
439.126;  -83.625; -287.000; -167.000
439.248;  -80.675;  -98.000; -139.000
439.371;  -54.600;    9.000;  -53.000
439.494;   11.750;  510.000;  439.000
439.617;  -65.150;   65.000;  -88.000
439.740; -183.150; -968.000; -816.000
439.863; -153.300; -755.000; -595.000
439.986; -126.975; -476.000; -431.000
440.108;  -88.700; -161.000; -112.000
440.231; -172.350; -950.000; -836.000
440.354;  -78.475;  -64.000; -150.000
440.477; -142.775; -566.000; -542.000
440.599; -107.750; -200.000; -225.000
440.722; -131.850; -709.000; -586.000
440.845;   35.375;  751.000;  928.000
440.968; -122.525; -415.000; -311.000
441.090;  -81.375; -199.000;  -33.000
441.213; -178.950;-1021.000; -825.000
441.336;  -66.750; -159.000;   -5.000
441.458; -112.200; -549.000; -396.000
441.581; -140.825; -628.000; -629.000
441.703;  -81.225; -152.000;   13.000
441.826; -120.225; -557.000; -400.000
441.948;  -70.675;   56.000;   51.000
442.071;   -3.325;  555.000;  424.000
442.193; -128.325; -531.000; -485.000
442.316;  -47.500;  152.000;   97.000
442.438;  -89.250; -233.000;  -10.000
442.561;  -29.425;  272.000;  262.000
442.683; -145.975; -809.000; -522.000
442.806;  -60.925;   -8.000;   74.000
442.928; -153.600; -859.000; -604.000
443.051; -131.675; -577.000; -373.000
443.173; -103.525; -341.000; -339.000
443.295; -111.325; -263.000; -371.000
443.418; -105.425; -321.000;  -29.000
443.540;  -73.275; -106.000;   -4.000
443.662; -136.775; -563.000; -465.000
443.785;  -31.150;  335.000;  199.000
443.907; -113.825; -362.000; -208.000
444.029; -134.050; -767.000; -494.000
444.152; -157.175; -644.000; -554.000
444.274;  -55.550;  -18.000;  -24.000
444.396; -119.975; -461.000; -221.000
444.518; -136.600; -691.000; -454.000
444.640; -127.250; -268.000; -111.000
444.763;  -30.975;  388.000;  249.000
444.885; -139.100; -432.000; -392.000
445.007;  -57.600;   35.000;   86.000
445.129; -128.825; -610.000; -515.000
445.251; -119.725; -372.000; -439.000
445.373; -147.475; -537.000; -386.000
445.495;  -31.400;  242.000;  350.000
445.617;   10.125;  853.000;  753.000
445.739; -103.825; -215.000;  -97.000
445.861;  -87.550; -245.000; -112.000
445.984; -100.600; -267.000; -101.000
446.105; -113.050; -418.000; -251.000
446.227;  -73.925; -176.000;  -19.000
446.349; -139.200; -358.000; -249.000
446.471; -145.100; -615.000; -448.000
446.593;  -96.850; -316.000;   19.000
446.715;  -70.400;  -67.000;   41.000
446.837;   25.675;  697.000;  832.000
446.959; -122.350; -457.000; -478.000
447.081; -133.925; -628.000; -518.000
447.203;   27.050;  862.000;  834.000
447.325; -108.450; -270.000;   42.000
447.446;  -12.325;  286.000;  530.000
447.568; -173.300; -921.000; -803.000
447.690; -104.775; -236.000; -245.000
447.812; -151.500; -798.000; -519.000
447.933;  -57.100;  155.000;  127.000
448.055; -108.075; -306.000; -261.000
448.177;  -55.250;   31.000;   79.000
448.299; -190.600; -935.000; -727.000
448.420;  -46.625;  -25.000;  159.000
448.542;  -79.550;   -3.000;   33.000
448.664;  -33.850;  109.000;  322.000
448.785;  -55.925;  265.000;   83.000
448.907; -129.500; -614.000; -353.000
449.028; -159.450; -771.000; -471.000
449.150;   15.125;  492.000;  589.000
449.272; -182.875;-1044.000; -913.000
449.393;    1.175;  612.000;  694.000
449.515; -163.125; -634.000; -581.000
449.636;  -91.575; -264.000; -155.000
449.758;   29.275;  763.000;  622.000
449.879; -118.300; -498.000; -396.000
450.001; -106.050; -149.000;  -49.000
450.122;  -64.075;  -95.000;  162.000
450.244;  -52.500;   37.000;  364.000
450.365; -127.000; -495.000; -301.000
450.486;  -65.425;   80.000;  268.000
450.608;  -44.775;  393.000;  326.000
450.729;   -8.700;  578.000;  645.000
450.850; -131.925; -574.000; -466.000
450.972; -152.000; -552.000; -389.000
451.093;  -26.525;  190.000;  588.000
451.214; -126.200; -516.000; -337.000
451.336;    5.375;  773.000;  579.000
451.457;  -31.700;  264.000;  393.000
451.578;  -88.425; -118.000;  -74.000
451.699; -148.800; -546.000; -540.000
451.821;  -92.925; -284.000;  -50.000
451.942;  -33.275;  278.000;  285.000
452.063;  -32.000;  228.000;  419.000
452.184;  -85.350;  -54.000;  -49.000
452.305;  -54.825;  103.000;  170.000
452.427; -127.800; -549.000; -301.000
452.548;  -65.200;   23.000;   79.000
452.669;  -92.375; -257.000;  -89.000
452.790;  -89.675;    3.000;  -18.000
452.911;  -53.000;  195.000;  259.000
453.032; -106.675; -289.000;  -60.000
453.153;  -77.600;  -29.000;   81.000
453.274;   35.650;  737.000;  868.000
453.395;  -73.150;  -51.000;  175.000
453.516;   73.275; 1317.000; 1388.000
453.637; -108.775; -205.000; -150.000
453.758;  -64.250;   15.000;   69.000
453.879; -140.325; -462.000; -250.000
454.000;   51.100; 1086.000;  948.000
454.121; -144.025; -554.000; -326.000
454.242; -130.000; -599.000; -383.000
454.362;  -73.625;  -99.000;  114.000
454.483; -109.300; -309.000; -229.000
454.604;  -23.450;  512.000;  580.000
454.725; -150.525; -627.000; -555.000
454.846; -132.525; -474.000; -406.000
454.967;  -40.725;  230.000;  539.000
455.087;  -47.800;  179.000;  153.000
455.208;   -1.575;  554.000;  856.000
455.329;  -76.850;  -22.000;   82.000
455.450;  -23.500;  473.000;  633.000
455.570; -100.500; -234.000; -211.000
455.691;  -55.975;  201.000;  407.000
455.812; -105.675; -270.000;  -92.000
455.932;  -75.575;  107.000;  -97.000
456.053;  -90.975;   36.000;   24.000
456.173; -115.250; -433.000; -355.000
456.294; -133.825; -476.000; -303.000
456.415;  -67.175;  -73.000;   70.000
456.535;  -51.000;  297.000;  273.000
456.656;  -64.750;  132.000;  240.000
456.776;  -68.675;    3.000;  298.000
456.897;  -22.150;  308.000;  513.000
457.017;  -92.775; -153.000;   -3.000
457.138; -119.850; -402.000; -249.000
457.258;  -67.950;  263.000;  224.000
457.379;  -27.275;  509.000;  521.000
457.499;  -26.775;  443.000;  432.000
457.620; -132.150; -407.000; -231.000
457.740; -103.625; -132.000;  -11.000
457.860;  -69.925;   87.000;   44.000
457.981;  -79.725;  132.000;  124.000
458.101;  -94.075;  -89.000;   40.000
458.221;  -30.125;  336.000;  402.000
458.342;  -93.000;   -4.000;  -37.000
458.462;  -18.625;  617.000;  352.000
458.582;  -99.550; -302.000; -294.000
458.703;  -55.150;  303.000;  154.000
458.823;  -77.100;   22.000;  163.000
458.943;  -44.000;  341.000;  467.000
459.063;  -50.675; 1124.000;  192.000
459.183;  -47.450;  328.000;  313.000
459.304;  -26.000;  315.000;  517.000
459.424;  -95.500; -246.000;  -89.000
459.544;   -4.875;  388.000;  764.000
459.664;   -9.925;  499.000;  506.000
459.784;   42.700; 1004.000; 1175.000
459.904;   -6.650;  867.000;  744.000
460.024;   20.125;  867.000;  684.000
460.144;  -26.875;  449.000;  554.000
460.264;  -14.925;  515.000;  327.000
460.385;  -82.250; -145.000; -119.000
460.505;   19.625;  905.000;  858.000
460.625;  -88.975;  -17.000;  -68.000
460.745;  -27.275;  396.000;  541.000
460.864;  -51.250;  153.000;  469.000
460.984;  -15.650;  499.000;  573.000
461.104;   95.500; 1656.000; 1775.000
461.224;    4.150;  657.000;  650.000
461.344;  -35.200;  431.000;  360.000
461.464;  -53.150;  258.000;  513.000
461.584;  -38.350;  283.000;  466.000
461.704;  -81.250;   58.000;  108.000
461.824;  -71.500;  238.000;  259.000
461.943;  -45.475;  191.000;  130.000
462.063;  -87.925;    2.000;  324.000
462.183;   16.500;  639.000;  717.000
462.303;   82.625; 1678.000; 1230.000
462.422;   22.425;  781.000;  840.000
462.542;  -65.925;  271.000;  391.000
462.662;  -19.625;  353.000;  380.000
462.782;  -11.575;  833.000;  572.000
462.901;  -17.700;  545.000;  717.000
463.021;  115.825; 1702.000; 1638.000
463.141;  -40.125;  337.000;  770.000
463.260;  -13.600;  614.000;  474.000
463.380;   10.200;  902.000;  884.000
463.499;  -37.375;  342.000;  332.000
463.619;  -32.950;  581.000;  559.000
463.738;   91.425; 1644.000;  903.000
463.858;   -3.325;  657.000;  811.000
463.978;  -35.100;  542.000;  396.000
464.097;   27.675;  921.000; 1114.000
464.217;   48.250; 1196.000; 1143.000
464.336;   58.675; 1068.000; 1130.000
464.455;  -60.350;  328.000;  659.000
464.575;  -15.300;  597.000;  602.000
464.694;   52.275; 1204.000; 1179.000
464.814;   26.675; 1190.000; 1138.000
464.933;   31.050; 1095.000; 1027.000
465.052;   72.525; 1412.000; 1054.000
465.172;    9.025;  922.000;  799.000
465.291;   71.925; 1376.000; 1320.000
465.410;  -14.500;  462.000;  735.000
465.530;   75.000; 1355.000; 1310.000
465.649;   38.450; 1209.000; 1273.000
465.768;   85.975; 1673.000; 1508.000
465.888;   34.300;  941.000; 1174.000
466.007;   69.800; 1335.000; 1440.000
466.126;   -3.250;  721.000;  641.000
466.245;   39.275; 1176.000; 1187.000
466.364;   17.075;  950.000; 1060.000
466.484;   57.325; 1024.000; 1213.000
466.603;   29.900; 1101.000; 1222.000
466.722;   91.575; 1490.000; 1769.000
466.841;   56.425; 1151.000; 1401.000
466.960;   31.450; 1069.000;  972.000
467.079;  131.525; 1971.000; 1786.000
467.198;   31.625; 1238.000; 1181.000
467.317;   79.100; 1768.000; 1162.000
467.436;   61.150; 1709.000; 1261.000
467.555;  124.950; 1796.000; 1746.000
467.674;   52.625; 1227.000; 1329.000
467.793;   51.100; 1376.000; 1374.000
467.912;   74.500; 1658.000; 1539.000
468.031;  126.275; 2038.000; 1930.000
468.150;  126.000; 1842.000; 1837.000
468.269;  153.575; 2313.000; 2090.000
468.388;  173.900; 2168.000; 2339.000
468.507;  239.900; 2884.000; 2903.000
468.626;  202.275; 2555.000; 2541.000
468.744;  132.325; 2018.000; 2174.000
468.863;  180.950; 2312.000; 2523.000
468.982;   90.025; 1503.000; 1555.000
469.101;  199.650; 2788.000; 2692.000
469.220;  139.325; 2333.000; 2176.000
469.338;  223.275; 2935.000; 3051.000
469.457;  190.900; 2719.000; 2545.000
469.576;  325.475; 3953.000; 3784.000
469.695;  225.550; 2877.000; 3066.000
469.813;  399.525; 4148.000; 4192.000
469.932;  372.550; 4255.000; 4485.000
470.051;  349.750; 4075.000; 4161.000
470.169;  385.625; 4470.000; 4338.000
470.288;  407.900; 4700.000; 4809.000
470.406;  456.050; 5059.000; 5194.000
470.525;  567.175; 6101.000; 5787.000
470.644;  633.650; 6847.000; 6794.000
470.762;  788.675; 8397.000; 7873.000
470.881;  821.475; 8651.000; 8464.000
470.999;  937.800; 9685.000; 9151.000
471.118; 1059.700;11174.000;10711.000

