
Integration time [ms]: 200.000
Averaging Nr. [scans]: 10
Smoothing Nr. [pixels]: 0
Data measured with spectrometer [name]: 2101012U2
Wave   ;Sample   ;Dark     ;Reference
[nm]   ;[counts] ;[counts] ;[counts] 

197.733;  122.700;  516.000;  404.000
197.879; -165.800; -610.000; -634.000
198.025; -122.100; -475.000; -420.000
198.171; -156.800; -602.000; -612.000
198.317;  -53.100; -401.000; -316.000
198.463; -126.900; -655.000; -404.000
198.609;    3.200;  181.000; -137.000
198.755; -166.700; -644.000; -410.000
198.901; -106.700; -505.000; -424.000
199.047; -137.600; -615.000; -488.000
199.193;  -94.600; -230.000; -468.000
199.339; -111.300; -222.000; -369.000
199.485;   94.100;  330.000;  271.000
199.631;   41.600;  227.000;  310.000
199.777; -107.200; -466.000; -398.000
199.923; -119.800; -610.000; -424.000
200.069;   -2.000; -141.000;  -58.000
200.215;  139.300;  128.000;  453.000
200.361;  100.800;  243.000;  477.000
200.507; -160.600; -600.000; -373.000
200.653;  -49.500; -371.000; -194.000
200.798;  -68.100; -215.000; -125.000
200.944;    2.500; -146.000;  -41.000
201.090;   73.600;   61.000;  222.000
201.236;    6.100; -116.000; -158.000
201.382;  273.700;  874.000;  903.000
201.528;  -18.100;  -58.000;  -48.000
201.674;  -97.000; -386.000; -293.000
201.819; -113.000; -540.000; -439.000
201.965; -160.800; -699.000; -447.000
202.111;  -30.200; -273.000; -226.000
202.257;  -90.800; -250.000; -238.000
202.402;   23.500;   13.000;  -36.000
202.548;  -59.000; -169.000; -116.000
202.694;  174.300;  410.000; -183.000
202.840; -147.800; -603.000; -531.000
202.985; -179.500; -681.000; -639.000
203.131; -213.700; -832.000; -666.000
203.277;  -57.200; -199.000; -262.000
203.423; -104.300; -434.000; -520.000
203.568;  -73.400; -462.000; -237.000
203.714; -116.200; -535.000; -542.000
203.860; -165.200; -682.000; -641.000
204.005;   33.900;  112.000;  167.000
204.151;  150.700;  561.000;  556.000
204.296;  -64.100; -354.000; -221.000
204.442; -157.400; -600.000; -547.000
204.588; -155.200; -592.000; -579.000
204.733;   53.500;  178.000;  168.000
204.879; -285.900;-1018.000; -822.000
205.025;   23.500;  -99.000;  126.000
205.170;  -10.700;  -17.000;   94.000
205.316;  190.800;  438.000;  661.000
205.461; -178.400; -698.000; -554.000
205.607;  182.700;  609.000;  665.000
205.752; -148.200; -626.000; -551.000
205.898; -117.100; -501.000; -391.000
206.043; -128.100; -578.000; -506.000
206.189;  -86.300; -243.000; -285.000
206.334;  171.400;  554.000;  606.000
206.480;  163.200;  409.000;  239.000
206.625; -195.200; -529.000; -552.000
206.771;  -96.900; -451.000; -373.000
206.916;  -67.200; -210.000; -537.000
207.062; -149.500; -545.000; -591.000
207.207; -119.500; -546.000; -443.000
207.353;  120.500;  185.000;  460.000
207.498;   33.100;  196.000;   85.000
207.643; -117.100; -501.000; -370.000
207.789; -272.300;-1069.000; -910.000
207.934; -230.600; -665.000; -713.000
208.080;  -25.300; -154.000;   66.000
208.225;    2.500;  -22.000;  -57.000
208.370; -192.000; -727.000; -619.000
208.516; -137.500; -741.000; -487.000
208.661;  -62.100; -127.000;  -69.000
208.806;  -28.400; -165.000; -171.000
208.952; -247.400;-1044.000; -731.000
209.097;  136.500;  378.000;  349.000
209.242;  -80.200; -307.000; -382.000
209.387;  136.500;  392.000;  350.000
209.533; -115.100; -321.000; -350.000
209.678;  158.100;  472.000;  543.000
209.823; -112.700; -408.000; -310.000
209.969; -231.100; -860.000; -757.000
210.114; -212.400; -907.000; -719.000
210.259; -233.700; -939.000; -889.000
210.404;  -14.000; -171.000;  103.000
210.549;   21.500;  108.000;    3.000
210.695;  -29.200;   -3.000;  -95.000
210.840;   75.400;   94.000;   67.000
210.985; -142.800; -484.000; -303.000
211.130;  139.900;  268.000;  406.000
211.275;   51.000;  207.000;  199.000
211.420; -106.000; -300.000; -289.000
211.566; -168.600; -536.000; -489.000
211.711;   37.000;  218.000;  157.000
211.856; -118.600; -545.000; -519.000
212.001;   22.800;  151.000;   44.000
212.146;    6.700;  153.000;   49.000
212.291;  -54.400; -210.000; -186.000
212.436;  -25.600; -280.000;   -6.000
212.581; -192.700; -685.000; -653.000
212.726; -171.600; -487.000; -538.000
212.871; -112.700; -552.000; -217.000
213.016; -295.600;-1172.000;-1029.000
213.161;  131.400;  406.000;  291.000
213.306; -155.100; -435.000; -577.000
213.451; -201.000; -778.000; -689.000
213.596;  -73.900; -455.000; -347.000
213.741;  -95.300; -448.000; -538.000
213.886; -167.300; -498.000; -517.000
214.031;  -63.400; -294.000; -124.000
214.176; -118.300; -408.000; -341.000
214.321;  -15.100; -296.000; -157.000
214.466;  -73.800; -163.000;  -43.000
214.611;  -28.000;  -61.000;  -10.000
214.756; -259.900; -948.000; -858.000
214.901;  -37.600; -388.000; -226.000
215.046; -264.600; -797.000; -825.000
215.191;   33.400;  128.000;   35.000
215.336;  -40.700; -157.000;  -19.000
215.480; -139.000; -684.000; -505.000
215.625;  -20.800; -175.000;  -19.000
215.770; -179.600; -757.000; -662.000
215.915;  -55.200;   -5.000;  -97.000
216.060;  -21.900; -113.000;  -21.000
216.205; -213.900; -731.000; -779.000
216.349; -147.400; -470.000; -533.000
216.494; -285.800; -939.000; -867.000
216.639; -240.800; -823.000; -888.000
216.784; -170.900; -577.000; -525.000
216.929;  119.200;  392.000;  281.000
217.073;   -8.300; -244.000;  -31.000
217.218;   14.500;   78.000;  -47.000
217.363; -174.400; -656.000; -618.000
217.507; -184.800; -623.000; -588.000
217.652; -273.200; -845.000; -874.000
217.797; -183.700; -708.000; -659.000
217.942; -212.200; -856.000; -720.000
218.086;  153.400;  608.000;  539.000
218.231;    7.400; -174.000;  -26.000
218.376;  -83.500; -337.000; -229.000
218.520;   17.100;  -41.000;   96.000
218.665;  -67.800; -338.000; -204.000
218.810;  -67.600; -275.000; -233.000
218.954;   50.100;  201.000;   35.000
219.099; -230.000; -713.000; -963.000
219.243; -150.300; -589.000; -554.000
219.388;  -62.700; -264.000; -136.000
219.532;  -52.400; -116.000; -116.000
219.677; -170.700; -564.000; -521.000
219.822;   29.100;   33.000;   89.000
219.966;   35.100;   17.000;  -99.000
220.111;  -47.800; -328.000;  -40.000
220.255; -212.300; -797.000; -750.000
220.400;  -31.800; -180.000; -146.000
220.544; -133.600; -516.000; -450.000
220.689; -114.100; -422.000; -451.000
220.833;  -50.500; -123.000;  -58.000
220.978; -100.300; -393.000; -563.000
221.122;   43.800;  319.000;  307.000
221.267; -241.000; -906.000; -837.000
221.411; -132.700; -478.000; -394.000
221.555;   -8.100; -104.000;  -23.000
221.700;  -98.500; -329.000; -222.000
221.844;   41.800;  255.000;  272.000
221.989;  -94.900; -328.000; -311.000
222.133;  -68.400; -289.000; -307.000
222.277;  -40.000;    5.000;   78.000
222.422;   16.500;  227.000;  113.000
222.566;  -73.400; -381.000; -214.000
222.711; -133.200; -414.000; -479.000
222.855; -170.200; -643.000; -586.000
222.999; -183.600; -642.000; -717.000
223.144;  -64.700; -195.000; -194.000
223.288;  100.700;  423.000;  251.000
223.432;   42.800;  184.000;  230.000
223.576;   55.500;  152.000;  -21.000
223.721;  118.000;  364.000;  273.000
223.865; -104.600; -472.000; -475.000
224.009;  528.300; 1673.000; 1631.000
224.153; -174.300; -660.000; -671.000
224.298; -136.500; -531.000; -489.000
224.442;  -63.900;  -74.000;  -33.000
224.586;    7.400; -169.000; -106.000
224.730; -178.700; -858.000; -670.000
224.875; -217.700; -739.000; -688.000
225.019;   28.500;  102.000;  188.000
225.163;  117.400;  208.000;  341.000
225.307;   54.700;   97.000;  -91.000
225.451;  114.200;  360.000;  481.000
225.595;   62.600;  264.000;  176.000
225.739;  -11.600; -170.000;  -94.000
225.884;   13.400;   86.000;    5.000
226.028; -202.300; -760.000; -626.000
226.172;  -94.400; -260.000; -273.000
226.316; -254.700; -941.000; -902.000
226.460; -135.300; -645.000; -493.000
226.604; -115.400; -406.000; -400.000
226.748; -212.400; -836.000; -733.000
226.892;  -33.500; -227.000; -181.000
227.036; -108.200; -537.000; -447.000
227.180; -128.600; -551.000; -375.000
227.324; -127.300; -561.000; -580.000
227.468; -231.300; -819.000; -717.000
227.612;   10.600;  242.000;  -28.000
227.756; -186.300; -845.000; -698.000
227.900;  117.800;  342.000;  441.000
228.044; -116.000; -509.000; -290.000
228.188;  151.700;  448.000;  568.000
228.332; -176.500; -546.000; -472.000
228.476;  -65.400; -223.000; -149.000
228.620;  -16.300; -210.000; -150.000
228.764;  167.600;  431.000;  349.000
228.908;  -35.500; -155.000;   30.000
229.052; -120.800; -615.000; -528.000
229.195;  -27.300; -172.000;   13.000
229.339;  -52.800; -235.000; -305.000
229.483;  -49.100;    5.000; -162.000
229.627;   40.400; -156.000;  139.000
229.771;  -94.400; -218.000; -294.000
229.915;   36.100;  230.000;   79.000
230.059; -206.200; -648.000; -663.000
230.202;  -75.600; -370.000; -317.000
230.346;  -27.000; -107.000;  107.000
230.490; -129.400; -489.000; -521.000
230.634; -202.300; -736.000; -553.000
230.777;  188.600;  478.000;  509.000
230.921; -121.000; -450.000; -359.000
231.065;  -94.100; -246.000; -286.000
231.209;   58.200;  261.000;  265.000
231.352;   71.400;   54.000;   40.000
231.496;   66.300;  568.000;  188.000
231.640; -152.800; -693.000; -621.000
231.783;  150.800;  546.000;  525.000
231.927; -102.900; -294.000; -365.000
232.071; -242.300; -962.000; -736.000
232.214; -231.700; -980.000; -764.000
232.358; -232.900; -683.000; -599.000
232.502;   48.300;  -19.000;    7.000
232.645; -275.300;-1090.000; -927.000
232.789;  -43.900; -257.000; -218.000
232.933; -100.000; -407.000; -224.000
233.076; -256.400;-1038.000; -897.000
233.220; -200.600; -752.000; -777.000
233.363; -156.200; -669.000; -477.000
233.507;  154.700;  371.000;  129.000
233.650; -209.400; -764.000; -834.000
233.794;  101.100;  438.000;  461.000
233.938; -133.200; -530.000; -362.000
234.081;  -23.400;  -93.000;   31.000
234.225; -136.800; -631.000; -539.000
234.368; -238.800; -773.000; -723.000
234.512;  -81.600; -385.000; -299.000
234.655; -176.600; -582.000; -555.000
234.798; -136.000; -493.000; -466.000
234.942; -288.600; -884.000;-1002.000
235.085; -140.800; -651.000; -443.000
235.229; -131.700; -405.000; -410.000
235.372;  -84.900; -247.000; -191.000
235.516;  -69.600; -397.000; -321.000
235.659;   50.800;   92.000;  121.000
235.802;  -49.000;  -38.000;  -22.000
235.946;   79.200;  335.000;  215.000
236.089;   56.700;  126.000;  250.000
236.233;  120.500;  275.000;  298.000
236.376;  -67.900; -235.000; -378.000
236.519;  -96.600; -297.000; -319.000
236.663;  -22.100; -215.000; -117.000
236.806; -284.800;-1029.000; -999.000
236.949;   95.100;  543.000;  431.000
237.092;  107.900;  412.000;  391.000
237.236; -151.800; -589.000; -502.000
237.379;  142.900;  352.000;  428.000
237.522; -235.200; -879.000; -768.000
237.666;  -24.800; -271.000;   18.000
237.809; -255.400; -851.000; -823.000
237.952;   79.000;  469.000;  271.000
238.095; -119.200; -447.000; -442.000
238.238;  201.000;  688.000;  700.000
238.382;  -16.100;  166.000;  103.000
238.525; -150.100; -598.000; -511.000
238.668; -258.000;-1060.000; -985.000
238.811; -170.500; -638.000; -643.000
238.954; -103.900; -483.000; -334.000
239.097;  173.200;  617.000;  664.000
239.241;   72.300;  394.000;  326.000
239.384;  -86.100; -254.000; -214.000
239.527; -123.100; -424.000; -224.000
239.670; -303.500; -994.000;-1091.000
239.813; -207.400; -696.000; -658.000
239.956;  159.900;  579.000;  473.000
240.099; -233.100; -778.000; -725.000
240.242;  146.400;  428.000;  432.000
240.385;  120.600;  466.000;  450.000
240.528; -126.600; -706.000; -473.000
240.671;   42.500;  189.000;  134.000
240.814;  -77.000; -441.000; -158.000
240.957; -174.500; -767.000; -578.000
241.100; -212.000; -779.000; -755.000
241.243; -283.400;-1234.000; -893.000
241.386; -109.200; -508.000; -379.000
241.529; -194.900; -735.000; -547.000
241.672;  -93.300; -566.000; -495.000
241.815; -217.600; -832.000; -808.000
241.958;  -54.400; -125.000; -182.000
242.101; -159.600; -545.000; -390.000
242.244;  -72.200; -270.000; -325.000
242.387;  -70.200; -304.000; -246.000
242.530;  112.400;  470.000;  134.000
242.673;  -52.700; -381.000; -309.000
242.815; -237.800; -925.000; -899.000
242.958; -140.500; -482.000; -381.000
243.101;   34.200;  132.000;  187.000
243.244; -169.600; -564.000; -521.000
243.387;  -67.800; -313.000; -316.000
243.530; -202.500; -657.000; -674.000
243.672;   -2.700;   43.000;  -92.000
243.815; -101.500; -355.000; -283.000
243.958;    1.400;   98.000;  -26.000
244.101;   20.500;   59.000;  -16.000
244.243;    0.100;  -47.000;  101.000
244.386; -204.200; -761.000; -630.000
244.529;  -40.700; -132.000; -139.000
244.672; -314.700;-1154.000; -951.000
244.814; -207.900; -621.000; -794.000
244.957; -130.400; -380.000; -304.000
245.100; -134.900; -489.000; -489.000
245.242; -123.500; -387.000; -374.000
245.385;   -3.600;  -59.000;  -39.000
245.528; -231.000; -871.000; -705.000
245.670;  184.000;  612.000;  634.000
245.813; -139.300; -599.000; -547.000
245.956;  -81.800; -324.000; -275.000
246.098; -120.900; -508.000; -650.000
246.241;   10.900;  194.000;   48.000
246.383;  -33.600; -119.000;  -73.000
246.526; -156.300; -454.000; -525.000
246.669; -223.100; -889.000; -780.000
246.811;   43.500;  172.000;   -1.000
246.954; -103.900; -512.000; -426.000
247.096;   -8.100;  -84.000;   -6.000
247.239; -161.000; -482.000; -445.000
247.381; -163.400; -647.000; -488.000
247.524;  200.600;  645.000;  679.000
247.666;   12.600;   58.000;   11.000
247.809; -258.200; -887.000; -691.000
247.951;   -1.100;  -75.000;  138.000
248.094;   81.900;  432.000;  308.000
248.236; -347.200;-1262.000;-1238.000
248.378;  -78.400; -356.000;  -81.000
248.521; -131.400; -334.000; -337.000
248.663;  -80.700; -236.000; -267.000
248.806;  -66.100; -300.000; -266.000
248.948; -244.900; -886.000; -763.000
249.090; -127.800; -428.000; -398.000
249.233; -110.300; -344.000; -381.000
249.375; -123.000; -474.000; -451.000
249.518;  -22.000;  -83.000; -133.000
249.660;   14.600; -103.000;    3.000
249.802; -357.000;-1303.000;-1189.000
249.945; -178.500; -612.000; -540.000
250.087; -233.600; -834.000; -768.000
250.229; -118.200; -362.000; -480.000
250.371; -142.700; -494.000; -439.000
250.514; -105.300; -310.000; -244.000
250.656;   -4.100;   69.000;  102.000
250.798; -234.200; -849.000; -800.000
250.940; -100.800; -322.000; -322.000
251.083;  -65.700; -335.000; -111.000
251.225;  114.500;  338.000;  310.000
251.367;  -84.000; -274.000; -373.000
251.509;  -54.500; -265.000; -210.000
251.651; -219.300; -731.000; -671.000
251.794;  132.100;  538.000;  632.000
251.936; -241.700; -821.000; -747.000
252.078; -162.900; -540.000; -461.000
252.220; -173.100; -645.000; -477.000
252.362;   92.000;  344.000;  462.000
252.504; -173.100; -677.000; -584.000
252.646; -250.000; -875.000; -722.000
252.788;  -17.700;   14.000; -128.000
252.931; -108.800; -257.000; -253.000
253.073;  -90.100; -376.000; -317.000
253.215;    4.400;  141.000;  122.000
253.357;  -27.800;   82.000; -153.000
253.499; -115.400; -374.000; -234.000
253.641; -201.900; -749.000; -594.000
253.783; -204.300; -609.000; -527.000
253.925; -193.100; -586.000; -591.000
254.067; -234.300; -744.000; -667.000
254.209;  -97.200; -391.000; -259.000
254.351; -268.900; -865.000; -883.000
254.493; -133.600; -441.000; -417.000
254.635; -238.400; -936.000; -818.000
254.777; -209.000; -752.000; -687.000
254.918; -163.500; -512.000; -430.000
255.060; -132.200; -551.000; -395.000
255.202; -104.800; -473.000; -261.000
255.344; -181.400; -658.000; -455.000
255.486; -126.100; -471.000; -406.000
255.628; -202.800; -780.000; -781.000
255.770; -172.300; -676.000; -536.000
255.912; -143.100; -559.000; -468.000
256.053; -164.100; -730.000; -508.000
256.195;  345.300; 1008.000;  903.000
256.337; -212.300; -861.000; -595.000
256.479;  166.000;  532.000;  416.000
256.621; -100.300; -394.000; -212.000
256.762; -190.700; -789.000; -742.000
256.904;  116.500;  485.000;  487.000
257.046;  -94.100; -381.000; -271.000
257.188;  -87.800; -351.000; -264.000
257.329; -149.500; -525.000; -464.000
257.471; -264.000; -939.000; -807.000
257.613; -150.700; -584.000; -498.000
257.755; -287.600;-1073.000; -982.000
257.896;   69.700;  286.000;  392.000
258.038; -108.700; -403.000; -352.000
258.180; -111.200; -354.000; -279.000
258.321; -181.800; -581.000; -457.000
258.463;    4.700;  -71.000;  133.000
258.605; -177.500; -562.000; -570.000
258.746; -209.200; -886.000; -772.000
258.888; -316.900;-1026.000;-1020.000
259.029;   63.200;  121.000;   -8.000
259.171; -164.300; -614.000; -550.000
259.313;    4.400;  -49.000;  -47.000
259.454; -156.800; -536.000; -414.000
259.596; -106.300; -483.000; -390.000
259.737; -157.800; -590.000; -474.000
259.879;   98.800;  217.000;  311.000
260.020;  223.700;  901.000;  636.000
260.162;  -63.200; -146.000; -253.000
260.303; -240.500; -768.000; -687.000
260.445; -185.600; -609.000; -613.000
260.586;   87.300;  392.000;  157.000
260.728; -104.500; -360.000; -248.000
260.869; -140.700; -350.000; -343.000
261.011;  154.700;  706.000;  537.000
261.152;  -95.400; -479.000; -319.000
261.293; -146.400; -576.000; -595.000
261.435;  -37.500; -219.000; -184.000
261.576;  -93.000; -455.000; -325.000
261.718;  133.700;  420.000;  470.000
261.859; -275.000; -940.000; -949.000
262.000; -260.000; -951.000;-1016.000
262.142;  -27.700;  -52.000;  -60.000
262.283; -218.700; -808.000; -691.000
262.424; -181.100; -666.000; -625.000
262.566; -351.000;-1161.000; -983.000
262.707; -228.000; -840.000; -830.000
262.848; -241.800; -769.000; -726.000
262.990;  -89.000; -362.000; -345.000
263.131;  177.000;  650.000;  681.000
263.272;  -34.400;  -61.000;  -41.000
263.413; -186.700; -589.000; -561.000
263.555; -145.900; -669.000; -143.000
263.696; -160.300; -550.000; -641.000
263.837; -104.600; -449.000; -551.000
263.978;   14.900;   -5.000;  -77.000
264.119;  -60.800; -283.000; -264.000
264.261; -235.900; -847.000; -630.000
264.402;   13.900;   33.000;   40.000
264.543; -156.400; -509.000; -524.000
264.684;   -9.200;   61.000;  -50.000
264.825; -144.500; -816.000; -538.000
264.966;   10.100;  -84.000;  -67.000
265.107; -227.000; -646.000; -670.000
265.248; -247.200; -825.000; -812.000
265.390;   27.300;  152.000;   -9.000
265.531;  -35.300; -238.000; -107.000
265.672; -173.500; -557.000; -630.000
265.813;  151.500;  563.000;  439.000
265.954; -283.700; -959.000; -940.000
266.095;  -16.800; -372.000; -322.000
266.236; -194.000; -686.000; -548.000
266.377;  -60.000; -243.000; -297.000
266.518; -155.300; -619.000; -547.000
266.659;   33.300;  170.000;  268.000
266.800;   27.900;   83.000;   85.000
266.941; -150.300; -487.000; -478.000
267.082;   54.800;  354.000;   99.000
267.223; -109.500; -344.000; -273.000
267.364; -248.900; -892.000; -686.000
267.504;  -21.000;    3.000;  135.000
267.645;  -13.400;  160.000;   67.000
267.786;  -71.700; -147.000;  -86.000
267.927; -140.400; -473.000; -379.000
268.068;  -28.900; -186.000;  -61.000
268.209;  -94.000; -175.000; -413.000
268.350; -112.700; -388.000; -532.000
268.490; -167.800; -648.000; -521.000
268.631;   70.500;  127.000;  225.000
268.772; -193.700; -874.000; -647.000
268.913;  -95.400; -328.000; -476.000
269.054;  -37.600; -117.000;   12.000
269.194;  -84.100; -418.000; -402.000
269.335; -310.500;-1137.000;-1074.000
269.476;  -61.900;   33.000;  -35.000
269.617;  -99.900; -347.000; -392.000
269.757; -216.700; -713.000; -646.000
269.898; -220.700; -856.000; -613.000
270.039; -112.200; -415.000; -405.000
270.180; -292.100; -952.000; -816.000
270.320;  -42.600; -190.000; -250.000
270.461;  -71.000; -277.000; -249.000
270.602;   -8.400; -186.000; -156.000
270.742; -259.700; -868.000; -943.000
270.883; -122.400; -442.000; -390.000
271.023;  -92.800; -358.000; -357.000
271.164; -141.700; -607.000; -528.000
271.305; -205.700; -666.000; -654.000
271.445; -217.700; -722.000; -683.000
271.586; -132.900; -462.000; -283.000
271.726;  -97.500; -397.000; -322.000
271.867; -159.400; -594.000; -534.000
272.008;  -50.600; -473.000; -285.000
272.148;  112.300;  462.000;  468.000
272.289;   -9.400; -113.000; -181.000
272.429;  -17.900;   19.000;  185.000
272.570; -241.700; -633.000; -737.000
272.710; -207.400; -825.000; -775.000
272.851;  -53.400;  113.000; -130.000
272.991; -343.800;-1173.000;-1077.000
273.131; -118.100; -419.000; -459.000
273.272; -222.200; -683.000; -723.000
273.412;  -28.100; -143.000;  -31.000
273.553; -133.200; -488.000; -507.000
273.693;  214.100;  913.000;  858.000
273.834; -268.500; -894.000; -692.000
273.974; -193.800; -664.000; -615.000
274.114; -179.600; -772.000; -560.000
274.255;   74.200;  414.000;  373.000
274.395;  -85.700; -180.000; -125.000
274.535;   74.300;  199.000;  350.000
274.676;   36.600;  225.000;   94.000
274.816;   -4.800;  110.000;   34.000
274.956; -185.500; -624.000; -690.000
275.097; -266.900;-1014.000; -922.000
275.237; -273.000; -913.000; -803.000
275.377; -225.600; -778.000; -689.000
275.517; -298.500; -878.000; -937.000
275.658; -139.400; -590.000; -555.000
275.798; -149.000; -606.000; -413.000
275.938;   44.300;  215.000;  323.000
276.078; -178.300; -626.000; -395.000
276.218;   -0.100;   99.000;  104.000
276.359; -271.200;-1026.000;-1024.000
276.499; -157.300; -605.000; -446.000
276.639;  -82.100; -305.000; -151.000
276.779; -102.700; -475.000; -357.000
276.919; -202.800; -783.000; -624.000
277.059;  -53.200; -261.000; -212.000
277.199;  -89.500; -357.000; -259.000
277.340;   91.300;  287.000;  175.000
277.480; -249.300; -840.000; -693.000
277.620;   61.700;  192.000;   16.000
277.760; -404.200;-1533.000;-1294.000
277.900;   25.700;  113.000;   33.000
278.040;   49.600;  137.000;  159.000
278.180;   88.700;  270.000;  170.000
278.320;   -7.600;   21.000;   56.000
278.460; -122.700; -443.000; -469.000
278.600; -163.400; -708.000; -598.000
278.740;  112.800;  448.000;  224.000
278.880; -256.800; -768.000; -791.000
279.020;  -32.000; -194.000; -144.000
279.160; -183.700; -672.000; -595.000
279.300; -253.100; -926.000; -873.000
279.440; -221.700; -709.000; -622.000
279.579; -278.800;-1014.000; -929.000
279.719; -148.600; -410.000; -394.000
279.859;   40.900;   -4.000;   41.000
279.999;  -34.700; -208.000;  101.000
280.139; -129.300; -435.000; -387.000
280.279; -198.800; -708.000; -745.000
280.419;   -5.700; -229.000; -147.000
280.559;  -63.900; -259.000; -180.000
280.698; -182.600; -790.000; -639.000
280.838; -227.300; -778.000; -800.000
280.978; -207.200; -846.000; -790.000
281.118; -230.100; -811.000; -704.000
281.257;   27.500;   24.000;    6.000
281.397; -287.300;-1094.000; -960.000
281.537; -185.900; -599.000; -712.000
281.677;  -13.100; -150.000; -101.000
281.816; -179.600; -700.000; -630.000
281.956;  -84.900; -193.000; -257.000
282.096; -121.400; -539.000; -396.000
282.235; -187.500; -672.000; -638.000
282.375;  -82.500; -243.000;  -98.000
282.515; -195.100; -715.000; -707.000
282.654;   52.100;   29.000;  106.000
282.794;   74.900;  388.000;  244.000
282.934; -107.800; -530.000; -491.000
283.073; -264.900;-1030.000; -857.000
283.213; -144.700; -460.000; -467.000
283.353; -108.500; -408.000; -349.000
283.492;  -92.600; -264.000; -296.000
283.632; -130.000; -254.000; -168.000
283.771; -220.600; -859.000; -730.000
283.911; -136.000; -369.000; -260.000
284.050; -221.300; -794.000; -748.000
284.190; -302.700;-1229.000;-1096.000
284.329; -343.600;-1055.000; -964.000
284.469; -189.900; -516.000; -591.000
284.608; -124.200; -559.000; -598.000
284.748; -150.000; -614.000; -570.000
284.887;  -32.100;  -87.000;  -20.000
285.027; -275.800; -844.000; -892.000
285.166;  -70.900; -192.000; -249.000
285.306;  -32.500; -116.000;  -33.000
285.445;  -87.000; -229.000; -343.000
285.584; -184.300; -630.000; -494.000
285.724;  -83.600; -282.000; -322.000
285.863; -218.800; -857.000; -507.000
286.002; -116.700; -366.000; -276.000
286.142; -225.000; -715.000; -622.000
286.281; -128.200; -525.000; -493.000
286.420; -160.100; -554.000; -417.000
286.560;  207.500;  653.000;  623.000
286.699; -301.500; -958.000; -912.000
286.838; -172.100; -590.000; -591.000
286.978; -175.400; -533.000; -537.000
287.117; -267.500;-1085.000; -950.000
287.256;  -74.100; -228.000; -211.000
287.395; -130.800; -197.000; -378.000
287.535;  -99.400; -370.000; -298.000
287.674; -157.300; -509.000; -484.000
287.813;  142.000;  661.000;  533.000
287.952; -272.400;-1010.000; -871.000
288.091; -346.400;-1049.000; -915.000
288.231;  -16.300;   13.000;   15.000
288.370; -365.200;-1217.000;-1200.000
288.509; -174.800; -728.000; -645.000
288.648; -180.000; -770.000; -548.000
288.787;  -59.900; -243.000;  -87.000
288.926; -159.600; -454.000; -475.000
289.065;  217.400;  859.000;  672.000
289.204; -113.000; -377.000; -217.000
289.344; -214.600; -791.000; -690.000
289.483;   38.600;  416.000;  304.000
289.622;  -49.100; -291.000; -149.000
289.761;  -33.500; -309.000; -166.000
289.900; -240.800; -785.000; -626.000
290.039;  -31.100;  -12.000;  -95.000
290.178;  -99.600; -274.000; -180.000
290.317; -174.200; -618.000; -479.000
290.456; -117.000; -463.000; -451.000
290.595; -299.900; -961.000; -833.000
290.734; -245.400; -904.000; -891.000
290.873; -139.800; -456.000; -420.000
291.011; -227.800; -833.000; -843.000
291.150; -232.300; -770.000; -682.000
291.289;  -58.900; -343.000; -110.000
291.428; -177.800; -599.000; -480.000
291.567; -102.800; -370.000; -442.000
291.706;   38.900;  109.000;  154.000
291.845; -170.500; -597.000; -505.000
291.984; -351.200;-1234.000;-1061.000
292.122;  158.400;  602.000;  582.000
292.261;   91.100;  620.000;  463.000
292.400;   11.200; -144.000;  211.000
292.539; -277.800; -959.000; -813.000
292.678;  -90.900; -325.000; -300.000
292.816; -309.500;-1136.000; -965.000
292.955; -236.800; -844.000; -684.000
293.094;  -83.600; -173.000; -337.000
293.233; -141.700; -556.000; -400.000
293.371;  -31.600; -225.000;  -84.000
293.510; -235.900; -866.000; -780.000
293.649; -298.900; -959.000; -924.000
293.787; -289.200;-1083.000;-1012.000
293.926;  -68.800; -113.000;  -32.000
294.065; -113.900; -379.000; -290.000
294.203;  108.900;  298.000;  406.000
294.342;   13.700;   74.000;  156.000
294.481;12327.600;51180.000; -836.000
294.619;  -42.700; -425.000; -582.000
294.758; -348.600;-1230.000;-1137.000
294.896;   -7.900; -125.000;    5.000
295.035; -297.800;-1040.000;-1006.000
295.174; -308.300;-1082.000; -954.000
295.312;  -68.600; -323.000; -203.000
295.451; -103.800; -307.000; -428.000
295.589; -180.400; -389.000; -518.000
295.728;   16.200; -292.000; -165.000
295.866;  -51.700;  -36.000;  -51.000
296.005; -169.600; -584.000; -341.000
296.143; -175.100; -558.000; -596.000
296.282; -250.000; -957.000; -881.000
296.420; -203.200; -657.000; -557.000
296.559; -220.900; -892.000; -633.000
296.697; -208.400; -847.000; -665.000
296.835; -304.000;-1141.000;-1002.000
296.974;   27.700;  -23.000;   39.000
297.112; -131.800; -443.000; -504.000
297.251; -255.500; -815.000; -755.000
297.389; -170.900; -576.000; -438.000
297.527;  -33.300; -145.000;  -83.000
297.666; -162.200; -486.000; -438.000
297.804; -138.700; -404.000; -264.000
297.942;  -12.300; -136.000; -161.000
298.081;   -9.100; -183.000;   63.000
298.219;  -34.700;  -17.000;  -19.000
298.357;  -72.500; -144.000;  -71.000
298.495; -244.600; -810.000; -812.000
298.634;   13.700;  245.000;  219.000
298.772;  -72.000; -220.000; -338.000
298.910; -114.300; -309.000; -182.000
299.048;  -22.600; -130.000; -153.000
299.187;  -86.100; -350.000; -250.000
299.325;   -1.900;   52.000;  122.000
299.463; -143.600; -389.000; -299.000
299.601;  -69.200; -327.000; -271.000
299.739; -268.800; -908.000; -883.000
299.877; -186.400; -791.000; -703.000
300.016; -331.800;-1095.000; -935.000
300.154;    0.600;  -19.000; -161.000
300.292; -152.900; -428.000; -348.000
300.430;  -79.400; -408.000; -291.000
300.568; -278.100; -940.000; -874.000
300.706; -153.700; -366.000; -469.000
300.844; -331.000;-1108.000; -979.000
300.982;   90.600;  246.000;  282.000
301.120; -266.100; -965.000; -866.000
301.258; -226.000; -812.000; -705.000
301.396;   28.600;  104.000;  -41.000
301.534;  -85.300; -218.000; -293.000
301.672; -183.000; -664.000; -521.000
301.810; -198.900; -613.000; -545.000
301.948;   30.700;   53.000;  149.000
302.086;  -63.100; -250.000;  -32.000
302.224; -200.500; -610.000; -585.000
302.362; -202.400; -558.000; -622.000
302.500; -244.800; -923.000; -893.000
302.638;   22.900;  128.000;  245.000
302.776;  -65.100; -352.000; -408.000
302.913;  106.600;  447.000;  236.000
303.051;  -86.200;  -86.000;  -23.000
303.189;   12.600;   90.000;  118.000
303.327; -102.300; -341.000; -256.000
303.465; -173.800; -832.000; -588.000
303.603; -189.700; -805.000; -604.000
303.740;   77.400;  417.000;  241.000
303.878; -232.600; -800.000; -759.000
304.016; -242.300; -915.000; -790.000
304.154; -334.200;-1123.000;-1152.000
304.291; -164.400; -505.000; -554.000
304.429;   -3.200;  102.000;   74.000
304.567; -306.600; -908.000; -893.000
304.705; -140.400; -408.000; -515.000
304.842; -207.900; -616.000; -540.000
304.980;   -8.600;  215.000;   35.000
305.118; -107.100; -367.000; -365.000
305.255; -286.800; -945.000; -927.000
305.393;   85.900;  178.000;  239.000
305.531; -331.100;-1173.000; -956.000
305.668; -207.800; -663.000; -582.000
305.806; -134.500; -358.000; -439.000
305.943; -142.400; -629.000; -637.000
306.081;  -92.300; -378.000; -267.000
306.219; -218.100; -863.000; -748.000
306.356;    4.100;  158.000;   27.000
306.494;  201.400;  981.000;  761.000
306.631;    1.300;  -11.000;  -55.000
306.769; -132.100; -613.000; -485.000
306.906; -135.800; -284.000; -258.000
307.044; -141.600; -473.000; -488.000
307.181; -118.400; -410.000; -332.000
307.319;   77.800;  112.000;   87.000
307.456; -382.900;-1191.000;-1153.000
307.594; -270.000; -980.000; -727.000
307.731;  -79.200; -371.000; -164.000
307.868;  -40.100;  -15.000;   20.000
308.006; -289.400; -961.000; -847.000
308.143; -194.700; -618.000; -330.000
308.281;  -53.100;  -37.000; -254.000
308.418; -184.500; -748.000; -640.000
308.555; -164.400; -400.000; -250.000
308.693; -157.000; -577.000; -573.000
308.830; -250.200; -712.000; -657.000
308.967;  -35.900; -215.000;  -95.000
309.105; -107.100; -507.000; -396.000
309.242; -156.600; -468.000; -367.000
309.379; -176.500; -577.000; -655.000
309.517; -276.700; -936.000; -948.000
309.654; -264.200; -910.000; -734.000
309.791; -184.600; -662.000; -580.000
309.928; -281.200; -977.000; -914.000
310.065;  195.300;  819.000;  697.000
310.203; -277.500; -825.000; -850.000
310.340; -178.800; -465.000; -321.000
310.477; -162.700; -412.000; -516.000
310.614; -123.400; -383.000; -473.000
310.751; -128.400; -427.000; -518.000
310.889;  -60.000;    1.000;   11.000
311.026; -326.400;-1161.000; -939.000
311.163; -133.300; -386.000; -380.000
311.300; -158.000; -512.000; -479.000
311.437; -173.300; -658.000; -619.000
311.574; -387.500;-1226.000; -985.000
311.711; -171.500; -595.000; -433.000
311.848;  -92.300; -380.000; -388.000
311.985;   26.900;  270.000;   93.000
312.122; -247.300; -932.000; -762.000
312.259; -308.200; -941.000; -994.000
312.396; -176.400; -508.000; -551.000
312.533; -185.000; -812.000; -790.000
312.670; -301.800;-1070.000; -898.000
312.807; -130.100; -352.000; -367.000
312.944; -211.700; -513.000; -611.000
313.081; -101.700; -150.000; -415.000
313.218; -311.700;-1111.000; -867.000
313.355; -155.400; -531.000; -449.000
313.492; -119.400; -455.000; -292.000
313.629;  213.700;  815.000;  735.000
313.766; -359.600;-1176.000;-1008.000
313.902;   -6.300; -186.000;   21.000
314.039; -114.800; -372.000; -289.000
314.176;   72.900;  286.000;  192.000
314.313; -186.200; -569.000; -473.000
314.450; -222.700; -788.000; -684.000
314.587; -161.000; -468.000; -480.000
314.723;  -27.300;  -78.000;  130.000
314.860;   43.000;  318.000;  332.000
314.997;   -5.000;  223.000;  142.000
315.134; -138.400; -385.000; -368.000
315.270; -158.300; -480.000; -496.000
315.407; -310.100;-1094.000; -967.000
315.544; -160.100; -657.000; -538.000
315.681; -224.600; -681.000; -565.000
315.817;  -49.700; -133.000; -176.000
315.954; -172.900; -613.000; -392.000
316.091; -319.900;-1045.000;-1023.000
316.227;  -51.200;  -71.000; -179.000
316.364;   36.700;   23.000;    6.000
316.500;  -83.300; -113.000; -300.000
316.637;  -64.800; -181.000; -302.000
316.774; -182.600; -625.000; -358.000
316.910; -175.300; -598.000; -629.000
317.047; -183.100; -487.000; -351.000
317.183; -136.300; -435.000; -566.000
317.320; -149.700; -367.000; -321.000
317.456; -246.500; -733.000; -805.000
317.593; -193.100; -598.000; -641.000
317.729;   51.100;  168.000;  -67.000
317.866; -409.300;-1434.000;-1285.000
318.002; -206.000; -708.000; -948.000
318.139; -276.900; -883.000; -867.000
318.275; -273.300;-1003.000; -738.000
318.412; -148.300; -517.000; -336.000
318.548; -179.700; -751.000; -720.000
318.685; -291.300; -985.000; -888.000
318.821; -243.800; -762.000; -735.000
318.957;  -25.600;   34.000;  -23.000
319.094;   81.100;  297.000;  154.000
319.230; -242.700; -756.000; -742.000
319.367; -134.400; -471.000; -520.000
319.503; -121.000; -538.000; -436.000
319.639; -248.000; -877.000; -793.000
319.775; -245.500; -750.000; -685.000
319.912; -121.200; -424.000; -519.000
320.048; -354.500;-1184.000;-1184.000
320.184;   31.300;   59.000;   70.000
320.321; -127.200; -497.000; -467.000
320.457;  112.800;  475.000;  662.000
320.593; -145.600; -375.000; -382.000
320.729; -229.400; -732.000; -734.000
320.866; -198.200; -577.000; -635.000
321.002; -251.300; -759.000; -809.000
321.138; -118.800; -135.000; -211.000
321.274;  -49.800; -148.000; -115.000
321.410; -171.900; -585.000; -353.000
321.546; -323.000;-1011.000; -911.000
321.683;   75.600;  400.000;  185.000
321.819;  -42.100;  -48.000; -117.000
321.955; -247.500; -743.000; -722.000
322.091; -160.600; -585.000; -540.000
322.227;  -82.900; -382.000; -202.000
322.363; -111.800; -320.000; -215.000
322.499; -118.900; -343.000; -331.000
322.635;  132.900;  636.000;  443.000
322.771;  -76.300; -139.000;   12.000
322.907;   66.600;  129.000;  327.000
323.043;  -90.300; -115.000; -206.000
323.179; -115.800; -394.000; -363.000
323.315; -149.800; -401.000; -371.000
323.451;  -99.500; -328.000; -236.000
323.587;  -87.300;  -60.000;  -77.000
323.723; -187.600; -682.000; -601.000
323.859;  -83.000; -258.000;  -76.000
323.995; -138.100; -467.000; -409.000
324.131; -280.800; -967.000; -892.000
324.267;  -67.600; -254.000; -276.000
324.402; -294.600; -960.000; -983.000
324.538;  -72.800; -279.000; -104.000
324.674;   11.200;  164.000;   77.000
324.810;   -6.800;  226.000;  308.000
324.946; -143.500; -810.000; -658.000
325.082; -150.600; -568.000; -475.000
325.217;  -35.600;  -62.000;   16.000
325.353; -225.500; -764.000; -659.000
325.489; -184.700; -540.000; -506.000
325.625; -151.000; -579.000; -525.000
325.760;   68.300;  517.000;  376.000
325.896; -164.100; -515.000; -702.000
326.032; -117.400; -403.000; -352.000
326.168; -118.500; -462.000; -369.000
326.303; -121.800; -352.000; -461.000
326.439;  -62.000; -336.000; -276.000
326.575;  -31.900; -190.000;  -29.000
326.710;  -11.800; -156.000;  -30.000
326.846;   -3.300;  146.000;  103.000
326.982; -167.000; -530.000; -548.000
327.117; -154.400; -481.000; -442.000
327.253; -215.600; -745.000; -742.000
327.388; -341.100;-1137.000;-1153.000
327.524; -212.800; -811.000; -578.000
327.659;  -46.400;  -58.000;  -22.000
327.795;  -45.600;   69.000;   45.000
327.931; -210.300; -723.000; -499.000
328.066; -104.800; -417.000; -276.000
328.202;  -26.800;   12.000; -129.000
328.337;  219.800;  957.000;  713.000
328.473;    4.900;  -12.000;  -74.000
328.608;  -47.400; -256.000; -267.000
328.743; -269.000; -799.000; -664.000
328.879;   26.800;  214.000;  114.000
329.014; -132.200; -102.000; -122.000
329.150; -181.800; -358.000; -483.000
329.285; -153.300; -465.000; -466.000
329.421; -121.800; -548.000; -246.000
329.556;  -50.400;  -36.000;   85.000
329.691; -203.800; -633.000; -615.000
329.827; -149.700; -626.000; -480.000
329.962; -108.100;  131.000; -301.000
330.097; -199.800; -673.000; -585.000
330.233;  -91.500; -410.000; -223.000
330.368; -248.500; -839.000; -628.000
330.503;   -1.800;    3.000;   98.000
330.638;  -29.400;  -93.000; -125.000
330.774; -178.900; -609.000; -530.000
330.909;  -92.700; -434.000; -244.000
331.044; -213.600; -714.000; -708.000
331.179; -346.000;-1217.000;-1109.000
331.315;   34.300;   77.000;   20.000
331.450;   39.700;  157.000;  285.000
331.585; -206.800; -805.000; -706.000
331.720; -164.600; -510.000; -460.000
331.855;  -49.500;  -35.000; -102.000
331.990;   12.800;   62.000;  138.000
332.126;  -22.600; -110.000;   71.000
332.261; -132.500; -379.000; -265.000
332.396;  -76.200; -135.000; -242.000
332.531; -334.400;-1074.000;-1031.000
332.666; -128.700; -519.000; -363.000
332.801; -260.700; -726.000; -807.000
332.936;  -49.500; -192.000; -122.000
333.071; -270.200; -870.000; -817.000
333.206;   36.400;  307.000;  379.000
333.341;   62.600;  344.000;  418.000
333.476; -206.600; -627.000; -623.000
333.611;  -91.500; -251.000; -173.000
333.746; -106.800; -381.000; -464.000
333.881; -283.100; -973.000; -935.000
334.016; -290.400; -936.000; -917.000
334.151; -266.100; -746.000; -702.000
334.286;   36.400;  152.000;  186.000
334.421;  -38.100; -125.000; -178.000
334.556; -195.400; -611.000; -567.000
334.690; -166.300; -631.000; -577.000
334.825;  150.200;  381.000;   83.000
334.960; -120.000; -285.000; -413.000
335.095;   -8.600;  135.000;  -91.000
335.230; -230.000; -722.000; -738.000
335.365; -328.000;-1084.000; -990.000
335.499; -329.200;-1108.000;-1037.000
335.634;    3.400;    9.000;  534.000
335.769; -277.300; -755.000; -720.000
335.904; -214.700; -603.000; -561.000
336.038; -244.100; -735.000; -657.000
336.173; -336.500;-1206.000;-1194.000
336.308;  -91.900; -116.000; -189.000
336.443; -124.400; -544.000; -634.000
336.577; -250.500; -936.000; -787.000
336.712;   -0.800;   -4.000;  -12.000
336.847; -213.500; -724.000; -607.000
336.981; -111.100; -272.000; -208.000
337.116;  107.300;  615.000;  501.000
337.250; -146.300; -434.000; -421.000
337.385; -130.300; -297.000; -208.000
337.520; -181.500; -632.000; -603.000
337.654; -101.500; -215.000; -126.000
337.789; -270.900; -989.000; -933.000
337.923;  -64.000; -104.000; -205.000
338.058; -219.100; -673.000; -738.000
338.192; -201.200; -611.000; -488.000
338.327;  -48.200;  -18.000; -155.000
338.461; -139.600; -299.000; -469.000
338.596; -223.800; -780.000; -638.000
338.730; -265.700; -767.000; -803.000
338.865;  -35.900;  -46.000; -140.000
338.999; -267.500; -846.000; -702.000
339.134; -177.000; -634.000; -536.000
339.268; -203.000; -741.000; -603.000
339.403; -246.300; -740.000; -775.000
339.537; -237.600; -894.000; -820.000
339.671; -262.100; -829.000; -813.000
339.806; -187.100; -556.000; -512.000
339.940;  -66.800; -261.000; -235.000
340.074; -227.500; -685.000; -510.000
340.209;  -91.600; -351.000; -230.000
340.343; -192.400; -517.000; -573.000
340.477;  320.800;  998.000; 1036.000
340.612; -304.000;-1033.000; -900.000
340.746;  -78.600; -199.000; -243.000
340.880; -265.900; -924.000; -785.000
341.014;  -36.400;  -45.000; -154.000
341.149; -226.900; -756.000; -718.000
341.283; -235.400; -839.000; -754.000
341.417; -312.700;-1124.000; -938.000
341.551; -242.200; -768.000; -708.000
341.685; -201.300; -633.000; -611.000
341.820; -187.900; -562.000; -493.000
341.954; -121.700; -218.000; -349.000
342.088; -312.100;-1102.000;-1019.000
342.222;   69.100;  565.000;  618.000
342.356; -142.600; -395.000; -335.000
342.490; -245.000; -880.000; -841.000
342.624; -112.300; -339.000; -242.000
342.758; -121.200; -364.000; -312.000
342.892; -234.000; -710.000; -585.000
343.026;  -82.000;  -58.000; -116.000
343.160; -104.100; -426.000; -376.000
343.294; -157.600; -474.000; -337.000
343.428; -192.700; -488.000; -448.000
343.562;  -67.600; -172.000;  -23.000
343.696; -112.000; -385.000; -314.000
343.830; -108.900; -362.000; -356.000
343.964;  -56.400; -231.000; -168.000
344.098;    8.500;  199.000;   70.000
344.232;  -92.500; -266.000; -127.000
344.366; -210.900; -567.000; -453.000
344.500; -218.100; -665.000; -744.000
344.634;  -57.300; -324.000; -164.000
344.768; -175.800; -531.000; -341.000
344.902;   32.500;  278.000;  256.000
345.035; -174.000; -556.000; -496.000
345.169; -265.800; -933.000; -656.000
345.303; -119.100; -308.000; -482.000
345.437; -247.700; -826.000; -717.000
345.571; -204.400; -675.000; -594.000
345.704; -152.000; -309.000; -532.000
345.838;  -88.400; -331.000; -284.000
345.972; -187.500; -543.000; -495.000
346.106;  -38.500; -179.000; -190.000
346.239;  -82.600; -312.000; -243.000
346.373; -134.900; -343.000; -302.000
346.507; -325.900; -950.000; -962.000
346.640;  -14.800;  -30.000;   13.000
346.774; -211.200; -650.000; -797.000
346.908;  -44.800; -138.000;  -11.000
347.041; -189.500; -646.000; -593.000
347.175;    1.000;  259.000;   27.000
347.309; -228.700; -698.000; -628.000
347.442; -263.600; -883.000; -732.000
347.576;  146.000;  670.000;  668.000
347.709;  -46.700; -123.000;  -52.000
347.843; -290.200; -933.000; -825.000
347.976;   91.500;  235.000;  294.000
348.110; -362.600;-1268.000;-1186.000
348.243; -207.200; -679.000; -772.000
348.377;  -20.100;  -26.000;   60.000
348.510;   80.400;  403.000;  540.000
348.644;  -94.700;  -37.000; -159.000
348.777;    1.500;  180.000;  191.000
348.911;  -95.700; -142.000; -112.000
349.044;   90.100;  471.000;  448.000
349.178; -325.800;-1069.000;-1006.000
349.311;   57.200;  141.000;  255.000
349.444; -275.600; -927.000; -813.000
349.578;  -74.000; -347.000; -200.000
349.711; -276.300; -959.000; -862.000
349.845; -221.300; -661.000; -591.000
349.978; -350.500;-1224.000;-1137.000
350.111; -212.800; -546.000; -612.000
350.244; -222.900; -596.000; -700.000
350.378; -110.500; -392.000; -393.000
350.511; -141.200; -393.000; -426.000
350.644; -237.000; -808.000; -806.000
350.778;  -24.800;  168.000;  104.000
350.911;    2.100;  134.000;  140.000
351.044; -221.100; -685.000; -615.000
351.177; -103.800; -321.000; -281.000
351.310;  -35.000;    3.000; -131.000
351.444; -239.400; -888.000; -788.000
351.577;    6.700;  140.000;   90.000
351.710;  147.400;  593.000;  417.000
351.843;  -65.300; -165.000;  -77.000
351.976;  -11.400;  149.000;  -79.000
352.109; -193.900; -621.000; -612.000
352.242; -120.700; -464.000; -419.000
352.376; -217.900; -580.000; -636.000
352.509; -146.800; -437.000; -356.000
352.642; -335.900; -654.000; -604.000
352.775;  -39.900; -141.000;  -98.000
352.908; -283.700; -933.000; -904.000
353.041; -259.900; -814.000; -824.000
353.174; -141.400; -551.000; -424.000
353.307; -225.400; -753.000; -764.000
353.440;  117.000;  541.000;  453.000
353.573; -303.100; -957.000;-1008.000
353.706; -206.700; -384.000; -558.000
353.839;  -87.900; -264.000; -220.000
353.971; -208.500; -657.000; -512.000
354.104; -249.800; -896.000; -835.000
354.237; -235.900; -627.000; -662.000
354.370; -260.700; -846.000; -879.000
354.503; -369.900;-1231.000;-1308.000
354.636; -124.600; -529.000; -348.000
354.769; -296.300; -937.000; -860.000
354.902;  -71.300; -230.000; -139.000
355.034;  -73.700; -164.000; -220.000
355.167;  -76.400; -262.000; -162.000
355.300; -314.500;-1061.000; -880.000
355.433;   -1.500;  -71.000;  -14.000
355.565; -154.000; -402.000; -384.000
355.698; -109.400; -356.000; -296.000
355.831; -269.700; -882.000; -801.000
355.964;  -60.000; -285.000; -170.000
356.096; -275.300; -856.000; -843.000
356.229; -202.100; -523.000; -530.000
356.362; -100.500; -373.000; -266.000
356.494;  -73.900; -229.000; -162.000
356.627;   29.900;  269.000;  377.000
356.760;    0.700;  120.000;   53.000
356.892; -219.600; -286.000; -601.000
357.025;  109.900;  403.000;  389.000
357.157;  -81.200; -167.000; -179.000
357.290; -276.600; -856.000; -713.000
357.423; -206.900; -667.000; -556.000
357.555;  -49.300; -217.000; -228.000
357.688; -152.800; -483.000; -364.000
357.820; -281.400; -870.000; -877.000
357.953; -215.100; -563.000; -589.000
358.085; -219.700; -632.000; -612.000
358.218; -333.000;-1131.000; -932.000
358.350;  -39.200;  -58.000;  312.000
358.483; -383.200;-1300.000;-1187.000
358.615; -346.100;-1182.000;-1078.000
358.747; -379.200;-1187.000;-1058.000
358.880; -252.200; -810.000; -744.000
359.012; -132.100; -376.000; -202.000
359.145; -152.000; -480.000; -511.000
359.277; -294.500; -962.000; -913.000
359.409;  102.600;  536.000;  231.000
359.542; -255.200; -738.000; -688.000
359.674;    6.200;   46.000;   13.000
359.806; -182.900; -565.000; -438.000
359.939; -139.800; -617.000; -516.000
360.071; -208.700; -583.000; -579.000
360.203; -114.400; -411.000; -364.000
360.335;   -8.800;  164.000;  -16.000
360.468;  -80.100; -249.000; -307.000
360.600; -215.400; -547.000; -454.000
360.732; -174.900; -546.000; -423.000
360.864; -355.200;-1216.000;-1044.000
360.996; -135.900; -516.000; -554.000
361.129; -180.600; -389.000; -598.000
361.261;  -17.300;  110.000; -113.000
361.393;  -93.300; -252.000; -214.000
361.525;   15.100;   94.000;  244.000
361.657; -247.000; -821.000; -703.000
361.789;  -50.800; -139.000; -155.000
361.921; -195.400; -642.000; -593.000
362.053;  123.200;  524.000;  541.000
362.185;   36.700;  288.000;   72.000
362.318; -245.900; -709.000; -705.000
362.450;   72.200;  294.000;  444.000
362.582; -261.100; -913.000; -870.000
362.714; -138.500; -353.000; -332.000
362.846; -177.800; -606.000; -490.000
362.978; -291.100; -941.000; -811.000
363.109; -108.700; -161.000; -260.000
363.241; -218.800; -739.000; -749.000
363.373; -216.000; -649.000; -564.000
363.505;  -47.600; -186.000;  -91.000
363.637; -200.100; -787.000; -601.000
363.769; -338.500;-1067.000;-1080.000
363.901; -177.700; -596.000; -654.000
364.033; -297.100;-1103.000;-1062.000
364.165;  -69.300; -283.000; -283.000
364.296; -127.000; -316.000; -177.000
364.428; -391.900;-1344.000;-1220.000
364.560; -189.500; -679.000; -661.000
364.692; -225.100; -738.000; -835.000
364.824; -182.100; -588.000; -456.000
364.955; -141.000; -402.000; -564.000
365.087; -323.900;-1097.000; -852.000
365.219; -258.100; -686.000; -816.000
365.351; -191.600; -526.000; -572.000
365.482;   21.000;  300.000;  240.000
365.614; -100.200; -402.000; -314.000
365.746; -235.200; -729.000; -752.000
365.877; -253.400; -706.000; -672.000
366.009;  -26.200;  -35.000;  -62.000
366.141; -365.200;-1249.000;-1134.000
366.272; -226.900; -803.000; -719.000
366.404; -261.100;-1005.000; -874.000
366.535;  -45.700; -139.000;  -12.000
366.667; -233.700; -644.000; -649.000
366.799;   80.500;  353.000;  203.000
366.930; -301.800; -862.000; -996.000
367.062; -159.600; -639.000; -613.000
367.193; -272.100; -872.000; -842.000
367.325; -163.400; -580.000; -684.000
367.456;  -97.600; -246.000;   31.000
367.588; -154.700; -371.000; -318.000
367.719;  -82.600;  -44.000;  -45.000
367.851;  -79.500; -222.000; -241.000
367.982; -280.200; -875.000; -732.000
368.113; -137.000; -475.000; -358.000
368.245; -291.200; -960.000; -841.000
368.376;  -67.700; -254.000; -302.000
368.508; -136.100; -188.000; -263.000
368.639; -340.600;-1166.000;-1034.000
368.770; -198.200; -670.000; -589.000
368.902; -298.200; -836.000; -926.000
369.033; -294.200; -906.000; -855.000
369.164; -204.100; -720.000; -653.000
369.296; -238.500; -452.000; -601.000
369.427;  -78.100; -209.000; -144.000
369.558; -134.600; -593.000; -377.000
369.689; -206.400; -721.000; -569.000
369.821; -308.300; -951.000; -845.000
369.952;  -70.100;   42.000; -108.000
370.083; -128.400; -229.000; -108.000
370.214; -211.000; -735.000; -650.000
370.345;  -13.200;   65.000;   81.000
370.477; -269.000; -810.000; -790.000
370.608; -108.200; -328.000; -264.000
370.739; -365.100;-1233.000;-1292.000
370.870; -302.700;-1102.000; -923.000
371.001; -138.800; -378.000; -467.000
371.132; -231.300; -754.000; -735.000
371.263;  -27.500;  -42.000; -148.000
371.394; -286.300; -841.000; -748.000
371.525;   38.400;  345.000;  225.000
371.657; -262.900; -808.000; -670.000
371.788;   43.700;  103.000;  199.000
371.919; -180.200; -384.000; -304.000
372.050;  -51.100;  -91.000; -156.000
372.181;  -38.100; -188.000; -294.000
372.311;  -40.900;   42.000; -127.000
372.442; -149.900; -457.000; -451.000
372.573; -112.700; -444.000; -340.000
372.704; -311.600;-1008.000; -980.000
372.835; -107.900; -228.000; -289.000
372.966; -201.200; -646.000; -554.000
373.097; -223.500; -575.000; -711.000
373.228; -202.900; -717.000; -542.000
373.359; -242.600; -824.000; -536.000
373.490; -246.400; -881.000; -727.000
373.620; -315.100;-1001.000; -803.000
373.751; -159.100; -332.000; -396.000
373.882; -178.200; -663.000; -733.000
374.013; -102.800; -449.000; -262.000
374.143; -202.800; -581.000; -659.000
374.274; -320.300; -987.000; -908.000
374.405; -111.700; -388.000; -276.000
374.536; -174.400; -526.000; -387.000
374.666; -253.400; -759.000; -807.000
374.797; -268.200; -817.000; -868.000
374.928; -211.000; -710.000; -560.000
375.058; -202.800; -535.000; -500.000
375.189;  -52.300;  -59.000;  -93.000
375.320; -324.200; -928.000;-1034.000
375.450; -193.600; -625.000; -616.000
375.581; -199.700; -526.000; -436.000
375.712; -102.600; -574.000; -250.000
375.842; -149.700; -438.000; -415.000
375.973; -207.500; -554.000; -513.000
376.103; -229.400; -665.000; -648.000
376.234; -194.600; -531.000; -552.000
376.364; -324.100; -944.000; -867.000
376.495;  223.200;  925.000;  529.000
376.625; -180.100; -472.000; -485.000
376.756; -222.800; -709.000; -678.000
376.886; -359.100;-1178.000;-1026.000
377.017; -353.700;-1048.000;-1061.000
377.147; -248.300; -786.000; -782.000
377.278;   16.500;  174.000;  228.000
377.408; -271.600; -801.000; -815.000
377.538; -220.100; -707.000; -693.000
377.669; -213.300; -537.000; -613.000
377.799; -244.000; -645.000; -635.000
377.929; -178.400; -610.000; -428.000
378.060; -286.500; -781.000; -847.000
378.190; -229.600; -726.000; -531.000
378.320; -176.800; -401.000; -406.000
378.451;  -61.400; -131.000;  -22.000
378.581;  -64.200;  -67.000; -110.000
378.711;  190.900; 1035.000;  866.000
378.841; -186.400; -533.000; -675.000
378.972; -287.200; -871.000; -751.000
379.102; -198.300; -652.000; -579.000
379.232; -107.000; -126.000;  -73.000
379.362; -305.200;-1001.000; -885.000
379.492; -190.700; -373.000; -424.000
379.623;   20.300;    0.000;  111.000
379.753; -343.300;-1107.000; -974.000
379.883;   33.000;   59.000;  156.000
380.013; -354.700;-1081.000;-1017.000
380.143; -362.200;-1097.000;-1056.000
380.273; -282.100; -985.000; -861.000
380.403; -108.200; -344.000; -257.000
380.533; -275.200; -651.000; -664.000
380.663;   40.600;  173.000;  128.000
380.793; -346.900;-1027.000;-1074.000
380.923;  -70.800; -103.000;  -34.000
381.053; -222.200; -613.000; -623.000
381.183;  -89.400; -106.000; -248.000
381.313; -216.300; -656.000; -470.000
381.443; -216.600; -692.000; -473.000
381.573; -152.500; -402.000; -409.000
381.703; -373.800;-1249.000;-1095.000
381.833; -443.800;-1454.000;-1336.000
381.963;  -13.200; -134.000;  -87.000
382.093; -311.000; -925.000; -909.000
382.223; -199.800; -713.000; -602.000
382.353; -225.800; -801.000; -608.000
382.482; -316.700;-1091.000; -964.000
382.612; -252.100; -872.000; -644.000
382.742; -213.100; -695.000; -622.000
382.872; -180.600; -565.000; -551.000
383.002;   34.300;  347.000; -132.000
383.131; -102.300; -226.000; -160.000
383.261; -223.500; -706.000; -768.000
383.391; -187.600; -552.000; -377.000
383.521;   71.100;  451.000;  263.000
383.650; -322.500; -947.000; -904.000
383.780; -201.400; -783.000; -656.000
383.910;  172.800;  880.000;  802.000
384.039; -268.700; -794.000; -656.000
384.169; -368.300;-1205.000;-1017.000
384.299; -216.400; -650.000; -662.000
384.428; -254.300; -764.000; -680.000
384.558; -118.700; -308.000; -275.000
384.687; -133.600; -414.000; -334.000
384.817;  -13.300;   75.000;   -2.000
384.947;  -71.800; -234.000; -141.000
385.076;  248.200;  982.000;  912.000
385.206;  103.400;  369.000;  480.000
385.335; -161.100; -549.000; -417.000
385.465; -235.300; -655.000; -663.000
385.594;  -34.500;  -53.000;  -44.000
385.724; -314.900; -868.000; -838.000
385.853; -105.600; -296.000; -270.000
385.982; -259.400; -743.000; -787.000
386.112; -293.300;-1052.000; -871.000
386.241; -154.700; -307.000; -312.000
386.371;  -45.200; -174.000;  -87.000
386.500; -289.000; -825.000; -789.000
386.629; -231.400; -874.000; -817.000
386.759;  -20.700;  -43.000;   68.000
386.888;  -45.200; -170.000; -250.000
387.017; -219.300; -648.000; -620.000
387.147; -228.400; -771.000; -798.000
387.276; -175.800; -410.000; -397.000
387.405; -145.400; -398.000; -342.000
387.535; -163.600; -452.000; -361.000
387.664; -212.800; -692.000; -620.000
387.793; -108.300; -198.000; -113.000
387.922;   19.800;  255.000;  200.000
388.052; -193.900; -576.000; -423.000
388.181; -117.300; -342.000; -472.000
388.310; -284.900; -889.000; -710.000
388.439; -260.500; -749.000; -742.000
388.568;    5.400;  365.000;  244.000
388.697; -216.700; -756.000; -653.000
388.826; -186.300; -768.000; -666.000
388.956; -121.600; -285.000; -307.000
389.085; -131.700; -347.000; -287.000
389.214; -267.200; -842.000; -872.000
389.343; -209.500; -645.000; -413.000
389.472;   42.500;  126.000;  149.000
389.601;  -22.900;   91.000;    0.000
389.730; -193.600; -568.000; -687.000
389.859;   60.500;  226.000;   46.000
389.988; -130.700; -423.000; -408.000
390.117;  -91.000; -168.000; -146.000
390.246; -119.500; -331.000; -320.000
390.375; -230.800; -673.000; -626.000
390.504; -214.200; -703.000; -621.000
390.633; -271.700; -672.000; -726.000
390.761; -252.800; -732.000; -645.000
390.890;  -61.500;   -4.000; -130.000
391.019; -189.600; -421.000; -441.000
391.148; -265.100; -826.000; -855.000
391.277; -188.400; -576.000; -493.000
391.406; -256.300; -821.000; -805.000
391.534;   16.200;  574.000; -301.000
391.663; -195.200; -583.000; -645.000
391.792; -225.400; -673.000; -701.000
391.921;  -45.600;   -3.000;   15.000
392.050;  -92.700; -287.000; -228.000
392.178; -387.300;-1206.000;-1061.000
392.307; -251.800; -758.000; -712.000
392.436; -209.700; -427.000; -641.000
392.564;   -4.300;  166.000;   -6.000
392.693; -243.200; -860.000; -682.000
392.822; -198.000; -529.000; -534.000
392.950; -265.600; -880.000; -714.000
393.079; -146.400; -188.000; -328.000
393.208; -188.300; -488.000; -511.000
393.336;  -86.800; -170.000; -145.000
393.465; -121.600; -317.000; -199.000
393.593;  -38.800;   62.000;   79.000
393.722; -298.700;-1121.000; -916.000
393.850;  -61.300; -188.000;  -61.000
393.979; -331.900; -926.000; -805.000
394.107; -172.500; -517.000; -537.000
394.236; -200.300; -570.000; -507.000
394.364;   80.300;  383.000;  206.000
394.493; -257.800; -911.000; -767.000
394.621; -301.700; -955.000; -916.000
394.750; -308.000; -873.000; -923.000
394.878;  -98.700; -247.000; -149.000
395.007; -255.700; -721.000; -807.000
395.135; -243.400; -790.000; -721.000
395.263; -335.400;-1038.000;-1040.000
395.392;  -35.600;  -25.000; -107.000
395.520; -280.600; -818.000; -679.000
395.648; -294.700; -865.000; -915.000
395.777; -161.300; -366.000; -405.000
395.905; -183.000; -449.000; -564.000
396.033;   34.500;  217.000;  172.000
396.162; -151.000; -399.000; -453.000
396.290;  -39.800;  -17.000;   -2.000
396.418; -184.300; -555.000; -514.000
396.546; -302.100; -571.000; -466.000
396.674; -274.500; -850.000; -878.000
396.803;  -15.500;  -72.000;  -23.000
396.931;  -57.400; -179.000; -199.000
397.059; -361.200;-1026.000; -989.000
397.187; -301.800;-1026.000; -975.000
397.315; -259.100; -884.000; -649.000
397.443; -210.600; -592.000; -443.000
397.572; -190.900; -578.000; -424.000
397.700; -214.700; -607.000; -614.000
397.828;  -58.400;  120.000;  -90.000
397.956; -138.000; -508.000; -478.000
398.084; -222.300; -767.000; -626.000
398.212;  -17.900;  137.000;  124.000
398.340;  -42.600;  -56.000;  159.000
398.468; -127.500; -390.000; -169.000
398.596; -302.300; -993.000; -953.000
398.724; -248.600; -762.000; -767.000
398.852; -348.800;-1024.000; -976.000
398.980; -204.900; -560.000; -560.000
399.108; -238.000; -982.000; -735.000
399.236;  -46.200;   13.000;    8.000
399.363;  -34.900;  222.000;  196.000
399.491; -177.100; -404.000; -398.000
399.619; -269.200; -829.000; -800.000
399.747; -273.500; -859.000; -771.000
399.875;   28.500;  220.000;  234.000
400.003; -168.300; -359.000; -284.000
400.130; -181.300; -421.000; -341.000
400.258;  -60.200;  -83.000;   38.000
400.386; -114.300; -352.000; -168.000
400.514; -181.600; -526.000; -587.000
400.641; -326.400; -928.000; -802.000
400.769; -278.700; -979.000; -888.000
400.897; -269.800; -838.000; -793.000
401.025;  -68.100; -166.000; -152.000
401.152;    8.200;  220.000;   38.000
401.280; -172.600; -430.000; -429.000
401.408; -224.400; -712.000; -576.000
401.535; -225.000; -735.000; -758.000
401.663; -406.900;-1134.000;-1054.000
401.790; -164.000; -514.000; -525.000
401.918;   59.200;  436.000;  405.000
402.046;   -9.400;  134.000;  122.000
402.173;  -70.000;  -18.000;    7.000
402.301; -179.300; -519.000; -397.000
402.428;   98.200;  528.000;  383.000
402.556; -354.800;-1188.000; -913.000
402.683;  -55.000;  -20.000;   -1.000
402.811;  -76.100;  -37.000; -206.000
402.938;  -40.200;   20.000;   27.000
403.066; -203.100; -574.000; -558.000
403.193;  -13.200;  299.000;  239.000
403.321; -192.900; -396.000; -574.000
403.448;  -18.800;   83.000;   27.000
403.575;  -41.800;  -90.000;  -46.000
403.703; -264.200; -732.000; -557.000
403.830; -171.700; -531.000; -496.000
403.957; -370.900;-1117.000;-1023.000
404.085;  -78.200;  -61.000; -172.000
404.212;  -54.900;  -50.000;   63.000
404.339; -128.800; -566.000; -306.000
404.467; -201.500; -612.000; -524.000
404.594; -107.000; -287.000; -227.000
404.721; -258.200; -869.000; -764.000
404.848;  -56.700; -113.000; -202.000
404.976; -277.800; -856.000; -783.000
405.103;  -32.700;  -14.000;  -82.000
405.230;  -18.800;  190.000;  226.000
405.357;  -20.200;  117.000;   44.000
405.484;  -65.500;  -49.000;    5.000
405.612; -198.900; -548.000; -563.000
405.739; -143.000; -488.000; -243.000
405.866;  131.900;  669.000;  385.000
405.993; -119.100; -398.000; -102.000
406.120; -275.900; -801.000; -887.000
406.247; -160.700; -323.000; -342.000
406.374;  122.200;  540.000;  629.000
406.501; -247.100; -632.000; -702.000
406.628; -184.700; -621.000; -589.000
406.755; -271.100; -803.000; -620.000
406.882;  -98.200; -228.000; -277.000
407.009; -206.400; -719.000; -628.000
407.136; -151.900; -480.000; -401.000
407.263; -327.300; -939.000; -829.000
407.390; -226.100; -692.000; -614.000
407.517; -379.200;-1139.000;-1187.000
407.644; -145.000; -332.000; -256.000
407.771; -156.000; -249.000; -287.000
407.898;   14.300;  168.000;  328.000
408.025; -178.300; -421.000; -313.000
408.151;  -27.800;   82.000;  153.000
408.278; -129.400; -267.000; -216.000
408.405; -269.300; -931.000; -899.000
408.532; -222.000; -549.000; -542.000
408.659; -219.400; -677.000; -648.000
408.785; -392.600;-1298.000;-1170.000
408.912; -108.700; -412.000; -296.000
409.039; -193.400; -610.000; -686.000
409.166; -204.100; -591.000; -555.000
409.292; -192.600; -571.000; -534.000
409.419; -219.000; -665.000; -649.000
409.546; -157.700; -431.000; -192.000
409.672; -214.500; -713.000; -545.000
409.799;  -70.500;  -36.000;   34.000
409.926; -112.400; -180.000; -179.000
410.052; -381.300;-1127.000;-1091.000
410.179; -179.900; -368.000; -392.000
410.305; -148.700; -375.000; -493.000
410.432; -116.100; -220.000; -333.000
410.558; -179.500; -305.000; -380.000
410.685; -208.100; -688.000; -431.000
410.812; -191.900; -409.000; -588.000
410.938; -277.200; -964.000; -808.000
411.065; -210.300; -671.000; -645.000
411.191;  -71.800; -189.000; -174.000
411.317; -242.400; -823.000; -742.000
411.444; -131.200; -317.000; -246.000
411.570; -133.500; -339.000; -294.000
411.697; -249.500; -758.000; -752.000
411.823; -326.000; -989.000; -999.000
411.949;  -82.700;  -56.000;   17.000
412.076; -205.900; -539.000; -519.000
412.202; -270.200; -758.000; -757.000
412.329; -251.000; -798.000; -752.000
412.455; -249.900; -821.000; -657.000
412.581;  -20.300;  -15.000;  172.000
412.707; -164.700; -540.000; -457.000
412.834;   -4.600;  156.000;  219.000
412.960; -266.200; -785.000; -784.000
413.086; -259.500; -743.000; -701.000
413.212;  112.600;  604.000;  578.000
413.339; -255.000; -685.000; -701.000
413.465; -170.200; -364.000; -310.000
413.591; -245.400; -757.000; -474.000
413.717; -164.900; -358.000; -366.000
413.843; -303.800; -839.000; -861.000
413.969; -144.700;  -47.000; -292.000
414.096; -230.200; -679.000; -679.000
414.222;  -20.300;  -33.000;   85.000
414.348; -199.300; -652.000; -385.000
414.474;  -73.700;   38.000;  -52.000
414.600;  -79.200; -126.000; -144.000
414.726;  -62.200;  -96.000;  -55.000
414.852; -161.800; -365.000; -342.000
414.978;  -47.600;  104.000;  -18.000
415.104;  -45.700;   38.000;   80.000
415.230; -138.600; -329.000; -330.000
415.356; -213.500; -409.000; -514.000
415.482;  -82.100;   13.000;  -35.000
415.608; -116.900; -247.000; -323.000
415.734;  -17.700;   67.000;   38.000
415.860; -281.200; -875.000; -767.000
415.986; -236.000; -685.000; -607.000
416.111; -279.800; -798.000; -652.000
416.237; -175.700; -424.000; -571.000
416.363; -269.000; -765.000; -733.000
416.489; -144.500; -324.000; -251.000
416.615; -274.800; -707.000; -742.000
416.741; -262.700; -677.000; -784.000
416.866; -230.700; -673.000; -736.000
416.992; -290.300; -801.000; -818.000
417.118; -103.000;  -41.000;  -80.000
417.244; -244.900; -798.000; -531.000
417.369; -261.100; -801.000; -612.000
417.495; -120.500; -325.000; -254.000
417.621; -347.100;-1015.000; -803.000
417.746; -179.200; -579.000; -572.000
417.872; -100.500; -254.000; -144.000
417.998; -176.200; -515.000; -530.000
418.123; -332.700;-1073.000; -845.000
418.249; -211.800; -512.000; -601.000
418.374; -333.500; -916.000; -824.000
418.500; -164.600; -383.000; -482.000
418.626;    2.100;   70.000;  -59.000
418.751; -185.900; -549.000; -448.000
418.877; -239.700; -637.000; -643.000
419.002; -164.100; -688.000; -560.000
419.128; -275.800; -930.000; -721.000
419.253; -293.900; -967.000; -837.000
419.379; -213.700; -391.000; -338.000
419.504;   79.700;  325.000;  415.000
419.629; -109.800; -393.000; -212.000
419.755; -123.300; -317.000; -254.000
419.880; -118.100;  -98.000;   67.000
420.006; -131.000; -280.000; -221.000
420.131; -246.400; -662.000; -775.000
420.256; -127.300; -315.000; -316.000
420.382; -250.000; -665.000; -687.000
420.507; -250.500; -649.000; -778.000
420.632; -145.600; -337.000; -339.000
420.758; -120.100; -251.000; -425.000
420.883; -265.500; -876.000; -672.000
421.008; -215.900; -775.000; -619.000
421.133; -182.700; -509.000; -467.000
421.259; -116.300; -325.000; -259.000
421.384; -268.900; -834.000; -693.000
421.509; -282.400;-1052.000; -862.000
421.634; -339.500; -936.000; -820.000
421.759; -172.600; -359.000; -327.000
421.885; -229.900; -717.000; -656.000
422.010; -147.800; -673.000; -542.000
422.135; -281.200; -695.000; -727.000
422.260;   48.700;  340.000;  280.000
422.385;  -88.100;   12.000;  -98.000
422.510;   -2.600;  151.000;  -26.000
422.635;  -69.400;  -87.000;  -43.000
422.760; -261.000; -766.000; -791.000
422.885;  -64.900;  -57.000;  -80.000
423.010;  -76.400; -112.000; -169.000
423.135; -213.400; -481.000; -561.000
423.260; -113.700; -150.000; -245.000
423.385;   21.500;  476.000;  222.000
423.510;  -30.300;   71.000;  -22.000
423.635;  -31.000;  133.000;   45.000
423.760;   45.300;  383.000;  328.000
423.885;   60.400;  336.000;  391.000
424.010;  -81.400;  -68.000;  -13.000
424.135;  -60.600;    5.000;  -33.000
424.259; -221.900; -654.000; -457.000
424.384; -178.600; -279.000; -272.000
424.509; -115.300; -260.000; -186.000
424.634; -259.300; -761.000; -623.000
424.759; -217.500; -688.000; -544.000
424.883; -231.200; -506.000; -527.000
425.008; -176.200; -502.000; -410.000
425.133; -229.500; -679.000; -653.000
425.258; -205.400; -517.000; -381.000
425.382; -219.500; -867.000; -774.000
425.507; -252.500; -487.000; -543.000
425.632; -277.300; -802.000; -663.000
425.756;  -89.600; -256.000; -146.000
425.881; -286.800; -831.000; -857.000
426.006; -195.200; -604.000; -355.000
426.130; -249.700; -696.000; -508.000
426.255; -183.300; -611.000; -491.000
426.379;  -81.300; -189.000; -577.000
426.504;  139.600;  660.000;  544.000
426.629; -203.500; -519.000; -466.000
426.753;  -51.200;   64.000;  -46.000
426.878; -133.300; -252.000; -288.000
427.002; -180.100; -651.000; -668.000
427.127;  -89.000;  -35.000; -158.000
427.251;   73.500;  372.000;  401.000
427.375; -143.800; -191.000; -173.000
427.500; -193.700; -616.000; -610.000
427.624; -144.900; -234.000; -400.000
427.749; -130.900; -216.000; -225.000
427.873; -169.400; -499.000; -412.000
427.997; -132.600; -222.000; -230.000
428.122;  131.700;  795.000;  703.000
428.246;   78.600;  433.000;  434.000
428.371; -321.300; -869.000; -773.000
428.495; -256.900; -624.000; -646.000
428.619; -112.500; -186.000; -117.000
428.743;    2.900;   65.000;  132.000
428.868; -269.500; -732.000; -643.000
428.992; -167.300; -219.000; -326.000
429.116; -141.900; -329.000; -357.000
429.240;   63.300;  419.000;  426.000
429.365; -156.200; -454.000; -574.000
429.489; -231.700; -638.000; -647.000
429.613;  -76.500; -236.000; -177.000
429.737; -209.000; -563.000; -432.000
429.861; -150.200; -247.000; -133.000
429.985; -168.200; -425.000; -305.000
430.109; -328.900; -770.000; -908.000
430.234;   16.500;   76.000;  -50.000
430.358; -143.200; -250.000; -160.000
430.482; -247.500; -672.000; -564.000
430.606; -208.300; -655.000; -375.000
430.730; -181.100; -437.000; -388.000
430.854; -297.000; -909.000; -835.000
430.978; -266.600; -795.000; -764.000
431.102; -240.700; -499.000; -422.000
431.226; -315.200; -874.000; -815.000
431.350;   20.700;  345.000;  422.000
431.474; -192.800; -661.000; -373.000
431.597; -360.400;-1060.000; -848.000
431.721; -143.200; -276.000; -267.000
431.845; -239.400; -704.000; -472.000
431.969; -145.400; -304.000; -349.000
432.093; -162.500; -395.000; -317.000
432.217;  -25.400;   32.000;   82.000
432.341; -196.400; -523.000; -518.000
432.464;  -28.400;   96.000;   40.000
432.588; -187.900; -401.000; -329.000
432.712;  -90.700;  -52.000;  -52.000
432.836;   33.500;  213.000;  263.000
432.959; -159.700; -372.000; -311.000
433.083;  -78.200;   11.000;    2.000
433.207;   96.400;  285.000;  930.000
433.330; -110.000; -391.000; -200.000
433.454; -211.700; -654.000; -638.000
433.578;  118.500;  583.000;  278.000
433.701; -274.300; -623.000; -675.000
433.825; -133.200; -292.000; -299.000
433.949;  -84.200;   28.000;  -72.000
434.072; -148.100; -410.000; -323.000
434.196;  -78.300; -309.000; -117.000
434.319; 8171.800;25482.000;25124.000
434.443; -223.300; -656.000; -603.000
434.566;  -20.600;  281.000;   62.000
434.690; -187.600; -637.000; -383.000
434.813; -123.900; -251.000; -173.000
434.937; -212.000; -569.000; -696.000
435.060; -174.800; -423.000; -332.000
435.184; -122.900; -492.000; -217.000
435.307;   -2.500;  159.000;  102.000
435.431;  -51.900;  -40.000;   24.000
435.554; -140.700; -399.000; -240.000
435.677; -156.800; -350.000; -258.000
435.801;  -34.300;  -25.000;   49.000
435.924;  -40.300;    1.000;  -67.000
436.048; -324.900;-1019.000; -732.000
436.171; -165.300; -240.000;  -66.000
436.294; -143.300; -248.000; -229.000
436.417; -327.900; -963.000; -849.000
436.541; -286.700; -814.000; -840.000
436.664;  -91.100; -242.000; -316.000
436.787;  -30.600;   13.000;  113.000
436.910; -246.900; -792.000; -422.000
437.034;   -6.600;  142.000;  143.000
437.157;  -12.200;  -11.000;    0.000
437.280; -208.500; -392.000; -292.000
437.403; -296.200; -982.000; -869.000
437.526; -325.400; -903.000; -865.000
437.649; -206.600; -505.000; -332.000
437.772; -260.400; -692.000; -540.000
437.896;  138.800;  700.000;  544.000
438.019; -259.500; -758.000; -503.000
438.142; -222.300; -596.000; -506.000
438.265; -247.800; -639.000; -670.000
438.388; -189.900; -520.000; -410.000
438.511; -199.400; -597.000; -394.000
438.634; -156.200; -247.000; -125.000
438.757; -284.100; -693.000; -619.000
438.880;  -79.800;  -34.000;  -57.000
439.003; -189.800; -417.000; -437.000
439.126; -147.800; -287.000; -167.000
439.248; -111.400;  -98.000; -139.000
439.371;  -38.800;    9.000;  -53.000
439.494;  101.300;  510.000;  439.000
439.617;  -76.000;   65.000;  -88.000
439.740; -329.900; -968.000; -816.000
439.863; -289.800; -755.000; -595.000
439.986; -195.200; -476.000; -431.000
440.108; -100.200; -161.000; -112.000
440.231; -359.600; -950.000; -836.000
440.354; -103.100;  -64.000; -150.000
440.477; -280.200; -566.000; -542.000
440.599; -187.200; -200.000; -225.000
440.722; -252.100; -709.000; -586.000
440.845;  157.900;  751.000;  928.000
440.968; -193.400; -415.000; -311.000
441.090; -109.000; -199.000;  -33.000
441.213; -331.300;-1021.000; -825.000
441.336;  -71.000; -159.000;   -5.000
441.458; -176.600; -549.000; -396.000
441.581; -266.000; -628.000; -629.000
441.703; -109.200; -152.000;   13.000
441.826; -197.300; -557.000; -400.000
441.948;  -92.600;   56.000;   51.000
442.071;  101.600;  555.000;  424.000
442.193; -234.300; -531.000; -485.000
442.316;    0.200;  152.000;   97.000
442.438; -129.300; -233.000;  -10.000
442.561;   23.300;  272.000;  262.000
442.683; -258.400; -809.000; -522.000
442.806;  -43.100;   -8.000;   74.000
442.928; -305.400; -859.000; -604.000
443.051; -201.700; -577.000; -373.000
443.173; -155.000; -341.000; -339.000
443.295; -195.200; -263.000; -371.000
443.418; -154.400; -321.000;  -29.000
443.540;  -82.300; -106.000;   -4.000
443.662; -265.000; -563.000; -465.000
443.785;   -7.300;  335.000;  199.000
443.907; -183.200; -362.000; -208.000
444.029; -253.800; -767.000; -494.000
444.152; -281.600; -644.000; -554.000
444.274;  -40.700;  -18.000;  -24.000
444.396; -216.800; -461.000; -221.000
444.518; -218.700; -691.000; -454.000
444.640; -200.400; -268.000; -111.000
444.763;   -8.600;  388.000;  249.000
444.885; -198.000; -432.000; -392.000
445.007;  -43.400;   35.000;   86.000
445.129; -201.500; -610.000; -515.000
445.251; -216.600; -372.000; -439.000
445.373; -259.800; -537.000; -386.000
445.495;    7.200;  242.000;  350.000
445.617;  119.300;  853.000;  753.000
445.739; -139.100; -215.000;  -97.000
445.861; -119.500; -245.000; -112.000
445.984; -140.800; -267.000; -101.000
446.105; -156.700; -418.000; -251.000
446.227;  -80.900; -176.000;  -19.000
446.349; -199.000; -358.000; -249.000
446.471; -218.100; -615.000; -448.000
446.593; -138.100; -316.000;   19.000
446.715;  -91.800;  -67.000;   41.000
446.837;  146.300;  697.000;  832.000
446.959; -197.900; -457.000; -478.000
447.081; -266.400; -628.000; -518.000
447.203;  111.700;  862.000;  834.000
447.325; -133.900; -270.000;   42.000
447.446;   47.600;  286.000;  530.000
447.568; -335.100; -921.000; -803.000
447.690; -179.400; -236.000; -245.000
447.812; -261.100; -798.000; -519.000
447.933;  -55.600;  155.000;  127.000
448.055; -114.400; -306.000; -261.000
448.177;  -43.300;   31.000;   79.000
448.299; -366.100; -935.000; -727.000
448.420;   -8.700;  -25.000;  159.000
448.542;  -83.500;   -3.000;   33.000
448.664;  -37.900;  109.000;  322.000
448.785;   19.200;  265.000;   83.000
448.907; -229.000; -614.000; -353.000
449.028; -254.000; -771.000; -471.000
449.150;   59.400;  492.000;  589.000
449.272; -386.400;-1044.000; -913.000
449.393;   86.600;  612.000;  694.000
449.515; -292.800; -634.000; -581.000
449.636; -129.400; -264.000; -155.000
449.758;  148.400;  763.000;  622.000
449.879; -196.200; -498.000; -396.000
450.001; -174.400; -149.000;  -49.000
450.122;  -65.000;  -95.000;  162.000
450.244;  -36.400;   37.000;  364.000
450.365; -190.300; -495.000; -301.000
450.486;  -69.900;   80.000;  268.000
450.608;    5.100;  393.000;  326.000
450.729;   91.000;  578.000;  645.000
450.850; -247.400; -574.000; -466.000
450.972; -285.700; -552.000; -389.000
451.093;   21.900;  190.000;  588.000
451.214; -172.000; -516.000; -337.000
451.336;  124.400;  773.000;  579.000
451.457;   13.900;  264.000;  393.000
451.578;  -88.500; -118.000;  -74.000
451.699; -245.300; -546.000; -540.000
451.821; -136.800; -284.000;  -50.000
451.942;   -9.800;  278.000;  285.000
452.063;   -1.200;  228.000;  419.000
452.184; -107.000;  -54.000;  -49.000
452.305;  -11.200;  103.000;  170.000
452.427; -201.400; -549.000; -301.000
452.548;  -69.400;   23.000;   79.000
452.669; -137.000; -257.000;  -89.000
452.790; -106.400;    3.000;  -18.000
452.911;  -38.200;  195.000;  259.000
453.032; -139.700; -289.000;  -60.000
453.153; -108.300;  -29.000;   81.000
453.274;  158.100;  737.000;  868.000
453.395;  -93.500;  -51.000;  175.000
453.516;  238.100; 1317.000; 1388.000
453.637; -161.800; -205.000; -150.000
453.758;  -72.700;   15.000;   69.000
453.879; -221.200; -462.000; -250.000
454.000;  180.500; 1086.000;  948.000
454.121; -259.600; -554.000; -326.000
454.242; -230.100; -599.000; -383.000
454.362; -100.700;  -99.000;  114.000
454.483; -183.500; -309.000; -229.000
454.604;   23.700;  512.000;  580.000
454.725; -237.700; -627.000; -555.000
454.846; -224.800; -474.000; -406.000
454.967;    1.200;  230.000;  539.000
455.087;  -24.600;  179.000;  153.000
455.208;   79.400;  554.000;  856.000
455.329;  -97.400;  -22.000;   82.000
455.450;   33.000;  473.000;  633.000
455.570; -186.000; -234.000; -211.000
455.691;  -91.100;  201.000;  407.000
455.812; -206.300; -270.000;  -92.000
455.932;  -87.100;  107.000;  -97.000
456.053;  -87.000;   36.000;   24.000
456.173; -204.200; -433.000; -355.000
456.294; -218.100; -476.000; -303.000
456.415;  -96.200;  -73.000;   70.000
456.535;  -10.300;  297.000;  273.000
456.656;  -31.900;  132.000;  240.000
456.776; -101.700;    3.000;  298.000
456.897;   53.500;  308.000;  513.000
457.017; -139.800; -153.000;   -3.000
457.138; -215.300; -402.000; -249.000
457.258;  -76.200;  263.000;  224.000
457.379;  -14.600;  509.000;  521.000
457.499;  -29.500;  443.000;  432.000
457.620; -217.900; -407.000; -231.000
457.740; -165.500; -132.000;  -11.000
457.860;  -98.800;   87.000;   44.000
457.981;  -49.000;  132.000;  124.000
458.101; -135.200;  -89.000;   40.000
458.221;   12.000;  336.000;  402.000
458.342;  -89.700;   -4.000;  -37.000
458.462;   12.100;  617.000;  352.000
458.582; -162.500; -302.000; -294.000
458.703;  -42.900;  303.000;  154.000
458.823;  -92.500;   22.000;  163.000
458.943;  -30.800;  341.000;  467.000
459.063;  -77.600; 1124.000;  192.000
459.183;  -46.700;  328.000;  313.000
459.304;    3.800;  315.000;  517.000
459.424; -146.700; -246.000;  -89.000
459.544;   57.800;  388.000;  764.000
459.664;   60.500;  499.000;  506.000
459.784;  173.800; 1004.000; 1175.000
459.904;   76.700;  867.000;  744.000
460.024;  171.400;  867.000;  684.000
460.144;   42.000;  449.000;  554.000
460.264;    2.300;  515.000;  327.000
460.385; -151.300; -145.000; -119.000
460.505;  124.100;  905.000;  858.000
460.625; -142.500;  -17.000;  -68.000
460.745;   -3.900;  396.000;  541.000
460.864;  -70.800;  153.000;  469.000
460.984;  -15.900;  499.000;  573.000
461.104;  323.700; 1656.000; 1775.000
461.224;   94.100;  657.000;  650.000
461.344;  -53.600;  431.000;  360.000
461.464;  -19.400;  258.000;  513.000
461.584;   -9.100;  283.000;  466.000
461.704;  -83.500;   58.000;  108.000
461.824;  -87.000;  238.000;  259.000
461.943;  -64.000;  191.000;  130.000
462.063; -131.300;    2.000;  324.000
462.183;   96.300;  639.000;  717.000
462.303;  270.500; 1678.000; 1230.000
462.422;   89.900;  781.000;  840.000
462.542; -111.900;  271.000;  391.000
462.662;   28.700;  353.000;  380.000
462.782;   75.400;  833.000;  572.000
462.901;   44.200;  545.000;  717.000
463.021;  336.500; 1702.000; 1638.000
463.141;  -14.700;  337.000;  770.000
463.260;   -4.000;  614.000;  474.000
463.380;   82.000;  902.000;  884.000
463.499;    1.300;  342.000;  332.000
463.619;  -16.000;  581.000;  559.000
463.738;  295.800; 1644.000;  903.000
463.858;   62.300;  657.000;  811.000
463.978;   -9.100;  542.000;  396.000
464.097;  126.300;  921.000; 1114.000
464.217;  156.400; 1196.000; 1143.000
464.336;  170.300; 1068.000; 1130.000
464.455;  -44.200;  328.000;  659.000
464.575;   39.100;  597.000;  602.000
464.694;  196.400; 1204.000; 1179.000
464.814;   91.900; 1190.000; 1138.000
464.933;  119.700; 1095.000; 1027.000
465.052;  207.400; 1412.000; 1054.000
465.172;   65.400;  922.000;  799.000
465.291;  237.000; 1376.000; 1320.000
465.410;   60.900;  462.000;  735.000
465.530;  210.700; 1355.000; 1310.000
465.649;  179.800; 1209.000; 1273.000
465.768;  293.900; 1673.000; 1508.000
465.888;  120.800;  941.000; 1174.000
466.007;  238.500; 1335.000; 1440.000
466.126;   12.200;  721.000;  641.000
466.245;  103.000; 1176.000; 1187.000
466.364;   65.000;  950.000; 1060.000
466.484;  145.600; 1024.000; 1213.000
466.603;  103.700; 1101.000; 1222.000
466.722;  256.100; 1490.000; 1769.000
466.841;  156.100; 1151.000; 1401.000
466.960;  102.400; 1069.000;  972.000
467.079;  289.300; 1971.000; 1786.000
467.198;  142.900; 1238.000; 1181.000
467.317;  217.500; 1768.000; 1162.000
467.436;  128.100; 1709.000; 1261.000
467.555;  319.200; 1796.000; 1746.000
467.674;  171.600; 1227.000; 1329.000
467.793;  170.100; 1376.000; 1374.000
467.912;  238.900; 1658.000; 1539.000
468.031;  321.900; 2038.000; 1930.000
468.150;  311.900; 1842.000; 1837.000
468.269;  418.600; 2313.000; 2090.000
468.388;  405.600; 2168.000; 2339.000
468.507;  573.300; 2884.000; 2903.000
468.626;  625.500; 2555.000; 2541.000
468.744;  339.900; 2018.000; 2174.000
468.863;  418.400; 2312.000; 2523.000
468.982;  240.700; 1503.000; 1555.000
469.101;  493.400; 2788.000; 2692.000
469.220;  339.300; 2333.000; 2176.000
469.338;  568.100; 2935.000; 3051.000
469.457;  419.500; 2719.000; 2545.000
469.576;  736.100; 3953.000; 3784.000
469.695;  470.000; 2877.000; 3066.000
469.813;  865.400; 4148.000; 4192.000
469.932;  847.100; 4255.000; 4485.000
470.051;  756.400; 4075.000; 4161.000
470.169;  859.300; 4470.000; 4338.000
470.288;  961.100; 4700.000; 4809.000
470.406; 1053.800; 5059.000; 5194.000
470.525; 1197.500; 6101.000; 5787.000
470.644; 1392.500; 6847.000; 6794.000
470.762; 1713.400; 8397.000; 7873.000
470.881; 1820.900; 8651.000; 8464.000
470.999; 2031.300; 9685.000; 9151.000
471.118; 2278.800;11174.000;10711.000

