
Integration time [ms]: 200.000
Averaging Nr. [scans]: 10
Smoothing Nr. [pixels]: 0
Data measured with spectrometer [name]: 2101012U2
Wave   ;Sample   ;Dark     ;Reference
[nm]   ;[counts] ;[counts] ;[counts] 

197.733;  111.400;  516.000;  404.000
197.879; -173.500; -610.000; -634.000
198.025;  -96.200; -475.000; -420.000
198.171; -126.500; -602.000; -612.000
198.317;  -56.900; -401.000; -316.000
198.463; -103.700; -655.000; -404.000
198.609;   81.800;  181.000; -137.000
198.755; -166.400; -644.000; -410.000
198.901; -149.100; -505.000; -424.000
199.047; -131.900; -615.000; -488.000
199.193;  -85.900; -230.000; -468.000
199.339; -101.000; -222.000; -369.000
199.485;   98.700;  330.000;  271.000
199.631;   38.900;  227.000;  310.000
199.777; -123.400; -466.000; -398.000
199.923; -130.600; -610.000; -424.000
200.069;  -32.200; -141.000;  -58.000
200.215;  125.800;  128.000;  453.000
200.361;   88.300;  243.000;  477.000
200.507; -110.100; -600.000; -373.000
200.653;  -59.200; -371.000; -194.000
200.798;  -71.200; -215.000; -125.000
200.944;  -16.000; -146.000;  -41.000
201.090;   72.300;   61.000;  222.000
201.236;  -16.500; -116.000; -158.000
201.382;  266.500;  874.000;  903.000
201.528;   23.200;  -58.000;  -48.000
201.674; -112.500; -386.000; -293.000
201.819; -138.500; -540.000; -439.000
201.965; -171.500; -699.000; -447.000
202.111;  -62.200; -273.000; -226.000
202.257;  -80.900; -250.000; -238.000
202.402;    3.900;   13.000;  -36.000
202.548;  -37.100; -169.000; -116.000
202.694;  159.400;  410.000; -183.000
202.840; -174.200; -603.000; -531.000
202.985; -153.200; -681.000; -639.000
203.131; -218.900; -832.000; -666.000
203.277;  -31.500; -199.000; -262.000
203.423; -106.800; -434.000; -520.000
203.568;  -78.500; -462.000; -237.000
203.714; -147.500; -535.000; -542.000
203.860; -162.000; -682.000; -641.000
204.005;   44.100;  112.000;  167.000
204.151;  146.900;  561.000;  556.000
204.296;  -90.300; -354.000; -221.000
204.442; -159.300; -600.000; -547.000
204.588; -171.300; -592.000; -579.000
204.733;   58.500;  178.000;  168.000
204.879; -283.600;-1018.000; -822.000
205.025;   19.200;  -99.000;  126.000
205.170;   22.100;  -17.000;   94.000
205.316;  157.700;  438.000;  661.000
205.461; -140.600; -698.000; -554.000
205.607;  144.400;  609.000;  665.000
205.752; -150.500; -626.000; -551.000
205.898; -114.700; -501.000; -391.000
206.043; -127.300; -578.000; -506.000
206.189;  -64.500; -243.000; -285.000
206.334;  181.100;  554.000;  606.000
206.480;  175.900;  409.000;  239.000
206.625; -186.400; -529.000; -552.000
206.771; -114.800; -451.000; -373.000
206.916;  -80.800; -210.000; -537.000
207.062; -156.600; -545.000; -591.000
207.207; -148.600; -546.000; -443.000
207.353;  104.400;  185.000;  460.000
207.498;   50.100;  196.000;   85.000
207.643; -126.000; -501.000; -370.000
207.789; -261.800;-1069.000; -910.000
207.934; -206.800; -665.000; -713.000
208.080;  -66.300; -154.000;   66.000
208.225;    2.100;  -22.000;  -57.000
208.370; -169.400; -727.000; -619.000
208.516; -138.700; -741.000; -487.000
208.661;  -69.400; -127.000;  -69.000
208.806;  -30.100; -165.000; -171.000
208.952; -252.800;-1044.000; -731.000
209.097;  135.700;  378.000;  349.000
209.242;  -91.900; -307.000; -382.000
209.387;   85.000;  392.000;  350.000
209.533; -131.400; -321.000; -350.000
209.678;  167.800;  472.000;  543.000
209.823; -110.500; -408.000; -310.000
209.969; -199.500; -860.000; -757.000
210.114; -218.900; -907.000; -719.000
210.259; -249.400; -939.000; -889.000
210.404;  -31.000; -171.000;  103.000
210.549;   26.800;  108.000;    3.000
210.695;  -28.900;   -3.000;  -95.000
210.840;   78.600;   94.000;   67.000
210.985; -122.400; -484.000; -303.000
211.130;  154.500;  268.000;  406.000
211.275;   19.300;  207.000;  199.000
211.420;  -97.300; -300.000; -289.000
211.566; -139.800; -536.000; -489.000
211.711;   51.600;  218.000;  157.000
211.856; -141.700; -545.000; -519.000
212.001;    1.300;  151.000;   44.000
212.146;  -21.900;  153.000;   49.000
212.291;  -41.700; -210.000; -186.000
212.436;  -30.400; -280.000;   -6.000
212.581; -162.600; -685.000; -653.000
212.726; -149.900; -487.000; -538.000
212.871; -101.900; -552.000; -217.000
213.016; -309.700;-1172.000;-1029.000
213.161;  136.300;  406.000;  291.000
213.306; -151.300; -435.000; -577.000
213.451; -211.300; -778.000; -689.000
213.596;  -80.300; -455.000; -347.000
213.741; -108.700; -448.000; -538.000
213.886; -164.500; -498.000; -517.000
214.031;  -35.400; -294.000; -124.000
214.176;  -87.000; -408.000; -341.000
214.321;  -27.400; -296.000; -157.000
214.466;  -59.700; -163.000;  -43.000
214.611;  -12.300;  -61.000;  -10.000
214.756; -224.100; -948.000; -858.000
214.901;  -40.500; -388.000; -226.000
215.046; -235.000; -797.000; -825.000
215.191;   63.500;  128.000;   35.000
215.336;  -40.900; -157.000;  -19.000
215.480; -129.200; -684.000; -505.000
215.625;  -11.700; -175.000;  -19.000
215.770; -190.900; -757.000; -662.000
215.915;  -23.800;   -5.000;  -97.000
216.060;    5.100; -113.000;  -21.000
216.205; -200.900; -731.000; -779.000
216.349; -150.400; -470.000; -533.000
216.494; -258.600; -939.000; -867.000
216.639; -219.600; -823.000; -888.000
216.784; -172.200; -577.000; -525.000
216.929;   91.200;  392.000;  281.000
217.073;  -43.800; -244.000;  -31.000
217.218;   -4.300;   78.000;  -47.000
217.363; -184.100; -656.000; -618.000
217.507; -134.300; -623.000; -588.000
217.652; -246.300; -845.000; -874.000
217.797; -186.500; -708.000; -659.000
217.942; -227.900; -856.000; -720.000
218.086;  198.000;  608.000;  539.000
218.231;  -32.900; -174.000;  -26.000
218.376;  -77.000; -337.000; -229.000
218.520;   -9.000;  -41.000;   96.000
218.665;  -54.200; -338.000; -204.000
218.810; -103.000; -275.000; -233.000
218.954;   50.200;  201.000;   35.000
219.099; -222.600; -713.000; -963.000
219.243; -164.800; -589.000; -554.000
219.388;  -57.200; -264.000; -136.000
219.532;  -28.600; -116.000; -116.000
219.677; -201.900; -564.000; -521.000
219.822;  -17.300;   33.000;   89.000
219.966;    8.600;   17.000;  -99.000
220.111;  -57.800; -328.000;  -40.000
220.255; -208.800; -797.000; -750.000
220.400;  -40.700; -180.000; -146.000
220.544; -127.500; -516.000; -450.000
220.689; -135.300; -422.000; -451.000
220.833;  -11.000; -123.000;  -58.000
220.978; -102.600; -393.000; -563.000
221.122;   58.800;  319.000;  307.000
221.267; -243.100; -906.000; -837.000
221.411; -147.600; -478.000; -394.000
221.555;   11.100; -104.000;  -23.000
221.700;  -92.200; -329.000; -222.000
221.844;   73.700;  255.000;  272.000
221.989;  -89.600; -328.000; -311.000
222.133;  -61.200; -289.000; -307.000
222.277;   19.600;    5.000;   78.000
222.422;   51.200;  227.000;  113.000
222.566;  -50.800; -381.000; -214.000
222.711; -109.000; -414.000; -479.000
222.855; -116.900; -643.000; -586.000
222.999; -163.100; -642.000; -717.000
223.144;  -30.600; -195.000; -194.000
223.288;  150.500;  423.000;  251.000
223.432;   47.300;  184.000;  230.000
223.576;   43.500;  152.000;  -21.000
223.721;  114.100;  364.000;  273.000
223.865; -125.100; -472.000; -475.000
224.009;  500.500; 1673.000; 1631.000
224.153; -131.500; -660.000; -671.000
224.298; -141.300; -531.000; -489.000
224.442;  -38.700;  -74.000;  -33.000
224.586;   -7.200; -169.000; -106.000
224.730; -185.100; -858.000; -670.000
224.875; -234.100; -739.000; -688.000
225.019;   50.900;  102.000;  188.000
225.163;  118.100;  208.000;  341.000
225.307;   55.000;   97.000;  -91.000
225.451;   97.500;  360.000;  481.000
225.595;   93.000;  264.000;  176.000
225.739;  -21.000; -170.000;  -94.000
225.884;   27.200;   86.000;    5.000
226.028; -204.300; -760.000; -626.000
226.172;  -86.100; -260.000; -273.000
226.316; -247.800; -941.000; -902.000
226.460; -142.600; -645.000; -493.000
226.604; -110.000; -406.000; -400.000
226.748; -218.500; -836.000; -733.000
226.892;  -70.800; -227.000; -181.000
227.036;  -73.200; -537.000; -447.000
227.180;  -92.400; -551.000; -375.000
227.324; -135.400; -561.000; -580.000
227.468; -215.600; -819.000; -717.000
227.612;   25.800;  242.000;  -28.000
227.756; -223.700; -845.000; -698.000
227.900;  113.600;  342.000;  441.000
228.044; -122.400; -509.000; -290.000
228.188;  131.100;  448.000;  568.000
228.332; -175.600; -546.000; -472.000
228.476;  -49.700; -223.000; -149.000
228.620;  -61.400; -210.000; -150.000
228.764;  144.100;  431.000;  349.000
228.908;  -43.800; -155.000;   30.000
229.052; -101.700; -615.000; -528.000
229.195;  -12.300; -172.000;   13.000
229.339;  -44.100; -235.000; -305.000
229.483;  -50.200;    5.000; -162.000
229.627;   14.100; -156.000;  139.000
229.771;  -75.300; -218.000; -294.000
229.915;    1.100;  230.000;   79.000
230.059; -190.600; -648.000; -663.000
230.202;  -54.400; -370.000; -317.000
230.346;  -11.500; -107.000;  107.000
230.490; -127.200; -489.000; -521.000
230.634; -230.200; -736.000; -553.000
230.777;  191.400;  478.000;  509.000
230.921; -127.100; -450.000; -359.000
231.065; -104.000; -246.000; -286.000
231.209;   85.800;  261.000;  265.000
231.352;   79.800;   54.000;   40.000
231.496;   50.200;  568.000;  188.000
231.640; -190.700; -693.000; -621.000
231.783;  171.900;  546.000;  525.000
231.927;  -83.500; -294.000; -365.000
232.071; -250.900; -962.000; -736.000
232.214; -251.100; -980.000; -764.000
232.358; -215.400; -683.000; -599.000
232.502;   13.700;  -19.000;    7.000
232.645; -284.900;-1090.000; -927.000
232.789;  -51.200; -257.000; -218.000
232.933;  -86.800; -407.000; -224.000
233.076; -261.900;-1038.000; -897.000
233.220; -185.900; -752.000; -777.000
233.363; -166.500; -669.000; -477.000
233.507;  148.000;  371.000;  129.000
233.650; -203.800; -764.000; -834.000
233.794;  127.600;  438.000;  461.000
233.938; -101.100; -530.000; -362.000
234.081;  -14.100;  -93.000;   31.000
234.225; -144.800; -631.000; -539.000
234.368; -242.200; -773.000; -723.000
234.512;  -86.700; -385.000; -299.000
234.655; -177.000; -582.000; -555.000
234.798; -150.300; -493.000; -466.000
234.942; -247.300; -884.000;-1002.000
235.085; -154.300; -651.000; -443.000
235.229; -134.200; -405.000; -410.000
235.372; -106.000; -247.000; -191.000
235.516; -130.900; -397.000; -321.000
235.659;   60.600;   92.000;  121.000
235.802;    2.400;  -38.000;  -22.000
235.946;   52.400;  335.000;  215.000
236.089;   83.700;  126.000;  250.000
236.233;   90.800;  275.000;  298.000
236.376;  -86.100; -235.000; -378.000
236.519; -102.100; -297.000; -319.000
236.663;  -33.300; -215.000; -117.000
236.806; -251.100;-1029.000; -999.000
236.949;  133.100;  543.000;  431.000
237.092;   96.900;  412.000;  391.000
237.236; -167.500; -589.000; -502.000
237.379;  132.400;  352.000;  428.000
237.522; -222.900; -879.000; -768.000
237.666;  -26.400; -271.000;   18.000
237.809; -277.200; -851.000; -823.000
237.952;   73.100;  469.000;  271.000
238.095; -141.400; -447.000; -442.000
238.238;  199.900;  688.000;  700.000
238.382;   -6.700;  166.000;  103.000
238.525; -167.700; -598.000; -511.000
238.668; -281.600;-1060.000; -985.000
238.811; -161.200; -638.000; -643.000
238.954; -113.800; -483.000; -334.000
239.097;  189.700;  617.000;  664.000
239.241;   61.300;  394.000;  326.000
239.384;  -69.600; -254.000; -214.000
239.527;  -98.300; -424.000; -224.000
239.670; -295.800; -994.000;-1091.000
239.813; -211.900; -696.000; -658.000
239.956;  170.600;  579.000;  473.000
240.099; -225.400; -778.000; -725.000
240.242;  147.600;  428.000;  432.000
240.385;  101.000;  466.000;  450.000
240.528; -158.900; -706.000; -473.000
240.671;   73.600;  189.000;  134.000
240.814;  -98.900; -441.000; -158.000
240.957; -205.200; -767.000; -578.000
241.100; -149.600; -779.000; -755.000
241.243; -256.600;-1234.000; -893.000
241.386; -148.500; -508.000; -379.000
241.529; -193.600; -735.000; -547.000
241.672; -120.700; -566.000; -495.000
241.815; -219.900; -832.000; -808.000
241.958;  -48.900; -125.000; -182.000
242.101; -144.300; -545.000; -390.000
242.244;  -98.300; -270.000; -325.000
242.387;  -80.100; -304.000; -246.000
242.530;  135.800;  470.000;  134.000
242.673;  -89.200; -381.000; -309.000
242.815; -200.300; -925.000; -899.000
242.958; -120.100; -482.000; -381.000
243.101;   28.300;  132.000;  187.000
243.244; -133.000; -564.000; -521.000
243.387;  -80.700; -313.000; -316.000
243.530; -179.800; -657.000; -674.000
243.672;    4.500;   43.000;  -92.000
243.815;  -96.400; -355.000; -283.000
243.958;   12.100;   98.000;  -26.000
244.101;    8.500;   59.000;  -16.000
244.243;  -14.600;  -47.000;  101.000
244.386; -225.900; -761.000; -630.000
244.529;  -13.700; -132.000; -139.000
244.672; -335.000;-1154.000; -951.000
244.814; -183.500; -621.000; -794.000
244.957;  -74.200; -380.000; -304.000
245.100; -141.500; -489.000; -489.000
245.242; -116.400; -387.000; -374.000
245.385;    6.800;  -59.000;  -39.000
245.528; -247.200; -871.000; -705.000
245.670;  178.300;  612.000;  634.000
245.813; -179.700; -599.000; -547.000
245.956;  -48.800; -324.000; -275.000
246.098; -184.500; -508.000; -650.000
246.241;   13.700;  194.000;   48.000
246.383;  -11.500; -119.000;  -73.000
246.526; -139.200; -454.000; -525.000
246.669; -219.300; -889.000; -780.000
246.811;   62.700;  172.000;   -1.000
246.954; -137.700; -512.000; -426.000
247.096;  -39.100;  -84.000;   -6.000
247.239; -119.800; -482.000; -445.000
247.381; -133.800; -647.000; -488.000
247.524;  206.400;  645.000;  679.000
247.666;   23.200;   58.000;   11.000
247.809; -239.200; -887.000; -691.000
247.951;   16.800;  -75.000;  138.000
248.094;   79.300;  432.000;  308.000
248.236; -324.300;-1262.000;-1238.000
248.378;   26.300; -356.000;  -81.000
248.521;  -53.000; -334.000; -337.000
248.663;  -72.500; -236.000; -267.000
248.806;  -67.500; -300.000; -266.000
248.948; -181.100; -886.000; -763.000
249.090;  -82.200; -428.000; -398.000
249.233;  -81.600; -344.000; -381.000
249.375; -155.400; -474.000; -451.000
249.518;   -5.700;  -83.000; -133.000
249.660;    1.700; -103.000;    3.000
249.802; -347.800;-1303.000;-1189.000
249.945; -150.200; -612.000; -540.000
250.087; -230.900; -834.000; -768.000
250.229;  -84.200; -362.000; -480.000
250.371; -141.700; -494.000; -439.000
250.514;  -88.300; -310.000; -244.000
250.656; -115.700;   69.000;  102.000
250.798; -231.200; -849.000; -800.000
250.940; -104.800; -322.000; -322.000
251.083;  -27.600; -335.000; -111.000
251.225;  106.700;  338.000;  310.000
251.367;  -67.500; -274.000; -373.000
251.509;  -51.900; -265.000; -210.000
251.651; -178.700; -731.000; -671.000
251.794;  145.200;  538.000;  632.000
251.936; -211.600; -821.000; -747.000
252.078; -169.100; -540.000; -461.000
252.220; -128.700; -645.000; -477.000
252.362;  190.700;  344.000;  462.000
252.504; -125.300; -677.000; -584.000
252.646; -226.900; -875.000; -722.000
252.788;  -27.900;   14.000; -128.000
252.931;  -51.200; -257.000; -253.000
253.073;  -68.300; -376.000; -317.000
253.215;   49.600;  141.000;  122.000
253.357;  -21.000;   82.000; -153.000
253.499;  -46.700; -374.000; -234.000
253.641; -157.800; -749.000; -594.000
253.783; -180.100; -609.000; -527.000
253.925; -183.900; -586.000; -591.000
254.067; -220.900; -744.000; -667.000
254.209;  -45.900; -391.000; -259.000
254.351; -273.500; -865.000; -883.000
254.493; -121.100; -441.000; -417.000
254.635; -242.100; -936.000; -818.000
254.777; -170.000; -752.000; -687.000
254.918; -145.700; -512.000; -430.000
255.060; -121.900; -551.000; -395.000
255.202; -117.000; -473.000; -261.000
255.344; -135.500; -658.000; -455.000
255.486; -137.300; -471.000; -406.000
255.628; -191.200; -780.000; -781.000
255.770; -158.000; -676.000; -536.000
255.912; -108.800; -559.000; -468.000
256.053; -167.900; -730.000; -508.000
256.195;  324.600; 1008.000;  903.000
256.337; -194.500; -861.000; -595.000
256.479;  163.600;  532.000;  416.000
256.621;  -67.200; -394.000; -212.000
256.762; -187.200; -789.000; -742.000
256.904;  152.500;  485.000;  487.000
257.046;  -70.600; -381.000; -271.000
257.188;  -55.900; -351.000; -264.000
257.329; -146.400; -525.000; -464.000
257.471; -230.800; -939.000; -807.000
257.613; -127.600; -584.000; -498.000
257.755; -324.600;-1073.000; -982.000
257.896;   89.700;  286.000;  392.000
258.038; -128.200; -403.000; -352.000
258.180;  -74.000; -354.000; -279.000
258.321; -148.400; -581.000; -457.000
258.463;   16.200;  -71.000;  133.000
258.605; -165.000; -562.000; -570.000
258.746; -189.800; -886.000; -772.000
258.888; -277.100;-1026.000;-1020.000
259.029;   65.500;  121.000;   -8.000
259.171; -179.500; -614.000; -550.000
259.313;   15.200;  -49.000;  -47.000
259.454; -133.700; -536.000; -414.000
259.596;  -91.500; -483.000; -390.000
259.737; -149.600; -590.000; -474.000
259.879;   94.100;  217.000;  311.000
260.020;  198.900;  901.000;  636.000
260.162;  -60.400; -146.000; -253.000
260.303; -227.700; -768.000; -687.000
260.445; -182.900; -609.000; -613.000
260.586;   80.200;  392.000;  157.000
260.728;  -60.700; -360.000; -248.000
260.869; -111.800; -350.000; -343.000
261.011;  217.900;  706.000;  537.000
261.152; -104.600; -479.000; -319.000
261.293; -165.200; -576.000; -595.000
261.435;  -47.300; -219.000; -184.000
261.576; -128.200; -455.000; -325.000
261.718;  144.400;  420.000;  470.000
261.859; -215.000; -940.000; -949.000
262.000; -273.500; -951.000;-1016.000
262.142;  -20.900;  -52.000;  -60.000
262.283; -221.700; -808.000; -691.000
262.424; -176.500; -666.000; -625.000
262.566; -320.400;-1161.000; -983.000
262.707; -244.800; -840.000; -830.000
262.848; -245.600; -769.000; -726.000
262.990;  -50.800; -362.000; -345.000
263.131;  187.400;  650.000;  681.000
263.272;    1.000;  -61.000;  -41.000
263.413; -193.800; -589.000; -561.000
263.555;  -91.600; -669.000; -143.000
263.696; -138.400; -550.000; -641.000
263.837; -105.400; -449.000; -551.000
263.978;   23.500;   -5.000;  -77.000
264.119;  -51.100; -283.000; -264.000
264.261; -217.100; -847.000; -630.000
264.402;    8.000;   33.000;   40.000
264.543; -140.600; -509.000; -524.000
264.684;   -7.000;   61.000;  -50.000
264.825; -169.800; -816.000; -538.000
264.966;   29.900;  -84.000;  -67.000
265.107; -201.500; -646.000; -670.000
265.248; -217.100; -825.000; -812.000
265.390;   -1.700;  152.000;   -9.000
265.531;  -43.600; -238.000; -107.000
265.672; -159.900; -557.000; -630.000
265.813;  124.300;  563.000;  439.000
265.954; -306.700; -959.000; -940.000
266.095;    2.000; -372.000; -322.000
266.236; -169.800; -686.000; -548.000
266.377;  -65.200; -243.000; -297.000
266.518; -120.200; -619.000; -547.000
266.659;   74.600;  170.000;  268.000
266.800;   39.800;   83.000;   85.000
266.941; -117.600; -487.000; -478.000
267.082;   47.300;  354.000;   99.000
267.223;  -88.100; -344.000; -273.000
267.364; -234.900; -892.000; -686.000
267.504;  -25.100;    3.000;  135.000
267.645;    9.900;  160.000;   67.000
267.786;  -68.100; -147.000;  -86.000
267.927; -127.800; -473.000; -379.000
268.068;  -17.100; -186.000;  -61.000
268.209;  -97.300; -175.000; -413.000
268.350;  -97.500; -388.000; -532.000
268.490; -149.600; -648.000; -521.000
268.631;   83.500;  127.000;  225.000
268.772; -241.600; -874.000; -647.000
268.913;  -89.800; -328.000; -476.000
269.054;   16.100; -117.000;   12.000
269.194; -110.700; -418.000; -402.000
269.335; -315.300;-1137.000;-1074.000
269.476;  -24.100;   33.000;  -35.000
269.617;  -57.400; -347.000; -392.000
269.757; -152.600; -713.000; -646.000
269.898; -200.600; -856.000; -613.000
270.039; -117.200; -415.000; -405.000
270.180; -243.100; -952.000; -816.000
270.320;   -9.700; -190.000; -250.000
270.461;  -62.500; -277.000; -249.000
270.602;   -8.200; -186.000; -156.000
270.742; -218.400; -868.000; -943.000
270.883;  -80.800; -442.000; -390.000
271.023;  -93.700; -358.000; -357.000
271.164; -140.800; -607.000; -528.000
271.305; -155.600; -666.000; -654.000
271.445; -165.700; -722.000; -683.000
271.586; -124.900; -462.000; -283.000
271.726;  -87.200; -397.000; -322.000
271.867; -113.700; -594.000; -534.000
272.008;  362.400; -473.000; -285.000
272.148;  290.800;  462.000;  468.000
272.289;   52.300; -113.000; -181.000
272.429;   72.300;   19.000;  185.000
272.570; -173.000; -633.000; -737.000
272.710; -196.500; -825.000; -775.000
272.851;   -8.300;  113.000; -130.000
272.991; -308.100;-1173.000;-1077.000
273.131; -121.000; -419.000; -459.000
273.272; -172.700; -683.000; -723.000
273.412;   42.500; -143.000;  -31.000
273.553;  -97.700; -488.000; -507.000
273.693;  312.500;  913.000;  858.000
273.834; -147.900; -894.000; -692.000
273.974; -108.900; -664.000; -615.000
274.114; -153.300; -772.000; -560.000
274.255;  152.200;  414.000;  373.000
274.395;   28.400; -180.000; -125.000
274.535;  128.000;  199.000;  350.000
274.676;   93.300;  225.000;   94.000
274.816;   22.000;  110.000;   34.000
274.956; -149.000; -624.000; -690.000
275.097; -123.300;-1014.000; -922.000
275.237; -213.200; -913.000; -803.000
275.377; -166.600; -778.000; -689.000
275.517; -263.100; -878.000; -937.000
275.658; -101.400; -590.000; -555.000
275.798; -109.600; -606.000; -413.000
275.938;   45.800;  215.000;  323.000
276.078; -139.900; -626.000; -395.000
276.218;   43.300;   99.000;  104.000
276.359; -232.400;-1026.000;-1024.000
276.499; -107.600; -605.000; -446.000
276.639;  -77.700; -305.000; -151.000
276.779;  -54.000; -475.000; -357.000
276.919; -188.200; -783.000; -624.000
277.059;   -0.800; -261.000; -212.000
277.199;  -66.000; -357.000; -259.000
277.340;  125.500;  287.000;  175.000
277.480; -201.700; -840.000; -693.000
277.620;   89.500;  192.000;   16.000
277.760; -382.300;-1533.000;-1294.000
277.900;   56.400;  113.000;   33.000
278.040;  102.000;  137.000;  159.000
278.180;  113.200;  270.000;  170.000
278.320;   42.000;   21.000;   56.000
278.460; -122.200; -443.000; -469.000
278.600; -132.400; -708.000; -598.000
278.740;  153.600;  448.000;  224.000
278.880;  -50.200; -768.000; -791.000
279.020;   81.100; -194.000; -144.000
279.160; -156.700; -672.000; -595.000
279.300; -233.900; -926.000; -873.000
279.440; -153.000; -709.000; -622.000
279.579;  -80.700;-1014.000; -929.000
279.719;  -56.400; -410.000; -394.000
279.859;  167.000;   -4.000;   41.000
279.999;   94.200; -208.000;  101.000
280.139;  -24.300; -435.000; -387.000
280.279; -115.000; -708.000; -745.000
280.419;   -8.300; -229.000; -147.000
280.559;  -32.100; -259.000; -180.000
280.698; -146.700; -790.000; -639.000
280.838; -152.400; -778.000; -800.000
280.978; -174.300; -846.000; -790.000
281.118; -223.700; -811.000; -704.000
281.257;   34.900;   24.000;    6.000
281.397; -162.400;-1094.000; -960.000
281.537; -118.600; -599.000; -712.000
281.677;  -32.600; -150.000; -101.000
281.816; -157.000; -700.000; -630.000
281.956;  -23.400; -193.000; -257.000
282.096;  -75.900; -539.000; -396.000
282.235; -174.300; -672.000; -638.000
282.375;   -5.700; -243.000;  -98.000
282.515; -166.300; -715.000; -707.000
282.654;   96.600;   29.000;  106.000
282.794;  127.300;  388.000;  244.000
282.934;  -90.800; -530.000; -491.000
283.073; -220.100;-1030.000; -857.000
283.213;  -57.900; -460.000; -467.000
283.353;  -23.000; -408.000; -349.000
283.492;   -2.100; -264.000; -296.000
283.632;  -21.400; -254.000; -168.000
283.771; -154.100; -859.000; -730.000
283.911;  -72.100; -369.000; -260.000
284.050; -181.800; -794.000; -748.000
284.190; -291.400;-1229.000;-1096.000
284.329; -246.300;-1055.000; -964.000
284.469;  -92.900; -516.000; -591.000
284.608;  -67.700; -559.000; -598.000
284.748; -134.900; -614.000; -570.000
284.887;    1.200;  -87.000;  -20.000
285.027; -216.000; -844.000; -892.000
285.166;  -42.100; -192.000; -249.000
285.306;   61.300; -116.000;  -33.000
285.445;  -60.500; -229.000; -343.000
285.584; -153.400; -630.000; -494.000
285.724;  -21.300; -282.000; -322.000
285.863; -184.800; -857.000; -507.000
286.002;  -59.700; -366.000; -276.000
286.142; -189.500; -715.000; -622.000
286.281;  -94.400; -525.000; -493.000
286.420; -130.800; -554.000; -417.000
286.560;  225.200;  653.000;  623.000
286.699; -235.700; -958.000; -912.000
286.838; -103.100; -590.000; -591.000
286.978; -155.200; -533.000; -537.000
287.117; -250.600;-1085.000; -950.000
287.256;  -24.900; -228.000; -211.000
287.395;  -52.200; -197.000; -378.000
287.535;  -64.700; -370.000; -298.000
287.674; -145.700; -509.000; -484.000
287.813;  161.800;  661.000;  533.000
287.952; -224.300;-1010.000; -871.000
288.091; -254.700;-1049.000; -915.000
288.231;   74.400;   13.000;   15.000
288.370; -330.700;-1217.000;-1200.000
288.509; -175.700; -728.000; -645.000
288.648; -146.900; -770.000; -548.000
288.787;  -47.400; -243.000;  -87.000
288.926;  -89.300; -454.000; -475.000
289.065;  297.700;  859.000;  672.000
289.204;  -83.800; -377.000; -217.000
289.344; -159.600; -791.000; -690.000
289.483;   95.500;  416.000;  304.000
289.622;  -39.300; -291.000; -149.000
289.761;    2.900; -309.000; -166.000
289.900; -184.100; -785.000; -626.000
290.039;   15.800;  -12.000;  -95.000
290.178;  -36.100; -274.000; -180.000
290.317; -133.600; -618.000; -479.000
290.456; -104.600; -463.000; -451.000
290.595; -245.100; -961.000; -833.000
290.734; -256.800; -904.000; -891.000
290.873;  -80.000; -456.000; -420.000
291.011; -165.600; -833.000; -843.000
291.150; -179.200; -770.000; -682.000
291.289;  -15.400; -343.000; -110.000
291.428; -166.200; -599.000; -480.000
291.567;  -85.000; -370.000; -442.000
291.706;   48.500;  109.000;  154.000
291.845; -153.300; -597.000; -505.000
291.984; -298.200;-1234.000;-1061.000
292.122;  165.600;  602.000;  582.000
292.261;  144.000;  620.000;  463.000
292.400;   78.500; -144.000;  211.000
292.539; -242.800; -959.000; -813.000
292.678;  -34.100; -325.000; -300.000
292.816; -274.300;-1136.000; -965.000
292.955; -127.200; -844.000; -684.000
293.094;  -12.500; -173.000; -337.000
293.233;  -70.400; -556.000; -400.000
293.371;  -47.700; -225.000;  -84.000
293.510; -194.600; -866.000; -780.000
293.649; -222.000; -959.000; -924.000
293.787;  -82.400;-1083.000;-1012.000
293.926;   43.000; -113.000;  -32.000
294.065;  -32.500; -379.000; -290.000
294.203;  134.400;  298.000;  406.000
294.342;  100.200;   74.000;  156.000
294.481;12144.800;51180.000; -836.000
294.619;  -11.800; -425.000; -582.000
294.758; -236.900;-1230.000;-1137.000
294.896;  208.500; -125.000;    5.000
295.035; -193.000;-1040.000;-1006.000
295.174; -213.300;-1082.000; -954.000
295.312;  -32.500; -323.000; -203.000
295.451;   25.300; -307.000; -428.000
295.589;  -42.000; -389.000; -518.000
295.728;   56.100; -292.000; -165.000
295.866;   58.000;  -36.000;  -51.000
296.005; -108.400; -584.000; -341.000
296.143;  -75.600; -558.000; -596.000
296.282; -149.100; -957.000; -881.000
296.420; -121.300; -657.000; -557.000
296.559; -107.700; -892.000; -633.000
296.697;  109.000; -847.000; -665.000
296.835;  233.300;-1141.000;-1002.000
296.974;  147.000;  -23.000;   39.000
297.112;   84.500; -443.000; -504.000
297.251; -104.800; -815.000; -755.000
297.389;  242.600; -576.000; -438.000
297.527;  161.300; -145.000;  -83.000
297.666;  -69.600; -486.000; -438.000
297.804;  -36.700; -404.000; -264.000
297.942;   43.500; -136.000; -161.000
298.081;   40.800; -183.000;   63.000
298.219;  194.600;  -17.000;  -19.000
298.357;  145.000; -144.000;  -71.000
298.495;   89.900; -810.000; -812.000
298.634;  234.900;  245.000;  219.000
298.772;  185.800; -220.000; -338.000
298.910;  -55.900; -309.000; -182.000
299.048;   23.600; -130.000; -153.000
299.187;  -15.300; -350.000; -250.000
299.325;  111.900;   52.000;  122.000
299.463;  182.500; -389.000; -299.000
299.601;  307.500; -327.000; -271.000
299.739; -175.500; -908.000; -883.000
299.877;  -90.000; -791.000; -703.000
300.016; -108.300;-1095.000; -935.000
300.154;  347.100;  -19.000; -161.000
300.292;  181.900; -428.000; -348.000
300.430;   87.200; -408.000; -291.000
300.568; -141.400; -940.000; -874.000
300.706;  -41.800; -366.000; -469.000
300.844; -120.100;-1108.000; -979.000
300.982;  282.800;  246.000;  282.000
301.120; -188.400; -965.000; -866.000
301.258;  -77.300; -812.000; -705.000
301.396;  139.700;  104.000;  -41.000
301.534;  274.300; -218.000; -293.000
301.672;   79.700; -664.000; -521.000
301.810;  150.000; -613.000; -545.000
301.948;  380.800;   53.000;  149.000
302.086; 1210.500; -250.000;  -32.000
302.224; 2054.900; -610.000; -585.000
302.362;  184.200; -558.000; -622.000
302.500;   37.700; -923.000; -893.000
302.638;  287.800;  128.000;  245.000
302.776;   38.000; -352.000; -408.000
302.913;  132.900;  447.000;  236.000
303.051;   55.600;  -86.000;  -23.000
303.189;  156.400;   90.000;  118.000
303.327;  -51.900; -341.000; -256.000
303.465; -114.900; -832.000; -588.000
303.603; -169.700; -805.000; -604.000
303.740;  263.900;  417.000;  241.000
303.878;  122.700; -800.000; -759.000
304.016; -146.000; -915.000; -790.000
304.154; -206.400;-1123.000;-1152.000
304.291;  -20.600; -505.000; -554.000
304.429;   96.300;  102.000;   74.000
304.567; -229.100; -908.000; -893.000
304.705;  -44.800; -408.000; -515.000
304.842;  239.700; -616.000; -540.000
304.980;  174.300;  215.000;   35.000
305.118;  176.400; -367.000; -365.000
305.255;  -38.500; -945.000; -927.000
305.393;  171.800;  178.000;  239.000
305.531; -162.600;-1173.000; -956.000
305.668; -107.500; -663.000; -582.000
305.806;  187.000; -358.000; -439.000
305.943;  243.000; -629.000; -637.000
306.081;  163.000; -378.000; -267.000
306.219; -188.600; -863.000; -748.000
306.356;   67.400;  158.000;   27.000
306.494;  277.100;  981.000;  761.000
306.631;   74.300;  -11.000;  -55.000
306.769;   44.800; -613.000; -485.000
306.906;   68.800; -284.000; -258.000
307.044;  -62.100; -473.000; -488.000
307.181;  -92.500; -410.000; -332.000
307.319;  136.100;  112.000;   87.000
307.456; -293.100;-1191.000;-1153.000
307.594; -169.900; -980.000; -727.000
307.731;   15.200; -371.000; -164.000
307.868;   56.200;  -15.000;   20.000
308.006; -207.400; -961.000; -847.000
308.143;  -94.600; -618.000; -330.000
308.281;  476.600;  -37.000; -254.000
308.418;   57.100; -748.000; -640.000
308.555;  -90.800; -400.000; -250.000
308.693;  -92.400; -577.000; -573.000
308.830; -131.000; -712.000; -657.000
308.967;   40.800; -215.000;  -95.000
309.105;    2.900; -507.000; -396.000
309.242;  136.000; -468.000; -367.000
309.379;  855.800; -577.000; -655.000
309.517;  -41.500; -936.000; -948.000
309.654; -169.500; -910.000; -734.000
309.791;  -97.400; -662.000; -580.000
309.928; -173.700; -977.000; -914.000
310.065;  415.200;  819.000;  697.000
310.203;   49.700; -825.000; -850.000
310.340;   55.500; -465.000; -321.000
310.477;  -89.200; -412.000; -516.000
310.614;  -79.600; -383.000; -473.000
310.751;  -70.300; -427.000; -518.000
310.889;   59.900;    1.000;   11.000
311.026; -257.700;-1161.000; -939.000
311.163;  -18.800; -386.000; -380.000
311.300;  -64.800; -512.000; -479.000
311.437;  -91.700; -658.000; -619.000
311.574; -255.800;-1226.000; -985.000
311.711;  -56.800; -595.000; -433.000
311.848;  -16.700; -380.000; -388.000
311.985;  118.800;  270.000;   93.000
312.122; -184.700; -932.000; -762.000
312.259; -187.600; -941.000; -994.000
312.396;  -61.400; -508.000; -551.000
312.533; -137.200; -812.000; -790.000
312.670; -218.100;-1070.000; -898.000
312.807;   17.800; -352.000; -367.000
312.944;  -87.600; -513.000; -611.000
313.081;   -0.100; -150.000; -415.000
313.218; -144.500;-1111.000; -867.000
313.355;   77.200; -531.000; -449.000
313.492;   60.600; -455.000; -292.000
313.629;  311.700;  815.000;  735.000
313.766; -261.600;-1176.000;-1008.000
313.902;   36.700; -186.000;   21.000
314.039;  -48.100; -372.000; -289.000
314.176;  150.700;  286.000;  192.000
314.313;  -83.500; -569.000; -473.000
314.450;  -90.600; -788.000; -684.000
314.587;  -48.200; -468.000; -480.000
314.723;   88.400;  -78.000;  130.000
314.860;  136.000;  318.000;  332.000
314.997;  101.200;  223.000;  142.000
315.134;   -5.300; -385.000; -368.000
315.270;  -16.300; -480.000; -496.000
315.407; -185.600;-1094.000; -967.000
315.544;  -67.500; -657.000; -538.000
315.681; -100.500; -681.000; -565.000
315.817;  100.200; -133.000; -176.000
315.954;   70.200; -613.000; -392.000
316.091; -185.600;-1045.000;-1023.000
316.227;    1.700;  -71.000; -179.000
316.364;   55.200;   23.000;    6.000
316.500;  -43.500; -113.000; -300.000
316.637;  -21.200; -181.000; -302.000
316.774; -138.600; -625.000; -358.000
316.910; -156.500; -598.000; -629.000
317.047; -102.400; -487.000; -351.000
317.183;  -79.300; -435.000; -566.000
317.320;  -12.000; -367.000; -321.000
317.456; -125.900; -733.000; -805.000
317.593; -133.700; -598.000; -641.000
317.729;   69.700;  168.000;  -67.000
317.866; -346.000;-1434.000;-1285.000
318.002; -141.200; -708.000; -948.000
318.139; -129.700; -883.000; -867.000
318.275; -147.300;-1003.000; -738.000
318.412;  -88.400; -517.000; -336.000
318.548;  -25.800; -751.000; -720.000
318.685; -148.000; -985.000; -888.000
318.821; -151.400; -762.000; -735.000
318.957;    2.900;   34.000;  -23.000
319.094;  144.700;  297.000;  154.000
319.230;  -77.500; -756.000; -742.000
319.367;  307.600; -471.000; -520.000
319.503;  185.300; -538.000; -436.000
319.639; -155.900; -877.000; -793.000
319.775;  -51.600; -750.000; -685.000
319.912;  -67.200; -424.000; -519.000
320.048; -140.200;-1184.000;-1184.000
320.184;  176.100;   59.000;   70.000
320.321;  -46.300; -497.000; -467.000
320.457;  181.500;  475.000;  662.000
320.593;  -15.400; -375.000; -382.000
320.729; -164.500; -732.000; -734.000
320.866; -104.900; -577.000; -635.000
321.002; -122.300; -759.000; -809.000
321.138;   -4.600; -135.000; -211.000
321.274;  147.300; -148.000; -115.000
321.410;  -10.600; -585.000; -353.000
321.546;   23.100;-1011.000; -911.000
321.683;  164.500;  400.000;  185.000
321.819;   42.400;  -48.000; -117.000
321.955; -155.100; -743.000; -722.000
322.091;  -42.900; -585.000; -540.000
322.227;   30.500; -382.000; -202.000
322.363;   26.300; -320.000; -215.000
322.499;  -47.800; -343.000; -331.000
322.635;  368.600;  636.000;  443.000
322.771;  104.400; -139.000;   12.000
322.907;  248.900;  129.000;  327.000
323.043;   26.500; -115.000; -206.000
323.179;  -20.300; -394.000; -363.000
323.315;  147.500; -401.000; -371.000
323.451;  324.700; -328.000; -236.000
323.587;  150.900;  -60.000;  -77.000
323.723;   64.200; -682.000; -601.000
323.859;  -15.000; -258.000;  -76.000
323.995;  -23.500; -467.000; -409.000
324.131; -212.700; -967.000; -892.000
324.267;  -14.400; -254.000; -276.000
324.402; -223.900; -960.000; -983.000
324.538;   47.700; -279.000; -104.000
324.674;  107.800;  164.000;   77.000
324.810;  454.000;  226.000;  308.000
324.946;  125.800; -810.000; -658.000
325.082;  -56.600; -568.000; -475.000
325.217;   27.700;  -62.000;   16.000
325.353; -197.200; -764.000; -659.000
325.489; -103.900; -540.000; -506.000
325.625; -119.300; -579.000; -525.000
325.760;  134.500;  517.000;  376.000
325.896;  -63.900; -515.000; -702.000
326.032;  -61.500; -403.000; -352.000
326.168;  -86.300; -462.000; -369.000
326.303;  -42.600; -352.000; -461.000
326.439;   -5.600; -336.000; -276.000
326.575;   62.400; -190.000;  -29.000
326.710;   35.100; -156.000;  -30.000
326.846;   52.500;  146.000;  103.000
326.982; -123.000; -530.000; -548.000
327.117;  -94.500; -481.000; -442.000
327.253; -140.200; -745.000; -742.000
327.388; -268.800;-1137.000;-1153.000
327.524;   49.200; -811.000; -578.000
327.659;   31.400;  -58.000;  -22.000
327.795;   22.300;   69.000;   45.000
327.931; -134.900; -723.000; -499.000
328.066;   -1.600; -417.000; -276.000
328.202;   62.100;   12.000; -129.000
328.337;  296.200;  957.000;  713.000
328.473;   27.500;  -12.000;  -74.000
328.608;    2.200; -256.000; -267.000
328.743; -118.300; -799.000; -664.000
328.879;   89.000;  214.000;  114.000
329.014;  -88.600; -102.000; -122.000
329.150; -107.000; -358.000; -483.000
329.285; -106.900; -465.000; -466.000
329.421;  -17.700; -548.000; -246.000
329.556;   37.500;  -36.000;   85.000
329.691; -148.700; -633.000; -615.000
329.827; -127.700; -626.000; -480.000
329.962;  -23.200;  131.000; -301.000
330.097; -130.400; -673.000; -585.000
330.233;  -32.300; -410.000; -223.000
330.368; -209.800; -839.000; -628.000
330.503;   11.500;    3.000;   98.000
330.638;   97.600;  -93.000; -125.000
330.774;  -45.700; -609.000; -530.000
330.909;  -22.500; -434.000; -244.000
331.044; -123.000; -714.000; -708.000
331.179; -315.400;-1217.000;-1109.000
331.315;  122.300;   77.000;   20.000
331.450;  102.100;  157.000;  285.000
331.585; -118.100; -805.000; -706.000
331.720;  -71.500; -510.000; -460.000
331.855;   27.300;  -35.000; -102.000
331.990;  349.600;   62.000;  138.000
332.126;  201.500; -110.000;   71.000
332.261;  -13.100; -379.000; -265.000
332.396;    0.500; -135.000; -242.000
332.531; -189.300;-1074.000;-1031.000
332.666;   64.600; -519.000; -363.000
332.801; -182.800; -726.000; -807.000
332.936;   17.300; -192.000; -122.000
333.071; -239.100; -870.000; -817.000
333.206;   73.400;  307.000;  379.000
333.341;  122.200;  344.000;  418.000
333.476; -112.100; -627.000; -623.000
333.611;   18.300; -251.000; -173.000
333.746;  -11.500; -381.000; -464.000
333.881; -174.800; -973.000; -935.000
334.016; -194.800; -936.000; -917.000
334.151; -192.100; -746.000; -702.000
334.286;  130.400;  152.000;  186.000
334.421;   27.500; -125.000; -178.000
334.556; -108.900; -611.000; -567.000
334.690;  -90.000; -631.000; -577.000
334.825;  182.200;  381.000;   83.000
334.960;  -72.700; -285.000; -413.000
335.095;   52.400;  135.000;  -91.000
335.230; -137.600; -722.000; -738.000
335.365; -215.100;-1084.000; -990.000
335.499; -202.600;-1108.000;-1037.000
335.634;  136.100;    9.000;  534.000
335.769; -102.700; -755.000; -720.000
335.904;  -56.400; -603.000; -561.000
336.038;  -42.300; -735.000; -657.000
336.173; -155.200;-1206.000;-1194.000
336.308;   85.100; -116.000; -189.000
336.443;   13.400; -544.000; -634.000
336.577; -113.300; -936.000; -787.000
336.712;  192.900;   -4.000;  -12.000
336.847;  -32.300; -724.000; -607.000
336.981;  247.300; -272.000; -208.000
337.116;  678.200;  615.000;  501.000
337.250;  449.000; -434.000; -421.000
337.385;  317.900; -297.000; -208.000
337.520;   41.600; -632.000; -603.000
337.654;  -46.000; -215.000; -126.000
337.789; -183.700; -989.000; -933.000
337.923;    0.400; -104.000; -205.000
338.058; -102.200; -673.000; -738.000
338.192;   12.200; -611.000; -488.000
338.327;   51.400;  -18.000; -155.000
338.461;  -74.200; -299.000; -469.000
338.596; -142.900; -780.000; -638.000
338.730; -163.600; -767.000; -803.000
338.865;  141.600;  -46.000; -140.000
338.999; -112.400; -846.000; -702.000
339.134;  -56.100; -634.000; -536.000
339.268;   46.300; -741.000; -603.000
339.403;  483.900; -740.000; -775.000
339.537;  107.100; -894.000; -820.000
339.671; -180.600; -829.000; -813.000
339.806;  -76.900; -556.000; -512.000
339.940;   17.600; -261.000; -235.000
340.074; -128.500; -685.000; -510.000
340.209;  -46.300; -351.000; -230.000
340.343; -113.600; -517.000; -573.000
340.477;  366.800;  998.000; 1036.000
340.612; -138.200;-1033.000; -900.000
340.746;  206.200; -199.000; -243.000
340.880;  -81.400; -924.000; -785.000
341.014;   18.000;  -45.000; -154.000
341.149; -169.100; -756.000; -718.000
341.283; -148.200; -839.000; -754.000
341.417; -145.400;-1124.000; -938.000
341.551;  433.900; -768.000; -708.000
341.685;   -7.800; -633.000; -611.000
341.820;  -81.000; -562.000; -493.000
341.954;  -39.300; -218.000; -349.000
342.088; -258.100;-1102.000;-1019.000
342.222;  153.500;  565.000;  618.000
342.356;  -60.900; -395.000; -335.000
342.490; -120.200; -880.000; -841.000
342.624;  -30.700; -339.000; -242.000
342.758;   69.200; -364.000; -312.000
342.892;  -81.100; -710.000; -585.000
343.026;   -1.300;  -58.000; -116.000
343.160;  -57.600; -426.000; -376.000
343.294;  -94.800; -474.000; -337.000
343.428;   80.100; -488.000; -448.000
343.562;   31.500; -172.000;  -23.000
343.696;   28.000; -385.000; -314.000
343.830;   35.200; -362.000; -356.000
343.964;   91.200; -231.000; -168.000
344.098; 2055.500;  199.000;   70.000
344.232; 1770.200; -266.000; -127.000
344.366;  186.000; -567.000; -453.000
344.500;  196.800; -665.000; -744.000
344.634;  159.400; -324.000; -164.000
344.768;   67.400; -531.000; -341.000
344.902;  101.200;  278.000;  256.000
345.035;  -90.300; -556.000; -496.000
345.169; -215.700; -933.000; -656.000
345.303;   31.000; -308.000; -482.000
345.437;  -58.300; -826.000; -717.000
345.571; -102.800; -675.000; -594.000
345.704;  -53.700; -309.000; -532.000
345.838;   46.700; -331.000; -284.000
345.972;  -13.200; -543.000; -495.000
346.106;  256.400; -179.000; -190.000
346.239;  822.700; -312.000; -243.000
346.373;  101.600; -343.000; -302.000
346.507; -213.700; -950.000; -962.000
346.640;  380.000;  -30.000;   13.000
346.774;   14.500; -650.000; -797.000
346.908;   40.900; -138.000;  -11.000
347.041; -139.700; -646.000; -593.000
347.175;   44.200;  259.000;   27.000
347.309;  -80.600; -698.000; -628.000
347.442; -140.900; -883.000; -732.000
347.576;  709.000;  670.000;  668.000
347.709;  511.800; -123.000;  -52.000
347.843; -123.600; -933.000; -825.000
347.976;  145.100;  235.000;  294.000
348.110; -332.900;-1268.000;-1186.000
348.243; -160.400; -679.000; -772.000
348.377;   50.600;  -26.000;   60.000
348.510;  161.500;  403.000;  540.000
348.644;  -35.100;  -37.000; -159.000
348.777;   52.000;  180.000;  191.000
348.911;  -53.200; -142.000; -112.000
349.044;  456.500;  471.000;  448.000
349.178;  452.000;-1069.000;-1006.000
349.311;  282.600;  141.000;  255.000
349.444;  -24.100; -927.000; -813.000
349.578;   14.500; -347.000; -200.000
349.711; -133.300; -959.000; -862.000
349.845;   61.800; -661.000; -591.000
349.978; -213.500;-1224.000;-1137.000
350.111; -115.100; -546.000; -612.000
350.244;  -90.500; -596.000; -700.000
350.378;   97.200; -392.000; -393.000
350.511;  -86.800; -393.000; -426.000
350.644; -167.200; -808.000; -806.000
350.778;   64.900;  168.000;  104.000
350.911;   91.900;  134.000;  140.000
351.044; -115.700; -685.000; -615.000
351.177;  -13.400; -321.000; -281.000
351.310;   11.300;    3.000; -131.000
351.444;  -52.200; -888.000; -788.000
351.577;  310.900;  140.000;   90.000
351.710;  258.400;  593.000;  417.000
351.843;  -15.500; -165.000;  -77.000
351.976;   47.600;  149.000;  -79.000
352.109; -116.200; -621.000; -612.000
352.242;   17.000; -464.000; -419.000
352.376;  -17.200; -580.000; -636.000
352.509;  514.500; -437.000; -356.000
352.642;  125.100; -654.000; -604.000
352.775;  194.100; -141.000;  -98.000
352.908; -167.000; -933.000; -904.000
353.041; -145.400; -814.000; -824.000
353.174;  -44.700; -551.000; -424.000
353.307; -132.500; -753.000; -764.000
353.440;  237.500;  541.000;  453.000
353.573; -158.700; -957.000;-1008.000
353.706;  -75.900; -384.000; -558.000
353.839;   21.500; -264.000; -220.000
353.971; -103.500; -657.000; -512.000
354.104; -122.900; -896.000; -835.000
354.237;  -24.800; -627.000; -662.000
354.370; -102.300; -846.000; -879.000
354.503; -299.500;-1231.000;-1308.000
354.636;    1.500; -529.000; -348.000
354.769; -209.500; -937.000; -860.000
354.902;   35.500; -230.000; -139.000
355.034;   50.400; -164.000; -220.000
355.167;   25.100; -262.000; -162.000
355.300; -168.200;-1061.000; -880.000
355.433; 1459.500;  -71.000;  -14.000
355.565; 2116.500; -402.000; -384.000
355.698;  565.300; -356.000; -296.000
355.831;   17.500; -882.000; -801.000
355.964;  292.300; -285.000; -170.000
356.096;  -96.200; -856.000; -843.000
356.229;  108.300; -523.000; -530.000
356.362;  438.100; -373.000; -266.000
356.494;  869.400; -229.000; -162.000
356.627; 1076.400;  269.000;  377.000
356.760; 1066.600;  120.000;   53.000
356.892; 1308.400; -286.000; -601.000
357.025; 1474.800;  403.000;  389.000
357.157; 1378.900; -167.000; -179.000
357.290;  798.000; -856.000; -713.000
357.423;  284.800; -667.000; -556.000
357.555;  284.100; -217.000; -228.000
357.688;  292.400; -483.000; -364.000
357.820;  863.400; -870.000; -877.000
357.953; 6855.900; -563.000; -589.000
358.085; 1698.600; -632.000; -612.000
358.218; 3013.700;-1131.000; -932.000
358.350;  573.300;  -58.000;  312.000
358.483; -144.200;-1300.000;-1187.000
358.615;   82.300;-1182.000;-1078.000
358.747;   -8.000;-1187.000;-1058.000
358.880;  138.800; -810.000; -744.000
359.012;   39.700; -376.000; -202.000
359.145;   -7.400; -480.000; -511.000
359.277;  147.200; -962.000; -913.000
359.409; 5958.000;  536.000;  231.000
359.542; 1533.900; -738.000; -688.000
359.674;  214.300;   46.000;   13.000
359.806;  -56.400; -565.000; -438.000
359.939;  -33.600; -617.000; -516.000
360.071;   -5.100; -583.000; -579.000
360.203;    6.400; -411.000; -364.000
360.335;  148.600;  164.000;  -16.000
360.468;  387.600; -249.000; -307.000
360.600; 4456.800; -547.000; -454.000
360.732; 3604.000; -546.000; -423.000
360.864;  505.200;-1216.000;-1044.000
360.996;  726.400; -516.000; -554.000
361.129;  140.900; -389.000; -598.000
361.261;   76.200;  110.000; -113.000
361.393;    9.400; -252.000; -214.000
361.525;  142.800;   94.000;  244.000
361.657;  -40.900; -821.000; -703.000
361.789;   89.000; -139.000; -155.000
361.921;  674.800; -642.000; -593.000
362.053;  646.400;  524.000;  541.000
362.185;  190.600;  288.000;   72.000
362.318;  -87.700; -709.000; -705.000
362.450;  404.900;  294.000;  444.000
362.582;  477.900; -913.000; -870.000
362.714;   40.400; -353.000; -332.000
362.846;  -87.500; -606.000; -490.000
362.978; -223.000; -941.000; -811.000
363.109;  201.000; -161.000; -260.000
363.241; 1028.400; -739.000; -749.000
363.373;  651.700; -649.000; -564.000
363.505;  937.600; -186.000;  -91.000
363.637;  255.000; -787.000; -601.000
363.769; -193.600;-1067.000;-1080.000
363.901;  -65.800; -596.000; -654.000
364.033; -156.300;-1103.000;-1062.000
364.165;   64.800; -283.000; -283.000
364.296;  167.400; -316.000; -177.000
364.428;    7.100;-1344.000;-1220.000
364.560;  -61.100; -679.000; -661.000
364.692;  -58.800; -738.000; -835.000
364.824;  758.600; -588.000; -456.000
364.955;  770.700; -402.000; -564.000
365.087;  985.400;-1097.000; -852.000
365.219;   27.100; -686.000; -816.000
365.351;  -51.700; -526.000; -572.000
365.482;  178.500;  300.000;  240.000
365.614;  -34.700; -402.000; -314.000
365.746; -106.400; -729.000; -752.000
365.877; -133.900; -706.000; -672.000
366.009;  357.000;  -35.000;  -62.000
366.141; -220.100;-1249.000;-1134.000
366.272; -167.900; -803.000; -719.000
366.404; -173.800;-1005.000; -874.000
366.535;   14.000; -139.000;  -12.000
366.667; -119.500; -644.000; -649.000
366.799;  154.600;  353.000;  203.000
366.930; -142.900; -862.000; -996.000
367.062;  213.000; -639.000; -613.000
367.193;  136.600; -872.000; -842.000
367.325; -100.400; -580.000; -684.000
367.456;  258.500; -246.000;   31.000
367.588;  239.200; -371.000; -318.000
367.719;   86.100;  -44.000;  -45.000
367.851;   44.400; -222.000; -241.000
367.982;    6.600; -875.000; -732.000
368.113;  308.100; -475.000; -358.000
368.245; -165.400; -960.000; -841.000
368.376;   42.500; -254.000; -302.000
368.508;   -3.800; -188.000; -263.000
368.639; -222.300;-1166.000;-1034.000
368.770;   85.400; -670.000; -589.000
368.902;  -64.100; -836.000; -926.000
369.033; -136.300; -906.000; -855.000
369.164;  -38.000; -720.000; -653.000
369.296; -158.000; -452.000; -601.000
369.427;   68.500; -209.000; -144.000
369.558;    6.800; -593.000; -377.000
369.689; -138.200; -721.000; -569.000
369.821; -209.500; -951.000; -845.000
369.952;   28.500;   42.000; -108.000
370.083;  -24.600; -229.000; -108.000
370.214;  -91.300; -735.000; -650.000
370.345;   72.700;   65.000;   81.000
370.477;  -86.800; -810.000; -790.000
370.608;  588.900; -328.000; -264.000
370.739;  -17.900;-1233.000;-1292.000
370.870;   43.000;-1102.000; -923.000
371.001;  308.000; -378.000; -467.000
371.132;  -77.200; -754.000; -735.000
371.263;   35.500;  -42.000; -148.000
371.394; -216.100; -841.000; -748.000
371.525;  132.300;  345.000;  225.000
371.657; -109.300; -808.000; -670.000
371.788;  210.900;  103.000;  199.000
371.919;  479.600; -384.000; -304.000
372.050; 7764.800;  -91.000; -156.000
372.181; 2240.100; -188.000; -294.000
372.311;  929.400;   42.000; -127.000
372.442;  167.200; -457.000; -451.000
372.573;   43.000; -444.000; -340.000
372.704; -155.600;-1008.000; -980.000
372.835;  241.900; -228.000; -289.000
372.966;  -31.600; -646.000; -554.000
373.097;  -73.600; -575.000; -711.000
373.228;   -7.200; -717.000; -542.000
373.359;  379.000; -824.000; -536.000
373.490; 2169.000; -881.000; -727.000
373.620; 2604.200;-1001.000; -803.000
373.751; 4110.200; -332.000; -396.000
373.882; 1829.300; -663.000; -733.000
374.013;  262.100; -449.000; -262.000
374.143;   10.300; -581.000; -659.000
374.274; -133.900; -987.000; -908.000
374.405;  390.900; -388.000; -276.000
374.536; 1086.600; -526.000; -387.000
374.666; 2598.000; -759.000; -807.000
374.797;  568.300; -817.000; -868.000
374.928; 2104.500; -710.000; -560.000
375.058; 2031.400; -535.000; -500.000
375.189;  184.400;  -59.000;  -93.000
375.320; -162.400; -928.000;-1034.000
375.450;  -34.500; -625.000; -616.000
375.581;  -55.800; -526.000; -436.000
375.712;   -0.100; -574.000; -250.000
375.842;  781.800; -438.000; -415.000
375.973;  585.600; -554.000; -513.000
376.103;   37.300; -665.000; -648.000
376.234;  -73.800; -531.000; -552.000
376.364;    5.000; -944.000; -867.000
376.495;  805.600;  925.000;  529.000
376.625;  131.000; -472.000; -485.000
376.756;  215.300; -709.000; -678.000
376.886;  -66.100;-1178.000;-1026.000
377.017;   50.500;-1048.000;-1061.000
377.147;  388.800; -786.000; -782.000
377.278;  163.400;  174.000;  228.000
377.408; -168.700; -801.000; -815.000
377.538; -162.900; -707.000; -693.000
377.669;  -71.800; -537.000; -613.000
377.799;  -76.100; -645.000; -635.000
377.929;  -38.000; -610.000; -428.000
378.060; -211.900; -781.000; -847.000
378.190;  -40.100; -726.000; -531.000
378.320;  -25.100; -401.000; -406.000
378.451;   67.400; -131.000;  -22.000
378.581;   34.900;  -67.000; -110.000
378.711;  451.300; 1035.000;  866.000
378.841;   54.200; -533.000; -675.000
378.972;  -56.000; -871.000; -751.000
379.102;   74.800; -652.000; -579.000
379.232;   58.800; -126.000;  -73.000
379.362; -129.300;-1001.000; -885.000
379.492;  109.800; -373.000; -424.000
379.623;  311.500;    0.000;  111.000
379.753;  -89.500;-1107.000; -974.000
379.883;  517.700;   59.000;  156.000
380.013;  116.500;-1081.000;-1017.000
380.143; -115.900;-1097.000;-1056.000
380.273; -127.800; -985.000; -861.000
380.403;   94.900; -344.000; -257.000
380.533;   45.200; -651.000; -664.000
380.663;  280.400;  173.000;  128.000
380.793;  -95.900;-1027.000;-1074.000
380.923;   49.900; -103.000;  -34.000
381.053;  -94.400; -613.000; -623.000
381.183;   23.100; -106.000; -248.000
381.313;  186.300; -656.000; -470.000
381.443;  206.800; -692.000; -473.000
381.573;  582.200; -402.000; -409.000
381.703;  782.800;-1249.000;-1095.000
381.833; -159.100;-1454.000;-1336.000
381.963;  310.100; -134.000;  -87.000
382.093; 2920.600; -925.000; -909.000
382.223;  902.700; -713.000; -602.000
382.353;   52.400; -801.000; -608.000
382.482;  987.300;-1091.000; -964.000
382.612; 1732.400; -872.000; -644.000
382.742;  917.300; -695.000; -622.000
382.872;  692.800; -565.000; -551.000
383.002;  259.400;  347.000; -132.000
383.131;   50.700; -226.000; -160.000
383.261;  -28.000; -706.000; -768.000
383.391;  507.500; -552.000; -377.000
383.521; 4093.000;  451.000;  263.000
383.650;  779.200; -947.000; -904.000
383.780;   25.300; -783.000; -656.000
383.910;  305.400;  880.000;  802.000
384.039;  143.000; -794.000; -656.000
384.169;  617.800;-1205.000;-1017.000
384.299;   69.600; -650.000; -662.000
384.428;  -87.500; -764.000; -680.000
384.558;   35.500; -308.000; -275.000
384.687;   93.500; -414.000; -334.000
384.817;  139.700;   75.000;   -2.000
384.947;  163.200; -234.000; -141.000
385.076;  720.400;  982.000;  912.000
385.206;  295.700;  369.000;  480.000
385.335;   46.300; -549.000; -417.000
385.465;  -19.500; -655.000; -663.000
385.594;  391.300;  -53.000;  -44.000
385.724; 1118.300; -868.000; -838.000
385.853;  332.200; -296.000; -270.000
385.982; 3281.000; -743.000; -787.000
386.112; 4795.400;-1052.000; -871.000
386.241;  429.100; -307.000; -312.000
386.371;  156.700; -174.000;  -87.000
386.500;   97.600; -825.000; -789.000
386.629;   96.600; -874.000; -817.000
386.759;  241.200;  -43.000;   68.000
386.888;  165.000; -170.000; -250.000
387.017;   -6.500; -648.000; -620.000
387.147;  -19.400; -771.000; -798.000
387.276;  130.300; -410.000; -397.000
387.405;  164.100; -398.000; -342.000
387.535;   18.700; -452.000; -361.000
387.664;  -50.000; -692.000; -620.000
387.793;  233.500; -198.000; -113.000
387.922; 1306.900;  255.000;  200.000
388.052;  147.800; -576.000; -423.000
388.181;  230.500; -342.000; -472.000
388.310;  247.500; -889.000; -710.000
388.439;   46.000; -749.000; -742.000
388.568;  526.000;  365.000;  244.000
388.697; 2482.300; -756.000; -653.000
388.826;  523.700; -768.000; -666.000
388.956;  247.100; -285.000; -307.000
389.085;   55.300; -347.000; -287.000
389.214; -133.100; -842.000; -872.000
389.343;  -43.800; -645.000; -413.000
389.472;  674.100;  126.000;  149.000
389.601;  942.700;   91.000;    0.000
389.730;  109.400; -568.000; -687.000
389.859;  258.300;  226.000;   46.000
389.988;  513.800; -423.000; -408.000
390.117;  351.500; -168.000; -146.000
390.246;  138.200; -331.000; -320.000
390.375;  426.100; -673.000; -626.000
390.504;  -45.700; -703.000; -621.000
390.633; -121.800; -672.000; -726.000
390.761;  -30.000; -732.000; -645.000
390.890;  179.800;   -4.000; -130.000
391.019;   79.400; -421.000; -441.000
391.148; -187.000; -826.000; -855.000
391.277;  -26.800; -576.000; -493.000
391.406;   -0.900; -821.000; -805.000
391.534;  139.400;  574.000; -301.000
391.663;    0.500; -583.000; -645.000
391.792; -113.300; -673.000; -701.000
391.921;  390.000;   -3.000;   15.000
392.050;  612.800; -287.000; -228.000
392.178;   42.300;-1206.000;-1061.000
392.307;  441.800; -758.000; -712.000
392.436;  246.800; -427.000; -641.000
392.564;  129.800;  166.000;   -6.000
392.693; -113.800; -860.000; -682.000
392.822;  609.700; -529.000; -534.000
392.950;  314.100; -880.000; -714.000
393.079;  804.100; -188.000; -328.000
393.208;  143.300; -488.000; -511.000
393.336;   43.000; -170.000; -145.000
393.465;  -14.800; -317.000; -199.000
393.593;   91.700;   62.000;   79.000
393.722; -232.900;-1121.000; -916.000
393.850;   -7.000; -188.000;  -61.000
393.979; -250.000; -926.000; -805.000
394.107;  -41.000; -517.000; -537.000
394.236;   33.900; -570.000; -507.000
394.364;  621.000;  383.000;  206.000
394.493;  999.500; -911.000; -767.000
394.621;   44.600; -955.000; -916.000
394.750; 1013.200; -873.000; -923.000
394.878; 4258.900; -247.000; -149.000
395.007; 5514.800; -721.000; -807.000
395.135;  391.600; -790.000; -721.000
395.263; -148.400;-1038.000;-1040.000
395.392;   65.900;  -25.000; -107.000
395.520; -151.600; -818.000; -679.000
395.648;  -83.300; -865.000; -915.000
395.777;   62.700; -366.000; -405.000
395.905;  -22.300; -449.000; -564.000
396.033;  134.600;  217.000;  172.000
396.162; 1632.900; -399.000; -453.000
396.290; 1386.500;  -17.000;   -2.000
396.418;  353.200; -555.000; -514.000
396.546;  -87.900; -571.000; -466.000
396.674; -119.600; -850.000; -878.000
396.803;  136.100;  -72.000;  -23.000
396.931;  334.300; -179.000; -199.000
397.059;  278.900;-1026.000; -989.000
397.187; -156.000;-1026.000; -975.000
397.315; -232.100; -884.000; -649.000
397.443;  -86.300; -592.000; -443.000
397.572; -135.400; -578.000; -424.000
397.700;   92.000; -607.000; -614.000
397.828;  180.600;  120.000;  -90.000
397.956;  -58.200; -508.000; -478.000
398.084; -111.900; -767.000; -626.000
398.212;  186.100;  137.000;  124.000
398.340;  118.600;  -56.000;  159.000
398.468;  168.500; -390.000; -169.000
398.596; -194.800; -993.000; -953.000
398.724; -174.100; -762.000; -767.000
398.852; -253.700;-1024.000; -976.000
398.980;  -56.200; -560.000; -560.000
399.108;  -11.000; -982.000; -735.000
399.236;  148.600;   13.000;    8.000
399.363;  127.800;  222.000;  196.000
399.491;  -31.500; -404.000; -398.000
399.619; -197.500; -829.000; -800.000
399.747; -140.600; -859.000; -771.000
399.875;  253.100;  220.000;  234.000
400.003;  -52.500; -359.000; -284.000
400.130; -121.200; -421.000; -341.000
400.258;   20.600;  -83.000;   38.000
400.386;  -62.200; -352.000; -168.000
400.514;   28.300; -526.000; -587.000
400.641;  -60.100; -928.000; -802.000
400.769; -195.000; -979.000; -888.000
400.897;  -33.300; -838.000; -793.000
401.025;  100.700; -166.000; -152.000
401.152;   82.400;  220.000;   38.000
401.280;  -77.200; -430.000; -429.000
401.408; -149.100; -712.000; -576.000
401.535; -104.500; -735.000; -758.000
401.663; -346.200;-1134.000;-1054.000
401.790;  -70.400; -514.000; -525.000
401.918;  171.300;  436.000;  405.000
402.046;   17.300;  134.000;  122.000
402.173;   26.400;  -18.000;    7.000
402.301;  -63.700; -519.000; -397.000
402.428;  169.300;  528.000;  383.000
402.556; -219.400;-1188.000; -913.000
402.683;   19.600;  -20.000;   -1.000
402.811;   66.000;  -37.000; -206.000
402.938;   61.400;   20.000;   27.000
403.066;  444.300; -574.000; -558.000
403.193;  734.300;  299.000;  239.000
403.321;  599.700; -396.000; -574.000
403.448;  711.300;   83.000;   27.000
403.575;  350.400;  -90.000;  -46.000
403.703;  -95.200; -732.000; -557.000
403.830;  -49.000; -531.000; -496.000
403.957; -218.400;-1117.000;-1023.000
404.085;   97.700;  -61.000; -172.000
404.212;  255.400;  -50.000;   63.000
404.339;  448.500; -566.000; -306.000
404.467; 8175.600; -612.000; -524.000
404.594; 6028.700; -287.000; -227.000
404.721; 1691.600; -869.000; -764.000
404.848;  219.300; -113.000; -202.000
404.976; -146.200; -856.000; -783.000
405.103;   73.600;  -14.000;  -82.000
405.230;   71.000;  190.000;  226.000
405.357;  144.800;  117.000;   44.000
405.484;  459.900;  -49.000;    5.000
405.612;   99.300; -548.000; -563.000
405.739;  -41.200; -488.000; -243.000
405.866;  274.700;  669.000;  385.000
405.993;   18.900; -398.000; -102.000
406.120; -228.900; -801.000; -887.000
406.247;  -18.800; -323.000; -342.000
406.374; 1158.900;  540.000;  629.000
406.501;  325.300; -632.000; -702.000
406.628; -101.500; -621.000; -589.000
406.755; -125.800; -803.000; -620.000
406.882;  -49.900; -228.000; -277.000
407.009; -121.800; -719.000; -628.000
407.136;  201.700; -480.000; -401.000
407.263;  457.700; -939.000; -829.000
407.390;  -46.100; -692.000; -614.000
407.517; -209.500;-1139.000;-1187.000
407.644;  -56.500; -332.000; -256.000
407.771;  -45.500; -249.000; -287.000
407.898;  127.600;  168.000;  328.000
408.025;  -63.300; -421.000; -313.000
408.151;   54.200;   82.000;  153.000
408.278;  -34.900; -267.000; -216.000
408.405; -139.900; -931.000; -899.000
408.532;  -69.200; -549.000; -542.000
408.659; -147.800; -677.000; -648.000
408.785; -332.400;-1298.000;-1170.000
408.912;  -63.700; -412.000; -296.000
409.039; -133.700; -610.000; -686.000
409.166; -165.800; -591.000; -555.000
409.292; -145.800; -571.000; -534.000
409.419; -151.900; -665.000; -649.000
409.546;  -90.900; -431.000; -192.000
409.672; -141.600; -713.000; -545.000
409.799;   29.500;  -36.000;   34.000
409.926;  -10.300; -180.000; -179.000
410.052; -286.400;-1127.000;-1091.000
410.179;  -48.100; -368.000; -392.000
410.305;  -82.800; -375.000; -493.000
410.432;   -7.000; -220.000; -333.000
410.558;  -92.800; -305.000; -380.000
410.685; -136.700; -688.000; -431.000
410.812; -137.400; -409.000; -588.000
410.938; -224.700; -964.000; -808.000
411.065; -112.500; -671.000; -645.000
411.191;   24.600; -189.000; -174.000
411.317; -136.800; -823.000; -742.000
411.444;  -68.300; -317.000; -246.000
411.570;  -54.100; -339.000; -294.000
411.697; -183.500; -758.000; -752.000
411.823; -260.100; -989.000; -999.000
411.949;   29.600;  -56.000;   17.000
412.076; -140.900; -539.000; -519.000
412.202; -142.800; -758.000; -757.000
412.329; -172.700; -798.000; -752.000
412.455; -158.600; -821.000; -657.000
412.581;   25.200;  -15.000;  172.000
412.707;  -21.800; -540.000; -457.000
412.834;  121.600;  156.000;  219.000
412.960; -121.200; -785.000; -784.000
413.086; -167.100; -743.000; -701.000
413.212;  450.000;  604.000;  578.000
413.339;   -4.100; -685.000; -701.000
413.465;  112.500; -364.000; -310.000
413.591; -125.200; -757.000; -474.000
413.717;  -61.300; -358.000; -366.000
413.843; -203.400; -839.000; -861.000
413.969;  -56.800;  -47.000; -292.000
414.096; -140.300; -679.000; -679.000
414.222;   71.000;  -33.000;   85.000
414.348;   73.900; -652.000; -385.000
414.474;  325.300;   38.000;  -52.000
414.600;   35.800; -126.000; -144.000
414.726;   53.500;  -96.000;  -55.000
414.852;  -59.000; -365.000; -342.000
414.978;  131.700;  104.000;  -18.000
415.104;  141.100;   38.000;   80.000
415.230;  103.700; -329.000; -330.000
415.356;   99.200; -409.000; -514.000
415.482;  403.700;   13.000;  -35.000
415.608;  471.200; -247.000; -323.000
415.734; 1614.600;   67.000;   38.000
415.860;32592.100; -875.000; -767.000
415.986;21353.800; -685.000; -607.000
416.111; 1782.100; -798.000; -652.000
416.237;  373.000; -424.000; -571.000
416.363; 1749.600; -765.000; -733.000
416.489; 5890.800; -324.000; -251.000
416.615;  559.500; -707.000; -742.000
416.741;  -58.400; -677.000; -784.000
416.866; -136.200; -673.000; -736.000
416.992; -198.000; -801.000; -818.000
417.118;   32.300;  -41.000;  -80.000
417.244;  -63.600; -798.000; -531.000
417.369; -134.200; -801.000; -612.000
417.495;   89.600; -325.000; -254.000
417.621; -112.100;-1015.000; -803.000
417.746;   49.500; -579.000; -572.000
417.872;  129.800; -254.000; -144.000
417.998;  121.300; -515.000; -530.000
418.123; 1635.700;-1073.000; -845.000
418.249; 7645.400; -512.000; -601.000
418.374;  934.300; -916.000; -824.000
418.500;  180.200; -383.000; -482.000
418.626;  209.000;   70.000;  -59.000
418.751;  236.600; -549.000; -448.000
418.877;  295.900; -637.000; -643.000
419.002; 2960.100; -688.000; -560.000
419.128;18160.800; -930.000; -721.000
419.253; 3968.500; -967.000; -837.000
419.379;  570.500; -391.000; -338.000
419.504;  670.200;  325.000;  415.000
419.629;  761.200; -393.000; -212.000
419.755; 5134.500; -317.000; -254.000
419.880;27686.500;  -98.000;   67.000
420.006;17035.400; -280.000; -221.000
420.131;43199.600; -662.000; -775.000
420.256; 5743.900; -315.000; -316.000
420.382;  796.300; -665.000; -687.000
420.507;  116.500; -649.000; -778.000
420.632;  414.400; -337.000; -339.000
420.758;  683.600; -251.000; -425.000
420.883;  -69.000; -876.000; -672.000
421.008; -127.400; -775.000; -619.000
421.133; -100.200; -509.000; -467.000
421.259;  -14.500; -325.000; -259.000
421.384; -154.000; -834.000; -693.000
421.509;   40.500;-1052.000; -862.000
421.634; 3188.100; -936.000; -820.000
421.759; 1238.900; -359.000; -327.000
421.885;  -17.200; -717.000; -656.000
422.010;  -63.200; -673.000; -542.000
422.135; -253.000; -695.000; -727.000
422.260;  155.800;  340.000;  280.000
422.385;  -23.300;   12.000;  -98.000
422.510;   91.000;  151.000;  -26.000
422.635;  155.500;  -87.000;  -43.000
422.760;  230.400; -766.000; -791.000
422.885;  135.100;  -57.000;  -80.000
423.010;    0.200; -112.000; -169.000
423.135; -106.700; -481.000; -561.000
423.260;   84.900; -150.000; -245.000
423.385;  220.900;  476.000;  222.000
423.510;  144.500;   71.000;  -22.000
423.635;  270.100;  133.000;   45.000
423.760;  232.600;  383.000;  328.000
423.885;  182.800;  336.000;  391.000
424.010;   81.500;  -68.000;  -13.000
424.135;   42.200;    5.000;  -33.000
424.259;  -99.100; -654.000; -457.000
424.384;  -39.400; -279.000; -272.000
424.509;   52.500; -260.000; -186.000
424.634; -137.900; -761.000; -623.000
424.759;  -39.100; -688.000; -544.000
424.883;    1.500; -506.000; -527.000
425.008;  344.600; -502.000; -410.000
425.133; 3023.500; -679.000; -653.000
425.258; 1254.000; -517.000; -381.000
425.382; 2308.700; -867.000; -774.000
425.507; 5295.300; -487.000; -543.000
425.632;  753.900; -802.000; -663.000
425.756;  647.300; -256.000; -146.000
425.881; 8805.300; -831.000; -857.000
426.006;20933.200; -604.000; -355.000
426.130; 3262.100; -696.000; -508.000
426.255;  438.400; -611.000; -491.000
426.379;  279.600; -189.000; -577.000
426.504;  724.500;  660.000;  544.000
426.629; 6662.300; -519.000; -466.000
426.753; 4118.800;   64.000;  -46.000
426.878;  528.800; -252.000; -288.000
427.002;  363.300; -651.000; -668.000
427.127; 2674.900;  -35.000; -158.000
427.251;16687.500;  372.000;  401.000
427.375; 4382.000; -191.000; -173.000
427.500; 4690.900; -616.000; -610.000
427.624; 1438.400; -234.000; -400.000
427.749;  311.300; -216.000; -225.000
427.873;   11.800; -499.000; -412.000
427.997;   21.300; -222.000; -230.000
428.122;  246.100;  795.000;  703.000
428.246;  296.600;  433.000;  434.000
428.371; -165.500; -869.000; -773.000
428.495; -124.200; -624.000; -646.000
428.619;   48.000; -186.000; -117.000
428.743;  163.700;   65.000;  132.000
428.868;  157.200; -732.000; -643.000
428.992; 3063.900; -219.000; -326.000
429.116; 1233.000; -329.000; -357.000
429.240;  691.200;  419.000;  426.000
429.365;   62.700; -454.000; -574.000
429.489;   29.000; -638.000; -647.000
429.613;  129.500; -236.000; -177.000
429.737;  138.200; -563.000; -432.000
429.861;  560.100; -247.000; -133.000
429.985; 8785.700; -425.000; -305.000
430.109; 8602.500; -770.000; -908.000
430.234; 1034.400;   76.000;  -50.000
430.358;  172.100; -250.000; -160.000
430.482;  -67.700; -672.000; -564.000
430.606;  -33.100; -655.000; -375.000
430.730;  196.300; -437.000; -388.000
430.854;  471.400; -909.000; -835.000
430.978;  -42.800; -795.000; -764.000
431.102;    5.000; -499.000; -422.000
431.226;  -40.300; -874.000; -815.000
431.350;  246.200;  345.000;  422.000
431.474;  -31.400; -661.000; -373.000
431.597; -238.600;-1060.000; -848.000
431.721;  -67.100; -276.000; -267.000
431.845; -187.500; -704.000; -472.000
431.969;  -88.800; -304.000; -349.000
432.093; -123.600; -395.000; -317.000
432.217;   42.400;   32.000;   82.000
432.341; -108.900; -523.000; -518.000
432.464;  104.300;   96.000;   40.000
432.588;  604.900; -401.000; -329.000
432.712;  307.400;  -52.000;  -52.000
432.836;  165.900;  213.000;  263.000
432.959;   -2.700; -372.000; -311.000
433.083;  162.600;   11.000;    2.000
433.207;  656.800;  285.000;  930.000
433.330; 7566.900; -391.000; -200.000
433.454; 8423.000; -654.000; -638.000
433.578; 5093.500;  583.000;  278.000
433.701;  895.300; -623.000; -675.000
433.825;  409.300; -292.000; -299.000
433.949;  631.500;   28.000;  -72.000
434.072;  258.400; -410.000; -323.000
434.196;   47.400; -309.000; -117.000
434.319; 7988.700;25482.000;25124.000
434.443; 1411.900; -656.000; -603.000
434.566; 3908.500;  281.000;   62.000
434.690;  584.800; -637.000; -383.000
434.813;  171.700; -251.000; -173.000
434.937;  -65.300; -569.000; -696.000
435.060;   14.300; -423.000; -332.000
435.184; 1115.500; -492.000; -217.000
435.307;  579.100;  159.000;  102.000
435.431;   84.700;  -40.000;   24.000
435.554;  -51.800; -399.000; -240.000
435.677; -103.000; -350.000; -258.000
435.801;    4.200;  -25.000;   49.000
435.924;   83.100;    1.000;  -67.000
436.048; -104.200;-1019.000; -732.000
436.171;  -60.200; -240.000;  -66.000
436.294;   36.700; -248.000; -229.000
436.417;  123.200; -963.000; -849.000
436.541; -112.300; -814.000; -840.000
436.664;  -55.000; -242.000; -316.000
436.787;   76.500;   13.000;  113.000
436.910; -128.100; -792.000; -422.000
437.034;  159.200;  142.000;  143.000
437.157;  302.100;  -11.000;    0.000
437.280;    4.300; -392.000; -292.000
437.403;  -46.700; -982.000; -869.000
437.526; 2054.200; -903.000; -865.000
437.649; 6049.800; -505.000; -332.000
437.772;  898.900; -692.000; -540.000
437.896;  347.400;  700.000;  544.000
438.019; -100.000; -758.000; -503.000
438.142;  -89.000; -596.000; -506.000
438.265;  127.300; -639.000; -670.000
438.388; 1587.500; -520.000; -410.000
438.511;  317.100; -597.000; -394.000
438.634;   22.100; -247.000; -125.000
438.757; -163.800; -693.000; -619.000
438.880;   57.800;  -34.000;  -57.000
439.003;  -74.000; -417.000; -437.000
439.126;  -57.000; -287.000; -167.000
439.248;  -54.900;  -98.000; -139.000
439.371;   -2.300;    9.000;  -53.000
439.494;  145.300;  510.000;  439.000
439.617;  -19.400;   65.000;  -88.000
439.740; -265.800; -968.000; -816.000
439.863; -228.800; -755.000; -595.000
439.986; -159.200; -476.000; -431.000
440.108;    0.700; -161.000; -112.000
440.231; -255.300; -950.000; -836.000
440.354;    7.700;  -64.000; -150.000
440.477;  245.400; -566.000; -542.000
440.599;  126.600; -200.000; -225.000
440.722; -170.400; -709.000; -586.000
440.845;  226.500;  751.000;  928.000
440.968; -145.900; -415.000; -311.000
441.090;  -47.100; -199.000;  -33.000
441.213; -233.900;-1021.000; -825.000
441.336;  -48.800; -159.000;   -5.000
441.458;  -79.700; -549.000; -396.000
441.581;  -61.900; -628.000; -629.000
441.703;  -76.700; -152.000;   13.000
441.826; -140.200; -557.000; -400.000
441.948;  -30.700;   56.000;   51.000
442.071;  149.700;  555.000;  424.000
442.193; -140.500; -531.000; -485.000
442.316;  108.300;  152.000;   97.000
442.438;  124.700; -233.000;  -10.000
442.561;  238.100;  272.000;  262.000
442.683; 1627.000; -809.000; -522.000
442.806; 2956.100;   -8.000;   74.000
442.928;  168.700; -859.000; -604.000
443.051;  -38.500; -577.000; -373.000
443.173; -107.900; -341.000; -339.000
443.295; -115.500; -263.000; -371.000
443.418;  -55.700; -321.000;  -29.000
443.540;   57.300; -106.000;   -4.000
443.662; -160.900; -563.000; -465.000
443.785;   53.100;  335.000;  199.000
443.907; -149.200; -362.000; -208.000
444.029; -206.300; -767.000; -494.000
444.152; -190.200; -644.000; -554.000
444.274;   44.800;  -18.000;  -24.000
444.396; -177.700; -461.000; -221.000
444.518; -154.900; -691.000; -454.000
444.640; -144.200; -268.000; -111.000
444.763;   72.000;  388.000;  249.000
444.885; -155.100; -432.000; -392.000
445.007;    2.800;   35.000;   86.000
445.129; -144.800; -610.000; -515.000
445.251; -127.600; -372.000; -439.000
445.373; -189.100; -537.000; -386.000
445.495;   76.000;  242.000;  350.000
445.617;  174.400;  853.000;  753.000
445.739;  -58.100; -215.000;  -97.000
445.861;   -0.800; -245.000; -112.000
445.984;   20.600; -267.000; -101.000
446.105;  651.600; -418.000; -251.000
446.227; 1466.800; -176.000;  -19.000
446.349;  109.000; -358.000; -249.000
446.471; -133.600; -615.000; -448.000
446.593;  -54.700; -316.000;   19.000
446.715;   78.400;  -67.000;   41.000
446.837;  234.700;  697.000;  832.000
446.959; -118.400; -457.000; -478.000
447.081; -177.800; -628.000; -518.000
447.203;  181.100;  862.000;  834.000
447.325;  -82.400; -270.000;   42.000
447.446;   54.100;  286.000;  530.000
447.568; -226.400; -921.000; -803.000
447.690; -100.600; -236.000; -245.000
447.812; -227.400; -798.000; -519.000
447.933;   46.100;  155.000;  127.000
448.055;  -47.700; -306.000; -261.000
448.177;  394.000;   31.000;   79.000
448.299;  286.400; -935.000; -727.000
448.420;  143.600;  -25.000;  159.000
448.542;   -5.800;   -3.000;   33.000
448.664;   38.800;  109.000;  322.000
448.785;   31.100;  265.000;   83.000
448.907;  -90.600; -614.000; -353.000
449.028;   18.600; -771.000; -471.000
449.150;  223.200;  492.000;  589.000
449.272; -302.900;-1044.000; -913.000
449.393;  151.000;  612.000;  694.000
449.515; -216.700; -634.000; -581.000
449.636;  -28.300; -264.000; -155.000
449.758;  275.600;  763.000;  622.000
449.879; -105.000; -498.000; -396.000
450.001;  -85.600; -149.000;  -49.000
450.122;   24.500;  -95.000;  162.000
450.244;   50.300;   37.000;  364.000
450.365; -127.600; -495.000; -301.000
450.486;  -22.300;   80.000;  268.000
450.608;  114.700;  393.000;  326.000
450.729;  221.300;  578.000;  645.000
450.850;  -33.800; -574.000; -466.000
450.972; 1098.300; -552.000; -389.000
451.093; 6629.900;  190.000;  588.000
451.214; 2522.800; -516.000; -337.000
451.336;  599.000;  773.000;  579.000
451.457;  150.900;  264.000;  393.000
451.578;   -1.600; -118.000;  -74.000
451.699; -179.000; -546.000; -540.000
451.821;  -89.700; -284.000;  -50.000
451.942;   60.900;  278.000;  285.000
452.063;  116.200;  228.000;  419.000
452.184;  896.700;  -54.000;  -49.000
452.305; 1563.400;  103.000;  170.000
452.427;  153.200; -549.000; -301.000
452.548;   50.700;   23.000;   79.000
452.669;  -22.300; -257.000;  -89.000
452.790;   -8.100;    3.000;  -18.000
452.911;   76.700;  195.000;  259.000
453.032;  -19.200; -289.000;  -60.000
453.153;   25.800;  -29.000;   81.000
453.274;  229.200;  737.000;  868.000
453.395;  -14.900;  -51.000;  175.000
453.516;  375.300; 1317.000; 1388.000
453.637;  -42.600; -205.000; -150.000
453.758;    9.400;   15.000;   69.000
453.879; -165.600; -462.000; -250.000
454.000;  278.500; 1086.000;  948.000
454.121; -138.400; -554.000; -326.000
454.242; -157.200; -599.000; -383.000
454.362;  -15.000;  -99.000;  114.000
454.483;   23.000; -309.000; -229.000
454.604;  257.300;  512.000;  580.000
454.725; -187.000; -627.000; -555.000
454.846; -206.000; -474.000; -406.000
454.967;   32.900;  230.000;  539.000
455.087;  -43.600;  179.000;  153.000
455.208;  102.800;  554.000;  856.000
455.329;  -36.300;  -22.000;   82.000
455.450;  140.300;  473.000;  633.000
455.570; -103.200; -234.000; -211.000
455.691;  -19.900;  201.000;  407.000
455.812; -155.500; -270.000;  -92.000
455.932;  -47.500;  107.000;  -97.000
456.053; -105.700;   36.000;   24.000
456.173; -152.300; -433.000; -355.000
456.294; -173.600; -476.000; -303.000
456.415;  -29.500;  -73.000;   70.000
456.535;   -3.900;  297.000;  273.000
456.656;   18.500;  132.000;  240.000
456.776;  -45.600;    3.000;  298.000
456.897;   75.200;  308.000;  513.000
457.017;  -91.300; -153.000;   -3.000
457.138; -129.800; -402.000; -249.000
457.258;   38.900;  263.000;  224.000
457.379;   86.400;  509.000;  521.000
457.499;   87.400;  443.000;  432.000
457.620; -203.000; -407.000; -231.000
457.740; -171.400; -132.000;  -11.000
457.860;  -23.200;   87.000;   44.000
457.981;   -1.400;  132.000;  124.000
458.101;  -45.700;  -89.000;   40.000
458.221;   84.600;  336.000;  402.000
458.342;  -33.800;   -4.000;  -37.000
458.462;  115.400;  617.000;  352.000
458.582;  -82.700; -302.000; -294.000
458.703;   45.200;  303.000;  154.000
458.823;   11.200;   22.000;  163.000
458.943;  122.700;  341.000;  467.000
459.063;   55.000; 1124.000;  192.000
459.183;    7.600;  328.000;  313.000
459.304;   99.500;  315.000;  517.000
459.424;  -38.900; -246.000;  -89.000
459.544;  641.500;  388.000;  764.000
459.664; 1279.600;  499.000;  506.000
459.784;  486.200; 1004.000; 1175.000
459.904;  181.900;  867.000;  744.000
460.024;  252.300;  867.000;  684.000
460.144;  120.000;  449.000;  554.000
460.264;   74.500;  515.000;  327.000
460.385; -125.800; -145.000; -119.000
460.505;  125.600;  905.000;  858.000
460.625;  -92.400;  -17.000;  -68.000
460.745;   42.900;  396.000;  541.000
460.864;  -15.600;  153.000;  469.000
460.984;  152.800;  499.000;  573.000
461.104;  375.300; 1656.000; 1775.000
461.224;  113.100;  657.000;  650.000
461.344;   38.400;  431.000;  360.000
461.464;   16.200;  258.000;  513.000
461.584;   87.400;  283.000;  466.000
461.704;   -6.000;   58.000;  108.000
461.824;  -45.400;  238.000;  259.000
461.943;  -21.400;  191.000;  130.000
462.063;  -67.900;    2.000;  324.000
462.183;  137.900;  639.000;  717.000
462.303;  280.900; 1678.000; 1230.000
462.422;  169.700;  781.000;  840.000
462.542;  -22.400;  271.000;  391.000
462.662;  144.300;  353.000;  380.000
462.782;  478.800;  833.000;  572.000
462.901;  788.800;  545.000;  717.000
463.021;  509.100; 1702.000; 1638.000
463.141;   33.200;  337.000;  770.000
463.260;   36.100;  614.000;  474.000
463.380;  106.900;  902.000;  884.000
463.499;    3.600;  342.000;  332.000
463.619;  -19.200;  581.000;  559.000
463.738;  309.400; 1644.000;  903.000
463.858;   90.900;  657.000;  811.000
463.978;    3.400;  542.000;  396.000
464.097;  185.300;  921.000; 1114.000
464.217;  303.300; 1196.000; 1143.000
464.336;  283.400; 1068.000; 1130.000
464.455;   16.800;  328.000;  659.000
464.575;  192.200;  597.000;  602.000
464.694;  459.700; 1204.000; 1179.000
464.814;  280.100; 1190.000; 1138.000
464.933;  244.100; 1095.000; 1027.000
465.052;  314.400; 1412.000; 1054.000
465.172;  253.700;  922.000;  799.000
465.291;  411.800; 1376.000; 1320.000
465.410;  106.500;  462.000;  735.000
465.530;  268.000; 1355.000; 1310.000
465.649;  242.000; 1209.000; 1273.000
465.768;  399.800; 1673.000; 1508.000
465.888;  186.100;  941.000; 1174.000
466.007;  302.400; 1335.000; 1440.000
466.126;  105.800;  721.000;  641.000
466.245;  180.900; 1176.000; 1187.000
466.364;  117.900;  950.000; 1060.000
466.484;  194.300; 1024.000; 1213.000
466.603;  181.800; 1101.000; 1222.000
466.722;  318.700; 1490.000; 1769.000
466.841;  242.400; 1151.000; 1401.000
466.960;  144.800; 1069.000;  972.000
467.079;  390.700; 1971.000; 1786.000
467.198;  184.700; 1238.000; 1181.000
467.317;  243.100; 1768.000; 1162.000
467.436;  230.900; 1709.000; 1261.000
467.555;  340.100; 1796.000; 1746.000
467.674;  225.100; 1227.000; 1329.000
467.793;  182.800; 1376.000; 1374.000
467.912;  247.300; 1658.000; 1539.000
468.031;  371.300; 2038.000; 1930.000
468.150;  401.500; 1842.000; 1837.000
468.269;  541.400; 2313.000; 2090.000
468.388;  468.900; 2168.000; 2339.000
468.507;  580.500; 2884.000; 2903.000
468.626;  619.800; 2555.000; 2541.000
468.744;  350.600; 2018.000; 2174.000
468.863;  533.200; 2312.000; 2523.000
468.982;  258.900; 1503.000; 1555.000
469.101;  545.100; 2788.000; 2692.000
469.220;  365.900; 2333.000; 2176.000
469.338;  582.600; 2935.000; 3051.000
469.457;  501.700; 2719.000; 2545.000
469.576;  801.000; 3953.000; 3784.000
469.695;  571.200; 2877.000; 3066.000
469.813;  947.500; 4148.000; 4192.000
469.932;  908.900; 4255.000; 4485.000
470.051;  924.600; 4075.000; 4161.000
470.169; 1572.400; 4470.000; 4338.000
470.288; 2469.400; 4700.000; 4809.000
470.406; 1512.100; 5059.000; 5194.000
470.525; 1283.000; 6101.000; 5787.000
470.644; 1453.800; 6847.000; 6794.000
470.762; 1764.500; 8397.000; 7873.000
470.881; 1863.700; 8651.000; 8464.000
470.999; 2162.000; 9685.000; 9151.000
471.118; 2288.000;11174.000;10711.000

