
Integration time [ms]: 200.000
Averaging Nr. [scans]: 10
Smoothing Nr. [pixels]: 0
Data measured with spectrometer [name]: 2101012U2
Wave   ;Sample   ;Dark     ;Reference
[nm]   ;[counts] ;[counts] ;[counts] 

197.733;  113.400;  516.000;  404.000
197.879; -198.200; -610.000; -634.000
198.025; -110.800; -475.000; -420.000
198.171; -179.800; -602.000; -612.000
198.317;  -79.900; -401.000; -316.000
198.463; -111.100; -655.000; -404.000
198.609;   74.200;  181.000; -137.000
198.755; -151.000; -644.000; -410.000
198.901; -128.700; -505.000; -424.000
199.047; -125.700; -615.000; -488.000
199.193;  -85.600; -230.000; -468.000
199.339;  -93.300; -222.000; -369.000
199.485;   66.200;  330.000;  271.000
199.631;   16.500;  227.000;  310.000
199.777; -135.400; -466.000; -398.000
199.923; -119.800; -610.000; -424.000
200.069;  -11.500; -141.000;  -58.000
200.215;  103.600;  128.000;  453.000
200.361;   74.500;  243.000;  477.000
200.507; -128.900; -600.000; -373.000
200.653;  -57.400; -371.000; -194.000
200.798;  -69.000; -215.000; -125.000
200.944;   -1.500; -146.000;  -41.000
201.090;  103.500;   61.000;  222.000
201.236;  -22.400; -116.000; -158.000
201.382;  293.000;  874.000;  903.000
201.528;   -5.900;  -58.000;  -48.000
201.674;  -81.900; -386.000; -293.000
201.819; -144.600; -540.000; -439.000
201.965; -156.900; -699.000; -447.000
202.111;  -47.800; -273.000; -226.000
202.257;  -81.900; -250.000; -238.000
202.402;    4.600;   13.000;  -36.000
202.548;  -83.800; -169.000; -116.000
202.694;  169.300;  410.000; -183.000
202.840; -155.900; -603.000; -531.000
202.985; -123.900; -681.000; -639.000
203.131; -200.800; -832.000; -666.000
203.277;  -44.200; -199.000; -262.000
203.423; -126.400; -434.000; -520.000
203.568;  -89.700; -462.000; -237.000
203.714; -104.200; -535.000; -542.000
203.860; -182.800; -682.000; -641.000
204.005;   84.900;  112.000;  167.000
204.151;  196.800;  561.000;  556.000
204.296;  -73.500; -354.000; -221.000
204.442; -151.000; -600.000; -547.000
204.588; -163.100; -592.000; -579.000
204.733;   21.000;  178.000;  168.000
204.879; -283.300;-1018.000; -822.000
205.025;   26.200;  -99.000;  126.000
205.170;    7.600;  -17.000;   94.000
205.316;  163.700;  438.000;  661.000
205.461; -183.700; -698.000; -554.000
205.607;  191.300;  609.000;  665.000
205.752; -179.800; -626.000; -551.000
205.898; -107.800; -501.000; -391.000
206.043; -134.100; -578.000; -506.000
206.189;  -98.100; -243.000; -285.000
206.334;  203.500;  554.000;  606.000
206.480;  155.100;  409.000;  239.000
206.625; -176.500; -529.000; -552.000
206.771;  -69.500; -451.000; -373.000
206.916;  -57.200; -210.000; -537.000
207.062; -140.000; -545.000; -591.000
207.207; -150.400; -546.000; -443.000
207.353;  120.200;  185.000;  460.000
207.498;   32.700;  196.000;   85.000
207.643; -128.900; -501.000; -370.000
207.789; -234.900;-1069.000; -910.000
207.934; -204.900; -665.000; -713.000
208.080;  -40.300; -154.000;   66.000
208.225;  -21.300;  -22.000;  -57.000
208.370; -186.000; -727.000; -619.000
208.516; -158.200; -741.000; -487.000
208.661;  -83.700; -127.000;  -69.000
208.806;  -59.300; -165.000; -171.000
208.952; -266.900;-1044.000; -731.000
209.097;  172.100;  378.000;  349.000
209.242;  -51.600; -307.000; -382.000
209.387;   78.900;  392.000;  350.000
209.533;  -97.700; -321.000; -350.000
209.678;  163.600;  472.000;  543.000
209.823; -125.200; -408.000; -310.000
209.969; -206.600; -860.000; -757.000
210.114; -227.900; -907.000; -719.000
210.259; -224.500; -939.000; -889.000
210.404;    1.900; -171.000;  103.000
210.549;   10.000;  108.000;    3.000
210.695;  -13.100;   -3.000;  -95.000
210.840;   65.500;   94.000;   67.000
210.985; -138.500; -484.000; -303.000
211.130;  203.800;  268.000;  406.000
211.275;   63.000;  207.000;  199.000
211.420; -114.600; -300.000; -289.000
211.566; -157.900; -536.000; -489.000
211.711;   22.300;  218.000;  157.000
211.856; -120.000; -545.000; -519.000
212.001;   35.500;  151.000;   44.000
212.146;   59.900;  153.000;   49.000
212.291;    4.000; -210.000; -186.000
212.436;  -31.900; -280.000;   -6.000
212.581; -164.200; -685.000; -653.000
212.726; -151.200; -487.000; -538.000
212.871;  -99.000; -552.000; -217.000
213.016; -312.900;-1172.000;-1029.000
213.161;  163.100;  406.000;  291.000
213.306; -150.900; -435.000; -577.000
213.451; -206.500; -778.000; -689.000
213.596; -107.900; -455.000; -347.000
213.741; -105.700; -448.000; -538.000
213.886; -136.000; -498.000; -517.000
214.031;  -21.200; -294.000; -124.000
214.176; -129.500; -408.000; -341.000
214.321;  -36.100; -296.000; -157.000
214.466;  -48.500; -163.000;  -43.000
214.611;    7.700;  -61.000;  -10.000
214.756; -230.500; -948.000; -858.000
214.901;  -36.900; -388.000; -226.000
215.046; -261.400; -797.000; -825.000
215.191;   31.400;  128.000;   35.000
215.336;  -20.400; -157.000;  -19.000
215.480; -127.800; -684.000; -505.000
215.625;  -26.000; -175.000;  -19.000
215.770; -176.700; -757.000; -662.000
215.915;  -10.800;   -5.000;  -97.000
216.060;  -19.900; -113.000;  -21.000
216.205; -244.900; -731.000; -779.000
216.349; -164.500; -470.000; -533.000
216.494; -297.300; -939.000; -867.000
216.639; -238.800; -823.000; -888.000
216.784; -182.200; -577.000; -525.000
216.929;   95.400;  392.000;  281.000
217.073;  -40.100; -244.000;  -31.000
217.218;   20.300;   78.000;  -47.000
217.363; -164.800; -656.000; -618.000
217.507; -168.300; -623.000; -588.000
217.652; -251.700; -845.000; -874.000
217.797; -177.000; -708.000; -659.000
217.942; -233.000; -856.000; -720.000
218.086;  193.200;  608.000;  539.000
218.231;  -46.500; -174.000;  -26.000
218.376;  -55.300; -337.000; -229.000
218.520;  -19.900;  -41.000;   96.000
218.665;  -48.800; -338.000; -204.000
218.810;  -56.200; -275.000; -233.000
218.954;   35.900;  201.000;   35.000
219.099; -230.600; -713.000; -963.000
219.243; -159.300; -589.000; -554.000
219.388;  -45.200; -264.000; -136.000
219.532;  -14.900; -116.000; -116.000
219.677; -151.600; -564.000; -521.000
219.822;   18.700;   33.000;   89.000
219.966;   27.300;   17.000;  -99.000
220.111;  -49.300; -328.000;  -40.000
220.255; -187.700; -797.000; -750.000
220.400;  -44.500; -180.000; -146.000
220.544; -121.800; -516.000; -450.000
220.689;  -96.800; -422.000; -451.000
220.833;  -34.400; -123.000;  -58.000
220.978;  -89.400; -393.000; -563.000
221.122;   60.500;  319.000;  307.000
221.267; -230.300; -906.000; -837.000
221.411; -111.900; -478.000; -394.000
221.555;    0.900; -104.000;  -23.000
221.700;  -81.300; -329.000; -222.000
221.844;   89.500;  255.000;  272.000
221.989;  -84.900; -328.000; -311.000
222.133;  -60.600; -289.000; -307.000
222.277;   -5.800;    5.000;   78.000
222.422;   36.900;  227.000;  113.000
222.566;  -82.100; -381.000; -214.000
222.711;  -70.300; -414.000; -479.000
222.855; -171.100; -643.000; -586.000
222.999; -159.300; -642.000; -717.000
223.144;  -23.000; -195.000; -194.000
223.288;  123.500;  423.000;  251.000
223.432;   76.800;  184.000;  230.000
223.576;   50.800;  152.000;  -21.000
223.721;   88.700;  364.000;  273.000
223.865;  -93.300; -472.000; -475.000
224.009;  533.300; 1673.000; 1631.000
224.153; -176.600; -660.000; -671.000
224.298; -153.700; -531.000; -489.000
224.442;    3.500;  -74.000;  -33.000
224.586;  -26.900; -169.000; -106.000
224.730; -211.000; -858.000; -670.000
224.875; -216.200; -739.000; -688.000
225.019;   52.800;  102.000;  188.000
225.163;  148.600;  208.000;  341.000
225.307;   17.700;   97.000;  -91.000
225.451;  122.900;  360.000;  481.000
225.595;   81.600;  264.000;  176.000
225.739;    2.300; -170.000;  -94.000
225.884;  -16.300;   86.000;    5.000
226.028; -181.000; -760.000; -626.000
226.172;  -60.800; -260.000; -273.000
226.316; -229.700; -941.000; -902.000
226.460; -136.800; -645.000; -493.000
226.604;  -59.700; -406.000; -400.000
226.748; -186.000; -836.000; -733.000
226.892;  -59.600; -227.000; -181.000
227.036; -115.100; -537.000; -447.000
227.180; -103.900; -551.000; -375.000
227.324; -141.900; -561.000; -580.000
227.468; -241.600; -819.000; -717.000
227.612;   11.600;  242.000;  -28.000
227.756; -211.100; -845.000; -698.000
227.900;  132.100;  342.000;  441.000
228.044;  -97.700; -509.000; -290.000
228.188;  125.100;  448.000;  568.000
228.332; -173.600; -546.000; -472.000
228.476;  -56.700; -223.000; -149.000
228.620;  -23.900; -210.000; -150.000
228.764;  149.400;  431.000;  349.000
228.908;  -25.800; -155.000;   30.000
229.052; -125.200; -615.000; -528.000
229.195;  -22.000; -172.000;   13.000
229.339;  -77.300; -235.000; -305.000
229.483;  -40.800;    5.000; -162.000
229.627;  -13.800; -156.000;  139.000
229.771; -103.100; -218.000; -294.000
229.915;   46.500;  230.000;   79.000
230.059; -181.400; -648.000; -663.000
230.202;  -79.600; -370.000; -317.000
230.346;  -22.700; -107.000;  107.000
230.490; -127.500; -489.000; -521.000
230.634; -235.500; -736.000; -553.000
230.777;  169.900;  478.000;  509.000
230.921;  -82.000; -450.000; -359.000
231.065;  -84.300; -246.000; -286.000
231.209;  115.700;  261.000;  265.000
231.352;   68.400;   54.000;   40.000
231.496;   47.100;  568.000;  188.000
231.640; -176.000; -693.000; -621.000
231.783;  183.200;  546.000;  525.000
231.927;  -81.800; -294.000; -365.000
232.071; -245.500; -962.000; -736.000
232.214; -208.700; -980.000; -764.000
232.358; -160.000; -683.000; -599.000
232.502;   28.900;  -19.000;    7.000
232.645; -265.000;-1090.000; -927.000
232.789;  -46.000; -257.000; -218.000
232.933;  -52.600; -407.000; -224.000
233.076; -250.100;-1038.000; -897.000
233.220; -215.200; -752.000; -777.000
233.363; -148.700; -669.000; -477.000
233.507;  172.600;  371.000;  129.000
233.650; -183.900; -764.000; -834.000
233.794;  110.100;  438.000;  461.000
233.938; -133.400; -530.000; -362.000
234.081;  -11.900;  -93.000;   31.000
234.225; -134.200; -631.000; -539.000
234.368; -239.200; -773.000; -723.000
234.512;  -92.600; -385.000; -299.000
234.655; -155.000; -582.000; -555.000
234.798; -124.300; -493.000; -466.000
234.942; -255.800; -884.000;-1002.000
235.085; -153.900; -651.000; -443.000
235.229;  -94.900; -405.000; -410.000
235.372;  -87.700; -247.000; -191.000
235.516; -135.600; -397.000; -321.000
235.659;   60.600;   92.000;  121.000
235.802;    3.300;  -38.000;  -22.000
235.946;   82.600;  335.000;  215.000
236.089;   75.300;  126.000;  250.000
236.233;  151.700;  275.000;  298.000
236.376;  -68.800; -235.000; -378.000
236.519; -101.500; -297.000; -319.000
236.663;  -10.500; -215.000; -117.000
236.806; -257.300;-1029.000; -999.000
236.949;  152.000;  543.000;  431.000
237.092;  143.600;  412.000;  391.000
237.236; -141.000; -589.000; -502.000
237.379;  160.500;  352.000;  428.000
237.522; -218.800; -879.000; -768.000
237.666;  -51.900; -271.000;   18.000
237.809; -242.000; -851.000; -823.000
237.952;   56.700;  469.000;  271.000
238.095; -121.000; -447.000; -442.000
238.238;  227.300;  688.000;  700.000
238.382;   43.000;  166.000;  103.000
238.525; -146.900; -598.000; -511.000
238.668; -262.500;-1060.000; -985.000
238.811; -168.100; -638.000; -643.000
238.954; -102.400; -483.000; -334.000
239.097;  234.600;  617.000;  664.000
239.241;   64.500;  394.000;  326.000
239.384;  -62.400; -254.000; -214.000
239.527; -117.000; -424.000; -224.000
239.670; -292.000; -994.000;-1091.000
239.813; -212.400; -696.000; -658.000
239.956;  185.100;  579.000;  473.000
240.099; -208.100; -778.000; -725.000
240.242;  136.900;  428.000;  432.000
240.385;   96.300;  466.000;  450.000
240.528; -142.700; -706.000; -473.000
240.671;   62.000;  189.000;  134.000
240.814;  -84.100; -441.000; -158.000
240.957; -212.100; -767.000; -578.000
241.100; -204.300; -779.000; -755.000
241.243; -303.300;-1234.000; -893.000
241.386; -106.500; -508.000; -379.000
241.529; -168.100; -735.000; -547.000
241.672; -132.900; -566.000; -495.000
241.815; -236.200; -832.000; -808.000
241.958;  -38.500; -125.000; -182.000
242.101; -172.300; -545.000; -390.000
242.244;  -75.700; -270.000; -325.000
242.387;  -68.800; -304.000; -246.000
242.530;  120.400;  470.000;  134.000
242.673; -111.800; -381.000; -309.000
242.815; -221.100; -925.000; -899.000
242.958; -122.800; -482.000; -381.000
243.101;   63.300;  132.000;  187.000
243.244; -155.500; -564.000; -521.000
243.387;  -75.100; -313.000; -316.000
243.530; -175.200; -657.000; -674.000
243.672;   18.800;   43.000;  -92.000
243.815;  -78.300; -355.000; -283.000
243.958;   19.400;   98.000;  -26.000
244.101;   34.600;   59.000;  -16.000
244.243;  -13.700;  -47.000;  101.000
244.386; -213.200; -761.000; -630.000
244.529;  -53.000; -132.000; -139.000
244.672; -317.400;-1154.000; -951.000
244.814; -212.000; -621.000; -794.000
244.957;  -89.700; -380.000; -304.000
245.100; -144.800; -489.000; -489.000
245.242; -114.600; -387.000; -374.000
245.385;   -5.300;  -59.000;  -39.000
245.528; -250.300; -871.000; -705.000
245.670;  199.500;  612.000;  634.000
245.813; -165.300; -599.000; -547.000
245.956;  -80.300; -324.000; -275.000
246.098; -170.000; -508.000; -650.000
246.241;   10.500;  194.000;   48.000
246.383;  -25.200; -119.000;  -73.000
246.526; -131.900; -454.000; -525.000
246.669; -204.500; -889.000; -780.000
246.811;   56.500;  172.000;   -1.000
246.954; -114.800; -512.000; -426.000
247.096;  -11.200;  -84.000;   -6.000
247.239; -158.000; -482.000; -445.000
247.381; -152.600; -647.000; -488.000
247.524;  215.400;  645.000;  679.000
247.666;   12.600;   58.000;   11.000
247.809; -214.900; -887.000; -691.000
247.951;    1.400;  -75.000;  138.000
248.094;  116.700;  432.000;  308.000
248.236; -317.600;-1262.000;-1238.000
248.378;   -8.400; -356.000;  -81.000
248.521;  -44.600; -334.000; -337.000
248.663;  -30.300; -236.000; -267.000
248.806;  -22.900; -300.000; -266.000
248.948; -181.800; -886.000; -763.000
249.090;  -69.600; -428.000; -398.000
249.233;  -83.100; -344.000; -381.000
249.375;  -79.800; -474.000; -451.000
249.518;  -12.300;  -83.000; -133.000
249.660;    1.700; -103.000;    3.000
249.802; -337.600;-1303.000;-1189.000
249.945; -142.900; -612.000; -540.000
250.087; -197.500; -834.000; -768.000
250.229; -105.900; -362.000; -480.000
250.371; -119.900; -494.000; -439.000
250.514;  -82.800; -310.000; -244.000
250.656;  -92.000;   69.000;  102.000
250.798; -224.400; -849.000; -800.000
250.940; -105.500; -322.000; -322.000
251.083;  -57.800; -335.000; -111.000
251.225;  114.700;  338.000;  310.000
251.367;  -52.500; -274.000; -373.000
251.509;  -57.400; -265.000; -210.000
251.651; -186.700; -731.000; -671.000
251.794;  129.500;  538.000;  632.000
251.936; -220.100; -821.000; -747.000
252.078; -138.200; -540.000; -461.000
252.220; -139.300; -645.000; -477.000
252.362;  170.800;  344.000;  462.000
252.504; -150.800; -677.000; -584.000
252.646; -210.100; -875.000; -722.000
252.788;   36.200;   14.000; -128.000
252.931;  -54.200; -257.000; -253.000
253.073;  -76.000; -376.000; -317.000
253.215;    5.600;  141.000;  122.000
253.357;  -29.900;   82.000; -153.000
253.499;  -58.200; -374.000; -234.000
253.641; -163.900; -749.000; -594.000
253.783; -175.900; -609.000; -527.000
253.925; -166.900; -586.000; -591.000
254.067; -221.300; -744.000; -667.000
254.209;  -42.000; -391.000; -259.000
254.351; -290.500; -865.000; -883.000
254.493; -123.200; -441.000; -417.000
254.635; -220.000; -936.000; -818.000
254.777; -183.000; -752.000; -687.000
254.918; -128.600; -512.000; -430.000
255.060; -138.300; -551.000; -395.000
255.202; -123.900; -473.000; -261.000
255.344; -144.800; -658.000; -455.000
255.486; -120.100; -471.000; -406.000
255.628; -214.600; -780.000; -781.000
255.770; -168.000; -676.000; -536.000
255.912; -112.000; -559.000; -468.000
256.053; -165.800; -730.000; -508.000
256.195;  364.500; 1008.000;  903.000
256.337; -189.800; -861.000; -595.000
256.479;  166.300;  532.000;  416.000
256.621;  -62.600; -394.000; -212.000
256.762; -186.300; -789.000; -742.000
256.904;  148.000;  485.000;  487.000
257.046;  -62.700; -381.000; -271.000
257.188;  -87.200; -351.000; -264.000
257.329; -143.100; -525.000; -464.000
257.471; -215.600; -939.000; -807.000
257.613; -109.500; -584.000; -498.000
257.755; -284.800;-1073.000; -982.000
257.896;   71.100;  286.000;  392.000
258.038; -100.200; -403.000; -352.000
258.180;  -71.900; -354.000; -279.000
258.321; -143.900; -581.000; -457.000
258.463;    5.000;  -71.000;  133.000
258.605; -165.600; -562.000; -570.000
258.746; -211.500; -886.000; -772.000
258.888; -278.200;-1026.000;-1020.000
259.029;   49.900;  121.000;   -8.000
259.171; -180.800; -614.000; -550.000
259.313;   29.700;  -49.000;  -47.000
259.454; -139.800; -536.000; -414.000
259.596; -101.900; -483.000; -390.000
259.737; -114.300; -590.000; -474.000
259.879;  111.700;  217.000;  311.000
260.020;  219.300;  901.000;  636.000
260.162;  -57.500; -146.000; -253.000
260.303; -214.900; -768.000; -687.000
260.445; -172.900; -609.000; -613.000
260.586;   82.500;  392.000;  157.000
260.728;  -92.900; -360.000; -248.000
260.869; -118.100; -350.000; -343.000
261.011;  179.300;  706.000;  537.000
261.152; -105.500; -479.000; -319.000
261.293; -144.700; -576.000; -595.000
261.435;  -57.400; -219.000; -184.000
261.576;  -75.400; -455.000; -325.000
261.718;  143.500;  420.000;  470.000
261.859; -256.000; -940.000; -949.000
262.000; -254.200; -951.000;-1016.000
262.142;   -2.900;  -52.000;  -60.000
262.283; -212.700; -808.000; -691.000
262.424; -195.500; -666.000; -625.000
262.566; -281.100;-1161.000; -983.000
262.707; -245.300; -840.000; -830.000
262.848; -249.000; -769.000; -726.000
262.990;  -79.100; -362.000; -345.000
263.131;  190.800;  650.000;  681.000
263.272;    2.200;  -61.000;  -41.000
263.413; -205.200; -589.000; -561.000
263.555; -140.800; -669.000; -143.000
263.696; -160.800; -550.000; -641.000
263.837; -101.200; -449.000; -551.000
263.978;   12.800;   -5.000;  -77.000
264.119;  -91.200; -283.000; -264.000
264.261; -206.600; -847.000; -630.000
264.402;   23.000;   33.000;   40.000
264.543; -127.900; -509.000; -524.000
264.684;  -13.300;   61.000;  -50.000
264.825; -159.600; -816.000; -538.000
264.966;   21.800;  -84.000;  -67.000
265.107; -219.600; -646.000; -670.000
265.248; -224.800; -825.000; -812.000
265.390;  -17.500;  152.000;   -9.000
265.531;  -46.100; -238.000; -107.000
265.672; -174.400; -557.000; -630.000
265.813;  163.200;  563.000;  439.000
265.954; -303.300; -959.000; -940.000
266.095;  -16.400; -372.000; -322.000
266.236; -179.900; -686.000; -548.000
266.377;  -91.200; -243.000; -297.000
266.518; -129.500; -619.000; -547.000
266.659;   73.400;  170.000;  268.000
266.800;   37.800;   83.000;   85.000
266.941; -127.000; -487.000; -478.000
267.082;   63.200;  354.000;   99.000
267.223;  -62.600; -344.000; -273.000
267.364; -248.800; -892.000; -686.000
267.504;    1.400;    3.000;  135.000
267.645;   31.300;  160.000;   67.000
267.786;  -54.100; -147.000;  -86.000
267.927; -110.600; -473.000; -379.000
268.068;  -19.100; -186.000;  -61.000
268.209; -111.500; -175.000; -413.000
268.350;  -97.400; -388.000; -532.000
268.490; -154.100; -648.000; -521.000
268.631;  100.300;  127.000;  225.000
268.772; -188.800; -874.000; -647.000
268.913; -119.500; -328.000; -476.000
269.054;   -8.000; -117.000;   12.000
269.194;  -83.000; -418.000; -402.000
269.335; -318.500;-1137.000;-1074.000
269.476;  -31.900;   33.000;  -35.000
269.617;  -64.300; -347.000; -392.000
269.757; -159.300; -713.000; -646.000
269.898; -193.400; -856.000; -613.000
270.039; -123.100; -415.000; -405.000
270.180; -239.000; -952.000; -816.000
270.320;  -28.600; -190.000; -250.000
270.461;  -47.400; -277.000; -249.000
270.602;  -45.200; -186.000; -156.000
270.742; -250.300; -868.000; -943.000
270.883;  -91.900; -442.000; -390.000
271.023; -105.400; -358.000; -357.000
271.164; -125.800; -607.000; -528.000
271.305; -174.400; -666.000; -654.000
271.445; -161.000; -722.000; -683.000
271.586; -127.400; -462.000; -283.000
271.726;  -69.200; -397.000; -322.000
271.867;  -96.000; -594.000; -534.000
272.008;  348.000; -473.000; -285.000
272.148;  302.500;  462.000;  468.000
272.289;   41.400; -113.000; -181.000
272.429;   27.200;   19.000;  185.000
272.570; -155.900; -633.000; -737.000
272.710; -192.100; -825.000; -775.000
272.851;  -32.400;  113.000; -130.000
272.991; -311.100;-1173.000;-1077.000
273.131; -117.600; -419.000; -459.000
273.272; -185.100; -683.000; -723.000
273.412;   39.800; -143.000;  -31.000
273.553; -102.700; -488.000; -507.000
273.693;  327.200;  913.000;  858.000
273.834; -182.100; -894.000; -692.000
273.974; -136.700; -664.000; -615.000
274.114; -200.600; -772.000; -560.000
274.255;  176.300;  414.000;  373.000
274.395;   18.900; -180.000; -125.000
274.535;  109.800;  199.000;  350.000
274.676;   98.800;  225.000;   94.000
274.816;   33.800;  110.000;   34.000
274.956; -152.800; -624.000; -690.000
275.097; -151.200;-1014.000; -922.000
275.237; -199.100; -913.000; -803.000
275.377; -198.000; -778.000; -689.000
275.517; -289.400; -878.000; -937.000
275.658;  -97.800; -590.000; -555.000
275.798; -118.500; -606.000; -413.000
275.938;   81.400;  215.000;  323.000
276.078; -148.000; -626.000; -395.000
276.218;   58.900;   99.000;  104.000
276.359; -253.500;-1026.000;-1024.000
276.499; -119.100; -605.000; -446.000
276.639;  -39.500; -305.000; -151.000
276.779; -107.500; -475.000; -357.000
276.919; -193.700; -783.000; -624.000
277.059;  -17.600; -261.000; -212.000
277.199;  -80.800; -357.000; -259.000
277.340;  104.400;  287.000;  175.000
277.480; -221.200; -840.000; -693.000
277.620;   74.000;  192.000;   16.000
277.760; -389.500;-1533.000;-1294.000
277.900;   69.300;  113.000;   33.000
278.040;   77.400;  137.000;  159.000
278.180;  114.600;  270.000;  170.000
278.320;   53.300;   21.000;   56.000
278.460; -114.400; -443.000; -469.000
278.600; -160.400; -708.000; -598.000
278.740;  105.300;  448.000;  224.000
278.880; -102.700; -768.000; -791.000
279.020;   56.200; -194.000; -144.000
279.160; -166.600; -672.000; -595.000
279.300; -236.800; -926.000; -873.000
279.440; -157.700; -709.000; -622.000
279.579;  -59.300;-1014.000; -929.000
279.719;  -63.800; -410.000; -394.000
279.859;  175.400;   -4.000;   41.000
279.999;   86.000; -208.000;  101.000
280.139;  -49.100; -435.000; -387.000
280.279; -153.100; -708.000; -745.000
280.419;   12.100; -229.000; -147.000
280.559;  -20.600; -259.000; -180.000
280.698; -172.800; -790.000; -639.000
280.838; -163.100; -778.000; -800.000
280.978; -200.100; -846.000; -790.000
281.118; -210.400; -811.000; -704.000
281.257;   -3.300;   24.000;    6.000
281.397; -247.600;-1094.000; -960.000
281.537; -166.400; -599.000; -712.000
281.677;   14.000; -150.000; -101.000
281.816; -151.000; -700.000; -630.000
281.956;  -26.700; -193.000; -257.000
282.096; -111.000; -539.000; -396.000
282.235; -193.700; -672.000; -638.000
282.375;   27.900; -243.000;  -98.000
282.515; -193.900; -715.000; -707.000
282.654;   85.900;   29.000;  106.000
282.794;  109.400;  388.000;  244.000
282.934; -116.300; -530.000; -491.000
283.073; -255.500;-1030.000; -857.000
283.213;  -79.300; -460.000; -467.000
283.353;  -37.100; -408.000; -349.000
283.492;  -21.500; -264.000; -296.000
283.632;  -69.100; -254.000; -168.000
283.771; -191.500; -859.000; -730.000
283.911;  -72.400; -369.000; -260.000
284.050; -194.700; -794.000; -748.000
284.190; -313.800;-1229.000;-1096.000
284.329; -268.000;-1055.000; -964.000
284.469; -109.500; -516.000; -591.000
284.608;  -95.200; -559.000; -598.000
284.748; -142.300; -614.000; -570.000
284.887;    6.000;  -87.000;  -20.000
285.027; -208.700; -844.000; -892.000
285.166;  -46.400; -192.000; -249.000
285.306;   12.300; -116.000;  -33.000
285.445;  -57.200; -229.000; -343.000
285.584; -156.500; -630.000; -494.000
285.724;  -37.400; -282.000; -322.000
285.863; -201.100; -857.000; -507.000
286.002;  -50.200; -366.000; -276.000
286.142; -172.400; -715.000; -622.000
286.281; -134.700; -525.000; -493.000
286.420; -148.600; -554.000; -417.000
286.560;  267.400;  653.000;  623.000
286.699; -251.800; -958.000; -912.000
286.838; -171.800; -590.000; -591.000
286.978; -153.100; -533.000; -537.000
287.117; -253.200;-1085.000; -950.000
287.256;  -59.500; -228.000; -211.000
287.395;  -96.400; -197.000; -378.000
287.535;  -66.000; -370.000; -298.000
287.674; -152.600; -509.000; -484.000
287.813;  147.900;  661.000;  533.000
287.952; -264.500;-1010.000; -871.000
288.091; -287.100;-1049.000; -915.000
288.231;   58.100;   13.000;   15.000
288.370; -326.700;-1217.000;-1200.000
288.509; -164.900; -728.000; -645.000
288.648; -144.300; -770.000; -548.000
288.787;  -16.700; -243.000;  -87.000
288.926; -108.300; -454.000; -475.000
289.065;  274.100;  859.000;  672.000
289.204;  -59.600; -377.000; -217.000
289.344; -141.800; -791.000; -690.000
289.483;   77.400;  416.000;  304.000
289.622;  -16.200; -291.000; -149.000
289.761;    6.500; -309.000; -166.000
289.900; -235.000; -785.000; -626.000
290.039;    1.100;  -12.000;  -95.000
290.178;  -40.600; -274.000; -180.000
290.317; -126.700; -618.000; -479.000
290.456; -112.900; -463.000; -451.000
290.595; -255.600; -961.000; -833.000
290.734; -262.300; -904.000; -891.000
290.873; -118.500; -456.000; -420.000
291.011; -217.300; -833.000; -843.000
291.150; -197.700; -770.000; -682.000
291.289;  -27.200; -343.000; -110.000
291.428; -156.000; -599.000; -480.000
291.567;  -59.600; -370.000; -442.000
291.706;   34.200;  109.000;  154.000
291.845; -174.400; -597.000; -505.000
291.984; -313.400;-1234.000;-1061.000
292.122;  200.000;  602.000;  582.000
292.261;  120.900;  620.000;  463.000
292.400;   80.500; -144.000;  211.000
292.539; -224.300; -959.000; -813.000
292.678;  -61.800; -325.000; -300.000
292.816; -306.500;-1136.000; -965.000
292.955; -175.000; -844.000; -684.000
293.094;  -10.900; -173.000; -337.000
293.233;  -74.900; -556.000; -400.000
293.371;  -24.100; -225.000;  -84.000
293.510; -191.200; -866.000; -780.000
293.649; -236.600; -959.000; -924.000
293.787; -123.400;-1083.000;-1012.000
293.926;   16.200; -113.000;  -32.000
294.065;  -86.500; -379.000; -290.000
294.203;  163.800;  298.000;  406.000
294.342;   68.900;   74.000;  156.000
294.481;15057.700;51180.000; -836.000
294.619;   -3.700; -425.000; -582.000
294.758; -295.200;-1230.000;-1137.000
294.896;  132.200; -125.000;    5.000
295.035; -248.400;-1040.000;-1006.000
295.174; -213.200;-1082.000; -954.000
295.312;  -51.100; -323.000; -203.000
295.451;   -5.100; -307.000; -428.000
295.589;  -77.700; -389.000; -518.000
295.728;   63.900; -292.000; -165.000
295.866;   39.800;  -36.000;  -51.000
296.005; -115.700; -584.000; -341.000
296.143; -118.900; -558.000; -596.000
296.282; -168.800; -957.000; -881.000
296.420; -142.100; -657.000; -557.000
296.559; -158.700; -892.000; -633.000
296.697;   58.500; -847.000; -665.000
296.835;   87.500;-1141.000;-1002.000
296.974;  126.400;  -23.000;   39.000
297.112;   50.300; -443.000; -504.000
297.251; -130.200; -815.000; -755.000
297.389;  167.500; -576.000; -438.000
297.527;  124.600; -145.000;  -83.000
297.666;  -95.900; -486.000; -438.000
297.804;  -96.100; -404.000; -264.000
297.942;   38.500; -136.000; -161.000
298.081;   39.300; -183.000;   63.000
298.219;  171.800;  -17.000;  -19.000
298.357;   94.500; -144.000;  -71.000
298.495;   62.500; -810.000; -812.000
298.634;  152.700;  245.000;  219.000
298.772;  109.600; -220.000; -338.000
298.910;  -39.500; -309.000; -182.000
299.048;  -11.000; -130.000; -153.000
299.187;  -38.200; -350.000; -250.000
299.325;   69.000;   52.000;  122.000
299.463;   89.800; -389.000; -299.000
299.601;  247.400; -327.000; -271.000
299.739; -193.300; -908.000; -883.000
299.877; -107.600; -791.000; -703.000
300.016; -101.700;-1095.000; -935.000
300.154;  313.800;  -19.000; -161.000
300.292;   90.300; -428.000; -348.000
300.430;   83.500; -408.000; -291.000
300.568; -190.900; -940.000; -874.000
300.706;  -83.100; -366.000; -469.000
300.844; -160.200;-1108.000; -979.000
300.982;  274.900;  246.000;  282.000
301.120; -200.400; -965.000; -866.000
301.258; -108.300; -812.000; -705.000
301.396;  131.800;  104.000;  -41.000
301.534;  160.400; -218.000; -293.000
301.672;  -17.700; -664.000; -521.000
301.810;   68.100; -613.000; -545.000
301.948;  327.800;   53.000;  149.000
302.086; 1049.100; -250.000;  -32.000
302.224; 1698.400; -610.000; -585.000
302.362;   89.500; -558.000; -622.000
302.500;  -17.000; -923.000; -893.000
302.638;  234.000;  128.000;  245.000
302.776;   47.700; -352.000; -408.000
302.913;   97.400;  447.000;  236.000
303.051;   15.700;  -86.000;  -23.000
303.189;  111.300;   90.000;  118.000
303.327;  -33.900; -341.000; -256.000
303.465; -146.800; -832.000; -588.000
303.603; -169.300; -805.000; -604.000
303.740;  243.800;  417.000;  241.000
303.878;   38.300; -800.000; -759.000
304.016; -150.200; -915.000; -790.000
304.154; -238.500;-1123.000;-1152.000
304.291;  -45.100; -505.000; -554.000
304.429;   61.500;  102.000;   74.000
304.567; -237.200; -908.000; -893.000
304.705;  -95.800; -408.000; -515.000
304.842;  187.100; -616.000; -540.000
304.980;  148.600;  215.000;   35.000
305.118;  109.800; -367.000; -365.000
305.255; -102.900; -945.000; -927.000
305.393;  130.500;  178.000;  239.000
305.531; -180.900;-1173.000; -956.000
305.668; -107.800; -663.000; -582.000
305.806;  177.000; -358.000; -439.000
305.943;  195.600; -629.000; -637.000
306.081;  141.700; -378.000; -267.000
306.219; -210.800; -863.000; -748.000
306.356;   62.300;  158.000;   27.000
306.494;  284.700;  981.000;  761.000
306.631;   63.200;  -11.000;  -55.000
306.769;   59.100; -613.000; -485.000
306.906;   28.100; -284.000; -258.000
307.044;  -82.500; -473.000; -488.000
307.181;  -78.500; -410.000; -332.000
307.319;  155.000;  112.000;   87.000
307.456; -315.500;-1191.000;-1153.000
307.594; -169.100; -980.000; -727.000
307.731;   12.900; -371.000; -164.000
307.868;   39.000;  -15.000;   20.000
308.006; -232.800; -961.000; -847.000
308.143;  -97.800; -618.000; -330.000
308.281;  469.000;  -37.000; -254.000
308.418;   50.700; -748.000; -640.000
308.555;  -92.900; -400.000; -250.000
308.693; -117.300; -577.000; -573.000
308.830; -182.300; -712.000; -657.000
308.967;   16.500; -215.000;  -95.000
309.105;  -53.300; -507.000; -396.000
309.242;  151.800; -468.000; -367.000
309.379;  917.100; -577.000; -655.000
309.517;  -49.400; -936.000; -948.000
309.654; -160.600; -910.000; -734.000
309.791;  -73.000; -662.000; -580.000
309.928; -195.000; -977.000; -914.000
310.065;  406.900;  819.000;  697.000
310.203;   -4.000; -825.000; -850.000
310.340;   27.900; -465.000; -321.000
310.477;  -96.600; -412.000; -516.000
310.614;  -97.000; -383.000; -473.000
310.751;  -92.300; -427.000; -518.000
310.889;   -6.500;    1.000;   11.000
311.026; -280.900;-1161.000; -939.000
311.163;  -54.700; -386.000; -380.000
311.300; -111.400; -512.000; -479.000
311.437; -127.100; -658.000; -619.000
311.574; -308.900;-1226.000; -985.000
311.711; -102.500; -595.000; -433.000
311.848;  -23.200; -380.000; -388.000
311.985;   92.000;  270.000;   93.000
312.122; -194.800; -932.000; -762.000
312.259; -207.300; -941.000; -994.000
312.396; -104.600; -508.000; -551.000
312.533; -171.100; -812.000; -790.000
312.670; -248.000;-1070.000; -898.000
312.807;  -16.500; -352.000; -367.000
312.944; -116.600; -513.000; -611.000
313.081;  -52.100; -150.000; -415.000
313.218; -169.400;-1111.000; -867.000
313.355;   69.900; -531.000; -449.000
313.492;   61.900; -455.000; -292.000
313.629;  315.200;  815.000;  735.000
313.766; -262.600;-1176.000;-1008.000
313.902;   42.900; -186.000;   21.000
314.039;  -54.700; -372.000; -289.000
314.176;  122.000;  286.000;  192.000
314.313; -122.500; -569.000; -473.000
314.450; -139.200; -788.000; -684.000
314.587;  -85.800; -468.000; -480.000
314.723;   53.700;  -78.000;  130.000
314.860;   88.700;  318.000;  332.000
314.997;   60.300;  223.000;  142.000
315.134;  -33.300; -385.000; -368.000
315.270;    7.100; -480.000; -496.000
315.407; -228.800;-1094.000; -967.000
315.544;  -80.100; -657.000; -538.000
315.681; -105.500; -681.000; -565.000
315.817;   89.700; -133.000; -176.000
315.954;   53.700; -613.000; -392.000
316.091; -211.900;-1045.000;-1023.000
316.227;   38.300;  -71.000; -179.000
316.364;   46.700;   23.000;    6.000
316.500;  -27.800; -113.000; -300.000
316.637;  -57.600; -181.000; -302.000
316.774; -181.500; -625.000; -358.000
316.910; -117.400; -598.000; -629.000
317.047; -118.100; -487.000; -351.000
317.183;  -87.000; -435.000; -566.000
317.320;  -29.200; -367.000; -321.000
317.456; -101.300; -733.000; -805.000
317.593; -144.200; -598.000; -641.000
317.729;   40.800;  168.000;  -67.000
317.866; -364.300;-1434.000;-1285.000
318.002; -152.100; -708.000; -948.000
318.139; -151.600; -883.000; -867.000
318.275; -169.000;-1003.000; -738.000
318.412; -100.900; -517.000; -336.000
318.548;  -77.200; -751.000; -720.000
318.685; -150.400; -985.000; -888.000
318.821; -177.900; -762.000; -735.000
318.957;   24.400;   34.000;  -23.000
319.094;  110.800;  297.000;  154.000
319.230; -103.600; -756.000; -742.000
319.367;  272.400; -471.000; -520.000
319.503;  106.700; -538.000; -436.000
319.639; -155.700; -877.000; -793.000
319.775; -105.600; -750.000; -685.000
319.912;  -85.000; -424.000; -519.000
320.048; -161.900;-1184.000;-1184.000
320.184;  172.700;   59.000;   70.000
320.321; -101.600; -497.000; -467.000
320.457;  185.200;  475.000;  662.000
320.593; -105.200; -375.000; -382.000
320.729; -171.200; -732.000; -734.000
320.866; -117.600; -577.000; -635.000
321.002; -156.100; -759.000; -809.000
321.138;   16.600; -135.000; -211.000
321.274;  200.900; -148.000; -115.000
321.410;  -33.600; -585.000; -353.000
321.546;  -49.200;-1011.000; -911.000
321.683;  139.200;  400.000;  185.000
321.819;   58.000;  -48.000; -117.000
321.955; -166.200; -743.000; -722.000
322.091;  -81.800; -585.000; -540.000
322.227;   11.900; -382.000; -202.000
322.363;   -4.000; -320.000; -215.000
322.499;  -56.100; -343.000; -331.000
322.635;  349.900;  636.000;  443.000
322.771;  110.800; -139.000;   12.000
322.907;  225.300;  129.000;  327.000
323.043;  -16.600; -115.000; -206.000
323.179;  -20.900; -394.000; -363.000
323.315;   50.200; -401.000; -371.000
323.451;  221.700; -328.000; -236.000
323.587;  149.700;  -60.000;  -77.000
323.723;   81.400; -682.000; -601.000
323.859;   -5.000; -258.000;  -76.000
323.995;  -42.300; -467.000; -409.000
324.131; -206.400; -967.000; -892.000
324.267;  -31.700; -254.000; -276.000
324.402; -228.300; -960.000; -983.000
324.538;   19.200; -279.000; -104.000
324.674;  107.900;  164.000;   77.000
324.810;  336.400;  226.000;  308.000
324.946;   23.200; -810.000; -658.000
325.082;  -79.400; -568.000; -475.000
325.217;   -2.700;  -62.000;   16.000
325.353; -139.800; -764.000; -659.000
325.489; -146.900; -540.000; -506.000
325.625; -131.600; -579.000; -525.000
325.760;  181.000;  517.000;  376.000
325.896;  -12.200; -515.000; -702.000
326.032; -119.500; -403.000; -352.000
326.168;  -74.700; -462.000; -369.000
326.303;  -74.500; -352.000; -461.000
326.439;   -9.700; -336.000; -276.000
326.575;   62.400; -190.000;  -29.000
326.710;   42.600; -156.000;  -30.000
326.846;   51.100;  146.000;  103.000
326.982; -125.000; -530.000; -548.000
327.117; -122.800; -481.000; -442.000
327.253; -178.500; -745.000; -742.000
327.388; -222.200;-1137.000;-1153.000
327.524;  -77.600; -811.000; -578.000
327.659;    4.800;  -58.000;  -22.000
327.795;   43.100;   69.000;   45.000
327.931; -155.200; -723.000; -499.000
328.066;   -9.100; -417.000; -276.000
328.202;   68.100;   12.000; -129.000
328.337;  245.400;  957.000;  713.000
328.473;    6.500;  -12.000;  -74.000
328.608;   -1.700; -256.000; -267.000
328.743; -118.600; -799.000; -664.000
328.879;   89.300;  214.000;  114.000
329.014;  -72.700; -102.000; -122.000
329.150; -150.700; -358.000; -483.000
329.285;  -75.100; -465.000; -466.000
329.421;  -65.000; -548.000; -246.000
329.556;  -13.100;  -36.000;   85.000
329.691; -158.300; -633.000; -615.000
329.827; -124.600; -626.000; -480.000
329.962;  -64.200;  131.000; -301.000
330.097; -141.200; -673.000; -585.000
330.233;  -77.400; -410.000; -223.000
330.368; -222.600; -839.000; -628.000
330.503;  -18.600;    3.000;   98.000
330.638;   33.300;  -93.000; -125.000
330.774; -110.900; -609.000; -530.000
330.909;  -38.000; -434.000; -244.000
331.044; -174.500; -714.000; -708.000
331.179; -316.600;-1217.000;-1109.000
331.315;   35.400;   77.000;   20.000
331.450;   76.200;  157.000;  285.000
331.585; -162.000; -805.000; -706.000
331.720; -138.200; -510.000; -460.000
331.855;   20.400;  -35.000; -102.000
331.990;  462.800;   62.000;  138.000
332.126;  246.500; -110.000;   71.000
332.261;  -11.200; -379.000; -265.000
332.396;   33.500; -135.000; -242.000
332.531; -202.400;-1074.000;-1031.000
332.666;   93.400; -519.000; -363.000
332.801; -172.200; -726.000; -807.000
332.936;  -35.700; -192.000; -122.000
333.071; -250.300; -870.000; -817.000
333.206;  100.200;  307.000;  379.000
333.341;  107.400;  344.000;  418.000
333.476; -115.200; -627.000; -623.000
333.611;  -37.500; -251.000; -173.000
333.746;  -64.300; -381.000; -464.000
333.881; -199.800; -973.000; -935.000
334.016; -210.000; -936.000; -917.000
334.151; -239.100; -746.000; -702.000
334.286;  109.200;  152.000;  186.000
334.421;    0.300; -125.000; -178.000
334.556; -149.200; -611.000; -567.000
334.690; -164.000; -631.000; -577.000
334.825;  167.400;  381.000;   83.000
334.960;  -54.600; -285.000; -413.000
335.095;   63.100;  135.000;  -91.000
335.230; -170.400; -722.000; -738.000
335.365; -236.100;-1084.000; -990.000
335.499; -257.500;-1108.000;-1037.000
335.634;   57.000;    9.000;  534.000
335.769; -168.700; -755.000; -720.000
335.904;  -95.100; -603.000; -561.000
336.038;  -81.500; -735.000; -657.000
336.173; -206.400;-1206.000;-1194.000
336.308;   61.100; -116.000; -189.000
336.443;   48.100; -544.000; -634.000
336.577; -148.100; -936.000; -787.000
336.712;  141.300;   -4.000;  -12.000
336.847;  -70.600; -724.000; -607.000
336.981;  159.700; -272.000; -208.000
337.116;  583.000;  615.000;  501.000
337.250;  308.400; -434.000; -421.000
337.385;  458.500; -297.000; -208.000
337.520;  164.700; -632.000; -603.000
337.654;  -51.800; -215.000; -126.000
337.789; -219.100; -989.000; -933.000
337.923;  -29.000; -104.000; -205.000
338.058; -160.700; -673.000; -738.000
338.192;  -46.800; -611.000; -488.000
338.327;   29.300;  -18.000; -155.000
338.461;  -94.600; -299.000; -469.000
338.596; -143.600; -780.000; -638.000
338.730; -202.600; -767.000; -803.000
338.865;  210.400;  -46.000; -140.000
338.999; -103.900; -846.000; -702.000
339.134;  -33.300; -634.000; -536.000
339.268;   19.200; -741.000; -603.000
339.403;  608.600; -740.000; -775.000
339.537;  197.500; -894.000; -820.000
339.671; -209.000; -829.000; -813.000
339.806; -107.900; -556.000; -512.000
339.940;   55.400; -261.000; -235.000
340.074; -186.900; -685.000; -510.000
340.209;  -30.000; -351.000; -230.000
340.343; -128.600; -517.000; -573.000
340.477;  340.300;  998.000; 1036.000
340.612; -122.000;-1033.000; -900.000
340.746;  251.200; -199.000; -243.000
340.880; -124.300; -924.000; -785.000
341.014;    0.500;  -45.000; -154.000
341.149; -217.900; -756.000; -718.000
341.283; -195.500; -839.000; -754.000
341.417; -176.700;-1124.000; -938.000
341.551;  205.200; -768.000; -708.000
341.685;  -51.900; -633.000; -611.000
341.820;  -91.600; -562.000; -493.000
341.954;  -63.300; -218.000; -349.000
342.088; -232.100;-1102.000;-1019.000
342.222;  128.600;  565.000;  618.000
342.356;  -73.700; -395.000; -335.000
342.490; -157.000; -880.000; -841.000
342.624;  -86.600; -339.000; -242.000
342.758;    8.500; -364.000; -312.000
342.892; -101.100; -710.000; -585.000
343.026;  -23.900;  -58.000; -116.000
343.160;  -99.300; -426.000; -376.000
343.294; -142.200; -474.000; -337.000
343.428;  -12.400; -488.000; -448.000
343.562;   29.600; -172.000;  -23.000
343.696;  -30.000; -385.000; -314.000
343.830;    7.800; -362.000; -356.000
343.964;   70.700; -231.000; -168.000
344.098; 1659.700;  199.000;   70.000
344.232; 1439.600; -266.000; -127.000
344.366;  176.000; -567.000; -453.000
344.500;  138.500; -665.000; -744.000
344.634;  100.200; -324.000; -164.000
344.768;   14.100; -531.000; -341.000
344.902;  102.300;  278.000;  256.000
345.035;  -91.800; -556.000; -496.000
345.169; -245.400; -933.000; -656.000
345.303;  -41.200; -308.000; -482.000
345.437; -107.100; -826.000; -717.000
345.571; -103.400; -675.000; -594.000
345.704; -102.600; -309.000; -532.000
345.838;   -6.700; -331.000; -284.000
345.972;  -29.300; -543.000; -495.000
346.106;  293.600; -179.000; -190.000
346.239;  758.300; -312.000; -243.000
346.373;   29.700; -343.000; -302.000
346.507; -247.500; -950.000; -962.000
346.640;  298.200;  -30.000;   13.000
346.774;  -62.600; -650.000; -797.000
346.908;   14.500; -138.000;  -11.000
347.041; -147.100; -646.000; -593.000
347.175;   60.000;  259.000;   27.000
347.309; -114.900; -698.000; -628.000
347.442; -172.800; -883.000; -732.000
347.576;  600.200;  670.000;  668.000
347.709;  391.900; -123.000;  -52.000
347.843; -184.000; -933.000; -825.000
347.976;  111.000;  235.000;  294.000
348.110; -315.700;-1268.000;-1186.000
348.243; -179.500; -679.000; -772.000
348.377;   30.700;  -26.000;   60.000
348.510;  182.800;  403.000;  540.000
348.644;  -13.000;  -37.000; -159.000
348.777;   72.400;  180.000;  191.000
348.911;  -59.900; -142.000; -112.000
349.044;  345.200;  471.000;  448.000
349.178;  276.200;-1069.000;-1006.000
349.311;  279.600;  141.000;  255.000
349.444;  -34.900; -927.000; -813.000
349.578;  -11.700; -347.000; -200.000
349.711; -178.300; -959.000; -862.000
349.845;  -17.000; -661.000; -591.000
349.978; -260.500;-1224.000;-1137.000
350.111; -152.600; -546.000; -612.000
350.244; -100.000; -596.000; -700.000
350.378;   49.500; -392.000; -393.000
350.511; -101.600; -393.000; -426.000
350.644; -178.200; -808.000; -806.000
350.778;   63.400;  168.000;  104.000
350.911;   63.200;  134.000;  140.000
351.044; -153.400; -685.000; -615.000
351.177;  -37.500; -321.000; -281.000
351.310;  -17.100;    3.000; -131.000
351.444; -116.300; -888.000; -788.000
351.577;  278.900;  140.000;   90.000
351.710;  255.500;  593.000;  417.000
351.843;  -21.900; -165.000;  -77.000
351.976;   69.800;  149.000;  -79.000
352.109; -142.000; -621.000; -612.000
352.242;   -6.900; -464.000; -419.000
352.376;  -72.100; -580.000; -636.000
352.509;  328.100; -437.000; -356.000
352.642;   41.100; -654.000; -604.000
352.775;  156.500; -141.000;  -98.000
352.908; -203.800; -933.000; -904.000
353.041; -163.100; -814.000; -824.000
353.174;  -63.800; -551.000; -424.000
353.307; -118.800; -753.000; -764.000
353.440;  179.200;  541.000;  453.000
353.573; -184.000; -957.000;-1008.000
353.706;  -35.100; -384.000; -558.000
353.839;  -12.800; -264.000; -220.000
353.971; -131.800; -657.000; -512.000
354.104; -152.100; -896.000; -835.000
354.237;  -37.900; -627.000; -662.000
354.370; -152.300; -846.000; -879.000
354.503; -342.400;-1231.000;-1308.000
354.636;  -21.000; -529.000; -348.000
354.769; -230.600; -937.000; -860.000
354.902;   27.100; -230.000; -139.000
355.034;   10.100; -164.000; -220.000
355.167;  -14.200; -262.000; -162.000
355.300; -143.500;-1061.000; -880.000
355.433; 1707.500;  -71.000;  -14.000
355.565; 2595.800; -402.000; -384.000
355.698;  688.000; -356.000; -296.000
355.831;    3.900; -882.000; -801.000
355.964;  182.600; -285.000; -170.000
356.096; -121.500; -856.000; -843.000
356.229;   22.400; -523.000; -530.000
356.362;  590.100; -373.000; -266.000
356.494; 1099.800; -229.000; -162.000
356.627;  922.900;  269.000;  377.000
356.760; 1208.200;  120.000;   53.000
356.892; 1648.400; -286.000; -601.000
357.025; 1257.400;  403.000;  389.000
357.157; 1076.100; -167.000; -179.000
357.290; 1163.500; -856.000; -713.000
357.423;  362.900; -667.000; -556.000
357.555;  239.500; -217.000; -228.000
357.688;  260.300; -483.000; -364.000
357.820;  748.100; -870.000; -877.000
357.953; 6609.700; -563.000; -589.000
358.085; 1431.400; -632.000; -612.000
358.218; 2131.000;-1131.000; -932.000
358.350;  416.600;  -58.000;  312.000
358.483; -216.600;-1300.000;-1187.000
358.615;  -39.500;-1182.000;-1078.000
358.747;  -89.400;-1187.000;-1058.000
358.880;   53.600; -810.000; -744.000
359.012;    7.300; -376.000; -202.000
359.145;  -45.700; -480.000; -511.000
359.277;  111.500; -962.000; -913.000
359.409; 5450.100;  536.000;  231.000
359.542; 1387.700; -738.000; -688.000
359.674;  162.700;   46.000;   13.000
359.806;  -85.800; -565.000; -438.000
359.939;  -62.700; -617.000; -516.000
360.071;   -4.500; -583.000; -579.000
360.203;  -27.900; -411.000; -364.000
360.335;  168.900;  164.000;  -16.000
360.468;  337.200; -249.000; -307.000
360.600; 4344.200; -547.000; -454.000
360.732; 4928.800; -546.000; -423.000
360.864;  625.400;-1216.000;-1044.000
360.996;  513.100; -516.000; -554.000
361.129;  135.700; -389.000; -598.000
361.261;   94.100;  110.000; -113.000
361.393;  -19.200; -252.000; -214.000
361.525;   77.900;   94.000;  244.000
361.657;  -51.200; -821.000; -703.000
361.789;   59.000; -139.000; -155.000
361.921;  443.800; -642.000; -593.000
362.053;  545.700;  524.000;  541.000
362.185;  132.500;  288.000;   72.000
362.318; -124.000; -709.000; -705.000
362.450;  277.200;  294.000;  444.000
362.582;  255.800; -913.000; -870.000
362.714;  -20.500; -353.000; -332.000
362.846; -140.400; -606.000; -490.000
362.978; -250.000; -941.000; -811.000
363.109;  142.500; -161.000; -260.000
363.241;  764.400; -739.000; -749.000
363.373;  751.700; -649.000; -564.000
363.505; 1268.700; -186.000;  -91.000
363.637;  269.300; -787.000; -601.000
363.769; -217.600;-1067.000;-1080.000
363.901;  -92.900; -596.000; -654.000
364.033; -217.100;-1103.000;-1062.000
364.165;   16.700; -283.000; -283.000
364.296;  173.300; -316.000; -177.000
364.428;   89.200;-1344.000;-1220.000
364.560; -117.900; -679.000; -661.000
364.692;  -97.200; -738.000; -835.000
364.824;  510.100; -588.000; -456.000
364.955;  815.300; -402.000; -564.000
365.087; 1622.300;-1097.000; -852.000
365.219;   80.400; -686.000; -816.000
365.351;  -92.900; -526.000; -572.000
365.482;  176.500;  300.000;  240.000
365.614;  -50.100; -402.000; -314.000
365.746; -156.800; -729.000; -752.000
365.877; -166.800; -706.000; -672.000
366.009;  541.400;  -35.000;  -62.000
366.141; -165.200;-1249.000;-1134.000
366.272; -167.700; -803.000; -719.000
366.404; -177.800;-1005.000; -874.000
366.535;    0.700; -139.000;  -12.000
366.667; -186.500; -644.000; -649.000
366.799;  120.800;  353.000;  203.000
366.930; -203.800; -862.000; -996.000
367.062;  256.700; -639.000; -613.000
367.193;  212.200; -872.000; -842.000
367.325;  -82.900; -580.000; -684.000
367.456;  156.800; -246.000;   31.000
367.588;  289.700; -371.000; -318.000
367.719;   77.100;  -44.000;  -45.000
367.851;    2.200; -222.000; -241.000
367.982;  -55.900; -875.000; -732.000
368.113;  215.300; -475.000; -358.000
368.245; -189.800; -960.000; -841.000
368.376;  -13.000; -254.000; -302.000
368.508;  -22.700; -188.000; -263.000
368.639; -256.900;-1166.000;-1034.000
368.770;  -18.900; -670.000; -589.000
368.902; -110.300; -836.000; -926.000
369.033; -185.600; -906.000; -855.000
369.164;  -66.500; -720.000; -653.000
369.296; -186.400; -452.000; -601.000
369.427;   23.500; -209.000; -144.000
369.558;  -74.400; -593.000; -377.000
369.689; -169.200; -721.000; -569.000
369.821; -232.700; -951.000; -845.000
369.952;   13.000;   42.000; -108.000
370.083;  -44.400; -229.000; -108.000
370.214; -102.300; -735.000; -650.000
370.345;   41.300;   65.000;   81.000
370.477; -123.500; -810.000; -790.000
370.608;  472.600; -328.000; -264.000
370.739;  -80.600;-1233.000;-1292.000
370.870;  -52.400;-1102.000; -923.000
371.001;  222.800; -378.000; -467.000
371.132; -120.000; -754.000; -735.000
371.263;   48.100;  -42.000; -148.000
371.394; -215.200; -841.000; -748.000
371.525;  110.300;  345.000;  225.000
371.657; -137.900; -808.000; -670.000
371.788;  212.000;  103.000;  199.000
371.919;  387.700; -384.000; -304.000
372.050; 6641.400;  -91.000; -156.000
372.181; 1898.500; -188.000; -294.000
372.311;  669.900;   42.000; -127.000
372.442;   87.300; -457.000; -451.000
372.573;   24.600; -444.000; -340.000
372.704; -231.400;-1008.000; -980.000
372.835;  157.800; -228.000; -289.000
372.966; -118.400; -646.000; -554.000
373.097;  -87.600; -575.000; -711.000
373.228;  -49.300; -717.000; -542.000
373.359;  244.100; -824.000; -536.000
373.490; 1721.300; -881.000; -727.000
373.620; 2129.500;-1001.000; -803.000
373.751; 3317.500; -332.000; -396.000
373.882; 1429.200; -663.000; -733.000
374.013;  176.000; -449.000; -262.000
374.143;  -41.100; -581.000; -659.000
374.274; -196.600; -987.000; -908.000
374.405;  336.500; -388.000; -276.000
374.536;  871.200; -526.000; -387.000
374.666; 2033.400; -759.000; -807.000
374.797;  410.000; -817.000; -868.000
374.928; 1628.900; -710.000; -560.000
375.058; 1594.100; -535.000; -500.000
375.189;  186.800;  -59.000;  -93.000
375.320; -194.500; -928.000;-1034.000
375.450;  -76.500; -625.000; -616.000
375.581;  -37.300; -526.000; -436.000
375.712;  -20.300; -574.000; -250.000
375.842;  631.800; -438.000; -415.000
375.973;  406.600; -554.000; -513.000
376.103;  -46.700; -665.000; -648.000
376.234; -111.100; -531.000; -552.000
376.364;  -43.300; -944.000; -867.000
376.495;  674.800;  925.000;  529.000
376.625;   17.400; -472.000; -485.000
376.756;  159.100; -709.000; -678.000
376.886; -134.900;-1178.000;-1026.000
377.017;  104.000;-1048.000;-1061.000
377.147;  584.800; -786.000; -782.000
377.278;  177.300;  174.000;  228.000
377.408; -207.500; -801.000; -815.000
377.538; -187.800; -707.000; -693.000
377.669; -102.700; -537.000; -613.000
377.799; -147.900; -645.000; -635.000
377.929;  -79.100; -610.000; -428.000
378.060; -226.800; -781.000; -847.000
378.190;  -80.200; -726.000; -531.000
378.320;  -52.200; -401.000; -406.000
378.451;   14.700; -131.000;  -22.000
378.581;   32.400;  -67.000; -110.000
378.711;  384.100; 1035.000;  866.000
378.841;  -18.700; -533.000; -675.000
378.972; -107.600; -871.000; -751.000
379.102;   30.900; -652.000; -579.000
379.232;   -8.100; -126.000;  -73.000
379.362; -162.300;-1001.000; -885.000
379.492;   39.900; -373.000; -424.000
379.623;  265.800;    0.000;  111.000
379.753; -152.900;-1107.000; -974.000
379.883;  430.400;   59.000;  156.000
380.013;   13.900;-1081.000;-1017.000
380.143; -168.800;-1097.000;-1056.000
380.273; -161.700; -985.000; -861.000
380.403;   43.400; -344.000; -257.000
380.533;  -40.600; -651.000; -664.000
380.663;  192.000;  173.000;  128.000
380.793; -142.300;-1027.000;-1074.000
380.923;   13.700; -103.000;  -34.000
381.053; -116.500; -613.000; -623.000
381.183;    4.300; -106.000; -248.000
381.313;  113.300; -656.000; -470.000
381.443;   99.200; -692.000; -473.000
381.573;  436.300; -402.000; -409.000
381.703;  505.600;-1249.000;-1095.000
381.833; -252.400;-1454.000;-1336.000
381.963;  262.600; -134.000;  -87.000
382.093; 2561.200; -925.000; -909.000
382.223;  719.100; -713.000; -602.000
382.353;  -23.600; -801.000; -608.000
382.482;  742.300;-1091.000; -964.000
382.612; 1418.200; -872.000; -644.000
382.742;  779.500; -695.000; -622.000
382.872;  529.500; -565.000; -551.000
383.002;  192.300;  347.000; -132.000
383.131;   10.900; -226.000; -160.000
383.261;  -34.100; -706.000; -768.000
383.391;  554.600; -552.000; -377.000
383.521; 5653.900;  451.000;  263.000
383.650; 1154.500; -947.000; -904.000
383.780;  -17.500; -783.000; -656.000
383.910;  333.300;  880.000;  802.000
384.039;   37.800; -794.000; -656.000
384.169;  402.600;-1205.000;-1017.000
384.299;  -16.900; -650.000; -662.000
384.428; -130.400; -764.000; -680.000
384.558;  -64.500; -308.000; -275.000
384.687;  -54.000; -414.000; -334.000
384.817;  112.500;   75.000;   -2.000
384.947;  121.800; -234.000; -141.000
385.076;  603.900;  982.000;  912.000
385.206;  247.400;  369.000;  480.000
385.335;  -34.700; -549.000; -417.000
385.465; -137.300; -655.000; -663.000
385.594;  285.700;  -53.000;  -44.000
385.724;  823.000; -868.000; -838.000
385.853;  258.100; -296.000; -270.000
385.982; 2686.200; -743.000; -787.000
386.112; 3807.800;-1052.000; -871.000
386.241;  287.900; -307.000; -312.000
386.371;   73.600; -174.000;  -87.000
386.500;   28.400; -825.000; -789.000
386.629;   41.500; -874.000; -817.000
386.759;  146.600;  -43.000;   68.000
386.888;   61.500; -170.000; -250.000
387.017; -136.900; -648.000; -620.000
387.147; -148.000; -771.000; -798.000
387.276;   12.800; -410.000; -397.000
387.405;   53.500; -398.000; -342.000
387.535;  -47.500; -452.000; -361.000
387.664;  -74.900; -692.000; -620.000
387.793;  153.100; -198.000; -113.000
387.922;  991.300;  255.000;  200.000
388.052;   93.100; -576.000; -423.000
388.181;   82.700; -342.000; -472.000
388.310;   34.400; -889.000; -710.000
388.439;  -44.900; -749.000; -742.000
388.568;  419.500;  365.000;  244.000
388.697; 2001.600; -756.000; -653.000
388.826;  387.900; -768.000; -666.000
388.956;  159.000; -285.000; -307.000
389.085;  -11.200; -347.000; -287.000
389.214; -167.200; -842.000; -872.000
389.343;  -72.600; -645.000; -413.000
389.472;  809.200;  126.000;  149.000
389.601; 1016.600;   91.000;    0.000
389.730;   62.700; -568.000; -687.000
389.859;  198.800;  226.000;   46.000
389.988;  418.800; -423.000; -408.000
390.117;  303.300; -168.000; -146.000
390.246;   24.200; -331.000; -320.000
390.375;  221.900; -673.000; -626.000
390.504;  -90.700; -703.000; -621.000
390.633; -147.000; -672.000; -726.000
390.761;  -97.400; -732.000; -645.000
390.890;   76.200;   -4.000; -130.000
391.019;    6.000; -421.000; -441.000
391.148; -211.300; -826.000; -855.000
391.277; -118.400; -576.000; -493.000
391.406; -107.400; -821.000; -805.000
391.534;   82.400;  574.000; -301.000
391.663;  -67.800; -583.000; -645.000
391.792; -114.100; -673.000; -701.000
391.921;  218.000;   -3.000;   15.000
392.050;  402.300; -287.000; -228.000
392.178;   -9.600;-1206.000;-1061.000
392.307;  294.800; -758.000; -712.000
392.436;  122.000; -427.000; -641.000
392.564;  105.700;  166.000;   -6.000
392.693; -149.400; -860.000; -682.000
392.822;  442.600; -529.000; -534.000
392.950;  195.400; -880.000; -714.000
393.079;  635.000; -188.000; -328.000
393.208;   77.700; -488.000; -511.000
393.336;   41.600; -170.000; -145.000
393.465;  -20.800; -317.000; -199.000
393.593;   75.500;   62.000;   79.000
393.722; -246.900;-1121.000; -916.000
393.850;  -29.200; -188.000;  -61.000
393.979; -280.700; -926.000; -805.000
394.107;  -99.400; -517.000; -537.000
394.236;  -11.400; -570.000; -507.000
394.364;  610.500;  383.000;  206.000
394.493;  949.000; -911.000; -767.000
394.621;   17.500; -955.000; -916.000
394.750; 1321.600; -873.000; -923.000
394.878; 5389.900; -247.000; -149.000
395.007; 6832.300; -721.000; -807.000
395.135;  497.200; -790.000; -721.000
395.263; -172.500;-1038.000;-1040.000
395.392;   56.900;  -25.000; -107.000
395.520; -233.000; -818.000; -679.000
395.648; -136.200; -865.000; -915.000
395.777;  -16.500; -366.000; -405.000
395.905;  -56.200; -449.000; -564.000
396.033;  119.100;  217.000;  172.000
396.162; 1637.600; -399.000; -453.000
396.290; 1403.200;  -17.000;   -2.000
396.418;  221.800; -555.000; -514.000
396.546; -112.100; -571.000; -466.000
396.674; -165.600; -850.000; -878.000
396.803;   68.400;  -72.000;  -23.000
396.931;  196.700; -179.000; -199.000
397.059;  106.600;-1026.000; -989.000
397.187; -183.200;-1026.000; -975.000
397.315; -222.800; -884.000; -649.000
397.443; -160.100; -592.000; -443.000
397.572; -118.700; -578.000; -424.000
397.700;    6.100; -607.000; -614.000
397.828;   97.000;  120.000;  -90.000
397.956;  -38.000; -508.000; -478.000
398.084; -129.400; -767.000; -626.000
398.212;  143.400;  137.000;  124.000
398.340;   68.400;  -56.000;  159.000
398.468;  102.900; -390.000; -169.000
398.596; -231.800; -993.000; -953.000
398.724; -198.800; -762.000; -767.000
398.852; -268.100;-1024.000; -976.000
398.980;  -75.100; -560.000; -560.000
399.108;  -28.000; -982.000; -735.000
399.236;   89.700;   13.000;    8.000
399.363;   47.700;  222.000;  196.000
399.491; -121.000; -404.000; -398.000
399.619; -171.600; -829.000; -800.000
399.747; -169.200; -859.000; -771.000
399.875;  216.000;  220.000;  234.000
400.003;  -68.600; -359.000; -284.000
400.130; -134.900; -421.000; -341.000
400.258;   -0.700;  -83.000;   38.000
400.386;  -49.300; -352.000; -168.000
400.514;  -52.700; -526.000; -587.000
400.641; -128.700; -928.000; -802.000
400.769; -277.900; -979.000; -888.000
400.897; -141.100; -838.000; -793.000
401.025;    4.800; -166.000; -152.000
401.152;   70.800;  220.000;   38.000
401.280;  -91.900; -430.000; -429.000
401.408; -180.600; -712.000; -576.000
401.535; -151.200; -735.000; -758.000
401.663; -345.800;-1134.000;-1054.000
401.790; -126.100; -514.000; -525.000
401.918;  127.000;  436.000;  405.000
402.046;    9.400;  134.000;  122.000
402.173;  -18.400;  -18.000;    7.000
402.301;  -89.000; -519.000; -397.000
402.428;  128.900;  528.000;  383.000
402.556; -257.900;-1188.000; -913.000
402.683;   10.200;  -20.000;   -1.000
402.811;    0.200;  -37.000; -206.000
402.938;   28.500;   20.000;   27.000
403.066;  406.500; -574.000; -558.000
403.193;  601.100;  299.000;  239.000
403.321;  515.400; -396.000; -574.000
403.448;  665.000;   83.000;   27.000
403.575;  282.600;  -90.000;  -46.000
403.703; -135.200; -732.000; -557.000
403.830; -112.900; -531.000; -496.000
403.957; -232.100;-1117.000;-1023.000
404.085;   78.000;  -61.000; -172.000
404.212;  265.200;  -50.000;   63.000
404.339;  501.200; -566.000; -306.000
404.467;10724.300; -612.000; -524.000
404.594; 6565.900; -287.000; -227.000
404.721; 1544.200; -869.000; -764.000
404.848;  203.200; -113.000; -202.000
404.976; -162.700; -856.000; -783.000
405.103;    5.200;  -14.000;  -82.000
405.230;   48.500;  190.000;  226.000
405.357;  115.900;  117.000;   44.000
405.484;  510.200;  -49.000;    5.000
405.612;  105.500; -548.000; -563.000
405.739;  -87.600; -488.000; -243.000
405.866;  220.900;  669.000;  385.000
405.993;  -15.900; -398.000; -102.000
406.120; -257.100; -801.000; -887.000
406.247;  -35.900; -323.000; -342.000
406.374;  933.900;  540.000;  629.000
406.501;  200.000; -632.000; -702.000
406.628; -133.100; -621.000; -589.000
406.755; -158.700; -803.000; -620.000
406.882;    6.600; -228.000; -277.000
407.009; -146.500; -719.000; -628.000
407.136;  153.700; -480.000; -401.000
407.263;  292.900; -939.000; -829.000
407.390; -104.700; -692.000; -614.000
407.517; -294.000;-1139.000;-1187.000
407.644;  -62.900; -332.000; -256.000
407.771; -209.600; -249.000; -287.000
407.898;   95.000;  168.000;  328.000
408.025;  -94.300; -421.000; -313.000
408.151;   67.000;   82.000;  153.000
408.278;  -38.800; -267.000; -216.000
408.405; -164.800; -931.000; -899.000
408.532;  -91.100; -549.000; -542.000
408.659; -175.500; -677.000; -648.000
408.785; -385.800;-1298.000;-1170.000
408.912;  -72.300; -412.000; -296.000
409.039; -164.200; -610.000; -686.000
409.166; -195.800; -591.000; -555.000
409.292; -152.900; -571.000; -534.000
409.419; -209.400; -665.000; -649.000
409.546;  -85.400; -431.000; -192.000
409.672; -165.800; -713.000; -545.000
409.799;   12.000;  -36.000;   34.000
409.926;    0.000; -180.000; -179.000
410.052; -314.900;-1127.000;-1091.000
410.179;  -80.200; -368.000; -392.000
410.305; -125.500; -375.000; -493.000
410.432;  -19.600; -220.000; -333.000
410.558; -124.500; -305.000; -380.000
410.685; -157.800; -688.000; -431.000
410.812; -173.200; -409.000; -588.000
410.938; -244.600; -964.000; -808.000
411.065; -170.000; -671.000; -645.000
411.191;   26.100; -189.000; -174.000
411.317; -188.700; -823.000; -742.000
411.444;  -85.700; -317.000; -246.000
411.570;  -93.800; -339.000; -294.000
411.697; -208.600; -758.000; -752.000
411.823; -304.300; -989.000; -999.000
411.949;  -17.200;  -56.000;   17.000
412.076; -153.000; -539.000; -519.000
412.202; -165.000; -758.000; -757.000
412.329; -211.000; -798.000; -752.000
412.455; -188.900; -821.000; -657.000
412.581;   14.800;  -15.000;  172.000
412.707;  -82.000; -540.000; -457.000
412.834;   73.100;  156.000;  219.000
412.960; -117.000; -785.000; -784.000
413.086; -154.100; -743.000; -701.000
413.212;  372.900;  604.000;  578.000
413.339;  -83.500; -685.000; -701.000
413.465;   58.500; -364.000; -310.000
413.591; -128.400; -757.000; -474.000
413.717;  -89.900; -358.000; -366.000
413.843; -225.600; -839.000; -861.000
413.969;  -75.300;  -47.000; -292.000
414.096; -179.100; -679.000; -679.000
414.222;   36.700;  -33.000;   85.000
414.348;  -15.700; -652.000; -385.000
414.474;  229.100;   38.000;  -52.000
414.600;   33.200; -126.000; -144.000
414.726;  -12.600;  -96.000;  -55.000
414.852;  -99.800; -365.000; -342.000
414.978;  128.500;  104.000;  -18.000
415.104;  153.200;   38.000;   80.000
415.230;   76.300; -329.000; -330.000
415.356;   88.200; -409.000; -514.000
415.482;  427.600;   13.000;  -35.000
415.608;  530.600; -247.000; -323.000
415.734; 1865.600;   67.000;   38.000
415.860;37837.100; -875.000; -767.000
415.986;24326.000; -685.000; -607.000
416.111; 1990.500; -798.000; -652.000
416.237;  435.400; -424.000; -571.000
416.363; 2208.700; -765.000; -733.000
416.489; 7374.000; -324.000; -251.000
416.615;  729.900; -707.000; -742.000
416.741;  -45.500; -677.000; -784.000
416.866; -146.800; -673.000; -736.000
416.992; -187.900; -801.000; -818.000
417.118;    9.000;  -41.000;  -80.000
417.244;  -98.800; -798.000; -531.000
417.369; -116.500; -801.000; -612.000
417.495;   40.300; -325.000; -254.000
417.621; -104.700;-1015.000; -803.000
417.746;   21.300; -579.000; -572.000
417.872;  127.000; -254.000; -144.000
417.998;  143.700; -515.000; -530.000
418.123; 2147.500;-1073.000; -845.000
418.249; 9589.000; -512.000; -601.000
418.374; 1164.900; -916.000; -824.000
418.500;  224.200; -383.000; -482.000
418.626;  256.100;   70.000;  -59.000
418.751;  263.400; -549.000; -448.000
418.877;  389.100; -637.000; -643.000
419.002; 3634.700; -688.000; -560.000
419.128;22604.300; -930.000; -721.000
419.253; 4897.500; -967.000; -837.000
419.379;  684.100; -391.000; -338.000
419.504;  767.600;  325.000;  415.000
419.629;  914.400; -393.000; -212.000
419.755; 7101.400; -317.000; -254.000
419.880;37621.100;  -98.000;   67.000
420.006;21135.000; -280.000; -221.000
420.131;50967.200; -662.000; -775.000
420.256; 6534.100; -315.000; -316.000
420.382;  931.500; -665.000; -687.000
420.507;  116.400; -649.000; -778.000
420.632;  290.500; -337.000; -339.000
420.758;  490.400; -251.000; -425.000
420.883; -123.000; -876.000; -672.000
421.008; -149.000; -775.000; -619.000
421.133; -109.000; -509.000; -467.000
421.259;  -36.100; -325.000; -259.000
421.384; -182.500; -834.000; -693.000
421.509;  -59.700;-1052.000; -862.000
421.634; 2230.900; -936.000; -820.000
421.759;  908.400; -359.000; -327.000
421.885;  -27.700; -717.000; -656.000
422.010; -113.800; -673.000; -542.000
422.135; -268.600; -695.000; -727.000
422.260;  113.300;  340.000;  280.000
422.385;  -25.300;   12.000;  -98.000
422.510;   90.700;  151.000;  -26.000
422.635;  120.300;  -87.000;  -43.000
422.760;  233.600; -766.000; -791.000
422.885;  153.000;  -57.000;  -80.000
423.010;    1.000; -112.000; -169.000
423.135; -141.900; -481.000; -561.000
423.260;   27.600; -150.000; -245.000
423.385;  187.600;  476.000;  222.000
423.510;   97.100;   71.000;  -22.000
423.635;  228.600;  133.000;   45.000
423.760;  166.300;  383.000;  328.000
423.885;  168.800;  336.000;  391.000
424.010;   72.900;  -68.000;  -13.000
424.135;   32.900;    5.000;  -33.000
424.259; -124.300; -654.000; -457.000
424.384;  -74.000; -279.000; -272.000
424.509;    4.100; -260.000; -186.000
424.634; -156.400; -761.000; -623.000
424.759;  -13.100; -688.000; -544.000
424.883;   24.200; -506.000; -527.000
425.008;  387.800; -502.000; -410.000
425.133; 3762.500; -679.000; -653.000
425.258; 1540.300; -517.000; -381.000
425.382; 2003.400; -867.000; -774.000
425.507; 4637.300; -487.000; -543.000
425.632;  721.900; -802.000; -663.000
425.756;  854.900; -256.000; -146.000
425.881;12757.900; -831.000; -857.000
426.006;30493.400; -604.000; -355.000
426.130; 4268.400; -696.000; -508.000
426.255;  637.000; -611.000; -491.000
426.379;  294.600; -189.000; -577.000
426.504;  812.500;  660.000;  544.000
426.629; 7712.900; -519.000; -466.000
426.753; 4681.700;   64.000;  -46.000
426.878;  555.200; -252.000; -288.000
427.002;  364.500; -651.000; -668.000
427.127; 3223.700;  -35.000; -158.000
427.251;20864.400;  372.000;  401.000
427.375; 5270.100; -191.000; -173.000
427.500; 4201.700; -616.000; -610.000
427.624; 1290.900; -234.000; -400.000
427.749;  226.800; -216.000; -225.000
427.873;  -43.200; -499.000; -412.000
427.997;  -25.300; -222.000; -230.000
428.122;  216.200;  795.000;  703.000
428.246;  237.200;  433.000;  434.000
428.371; -205.800; -869.000; -773.000
428.495; -141.900; -624.000; -646.000
428.619;   35.400; -186.000; -117.000
428.743;  120.300;   65.000;  132.000
428.868;   96.700; -732.000; -643.000
428.992; 2625.700; -219.000; -326.000
429.116; 1029.800; -329.000; -357.000
429.240;  582.700;  419.000;  426.000
429.365;   -3.700; -454.000; -574.000
429.489;  -28.300; -638.000; -647.000
429.613;  103.300; -236.000; -177.000
429.737;  102.400; -563.000; -432.000
429.861;  589.400; -247.000; -133.000
429.985;10864.000; -425.000; -305.000
430.109;10370.400; -770.000; -908.000
430.234; 1201.200;   76.000;  -50.000
430.358;  157.300; -250.000; -160.000
430.482;  -91.700; -672.000; -564.000
430.606;  -62.500; -655.000; -375.000
430.730;   94.000; -437.000; -388.000
430.854;  272.400; -909.000; -835.000
430.978; -101.800; -795.000; -764.000
431.102;  -93.500; -499.000; -422.000
431.226; -151.500; -874.000; -815.000
431.350;  156.600;  345.000;  422.000
431.474;  -86.300; -661.000; -373.000
431.597; -247.400;-1060.000; -848.000
431.721; -106.900; -276.000; -267.000
431.845; -215.700; -704.000; -472.000
431.969; -118.400; -304.000; -349.000
432.093; -103.000; -395.000; -317.000
432.217;   20.700;   32.000;   82.000
432.341; -130.800; -523.000; -518.000
432.464;   82.700;   96.000;   40.000
432.588;  462.900; -401.000; -329.000
432.712;  185.300;  -52.000;  -52.000
432.836;  133.600;  213.000;  263.000
432.959;   -7.600; -372.000; -311.000
433.083;  177.700;   11.000;    2.000
433.207;  769.900;  285.000;  930.000
433.330; 9770.500; -391.000; -200.000
433.454;10614.900; -654.000; -638.000
433.578; 6393.100;  583.000;  278.000
433.701; 1053.500; -623.000; -675.000
433.825;  288.500; -292.000; -299.000
433.949;  420.900;   28.000;  -72.000
434.072;  162.600; -410.000; -323.000
434.196;   24.200; -309.000; -117.000
434.319; 7874.700;25482.000;25124.000
434.443; 1488.300; -656.000; -603.000
434.566; 4739.000;  281.000;   62.000
434.690;  739.000; -637.000; -383.000
434.813;  150.500; -251.000; -173.000
434.937;  -96.800; -569.000; -696.000
435.060;  -27.600; -423.000; -332.000
435.184;  629.100; -492.000; -217.000
435.307;  335.400;  159.000;  102.000
435.431;   48.300;  -40.000;   24.000
435.554;  -91.700; -399.000; -240.000
435.677; -139.500; -350.000; -258.000
435.801;  -28.000;  -25.000;   49.000
435.924;   47.500;    1.000;  -67.000
436.048; -193.500;-1019.000; -732.000
436.171;  -81.000; -240.000;  -66.000
436.294;   13.800; -248.000; -229.000
436.417;  200.200; -963.000; -849.000
436.541; -126.800; -814.000; -840.000
436.664;  -35.400; -242.000; -316.000
436.787;   29.100;   13.000;  113.000
436.910; -171.900; -792.000; -422.000
437.034;   80.200;  142.000;  143.000
437.157;  172.700;  -11.000;    0.000
437.280;  -28.600; -392.000; -292.000
437.403; -126.500; -982.000; -869.000
437.526; 1373.200; -903.000; -865.000
437.649; 4195.200; -505.000; -332.000
437.772;  572.800; -692.000; -540.000
437.896;  280.600;  700.000;  544.000
438.019; -128.800; -758.000; -503.000
438.142; -123.500; -596.000; -506.000
438.265;   29.000; -639.000; -670.000
438.388; 1099.700; -520.000; -410.000
438.511;  211.100; -597.000; -394.000
438.634;  -76.400; -247.000; -125.000
438.757; -221.000; -693.000; -619.000
438.880;   32.800;  -34.000;  -57.000
439.003; -112.900; -417.000; -437.000
439.126;  -91.300; -287.000; -167.000
439.248;  -38.400;  -98.000; -139.000
439.371;    4.800;    9.000;  -53.000
439.494;  123.700;  510.000;  439.000
439.617;  -27.300;   65.000;  -88.000
439.740; -310.200; -968.000; -816.000
439.863; -218.800; -755.000; -595.000
439.986; -176.500; -476.000; -431.000
440.108;  -40.500; -161.000; -112.000
440.231; -246.700; -950.000; -836.000
440.354;  -24.800;  -64.000; -150.000
440.477;   99.100; -566.000; -542.000
440.599;   44.000; -200.000; -225.000
440.722; -193.800; -709.000; -586.000
440.845;  225.300;  751.000;  928.000
440.968; -144.600; -415.000; -311.000
441.090;  -50.500; -199.000;  -33.000
441.213; -259.400;-1021.000; -825.000
441.336;  -65.000; -159.000;   -5.000
441.458;  -89.300; -549.000; -396.000
441.581; -146.100; -628.000; -629.000
441.703;  -81.100; -152.000;   13.000
441.826; -164.100; -557.000; -400.000
441.948;  -58.000;   56.000;   51.000
442.071;  152.500;  555.000;  424.000
442.193; -162.000; -531.000; -485.000
442.316;  115.900;  152.000;   97.000
442.438;  183.000; -233.000;  -10.000
442.561;  226.900;  272.000;  262.000
442.683; 1175.200; -809.000; -522.000
442.806; 2138.500;   -8.000;   74.000
442.928;   56.900; -859.000; -604.000
443.051; -107.100; -577.000; -373.000
443.173; -130.800; -341.000; -339.000
443.295; -117.700; -263.000; -371.000
443.418;  -65.800; -321.000;  -29.000
443.540;   54.200; -106.000;   -4.000
443.662; -179.800; -563.000; -465.000
443.785;   37.500;  335.000;  199.000
443.907; -206.900; -362.000; -208.000
444.029; -226.400; -767.000; -494.000
444.152; -237.200; -644.000; -554.000
444.274;  -33.700;  -18.000;  -24.000
444.396; -148.100; -461.000; -221.000
444.518; -222.800; -691.000; -454.000
444.640; -129.900; -268.000; -111.000
444.763;   36.000;  388.000;  249.000
444.885; -153.300; -432.000; -392.000
445.007;   -4.100;   35.000;   86.000
445.129; -153.700; -610.000; -515.000
445.251; -166.100; -372.000; -439.000
445.373; -233.900; -537.000; -386.000
445.495;   62.500;  242.000;  350.000
445.617;  187.200;  853.000;  753.000
445.739;  -67.500; -215.000;  -97.000
445.861;  -26.300; -245.000; -112.000
445.984;  -28.000; -267.000; -101.000
446.105;  460.300; -418.000; -251.000
446.227; 1160.600; -176.000;  -19.000
446.349;    1.900; -358.000; -249.000
446.471; -124.500; -615.000; -448.000
446.593;  -66.700; -316.000;   19.000
446.715;   75.000;  -67.000;   41.000
446.837;  210.900;  697.000;  832.000
446.959; -132.200; -457.000; -478.000
447.081; -196.500; -628.000; -518.000
447.203;  195.400;  862.000;  834.000
447.325;  -95.400; -270.000;   42.000
447.446;   85.900;  286.000;  530.000
447.568; -261.100; -921.000; -803.000
447.690; -134.200; -236.000; -245.000
447.812; -235.300; -798.000; -519.000
447.933;   10.200;  155.000;  127.000
448.055; -101.200; -306.000; -261.000
448.177;  353.200;   31.000;   79.000
448.299;  164.500; -935.000; -727.000
448.420;  106.600;  -25.000;  159.000
448.542;  -25.600;   -3.000;   33.000
448.664;   20.400;  109.000;  322.000
448.785;  -10.600;  265.000;   83.000
448.907; -100.300; -614.000; -353.000
449.028;  -49.700; -771.000; -471.000
449.150;  212.600;  492.000;  589.000
449.272; -312.900;-1044.000; -913.000
449.393;  138.700;  612.000;  694.000
449.515; -221.000; -634.000; -581.000
449.636;  -51.100; -264.000; -155.000
449.758;  230.900;  763.000;  622.000
449.879; -164.300; -498.000; -396.000
450.001;  -98.600; -149.000;  -49.000
450.122;   -6.800;  -95.000;  162.000
450.244;   43.500;   37.000;  364.000
450.365; -144.200; -495.000; -301.000
450.486;  -11.400;   80.000;  268.000
450.608;   82.900;  393.000;  326.000
450.729;  206.200;  578.000;  645.000
450.850;   72.500; -574.000; -466.000
450.972; 1506.100; -552.000; -389.000
451.093; 9167.400;  190.000;  588.000
451.214; 3426.200; -516.000; -337.000
451.336;  721.900;  773.000;  579.000
451.457;  159.800;  264.000;  393.000
451.578;  -38.500; -118.000;  -74.000
451.699; -178.900; -546.000; -540.000
451.821;  -55.200; -284.000;  -50.000
451.942;   83.800;  278.000;  285.000
452.063;  126.800;  228.000;  419.000
452.184; 1171.000;  -54.000;  -49.000
452.305; 1996.600;  103.000;  170.000
452.427;  198.000; -549.000; -301.000
452.548;   27.300;   23.000;   79.000
452.669;  -18.100; -257.000;  -89.000
452.790;    6.500;    3.000;  -18.000
452.911;   54.400;  195.000;  259.000
453.032;  -59.800; -289.000;  -60.000
453.153;   -2.200;  -29.000;   81.000
453.274;  197.800;  737.000;  868.000
453.395;  -22.000;  -51.000;  175.000
453.516;  272.300; 1317.000; 1388.000
453.637;  -69.400; -205.000; -150.000
453.758;  -44.800;   15.000;   69.000
453.879; -195.700; -462.000; -250.000
454.000;  252.600; 1086.000;  948.000
454.121; -193.400; -554.000; -326.000
454.242; -159.700; -599.000; -383.000
454.362;  -10.000;  -99.000;  114.000
454.483;  -17.400; -309.000; -229.000
454.604;  180.900;  512.000;  580.000
454.725; -197.300; -627.000; -555.000
454.846; -177.400; -474.000; -406.000
454.967;   52.800;  230.000;  539.000
455.087;  -36.600;  179.000;  153.000
455.208;  132.900;  554.000;  856.000
455.329;  -69.700;  -22.000;   82.000
455.450;  116.100;  473.000;  633.000
455.570; -132.700; -234.000; -211.000
455.691;  -22.700;  201.000;  407.000
455.812; -159.700; -270.000;  -92.000
455.932;  -64.200;  107.000;  -97.000
456.053; -141.200;   36.000;   24.000
456.173; -175.700; -433.000; -355.000
456.294; -195.400; -476.000; -303.000
456.415;  -70.400;  -73.000;   70.000
456.535;   25.800;  297.000;  273.000
456.656;  -10.200;  132.000;  240.000
456.776;  -75.600;    3.000;  298.000
456.897;   92.000;  308.000;  513.000
457.017;  -73.000; -153.000;   -3.000
457.138; -143.200; -402.000; -249.000
457.258;   33.200;  263.000;  224.000
457.379;   28.500;  509.000;  521.000
457.499;   53.200;  443.000;  432.000
457.620; -180.900; -407.000; -231.000
457.740; -152.100; -132.000;  -11.000
457.860;  -39.500;   87.000;   44.000
457.981;  -23.100;  132.000;  124.000
458.101;  -66.500;  -89.000;   40.000
458.221;   30.000;  336.000;  402.000
458.342;  -47.600;   -4.000;  -37.000
458.462;  100.400;  617.000;  352.000
458.582;   -8.700; -302.000; -294.000
458.703;   73.300;  303.000;  154.000
458.823;    5.400;   22.000;  163.000
458.943;  131.600;  341.000;  467.000
459.063;   26.200; 1124.000;  192.000
459.183;  -10.300;  328.000;  313.000
459.304;   83.800;  315.000;  517.000
459.424;  -75.200; -246.000;  -89.000
459.544;  727.000;  388.000;  764.000
459.664; 1580.400;  499.000;  506.000
459.784;  569.400; 1004.000; 1175.000
459.904;  185.000;  867.000;  744.000
460.024;  230.100;  867.000;  684.000
460.144;   73.400;  449.000;  554.000
460.264;   44.500;  515.000;  327.000
460.385; -114.200; -145.000; -119.000
460.505;  145.100;  905.000;  858.000
460.625; -113.200;  -17.000;  -68.000
460.745;   23.000;  396.000;  541.000
460.864;  -30.500;  153.000;  469.000
460.984;  129.700;  499.000;  573.000
461.104;  352.300; 1656.000; 1775.000
461.224;  105.900;  657.000;  650.000
461.344;  -25.300;  431.000;  360.000
461.464;   -2.400;  258.000;  513.000
461.584;   58.100;  283.000;  466.000
461.704;  -50.500;   58.000;  108.000
461.824;  -58.500;  238.000;  259.000
461.943;  -48.200;  191.000;  130.000
462.063;  -65.200;    2.000;  324.000
462.183;  169.300;  639.000;  717.000
462.303;  309.200; 1678.000; 1230.000
462.422;  131.600;  781.000;  840.000
462.542;  -27.200;  271.000;  391.000
462.662;  125.100;  353.000;  380.000
462.782;  539.800;  833.000;  572.000
462.901;  948.500;  545.000;  717.000
463.021;  605.300; 1702.000; 1638.000
463.141;   61.900;  337.000;  770.000
463.260;   48.900;  614.000;  474.000
463.380;   70.400;  902.000;  884.000
463.499;   -1.600;  342.000;  332.000
463.619;    0.500;  581.000;  559.000
463.738;  283.100; 1644.000;  903.000
463.858;   54.800;  657.000;  811.000
463.978;   20.600;  542.000;  396.000
464.097;  172.900;  921.000; 1114.000
464.217;  294.800; 1196.000; 1143.000
464.336;  313.200; 1068.000; 1130.000
464.455;  -36.900;  328.000;  659.000
464.575;  145.300;  597.000;  602.000
464.694;  393.300; 1204.000; 1179.000
464.814;  317.800; 1190.000; 1138.000
464.933;  247.400; 1095.000; 1027.000
465.052;  270.400; 1412.000; 1054.000
465.172;  246.500;  922.000;  799.000
465.291;  379.500; 1376.000; 1320.000
465.410;   73.600;  462.000;  735.000
465.530;  245.700; 1355.000; 1310.000
465.649;  219.400; 1209.000; 1273.000
465.768;  363.900; 1673.000; 1508.000
465.888;  196.600;  941.000; 1174.000
466.007;  250.500; 1335.000; 1440.000
466.126;   27.900;  721.000;  641.000
466.245;  181.800; 1176.000; 1187.000
466.364;  117.100;  950.000; 1060.000
466.484;  188.000; 1024.000; 1213.000
466.603;  155.700; 1101.000; 1222.000
466.722;  312.400; 1490.000; 1769.000
466.841;  252.600; 1151.000; 1401.000
466.960;  133.200; 1069.000;  972.000
467.079;  382.200; 1971.000; 1786.000
467.198;  123.300; 1238.000; 1181.000
467.317;  255.500; 1768.000; 1162.000
467.436;  236.500; 1709.000; 1261.000
467.555;  380.300; 1796.000; 1746.000
467.674;  205.900; 1227.000; 1329.000
467.793;  189.700; 1376.000; 1374.000
467.912;  274.100; 1658.000; 1539.000
468.031;  373.800; 2038.000; 1930.000
468.150;  368.800; 1842.000; 1837.000
468.269;  496.300; 2313.000; 2090.000
468.388;  490.500; 2168.000; 2339.000
468.507;  572.500; 2884.000; 2903.000
468.626;  650.300; 2555.000; 2541.000
468.744;  381.000; 2018.000; 2174.000
468.863;  513.800; 2312.000; 2523.000
468.982;  275.800; 1503.000; 1555.000
469.101;  526.300; 2788.000; 2692.000
469.220;  375.900; 2333.000; 2176.000
469.338;  561.300; 2935.000; 3051.000
469.457;  462.400; 2719.000; 2545.000
469.576;  846.100; 3953.000; 3784.000
469.695;  586.600; 2877.000; 3066.000
469.813;  946.900; 4148.000; 4192.000
469.932;  897.500; 4255.000; 4485.000
470.051;  923.500; 4075.000; 4161.000
470.169; 1770.200; 4470.000; 4338.000
470.288; 2779.000; 4700.000; 4809.000
470.406; 1614.800; 5059.000; 5194.000
470.525; 1311.000; 6101.000; 5787.000
470.644; 1368.300; 6847.000; 6794.000
470.762; 1769.900; 8397.000; 7873.000
470.881; 1959.200; 8651.000; 8464.000
470.999; 2138.700; 9685.000; 9151.000
471.118; 2320.700;11174.000;10711.000

