
Integration time [ms]: 100.000
Averaging Nr. [scans]: 40
Smoothing Nr. [pixels]: 0
Data measured with spectrometer [name]: 2101012U2
Wave   ;Sample   ;Dark     ;Reference
[nm]   ;[counts] ;[counts] ;[counts] 

197.733;   53.500;  516.000;  404.000
197.879;  -76.950; -610.000; -634.000
198.025;  -43.825; -475.000; -420.000
198.171;  -83.175; -602.000; -612.000
198.317;  -26.375; -401.000; -316.000
198.463;  -77.250; -655.000; -404.000
198.609;   26.850;  181.000; -137.000
198.755;  -84.725; -644.000; -410.000
198.901;  -72.775; -505.000; -424.000
199.047;  -66.875; -615.000; -488.000
199.193;  -29.625; -230.000; -468.000
199.339;  -38.275; -222.000; -369.000
199.485;   35.200;  330.000;  271.000
199.631;    3.975;  227.000;  310.000
199.777;  -54.075; -466.000; -398.000
199.923;  -82.850; -610.000; -424.000
200.069;   -2.325; -141.000;  -58.000
200.215;   51.025;  128.000;  453.000
200.361;   44.100;  243.000;  477.000
200.507;  -63.725; -600.000; -373.000
200.653;  -12.775; -371.000; -194.000
200.798;  -44.125; -215.000; -125.000
200.944;    2.550; -146.000;  -41.000
201.090;   30.150;   61.000;  222.000
201.236;   16.575; -116.000; -158.000
201.382;   99.750;  874.000;  903.000
201.528;   -5.800;  -58.000;  -48.000
201.674;  -51.150; -386.000; -293.000
201.819;  -59.500; -540.000; -439.000
201.965;  -74.225; -699.000; -447.000
202.111;  -16.950; -273.000; -226.000
202.257;  -42.000; -250.000; -238.000
202.402;    9.725;   13.000;  -36.000
202.548;  -45.175; -169.000; -116.000
202.694;   69.300;  410.000; -183.000
202.840;  -80.175; -603.000; -531.000
202.985;  -58.225; -681.000; -639.000
203.131; -109.675; -832.000; -666.000
203.277;  -19.925; -199.000; -262.000
203.423;  -52.475; -434.000; -520.000
203.568;  -36.075; -462.000; -237.000
203.714;  -55.475; -535.000; -542.000
203.860;  -81.725; -682.000; -641.000
204.005;    9.850;  112.000;  167.000
204.151;   82.800;  561.000;  556.000
204.296;  -39.700; -354.000; -221.000
204.442;  -73.325; -600.000; -547.000
204.588;  -83.025; -592.000; -579.000
204.733;    8.375;  178.000;  168.000
204.879; -115.500;-1018.000; -822.000
205.025;   15.475;  -99.000;  126.000
205.170;    0.300;  -17.000;   94.000
205.316;   86.425;  438.000;  661.000
205.461;  -74.275; -698.000; -554.000
205.607;   72.325;  609.000;  665.000
205.752;  -81.550; -626.000; -551.000
205.898;  -49.025; -501.000; -391.000
206.043;  -66.275; -578.000; -506.000
206.189;  -35.725; -243.000; -285.000
206.334;   68.800;  554.000;  606.000
206.480;   61.675;  409.000;  239.000
206.625;  -80.525; -529.000; -552.000
206.771;  -44.425; -451.000; -373.000
206.916;  -39.375; -210.000; -537.000
207.062;  -69.125; -545.000; -591.000
207.207;  -57.000; -546.000; -443.000
207.353;   37.000;  185.000;  460.000
207.498;    1.750;  196.000;   85.000
207.643;  -43.750; -501.000; -370.000
207.789; -117.100;-1069.000; -910.000
207.934;  -84.050; -665.000; -713.000
208.080;  -21.750; -154.000;   66.000
208.225;    6.275;  -22.000;  -57.000
208.370;  -81.100; -727.000; -619.000
208.516;  -62.800; -741.000; -487.000
208.661;  -46.625; -127.000;  -69.000
208.806;  -11.400; -165.000; -171.000
208.952; -123.600;-1044.000; -731.000
209.097;   71.725;  378.000;  349.000
209.242;  -49.275; -307.000; -382.000
209.387;   62.000;  392.000;  350.000
209.533;  -59.850; -321.000; -350.000
209.678;   67.025;  472.000;  543.000
209.823;  -66.775; -408.000; -310.000
209.969;  -95.150; -860.000; -757.000
210.114; -115.925; -907.000; -719.000
210.259; -106.225; -939.000; -889.000
210.404;  -20.600; -171.000;  103.000
210.549;   20.400;  108.000;    3.000
210.695;  -28.950;   -3.000;  -95.000
210.840;   37.425;   94.000;   67.000
210.985;  -68.075; -484.000; -303.000
211.130;   63.375;  268.000;  406.000
211.275;   25.175;  207.000;  199.000
211.420;  -41.850; -300.000; -289.000
211.566;  -79.875; -536.000; -489.000
211.711;    9.225;  218.000;  157.000
211.856;  -58.475; -545.000; -519.000
212.001;   15.225;  151.000;   44.000
212.146;   19.075;  153.000;   49.000
212.291;  -33.175; -210.000; -186.000
212.436;  -37.400; -280.000;   -6.000
212.581;  -80.025; -685.000; -653.000
212.726;  -82.750; -487.000; -538.000
212.871;  -54.875; -552.000; -217.000
213.016; -138.200;-1172.000;-1029.000
213.161;   49.925;  406.000;  291.000
213.306;  -84.125; -435.000; -577.000
213.451;  -88.075; -778.000; -689.000
213.596;  -54.125; -455.000; -347.000
213.741;  -47.450; -448.000; -538.000
213.886;  -75.050; -498.000; -517.000
214.031;  -20.900; -294.000; -124.000
214.176;  -59.200; -408.000; -341.000
214.321;  -18.050; -296.000; -157.000
214.466;  -36.425; -163.000;  -43.000
214.611;   -1.700;  -61.000;  -10.000
214.756; -118.825; -948.000; -858.000
214.901;  -20.275; -388.000; -226.000
215.046; -127.600; -797.000; -825.000
215.191;   11.375;  128.000;   35.000
215.336;  -11.925; -157.000;  -19.000
215.480;  -65.375; -684.000; -505.000
215.625;  -32.800; -175.000;  -19.000
215.770;  -73.475; -757.000; -662.000
215.915;  -18.900;   -5.000;  -97.000
216.060;   -0.050; -113.000;  -21.000
216.205;  -96.900; -731.000; -779.000
216.349;  -68.100; -470.000; -533.000
216.494; -121.675; -939.000; -867.000
216.639; -112.600; -823.000; -888.000
216.784;  -87.675; -577.000; -525.000
216.929;   52.950;  392.000;  281.000
217.073;  -16.450; -244.000;  -31.000
217.218;   15.850;   78.000;  -47.000
217.363;  -86.525; -656.000; -618.000
217.507;  -94.625; -623.000; -588.000
217.652; -120.650; -845.000; -874.000
217.797;  -82.875; -708.000; -659.000
217.942; -104.900; -856.000; -720.000
218.086;   73.675;  608.000;  539.000
218.231;  -29.325; -174.000;  -26.000
218.376;  -35.275; -337.000; -229.000
218.520;  -21.775;  -41.000;   96.000
218.665;  -22.150; -338.000; -204.000
218.810;  -53.950; -275.000; -233.000
218.954;   13.025;  201.000;   35.000
219.099; -119.100; -713.000; -963.000
219.243;  -63.175; -589.000; -554.000
219.388;  -39.350; -264.000; -136.000
219.532;  -17.175; -116.000; -116.000
219.677;  -87.400; -564.000; -521.000
219.822;    4.475;   33.000;   89.000
219.966;    4.500;   17.000;  -99.000
220.111;  -26.900; -328.000;  -40.000
220.255; -107.075; -797.000; -750.000
220.400;  -15.550; -180.000; -146.000
220.544;  -71.350; -516.000; -450.000
220.689;  -44.750; -422.000; -451.000
220.833;  -25.575; -123.000;  -58.000
220.978;  -41.075; -393.000; -563.000
221.122;    0.200;  319.000;  307.000
221.267; -112.250; -906.000; -837.000
221.411;  -72.125; -478.000; -394.000
221.555;   -5.750; -104.000;  -23.000
221.700;  -45.775; -329.000; -222.000
221.844;   35.950;  255.000;  272.000
221.989;  -46.800; -328.000; -311.000
222.133;  -39.875; -289.000; -307.000
222.277;  -34.425;    5.000;   78.000
222.422;    8.500;  227.000;  113.000
222.566;  -31.050; -381.000; -214.000
222.711;  -57.900; -414.000; -479.000
222.855;  -85.650; -643.000; -586.000
222.999;  -77.650; -642.000; -717.000
223.144;  -35.150; -195.000; -194.000
223.288;   58.775;  423.000;  251.000
223.432;   13.775;  184.000;  230.000
223.576;    6.825;  152.000;  -21.000
223.721;   12.775;  364.000;  273.000
223.865;  -52.050; -472.000; -475.000
224.009;  246.850; 1673.000; 1631.000
224.153;  -79.650; -660.000; -671.000
224.298;  -60.625; -531.000; -489.000
224.442;  -17.450;  -74.000;  -33.000
224.586;  -21.575; -169.000; -106.000
224.730; -106.425; -858.000; -670.000
224.875; -110.500; -739.000; -688.000
225.019;    1.200;  102.000;  188.000
225.163;   38.125;  208.000;  341.000
225.307;    8.225;   97.000;  -91.000
225.451;   29.500;  360.000;  481.000
225.595;   20.225;  264.000;  176.000
225.739;  -34.300; -170.000;  -94.000
225.884;    9.700;   86.000;    5.000
226.028; -110.075; -760.000; -626.000
226.172;  -29.925; -260.000; -273.000
226.316; -122.575; -941.000; -902.000
226.460;  -70.800; -645.000; -493.000
226.604;  -51.200; -406.000; -400.000
226.748;  -89.000; -836.000; -733.000
226.892;  -44.275; -227.000; -181.000
227.036;  -54.600; -537.000; -447.000
227.180;  -74.250; -551.000; -375.000
227.324;  -67.950; -561.000; -580.000
227.468; -128.950; -819.000; -717.000
227.612;    9.275;  242.000;  -28.000
227.756; -102.700; -845.000; -698.000
227.900;   36.575;  342.000;  441.000
228.044;  -55.475; -509.000; -290.000
228.188;   43.300;  448.000;  568.000
228.332;  -88.925; -546.000; -472.000
228.476;  -30.200; -223.000; -149.000
228.620;  -35.325; -210.000; -150.000
228.764;   56.825;  431.000;  349.000
228.908;  -29.250; -155.000;   30.000
229.052;  -46.775; -615.000; -528.000
229.195;  -28.175; -172.000;   13.000
229.339;  -21.850; -235.000; -305.000
229.483;  -32.800;    5.000; -162.000
229.627;  -11.000; -156.000;  139.000
229.771;  -49.600; -218.000; -294.000
229.915;    8.650;  230.000;   79.000
230.059;  -85.800; -648.000; -663.000
230.202;  -30.725; -370.000; -317.000
230.346;  -36.125; -107.000;  107.000
230.490;  -62.250; -489.000; -521.000
230.634; -104.675; -736.000; -553.000
230.777;   63.950;  478.000;  509.000
230.921;  -53.975; -450.000; -359.000
231.065;  -42.400; -246.000; -286.000
231.209;   21.225;  261.000;  265.000
231.352;   14.275;   54.000;   40.000
231.496;    2.225;  568.000;  188.000
231.640;  -67.350; -693.000; -621.000
231.783;   59.300;  546.000;  525.000
231.927;  -32.375; -294.000; -365.000
232.071; -128.325; -962.000; -736.000
232.214; -101.875; -980.000; -764.000
232.358; -102.375; -683.000; -599.000
232.502;   -3.825;  -19.000;    7.000
232.645; -125.550;-1090.000; -927.000
232.789;  -34.400; -257.000; -218.000
232.933;  -37.925; -407.000; -224.000
233.076; -124.175;-1038.000; -897.000
233.220; -103.625; -752.000; -777.000
233.363;  -75.800; -669.000; -477.000
233.507;   42.850;  371.000;  129.000
233.650;  -95.225; -764.000; -834.000
233.794;   32.375;  438.000;  461.000
233.938;  -57.400; -530.000; -362.000
234.081;   -5.800;  -93.000;   31.000
234.225;  -68.850; -631.000; -539.000
234.368; -106.450; -773.000; -723.000
234.512;  -46.375; -385.000; -299.000
234.655;  -89.700; -582.000; -555.000
234.798;  -71.300; -493.000; -466.000
234.942; -124.250; -884.000;-1002.000
235.085;  -75.675; -651.000; -443.000
235.229;  -70.400; -405.000; -410.000
235.372;  -50.200; -247.000; -191.000
235.516;  -58.775; -397.000; -321.000
235.659;   15.925;   92.000;  121.000
235.802;  -31.200;  -38.000;  -22.000
235.946;   12.350;  335.000;  215.000
236.089;    5.825;  126.000;  250.000
236.233;   34.900;  275.000;  298.000
236.376;  -51.950; -235.000; -378.000
236.519;  -40.100; -297.000; -319.000
236.663;  -34.000; -215.000; -117.000
236.806; -130.525;-1029.000; -999.000
236.949;   53.300;  543.000;  431.000
237.092;   41.625;  412.000;  391.000
237.236;  -81.850; -589.000; -502.000
237.379;   60.650;  352.000;  428.000
237.522; -115.725; -879.000; -768.000
237.666;  -17.000; -271.000;   18.000
237.809; -127.475; -851.000; -823.000
237.952;   30.725;  469.000;  271.000
238.095;  -73.450; -447.000; -442.000
238.238;   82.650;  688.000;  700.000
238.382;   -1.675;  166.000;  103.000
238.525;  -62.325; -598.000; -511.000
238.668; -139.125;-1060.000; -985.000
238.811;  -79.100; -638.000; -643.000
238.954;  -62.025; -483.000; -334.000
239.097;   82.950;  617.000;  664.000
239.241;    3.075;  394.000;  326.000
239.384;  -39.625; -254.000; -214.000
239.527;  -65.025; -424.000; -224.000
239.670; -143.600; -994.000;-1091.000
239.813; -105.275; -696.000; -658.000
239.956;   70.000;  579.000;  473.000
240.099;  -99.025; -778.000; -725.000
240.242;   47.350;  428.000;  432.000
240.385;   32.900;  466.000;  450.000
240.528;  -64.175; -706.000; -473.000
240.671;   -3.075;  189.000;  134.000
240.814;  -52.075; -441.000; -158.000
240.957; -105.100; -767.000; -578.000
241.100;  -93.625; -779.000; -755.000
241.243; -138.925;-1234.000; -893.000
241.386;  -67.900; -508.000; -379.000
241.529;  -91.225; -735.000; -547.000
241.672;  -60.550; -566.000; -495.000
241.815; -127.950; -832.000; -808.000
241.958;  -35.150; -125.000; -182.000
242.101;  -78.025; -545.000; -390.000
242.244;  -40.000; -270.000; -325.000
242.387;  -61.750; -304.000; -246.000
242.530;   41.875;  470.000;  134.000
242.673;  -54.000; -381.000; -309.000
242.815; -124.100; -925.000; -899.000
242.958;  -68.975; -482.000; -381.000
243.101;   -2.050;  132.000;  187.000
243.244;  -83.750; -564.000; -521.000
243.387;  -40.100; -313.000; -316.000
243.530;  -92.225; -657.000; -674.000
243.672;    4.775;   43.000;  -92.000
243.815;  -46.900; -355.000; -283.000
243.958;    5.850;   98.000;  -26.000
244.101;   -5.600;   59.000;  -16.000
244.243;  -13.475;  -47.000;  101.000
244.386; -118.325; -761.000; -630.000
244.529;  -32.675; -132.000; -139.000
244.672; -163.275;-1154.000; -951.000
244.814;  -98.300; -621.000; -794.000
244.957;  -64.125; -380.000; -304.000
245.100;  -83.450; -489.000; -489.000
245.242;  -83.850; -387.000; -374.000
245.385;   -4.175;  -59.000;  -39.000
245.528; -117.675; -871.000; -705.000
245.670;   84.075;  612.000;  634.000
245.813;  -98.425; -599.000; -547.000
245.956;  -36.875; -324.000; -275.000
246.098;  -82.075; -508.000; -650.000
246.241;   13.825;  194.000;   48.000
246.383;  -28.325; -119.000;  -73.000
246.526;  -66.600; -454.000; -525.000
246.669; -127.600; -889.000; -780.000
246.811;    5.250;  172.000;   -1.000
246.954;  -83.325; -512.000; -426.000
247.096;  -17.950;  -84.000;   -6.000
247.239;  -73.000; -482.000; -445.000
247.381;  -82.250; -647.000; -488.000
247.524;   69.650;  645.000;  679.000
247.666;   -8.500;   58.000;   11.000
247.809; -129.525; -887.000; -691.000
247.951;  -10.250;  -75.000;  138.000
248.094;   18.375;  432.000;  308.000
248.236; -157.350;-1262.000;-1238.000
248.378;  -26.275; -356.000;  -81.000
248.521;  -42.975; -334.000; -337.000
248.663;  -48.800; -236.000; -267.000
248.806;  -26.450; -300.000; -266.000
248.948; -105.075; -886.000; -763.000
249.090;  -59.625; -428.000; -398.000
249.233;  -67.225; -344.000; -381.000
249.375;  -58.925; -474.000; -451.000
249.518;  -26.275;  -83.000; -133.000
249.660;   -7.950; -103.000;    3.000
249.802; -173.050;-1303.000;-1189.000
249.945;  -81.700; -612.000; -540.000
250.087; -120.050; -834.000; -768.000
250.229;  -55.575; -362.000; -480.000
250.371;  -94.175; -494.000; -439.000
250.514;  -43.900; -310.000; -244.000
250.656;  -65.425;   69.000;  102.000
250.798; -114.425; -849.000; -800.000
250.940;  -73.600; -322.000; -322.000
251.083;  -22.425; -335.000; -111.000
251.225;   38.750;  338.000;  310.000
251.367;  -35.450; -274.000; -373.000
251.509;  -46.650; -265.000; -210.000
251.651;  -85.175; -731.000; -671.000
251.794;   42.125;  538.000;  632.000
251.936; -110.700; -821.000; -747.000
252.078;  -83.125; -540.000; -461.000
252.220;  -74.900; -645.000; -477.000
252.362;   38.450;  344.000;  462.000
252.504;  -88.125; -677.000; -584.000
252.646; -117.775; -875.000; -722.000
252.788;  -10.200;   14.000; -128.000
252.931;  -43.700; -257.000; -253.000
253.073;  -47.700; -376.000; -317.000
253.215;  -15.675;  141.000;  122.000
253.357;  -27.500;   82.000; -153.000
253.499;  -55.100; -374.000; -234.000
253.641;  -83.875; -749.000; -594.000
253.783; -100.175; -609.000; -527.000
253.925;  -83.125; -586.000; -591.000
254.067; -107.325; -744.000; -667.000
254.209;  -46.975; -391.000; -259.000
254.351; -137.800; -865.000; -883.000
254.493;  -52.125; -441.000; -417.000
254.635; -127.000; -936.000; -818.000
254.777;  -81.350; -752.000; -687.000
254.918;  -68.800; -512.000; -430.000
255.060;  -52.125; -551.000; -395.000
255.202;  -60.575; -473.000; -261.000
255.344;  -73.450; -658.000; -455.000
255.486;  -76.825; -471.000; -406.000
255.628; -105.475; -780.000; -781.000
255.770;  -95.650; -676.000; -536.000
255.912;  -62.575; -559.000; -468.000
256.053;  -97.050; -730.000; -508.000
256.195;  136.400; 1008.000;  903.000
256.337; -100.350; -861.000; -595.000
256.479;   62.175;  532.000;  416.000
256.621;  -50.025; -394.000; -212.000
256.762;  -95.075; -789.000; -742.000
256.904;   30.700;  485.000;  487.000
257.046;  -27.850; -381.000; -271.000
257.188;  -58.775; -351.000; -264.000
257.329;  -84.725; -525.000; -464.000
257.471; -125.200; -939.000; -807.000
257.613;  -73.325; -584.000; -498.000
257.755; -137.450;-1073.000; -982.000
257.896;   36.075;  286.000;  392.000
258.038;  -78.000; -403.000; -352.000
258.180;  -39.050; -354.000; -279.000
258.321;  -98.850; -581.000; -457.000
258.463;   -1.825;  -71.000;  133.000
258.605;  -82.825; -562.000; -570.000
258.746; -110.825; -886.000; -772.000
258.888; -159.125;-1026.000;-1020.000
259.029;   13.025;  121.000;   -8.000
259.171;  -96.550; -614.000; -550.000
259.313;   -6.925;  -49.000;  -47.000
259.454;  -76.750; -536.000; -414.000
259.596;  -55.250; -483.000; -390.000
259.737;  -77.850; -590.000; -474.000
259.879;   44.650;  217.000;  311.000
260.020;   59.500;  901.000;  636.000
260.162;  -22.150; -146.000; -253.000
260.303; -116.375; -768.000; -687.000
260.445;  -81.200; -609.000; -613.000
260.586;    5.725;  392.000;  157.000
260.728;  -55.875; -360.000; -248.000
260.869;  -80.250; -350.000; -343.000
261.011;   75.450;  706.000;  537.000
261.152;  -70.050; -479.000; -319.000
261.293;  -81.725; -576.000; -595.000
261.435;  -33.300; -219.000; -184.000
261.576;  -40.600; -455.000; -325.000
261.718;   40.100;  420.000;  470.000
261.859; -111.300; -940.000; -949.000
262.000; -147.875; -951.000;-1016.000
262.142;  -21.725;  -52.000;  -60.000
262.283; -121.100; -808.000; -691.000
262.424;  -98.525; -666.000; -625.000
262.566; -156.300;-1161.000; -983.000
262.707; -110.025; -840.000; -830.000
262.848; -132.400; -769.000; -726.000
262.990;  -37.025; -362.000; -345.000
263.131;   54.325;  650.000;  681.000
263.272;   -9.475;  -61.000;  -41.000
263.413;  -95.500; -589.000; -561.000
263.555;  -78.075; -669.000; -143.000
263.696;  -93.700; -550.000; -641.000
263.837;  -52.475; -449.000; -551.000
263.978;   -2.825;   -5.000;  -77.000
264.119;  -46.450; -283.000; -264.000
264.261; -115.900; -847.000; -630.000
264.402;   -9.500;   33.000;   40.000
264.543;  -82.775; -509.000; -524.000
264.684;   -1.125;   61.000;  -50.000
264.825;  -84.350; -816.000; -538.000
264.966;   -3.475;  -84.000;  -67.000
265.107; -108.250; -646.000; -670.000
265.248; -114.200; -825.000; -812.000
265.390;   -7.875;  152.000;   -9.000
265.531;  -23.725; -238.000; -107.000
265.672;  -86.500; -557.000; -630.000
265.813;   48.100;  563.000;  439.000
265.954; -143.350; -959.000; -940.000
266.095;  -14.500; -372.000; -322.000
266.236; -103.875; -686.000; -548.000
266.377;  -39.750; -243.000; -297.000
266.518;  -68.300; -619.000; -547.000
266.659;   21.875;  170.000;  268.000
266.800;  -18.400;   83.000;   85.000
266.941;  -76.350; -487.000; -478.000
267.082;   -1.575;  354.000;   99.000
267.223;  -41.475; -344.000; -273.000
267.364; -119.750; -892.000; -686.000
267.504;  -14.050;    3.000;  135.000
267.645;   -8.800;  160.000;   67.000
267.786;  -39.200; -147.000;  -86.000
267.927;  -85.775; -473.000; -379.000
268.068;  -21.475; -186.000;  -61.000
268.209;  -57.950; -175.000; -413.000
268.350;  -58.175; -388.000; -532.000
268.490;  -96.525; -648.000; -521.000
268.631;   21.450;  127.000;  225.000
268.772; -120.275; -874.000; -647.000
268.913;  -51.900; -328.000; -476.000
269.054;  -29.050; -117.000;   12.000
269.194;  -49.675; -418.000; -402.000
269.335; -151.900;-1137.000;-1074.000
269.476;  -26.725;   33.000;  -35.000
269.617;  -60.975; -347.000; -392.000
269.757;  -93.575; -713.000; -646.000
269.898; -108.225; -856.000; -613.000
270.039;  -62.025; -415.000; -405.000
270.180; -139.175; -952.000; -816.000
270.320;  -30.250; -190.000; -250.000
270.461;  -54.725; -277.000; -249.000
270.602;  -18.350; -186.000; -156.000
270.742; -124.000; -868.000; -943.000
270.883;  -59.625; -442.000; -390.000
271.023;  -73.950; -358.000; -357.000
271.164;  -65.250; -607.000; -528.000
271.305; -102.825; -666.000; -654.000
271.445;  -87.725; -722.000; -683.000
271.586;  -76.275; -462.000; -283.000
271.726;  -44.025; -397.000; -322.000
271.867;  -76.025; -594.000; -534.000
272.008;   44.550; -473.000; -285.000
272.148;   67.975;  462.000;  468.000
272.289;   -3.625; -113.000; -181.000
272.429;   -0.775;   19.000;  185.000
272.570;  -90.050; -633.000; -737.000
272.710; -110.125; -825.000; -775.000
272.851;  -23.500;  113.000; -130.000
272.991; -161.625;-1173.000;-1077.000
273.131;  -64.225; -419.000; -459.000
273.272; -100.475; -683.000; -723.000
273.412;  -23.900; -143.000;  -31.000
273.553;  -73.725; -488.000; -507.000
273.693;  110.500;  913.000;  858.000
273.834; -113.475; -894.000; -692.000
273.974;  -82.075; -664.000; -615.000
274.114;  -94.925; -772.000; -560.000
274.255;   57.425;  414.000;  373.000
274.395;  -34.525; -180.000; -125.000
274.535;   36.950;  199.000;  350.000
274.676;   10.700;  225.000;   94.000
274.816;    9.825;  110.000;   34.000
274.956; -101.775; -624.000; -690.000
275.097; -108.400;-1014.000; -922.000
275.237; -113.275; -913.000; -803.000
275.377;  -88.875; -778.000; -689.000
275.517; -149.600; -878.000; -937.000
275.658;  -60.150; -590.000; -555.000
275.798;  -80.275; -606.000; -413.000
275.938;   19.800;  215.000;  323.000
276.078;  -84.950; -626.000; -395.000
276.218;    9.475;   99.000;  104.000
276.359; -139.350;-1026.000;-1024.000
276.499;  -67.100; -605.000; -446.000
276.639;  -29.975; -305.000; -151.000
276.779;  -51.400; -475.000; -357.000
276.919; -105.750; -783.000; -624.000
277.059;  -27.625; -261.000; -212.000
277.199;  -54.050; -357.000; -259.000
277.340;   27.925;  287.000;  175.000
277.480; -109.575; -840.000; -693.000
277.620;   15.850;  192.000;   16.000
277.760; -193.100;-1533.000;-1294.000
277.900;   -3.275;  113.000;   33.000
278.040;  -19.650;  137.000;  159.000
278.180;   32.875;  270.000;  170.000
278.320;  -15.275;   21.000;   56.000
278.460;  -58.575; -443.000; -469.000
278.600;  -88.075; -708.000; -598.000
278.740;   36.300;  448.000;  224.000
278.880; -104.375; -768.000; -791.000
279.020;  -19.725; -194.000; -144.000
279.160;  -87.525; -672.000; -595.000
279.300; -111.125; -926.000; -873.000
279.440;  -98.675; -709.000; -622.000
279.579;  -95.925;-1014.000; -929.000
279.719;  -56.475; -410.000; -394.000
279.859;   24.175;   -4.000;   41.000
279.999;  -19.575; -208.000;  101.000
280.139;  -39.375; -435.000; -387.000
280.279; -104.725; -708.000; -745.000
280.419;  -17.000; -229.000; -147.000
280.559;  -36.825; -259.000; -180.000
280.698;  -92.375; -790.000; -639.000
280.838; -111.150; -778.000; -800.000
280.978;  -90.675; -846.000; -790.000
281.118; -121.075; -811.000; -704.000
281.257;   20.800;   24.000;    6.000
281.397; -136.425;-1094.000; -960.000
281.537;  -78.600; -599.000; -712.000
281.677;  -20.325; -150.000; -101.000
281.816;  -72.750; -700.000; -630.000
281.956;  -39.975; -193.000; -257.000
282.096;  -57.025; -539.000; -396.000
282.235;  -99.150; -672.000; -638.000
282.375;   -7.975; -243.000;  -98.000
282.515;  -78.425; -715.000; -707.000
282.654;   25.625;   29.000;  106.000
282.794;   33.275;  388.000;  244.000
282.934;  -36.025; -530.000; -491.000
283.073; -101.575;-1030.000; -857.000
283.213;  -50.675; -460.000; -467.000
283.353;  -47.275; -408.000; -349.000
283.492;  -31.050; -264.000; -296.000
283.632;  -35.175; -254.000; -168.000
283.771;  -94.875; -859.000; -730.000
283.911;  -56.325; -369.000; -260.000
284.050;  -84.275; -794.000; -748.000
284.190; -149.525;-1229.000;-1096.000
284.329; -132.925;-1055.000; -964.000
284.469;  -91.175; -516.000; -591.000
284.608;  -39.950; -559.000; -598.000
284.748;  -72.700; -614.000; -570.000
284.887;    7.000;  -87.000;  -20.000
285.027; -110.300; -844.000; -892.000
285.166;  -20.475; -192.000; -249.000
285.306;  -11.275; -116.000;  -33.000
285.445;  -43.675; -229.000; -343.000
285.584;  -82.675; -630.000; -494.000
285.724;  -37.800; -282.000; -322.000
285.863; -108.175; -857.000; -507.000
286.002;  -33.875; -366.000; -276.000
286.142; -103.175; -715.000; -622.000
286.281;  -61.825; -525.000; -493.000
286.420;  -71.625; -554.000; -417.000
286.560;   86.100;  653.000;  623.000
286.699; -126.825; -958.000; -912.000
286.838;  -84.975; -590.000; -591.000
286.978;  -89.750; -533.000; -537.000
287.117; -131.975;-1085.000; -950.000
287.256;  -41.075; -228.000; -211.000
287.395;  -49.175; -197.000; -378.000
287.535;  -57.525; -370.000; -298.000
287.674;  -65.200; -509.000; -484.000
287.813;   46.000;  661.000;  533.000
287.952; -113.950;-1010.000; -871.000
288.091; -151.275;-1049.000; -915.000
288.231;   -1.750;   13.000;   15.000
288.370; -164.500;-1217.000;-1200.000
288.509;  -82.900; -728.000; -645.000
288.648;  -83.225; -770.000; -548.000
288.787;  -31.500; -243.000;  -87.000
288.926;  -56.825; -454.000; -475.000
289.065;   92.075;  859.000;  672.000
289.204;  -48.300; -377.000; -217.000
289.344;  -79.625; -791.000; -690.000
289.483;   13.625;  416.000;  304.000
289.622;  -31.650; -291.000; -149.000
289.761;  -15.425; -309.000; -166.000
289.900; -101.025; -785.000; -626.000
290.039;  -18.375;  -12.000;  -95.000
290.178;  -26.125; -274.000; -180.000
290.317;  -73.975; -618.000; -479.000
290.456;  -47.700; -463.000; -451.000
290.595; -127.975; -961.000; -833.000
290.734; -119.300; -904.000; -891.000
290.873;  -62.350; -456.000; -420.000
291.011; -100.100; -833.000; -843.000
291.150; -101.750; -770.000; -682.000
291.289;  -25.625; -343.000; -110.000
291.428;  -84.525; -599.000; -480.000
291.567;  -37.800; -370.000; -442.000
291.706;  -11.900;  109.000;  154.000
291.845;  -87.925; -597.000; -505.000
291.984; -164.250;-1234.000;-1061.000
292.122;   72.475;  602.000;  582.000
292.261;   38.075;  620.000;  463.000
292.400;   -2.425; -144.000;  211.000
292.539; -116.525; -959.000; -813.000
292.678;  -31.325; -325.000; -300.000
292.816; -152.675;-1136.000; -965.000
292.955;  -83.425; -844.000; -684.000
293.094;  -28.450; -173.000; -337.000
293.233;  -46.125; -556.000; -400.000
293.371;  -30.975; -225.000;  -84.000
293.510;  -87.150; -866.000; -780.000
293.649; -132.525; -959.000; -924.000
293.787;  -84.750;-1083.000;-1012.000
293.926;  -17.275; -113.000;  -32.000
294.065;  -37.550; -379.000; -290.000
294.203;   53.875;  298.000;  406.000
294.342;   59.950;   74.000;  156.000
294.481; 4873.500;51180.000; -836.000
294.619;  -27.575; -425.000; -582.000
294.758; -133.150;-1230.000;-1137.000
294.896;   23.875; -125.000;    5.000
295.035; -141.025;-1040.000;-1006.000
295.174; -117.800;-1082.000; -954.000
295.312;  -44.025; -323.000; -203.000
295.451;  -20.050; -307.000; -428.000
295.589;  -72.925; -389.000; -518.000
295.728;    8.775; -292.000; -165.000
295.866;   -3.875;  -36.000;  -51.000
296.005;  -53.375; -584.000; -341.000
296.143;  -69.600; -558.000; -596.000
296.282;  -92.475; -957.000; -881.000
296.420;  -68.375; -657.000; -557.000
296.559;  -80.125; -892.000; -633.000
296.697;  -40.575; -847.000; -665.000
296.835;  -61.650;-1141.000;-1002.000
296.974;   37.700;  -23.000;   39.000
297.112;  -17.100; -443.000; -504.000
297.251;  -49.700; -815.000; -755.000
297.389;   17.100; -576.000; -438.000
297.527;   15.675; -145.000;  -83.000
297.666;  -29.725; -486.000; -438.000
297.804;  -52.875; -404.000; -264.000
297.942;   12.850; -136.000; -161.000
298.081;  -12.325; -183.000;   63.000
298.219;   15.425;  -17.000;  -19.000
298.357;  -18.325; -144.000;  -71.000
298.495;  -76.200; -810.000; -812.000
298.634;   10.900;  245.000;  219.000
298.772;  -10.125; -220.000; -338.000
298.910;  -47.100; -309.000; -182.000
299.048;  -18.425; -130.000; -153.000
299.187;  -38.650; -350.000; -250.000
299.325;    7.025;   52.000;  122.000
299.463;  -33.675; -389.000; -299.000
299.601;    4.500; -327.000; -271.000
299.739; -124.175; -908.000; -883.000
299.877;  -76.100; -791.000; -703.000
300.016; -118.000;-1095.000; -935.000
300.154;   41.100;  -19.000; -161.000
300.292;  -40.725; -428.000; -348.000
300.430;  -11.925; -408.000; -291.000
300.568; -119.900; -940.000; -874.000
300.706;  -59.550; -366.000; -469.000
300.844; -113.300;-1108.000; -979.000
300.982;   53.800;  246.000;  282.000
301.120; -129.375; -965.000; -866.000
301.258;  -79.575; -812.000; -705.000
301.396;   21.850;  104.000;  -41.000
301.534;    3.900; -218.000; -293.000
301.672;  -77.900; -664.000; -521.000
301.810;  -55.725; -613.000; -545.000
301.948;   41.125;   53.000;  149.000
302.086;  195.050; -250.000;  -32.000
302.224;  184.450; -610.000; -585.000
302.362;  -48.200; -558.000; -622.000
302.500;  -90.225; -923.000; -893.000
302.638;   31.675;  128.000;  245.000
302.776;  -41.975; -352.000; -408.000
302.913;   40.450;  447.000;  236.000
303.051;  -31.275;  -86.000;  -23.000
303.189;   10.700;   90.000;  118.000
303.327;  -37.400; -341.000; -256.000
303.465;  -69.150; -832.000; -588.000
303.603;  -95.325; -805.000; -604.000
303.740;   55.100;  417.000;  241.000
303.878;  -81.200; -800.000; -759.000
304.016;  -99.325; -915.000; -790.000
304.154; -132.450;-1123.000;-1152.000
304.291;  -54.400; -505.000; -554.000
304.429;  -12.875;  102.000;   74.000
304.567; -117.600; -908.000; -893.000
304.705;  -60.250; -408.000; -515.000
304.842;  -22.050; -616.000; -540.000
304.980;   12.200;  215.000;   35.000
305.118;  -32.475; -367.000; -365.000
305.255; -104.650; -945.000; -927.000
305.393;   39.300;  178.000;  239.000
305.531; -137.900;-1173.000; -956.000
305.668;  -76.550; -663.000; -582.000
305.806;  -12.500; -358.000; -439.000
305.943;  -12.650; -629.000; -637.000
306.081;  -16.275; -378.000; -267.000
306.219;  -98.450; -863.000; -748.000
306.356;   29.275;  158.000;   27.000
306.494;  162.350;  981.000;  761.000
306.631;   26.900;  -11.000;  -55.000
306.769;   40.375; -613.000; -485.000
306.906;   11.775; -284.000; -258.000
307.044;  -11.075; -473.000; -488.000
307.181;  -26.925; -410.000; -332.000
307.319;   46.225;  112.000;   87.000
307.456; -149.175;-1191.000;-1153.000
307.594;  -92.375; -980.000; -727.000
307.731;  -17.725; -371.000; -164.000
307.868;   20.900;  -15.000;   20.000
308.006; -116.825; -961.000; -847.000
308.143;  -40.150; -618.000; -330.000
308.281;   53.075;  -37.000; -254.000
308.418;  -35.425; -748.000; -640.000
308.555;  -50.550; -400.000; -250.000
308.693;  -44.525; -577.000; -573.000
308.830;  -79.625; -712.000; -657.000
308.967;    5.925; -215.000;  -95.000
309.105;   22.850; -507.000; -396.000
309.242;   34.525; -468.000; -367.000
309.379;   78.400; -577.000; -655.000
309.517;  -55.050; -936.000; -948.000
309.654;  -45.625; -910.000; -734.000
309.791;  -14.075; -662.000; -580.000
309.928;  -85.900; -977.000; -914.000
310.065;  175.950;  819.000;  697.000
310.203;  -46.775; -825.000; -850.000
310.340;   26.375; -465.000; -321.000
310.477;  -54.975; -412.000; -516.000
310.614;  -28.825; -383.000; -473.000
310.751;  -23.375; -427.000; -518.000
310.889;    2.350;    1.000;   11.000
311.026; -103.125;-1161.000; -939.000
311.163;  -10.000; -386.000; -380.000
311.300;  -30.550; -512.000; -479.000
311.437;  -26.675; -658.000; -619.000
311.574; -119.225;-1226.000; -985.000
311.711;  -31.025; -595.000; -433.000
311.848;   12.175; -380.000; -388.000
311.985;   62.650;  270.000;   93.000
312.122;  -85.500; -932.000; -762.000
312.259;  -62.225; -941.000; -994.000
312.396;    0.850; -508.000; -551.000
312.533;  -11.325; -812.000; -790.000
312.670;  -92.925;-1070.000; -898.000
312.807;   40.950; -352.000; -367.000
312.944;  -10.675; -513.000; -611.000
313.081;   39.350; -150.000; -415.000
313.218;  -58.925;-1111.000; -867.000
313.355;   13.950; -531.000; -449.000
313.492;   26.750; -455.000; -292.000
313.629;  169.225;  815.000;  735.000
313.766; -110.425;-1176.000;-1008.000
313.902;   18.600; -186.000;   21.000
314.039;  -39.525; -372.000; -289.000
314.176;   51.600;  286.000;  192.000
314.313;  -42.025; -569.000; -473.000
314.450;  -36.975; -788.000; -684.000
314.587;  -39.950; -468.000; -480.000
314.723;   45.450;  -78.000;  130.000
314.860;   65.625;  318.000;  332.000
314.997;   50.100;  223.000;  142.000
315.134;   -1.800; -385.000; -368.000
315.270;    4.875; -480.000; -496.000
315.407;  -77.475;-1094.000; -967.000
315.544;  -14.550; -657.000; -538.000
315.681;  -51.675; -681.000; -565.000
315.817;   75.825; -133.000; -176.000
315.954;   64.825; -613.000; -392.000
316.091;  -79.100;-1045.000;-1023.000
316.227;    1.400;  -71.000; -179.000
316.364;   20.500;   23.000;    6.000
316.500;  -24.325; -113.000; -300.000
316.637;  -15.125; -181.000; -302.000
316.774;  -93.900; -625.000; -358.000
316.910;  -68.225; -598.000; -629.000
317.047;  -56.025; -487.000; -351.000
317.183;  -36.350; -435.000; -566.000
317.320;   34.650; -367.000; -321.000
317.456;  -10.725; -733.000; -805.000
317.593;  -72.575; -598.000; -641.000
317.729;    7.000;  168.000;  -67.000
317.866; -175.225;-1434.000;-1285.000
318.002;  -89.075; -708.000; -948.000
318.139;  -93.425; -883.000; -867.000
318.275;  -87.325;-1003.000; -738.000
318.412;  -63.150; -517.000; -336.000
318.548;  -66.075; -751.000; -720.000
318.685;  -92.425; -985.000; -888.000
318.821;  -77.875; -762.000; -735.000
318.957;  -12.550;   34.000;  -23.000
319.094;   41.700;  297.000;  154.000
319.230;  -88.800; -756.000; -742.000
319.367;   13.150; -471.000; -520.000
319.503;  -22.300; -538.000; -436.000
319.639;  -87.200; -877.000; -793.000
319.775;  -93.275; -750.000; -685.000
319.912;  -48.175; -424.000; -519.000
320.048; -106.975;-1184.000;-1184.000
320.184;   86.025;   59.000;   70.000
320.321;  -46.900; -497.000; -467.000
320.457;   73.325;  475.000;  662.000
320.593;  -51.100; -375.000; -382.000
320.729;  -78.275; -732.000; -734.000
320.866;  -78.275; -577.000; -635.000
321.002;  -83.925; -759.000; -809.000
321.138;  -37.650; -135.000; -211.000
321.274;   11.175; -148.000; -115.000
321.410;  -58.950; -585.000; -353.000
321.546; -102.225;-1011.000; -911.000
321.683;   22.075;  400.000;  185.000
321.819;  -10.850;  -48.000; -117.000
321.955; -100.850; -743.000; -722.000
322.091;  -60.400; -585.000; -540.000
322.227;  -46.250; -382.000; -202.000
322.363;  -36.175; -320.000; -215.000
322.499;  -59.725; -343.000; -331.000
322.635;   99.775;  636.000;  443.000
322.771;  -19.350; -139.000;   12.000
322.907;   46.950;  129.000;  327.000
323.043;  -35.550; -115.000; -206.000
323.179;  -44.375; -394.000; -363.000
323.315;  -41.100; -401.000; -371.000
323.451;   12.375; -328.000; -236.000
323.587;   39.200;  -60.000;  -77.000
323.723;  -37.050; -682.000; -601.000
323.859;  -19.825; -258.000;  -76.000
323.995;  -33.550; -467.000; -409.000
324.131; -123.550; -967.000; -892.000
324.267;  -37.375; -254.000; -276.000
324.402; -131.850; -960.000; -983.000
324.538;  -18.100; -279.000; -104.000
324.674;    2.125;  164.000;   77.000
324.810;   71.075;  226.000;  308.000
324.946;  -37.300; -810.000; -658.000
325.082;  -56.300; -568.000; -475.000
325.217;  -24.075;  -62.000;   16.000
325.353;  -91.550; -764.000; -659.000
325.489;  -84.250; -540.000; -506.000
325.625;  -57.500; -579.000; -525.000
325.760;   81.600;  517.000;  376.000
325.896;    8.650; -515.000; -702.000
326.032;  -32.600; -403.000; -352.000
326.168;  -53.150; -462.000; -369.000
326.303;  -74.075; -352.000; -461.000
326.439;  -22.750; -336.000; -276.000
326.575;    5.550; -190.000;  -29.000
326.710;   -1.025; -156.000;  -30.000
326.846;   -0.675;  146.000;  103.000
326.982;  -87.025; -530.000; -548.000
327.117;  -65.025; -481.000; -442.000
327.253;  -70.825; -745.000; -742.000
327.388; -163.025;-1137.000;-1153.000
327.524;  -78.925; -811.000; -578.000
327.659;  -19.725;  -58.000;  -22.000
327.795;    7.500;   69.000;   45.000
327.931;  -69.275; -723.000; -499.000
328.066;  -21.850; -417.000; -276.000
328.202;  -12.025;   12.000; -129.000
328.337;   87.875;  957.000;  713.000
328.473;   38.225;  -12.000;  -74.000
328.608;  -12.200; -256.000; -267.000
328.743;  -96.175; -799.000; -664.000
328.879;   17.075;  214.000;  114.000
329.014;  -25.525; -102.000; -122.000
329.150;  -76.275; -358.000; -483.000
329.285;  -71.000; -465.000; -466.000
329.421;  -30.825; -548.000; -246.000
329.556;   -5.675;  -36.000;   85.000
329.691;  -73.025; -633.000; -615.000
329.827;  -67.600; -626.000; -480.000
329.962;  -18.050;  131.000; -301.000
330.097;  -72.225; -673.000; -585.000
330.233;  -21.175; -410.000; -223.000
330.368; -102.375; -839.000; -628.000
330.503;  -10.675;    3.000;   98.000
330.638;   -9.825;  -93.000; -125.000
330.774;  -71.450; -609.000; -530.000
330.909;  -43.475; -434.000; -244.000
331.044;  -85.000; -714.000; -708.000
331.179; -159.650;-1217.000;-1109.000
331.315;   -0.375;   77.000;   20.000
331.450;    9.850;  157.000;  285.000
331.585;  -84.200; -805.000; -706.000
331.720;  -73.975; -510.000; -460.000
331.855;   12.875;  -35.000; -102.000
331.990;  399.150;   62.000;  138.000
332.126;  211.725; -110.000;   71.000
332.261;    6.950; -379.000; -265.000
332.396;   22.425; -135.000; -242.000
332.531;  -44.125;-1074.000;-1031.000
332.666;   89.150; -519.000; -363.000
332.801;  -89.150; -726.000; -807.000
332.936;  -16.750; -192.000; -122.000
333.071; -129.775; -870.000; -817.000
333.206;   15.950;  307.000;  379.000
333.341;   17.450;  344.000;  418.000
333.476;  -72.725; -627.000; -623.000
333.611;  -49.975; -251.000; -173.000
333.746;  -39.600; -381.000; -464.000
333.881; -123.875; -973.000; -935.000
334.016; -107.350; -936.000; -917.000
334.151; -112.275; -746.000; -702.000
334.286;   22.825;  152.000;  186.000
334.421;  -14.725; -125.000; -178.000
334.556;  -65.475; -611.000; -567.000
334.690;  -86.475; -631.000; -577.000
334.825;   63.950;  381.000;   83.000
334.960;  -49.425; -285.000; -413.000
335.095;   26.225;  135.000;  -91.000
335.230;  -78.950; -722.000; -738.000
335.365; -107.850;-1084.000; -990.000
335.499; -114.425;-1108.000;-1037.000
335.634;   33.325;    9.000;  534.000
335.769;  -77.300; -755.000; -720.000
335.904;  -25.250; -603.000; -561.000
336.038;  -18.550; -735.000; -657.000
336.173;  -94.075;-1206.000;-1194.000
336.308;   26.925; -116.000; -189.000
336.443;   73.475; -544.000; -634.000
336.577;  -26.200; -936.000; -787.000
336.712;   83.375;   -4.000;  -12.000
336.847;   -8.775; -724.000; -607.000
336.981;   75.700; -272.000; -208.000
337.116;  312.650;  615.000;  501.000
337.250;  133.175; -434.000; -421.000
337.385;  396.300; -297.000; -208.000
337.520;  193.025; -632.000; -603.000
337.654;  -42.175; -215.000; -126.000
337.789; -106.900; -989.000; -933.000
337.923;  -34.025; -104.000; -205.000
338.058; -101.175; -673.000; -738.000
338.192;  -56.175; -611.000; -488.000
338.327;   -7.550;  -18.000; -155.000
338.461;  -79.425; -299.000; -469.000
338.596;  -84.700; -780.000; -638.000
338.730;  -80.875; -767.000; -803.000
338.865;  136.250;  -46.000; -140.000
338.999;   -6.200; -846.000; -702.000
339.134;   -1.950; -634.000; -536.000
339.268;   26.300; -741.000; -603.000
339.403;  514.050; -740.000; -775.000
339.537;  249.500; -894.000; -820.000
339.671;  -88.075; -829.000; -813.000
339.806;  -33.075; -556.000; -512.000
339.940;   31.425; -261.000; -235.000
340.074;  -92.750; -685.000; -510.000
340.209;  -36.575; -351.000; -230.000
340.343;  -98.625; -517.000; -573.000
340.477;  146.550;  998.000; 1036.000
340.612;  -13.125;-1033.000; -900.000
340.746;  195.925; -199.000; -243.000
340.880;  -99.825; -924.000; -785.000
341.014;  -10.825;  -45.000; -154.000
341.149; -110.700; -756.000; -718.000
341.283;  -97.250; -839.000; -754.000
341.417; -134.275;-1124.000; -938.000
341.551;  -27.950; -768.000; -708.000
341.685;  -65.950; -633.000; -611.000
341.820;  -51.300; -562.000; -493.000
341.954;  -74.125; -218.000; -349.000
342.088; -133.000;-1102.000;-1019.000
342.222;   45.075;  565.000;  618.000
342.356;  -86.025; -395.000; -335.000
342.490; -129.175; -880.000; -841.000
342.624;  -48.150; -339.000; -242.000
342.758;  -40.900; -364.000; -312.000
342.892;  -88.350; -710.000; -585.000
343.026;  -53.800;  -58.000; -116.000
343.160;  -64.525; -426.000; -376.000
343.294;  -78.725; -474.000; -337.000
343.428;  -61.175; -488.000; -448.000
343.562;  -36.175; -172.000;  -23.000
343.696;  -40.175; -385.000; -314.000
343.830;  -57.850; -362.000; -356.000
343.964;  -16.025; -231.000; -168.000
344.098;  275.100;  199.000;   70.000
344.232;  238.850; -266.000; -127.000
344.366;   47.625; -567.000; -453.000
344.500;  -37.175; -665.000; -744.000
344.634;  -38.675; -324.000; -164.000
344.768;  -55.700; -531.000; -341.000
344.902;    9.850;  278.000;  256.000
345.035;  -71.475; -556.000; -496.000
345.169; -131.600; -933.000; -656.000
345.303;  -56.125; -308.000; -482.000
345.437; -107.450; -826.000; -717.000
345.571;  -57.550; -675.000; -594.000
345.704;  -65.050; -309.000; -532.000
345.838;  -18.550; -331.000; -284.000
345.972;  -62.575; -543.000; -495.000
346.106;  237.100; -179.000; -190.000
346.239;  449.050; -312.000; -243.000
346.373;   -7.050; -343.000; -302.000
346.507; -134.975; -950.000; -962.000
346.640;   34.975;  -30.000;   13.000
346.774;  -67.750; -650.000; -797.000
346.908;   -8.075; -138.000;  -11.000
347.041;  -95.100; -646.000; -593.000
347.175;   11.625;  259.000;   27.000
347.309; -102.275; -698.000; -628.000
347.442;  -97.000; -883.000; -732.000
347.576;  117.550;  670.000;  668.000
347.709;   44.450; -123.000;  -52.000
347.843; -116.150; -933.000; -825.000
347.976;   33.025;  235.000;  294.000
348.110; -159.475;-1268.000;-1186.000
348.243;  -83.400; -679.000; -772.000
348.377;    0.400;  -26.000;   60.000
348.510;   60.375;  403.000;  540.000
348.644;  -41.800;  -37.000; -159.000
348.777;   11.425;  180.000;  191.000
348.911;  -46.900; -142.000; -112.000
349.044;   97.075;  471.000;  448.000
349.178;  -23.875;-1069.000;-1006.000
349.311;  121.050;  141.000;  255.000
349.444;   14.950; -927.000; -813.000
349.578;  -11.800; -347.000; -200.000
349.711; -121.275; -959.000; -862.000
349.845;  -67.825; -661.000; -591.000
349.978; -159.800;-1224.000;-1137.000
350.111;  -75.900; -546.000; -612.000
350.244;  -95.975; -596.000; -700.000
350.378;  -44.775; -392.000; -393.000
350.511;  -71.850; -393.000; -426.000
350.644; -104.950; -808.000; -806.000
350.778;   13.025;  168.000;  104.000
350.911;    4.850;  134.000;  140.000
351.044;  -97.650; -685.000; -615.000
351.177;  -25.975; -321.000; -281.000
351.310;  -22.700;    3.000; -131.000
351.444; -100.875; -888.000; -788.000
351.577;   40.625;  140.000;   90.000
351.710;   62.800;  593.000;  417.000
351.843;  -31.300; -165.000;  -77.000
351.976;   -9.700;  149.000;  -79.000
352.109;  -75.525; -621.000; -612.000
352.242;  -42.825; -464.000; -419.000
352.376;  -83.350; -580.000; -636.000
352.509;    4.100; -437.000; -356.000
352.642;  -92.600; -654.000; -604.000
352.775;   -3.600; -141.000;  -98.000
352.908; -127.125; -933.000; -904.000
353.041;  -81.900; -814.000; -824.000
353.174;  -73.775; -551.000; -424.000
353.307;  -80.100; -753.000; -764.000
353.440;   58.575;  541.000;  453.000
353.573;  -80.200; -957.000;-1008.000
353.706;  -48.625; -384.000; -558.000
353.839;  -22.825; -264.000; -220.000
353.971;  -96.675; -657.000; -512.000
354.104;  -89.875; -896.000; -835.000
354.237;  -78.825; -627.000; -662.000
354.370;  -88.800; -846.000; -879.000
354.503; -166.825;-1231.000;-1308.000
354.636;    4.725; -529.000; -348.000
354.769; -106.200; -937.000; -860.000
354.902;  -13.300; -230.000; -139.000
355.034;  -17.900; -164.000; -220.000
355.167;    4.600; -262.000; -162.000
355.300;  -51.025;-1061.000; -880.000
355.433; 1428.400;  -71.000;  -14.000
355.565; 2265.550; -402.000; -384.000
355.698;  570.425; -356.000; -296.000
355.831;    4.450; -882.000; -801.000
355.964;   45.175; -285.000; -170.000
356.096;  -56.000; -856.000; -843.000
356.229;   56.550; -523.000; -530.000
356.362;  499.150; -373.000; -266.000
356.494;  881.250; -229.000; -162.000
356.627;  349.050;  269.000;  377.000
356.760;  860.775;  120.000;   53.000
356.892; 1462.050; -286.000; -601.000
357.025;  376.025;  403.000;  389.000
357.157;  244.125; -167.000; -179.000
357.290; 1015.500; -856.000; -713.000
357.423;  320.375; -667.000; -556.000
357.555;  113.075; -217.000; -228.000
357.688;  144.225; -483.000; -364.000
357.820;  157.800; -870.000; -877.000
357.953; 1315.400; -563.000; -589.000
358.085;  217.975; -632.000; -612.000
358.218;  172.700;-1131.000; -932.000
358.350;   70.425;  -58.000;  312.000
358.483; -156.125;-1300.000;-1187.000
358.615; -117.175;-1182.000;-1078.000
358.747; -126.075;-1187.000;-1058.000
358.880;  -32.200; -810.000; -744.000
359.012;  -26.450; -376.000; -202.000
359.145;  -71.275; -480.000; -511.000
359.277;  -58.000; -962.000; -913.000
359.409; 1112.775;  536.000;  231.000
359.542;  231.325; -738.000; -688.000
359.674;   26.850;   46.000;   13.000
359.806;  -75.875; -565.000; -438.000
359.939;  -24.250; -617.000; -516.000
360.071;   26.425; -583.000; -579.000
360.203;  -11.925; -411.000; -364.000
360.335;   20.125;  164.000;  -16.000
360.468;  102.725; -249.000; -307.000
360.600; 1173.850; -547.000; -454.000
360.732; 3772.850; -546.000; -423.000
360.864;  588.850;-1216.000;-1044.000
360.996;   83.925; -516.000; -554.000
361.129;  -31.375; -389.000; -598.000
361.261;    5.750;  110.000; -113.000
361.393;  -32.275; -252.000; -214.000
361.525;   -2.150;   94.000;  244.000
361.657; -101.325; -821.000; -703.000
361.789;  -26.450; -139.000; -155.000
361.921;  -21.850; -642.000; -593.000
362.053;   98.425;  524.000;  541.000
362.185;    1.225;  288.000;   72.000
362.318;  -94.950; -709.000; -705.000
362.450;   39.075;  294.000;  444.000
362.582;  -50.825; -913.000; -870.000
362.714;  -48.775; -353.000; -332.000
362.846;  -72.750; -606.000; -490.000
362.978; -132.600; -941.000; -811.000
363.109;  -13.825; -161.000; -260.000
363.241;  171.450; -739.000; -749.000
363.373;  635.225; -649.000; -564.000
363.505;  962.700; -186.000;  -91.000
363.637;  228.900; -787.000; -601.000
363.769; -121.650;-1067.000;-1080.000
363.901;  -70.000; -596.000; -654.000
364.033; -148.600;-1103.000;-1062.000
364.165;  -28.975; -283.000; -283.000
364.296;   87.925; -316.000; -177.000
364.428;  187.850;-1344.000;-1220.000
364.560;  -54.650; -679.000; -661.000
364.692;  -71.500; -738.000; -835.000
364.824;    2.125; -588.000; -456.000
364.955;  465.825; -402.000; -564.000
365.087; 1443.700;-1097.000; -852.000
365.219;   89.625; -686.000; -816.000
365.351;  -78.575; -526.000; -572.000
365.482;   10.475;  300.000;  240.000
365.614;  -56.950; -402.000; -314.000
365.746;  -98.650; -729.000; -752.000
365.877; -106.050; -706.000; -672.000
366.009;  416.275;  -35.000;  -62.000
366.141;  -19.375;-1249.000;-1134.000
366.272;  -93.250; -803.000; -719.000
366.404; -106.650;-1005.000; -874.000
366.535;   -9.975; -139.000;  -12.000
366.667; -101.650; -644.000; -649.000
366.799;   23.375;  353.000;  203.000
366.930; -127.425; -862.000; -996.000
367.062;  193.550; -639.000; -613.000
367.193;  320.600; -872.000; -842.000
367.325;  -42.425; -580.000; -684.000
367.456;    7.750; -246.000;   31.000
367.588;  252.450; -371.000; -318.000
367.719;   40.200;  -44.000;  -45.000
367.851;  -26.700; -222.000; -241.000
367.982; -103.725; -875.000; -732.000
368.113;   -1.675; -475.000; -358.000
368.245; -136.175; -960.000; -841.000
368.376;  -32.650; -254.000; -302.000
368.508;  -60.850; -188.000; -263.000
368.639; -130.550;-1166.000;-1034.000
368.770;  -83.150; -670.000; -589.000
368.902;  -92.900; -836.000; -926.000
369.033; -112.950; -906.000; -855.000
369.164;   -9.325; -720.000; -653.000
369.296;  -94.250; -452.000; -601.000
369.427;  -15.375; -209.000; -144.000
369.558;  -68.875; -593.000; -377.000
369.689;  -61.200; -721.000; -569.000
369.821; -124.125; -951.000; -845.000
369.952;   -9.825;   42.000; -108.000
370.083;  -42.900; -229.000; -108.000
370.214;  -87.075; -735.000; -650.000
370.345;  -20.175;   65.000;   81.000
370.477; -100.725; -810.000; -790.000
370.608;   42.800; -328.000; -264.000
370.739; -115.475;-1233.000;-1292.000
370.870; -115.950;-1102.000; -923.000
371.001;  -13.050; -378.000; -467.000
371.132;  -88.450; -754.000; -735.000
371.263;  -18.200;  -42.000; -148.000
371.394; -118.350; -841.000; -748.000
371.525;   15.450;  345.000;  225.000
371.657; -111.375; -808.000; -670.000
371.788;   43.425;  103.000;  199.000
371.919;    2.725; -384.000; -304.000
372.050; 1127.900;  -91.000; -156.000
372.181;  364.475; -188.000; -294.000
372.311;  102.650;   42.000; -127.000
372.442;  -51.025; -457.000; -451.000
372.573;  -41.825; -444.000; -340.000
372.704; -139.475;-1008.000; -980.000
372.835;  -13.425; -228.000; -289.000
372.966;  -81.025; -646.000; -554.000
373.097;  -86.325; -575.000; -711.000
373.228;  -91.975; -717.000; -542.000
373.359;  -31.700; -824.000; -536.000
373.490;  168.900; -881.000; -727.000
373.620;  251.075;-1001.000; -803.000
373.751;  497.250; -332.000; -396.000
373.882;  229.325; -663.000; -733.000
374.013;  -24.250; -449.000; -262.000
374.143;  -56.975; -581.000; -659.000
374.274; -109.875; -987.000; -908.000
374.405;   56.775; -388.000; -276.000
374.536;  109.950; -526.000; -387.000
374.666;  304.300; -759.000; -807.000
374.797;  -10.050; -817.000; -868.000
374.928;  185.300; -710.000; -560.000
375.058;  175.375; -535.000; -500.000
375.189;   16.750;  -59.000;  -93.000
375.320; -132.550; -928.000;-1034.000
375.450;  -42.375; -625.000; -616.000
375.581;  -38.150; -526.000; -436.000
375.712;  -47.475; -574.000; -250.000
375.842;    7.325; -438.000; -415.000
375.973;   -1.625; -554.000; -513.000
376.103;  -92.525; -665.000; -648.000
376.234;  -95.850; -531.000; -552.000
376.364; -119.000; -944.000; -867.000
376.495;  141.025;  925.000;  529.000
376.625;  -44.375; -472.000; -485.000
376.756;  -40.800; -709.000; -678.000
376.886; -125.150;-1178.000;-1026.000
377.017;  144.950;-1048.000;-1061.000
377.147;  616.875; -786.000; -782.000
377.278;   98.450;  174.000;  228.000
377.408; -110.400; -801.000; -815.000
377.538;  -88.850; -707.000; -693.000
377.669;  -86.550; -537.000; -613.000
377.799;  -88.125; -645.000; -635.000
377.929;  -76.150; -610.000; -428.000
378.060; -107.225; -781.000; -847.000
378.190;  -25.325; -726.000; -531.000
378.320;  -32.625; -401.000; -406.000
378.451;  -12.225; -131.000;  -22.000
378.581;  -19.700;  -67.000; -110.000
378.711;  101.175; 1035.000;  866.000
378.841;  -59.450; -533.000; -675.000
378.972;  -98.725; -871.000; -751.000
379.102;  -48.400; -652.000; -579.000
379.232;  -27.900; -126.000;  -73.000
379.362; -109.775;-1001.000; -885.000
379.492;  -37.200; -373.000; -424.000
379.623;   37.475;    0.000;  111.000
379.753; -116.200;-1107.000; -974.000
379.883;   82.450;   59.000;  156.000
380.013;  -95.600;-1081.000;-1017.000
380.143; -102.075;-1097.000;-1056.000
380.273;  -99.825; -985.000; -861.000
380.403;   23.150; -344.000; -257.000
380.533;  -42.375; -651.000; -664.000
380.663;   31.800;  173.000;  128.000
380.793; -133.425;-1027.000;-1074.000
380.923;   -9.500; -103.000;  -34.000
381.053;  -86.575; -613.000; -623.000
381.183;  -26.950; -106.000; -248.000
381.313;  -53.525; -656.000; -470.000
381.443;  -31.600; -692.000; -473.000
381.573;   -2.575; -402.000; -409.000
381.703;  -51.000;-1249.000;-1095.000
381.833; -155.650;-1454.000;-1336.000
381.963;   25.150; -134.000;  -87.000
382.093;  327.575; -925.000; -909.000
382.223;   86.625; -713.000; -602.000
382.353;  -71.375; -801.000; -608.000
382.482;   26.300;-1091.000; -964.000
382.612;  178.850; -872.000; -644.000
382.742;   88.775; -695.000; -622.000
382.872;   -1.300; -565.000; -551.000
383.002;   44.100;  347.000; -132.000
383.131;  -23.600; -226.000; -160.000
383.261;  -41.325; -706.000; -768.000
383.391;  281.625; -552.000; -377.000
383.521; 4520.350;  451.000;  263.000
383.650; 1372.500; -947.000; -904.000
383.780;   43.750; -783.000; -656.000
383.910;   87.500;  880.000;  802.000
384.039;  -58.300; -794.000; -656.000
384.169;  -75.350;-1205.000;-1017.000
384.299;  -74.950; -650.000; -662.000
384.428;  -95.800; -764.000; -680.000
384.558;  -37.700; -308.000; -275.000
384.687;  -31.925; -414.000; -334.000
384.817;   14.850;   75.000;   -2.000
384.947;  -13.650; -234.000; -141.000
385.076;  195.200;  982.000;  912.000
385.206;   73.350;  369.000;  480.000
385.335;  -47.750; -549.000; -417.000
385.465;  -72.750; -655.000; -663.000
385.594;   44.025;  -53.000;  -44.000
385.724;   59.875; -868.000; -838.000
385.853;    8.225; -296.000; -270.000
385.982;  329.600; -743.000; -787.000
386.112;  638.350;-1052.000; -871.000
386.241;   23.100; -307.000; -312.000
386.371;  -10.725; -174.000;  -87.000
386.500;  -50.500; -825.000; -789.000
386.629;  -15.350; -874.000; -817.000
386.759;   66.925;  -43.000;   68.000
386.888;    9.075; -170.000; -250.000
387.017;  -75.825; -648.000; -620.000
387.147;  -73.675; -771.000; -798.000
387.276;  -44.875; -410.000; -397.000
387.405;  -36.975; -398.000; -342.000
387.535;  -60.150; -452.000; -361.000
387.664;  -59.925; -692.000; -620.000
387.793;   -9.075; -198.000; -113.000
387.922;  176.000;  255.000;  200.000
388.052;  -39.325; -576.000; -423.000
388.181;  -18.775; -342.000; -472.000
388.310;  -67.075; -889.000; -710.000
388.439;  -61.100; -749.000; -742.000
388.568;   35.200;  365.000;  244.000
388.697;  259.700; -756.000; -653.000
388.826;   -5.000; -768.000; -666.000
388.956;   -5.350; -285.000; -307.000
389.085;  -33.650; -347.000; -287.000
389.214;  -90.650; -842.000; -872.000
389.343;  -53.125; -645.000; -413.000
389.472;  547.725;  126.000;  149.000
389.601;  628.225;   91.000;    0.000
389.730;   -3.150; -568.000; -687.000
389.859;   42.300;  226.000;   46.000
389.988;   56.525; -423.000; -408.000
390.117;   40.375; -168.000; -146.000
390.246;  -25.725; -331.000; -320.000
390.375;  -39.600; -673.000; -626.000
390.504;  -75.725; -703.000; -621.000
390.633;  -89.275; -672.000; -726.000
390.761;  -83.775; -732.000; -645.000
390.890;   -1.875;   -4.000; -130.000
391.019;  -41.975; -421.000; -441.000
391.148; -115.400; -826.000; -855.000
391.277;  -57.900; -576.000; -493.000
391.406;  -80.700; -821.000; -805.000
391.534;   31.400;  574.000; -301.000
391.663;  -83.675; -583.000; -645.000
391.792;  -74.175; -673.000; -701.000
391.921;   11.975;   -3.000;   15.000
392.050;   26.875; -287.000; -228.000
392.178; -112.400;-1206.000;-1061.000
392.307;  -25.050; -758.000; -712.000
392.436;  -49.850; -427.000; -641.000
392.564;   11.250;  166.000;   -6.000
392.693;  -86.950; -860.000; -682.000
392.822;   22.575; -529.000; -534.000
392.950;  -11.900; -880.000; -714.000
393.079;   80.950; -188.000; -328.000
393.208;  -41.350; -488.000; -511.000
393.336;    6.025; -170.000; -145.000
393.465;  -37.375; -317.000; -199.000
393.593;   19.050;   62.000;   79.000
393.722; -128.475;-1121.000; -916.000
393.850;  -20.875; -188.000;  -61.000
393.979; -127.700; -926.000; -805.000
394.107;  -48.400; -517.000; -537.000
394.236;  -41.000; -570.000; -507.000
394.364;  113.825;  383.000;  206.000
394.493;   66.550; -911.000; -767.000
394.621;   33.050; -955.000; -916.000
394.750; 1144.800; -873.000; -923.000
394.878; 4460.325; -247.000; -149.000
395.007; 6670.900; -721.000; -807.000
395.135;  636.750; -790.000; -721.000
395.263;  -39.700;-1038.000;-1040.000
395.392;   14.375;  -25.000; -107.000
395.520; -127.625; -818.000; -679.000
395.648; -105.150; -865.000; -915.000
395.777;  -61.425; -366.000; -405.000
395.905;  -63.525; -449.000; -564.000
396.033;   -8.500;  217.000;  172.000
396.162;   94.200; -399.000; -453.000
396.290;  103.700;  -17.000;   -2.000
396.418;  -44.525; -555.000; -514.000
396.546;  -89.525; -571.000; -466.000
396.674; -124.175; -850.000; -878.000
396.803;  -25.575;  -72.000;  -23.000
396.931;  -14.850; -179.000; -199.000
397.059; -108.950;-1026.000; -989.000
397.187; -128.650;-1026.000; -975.000
397.315; -128.925; -884.000; -649.000
397.443;  -89.425; -592.000; -443.000
397.572;  -87.350; -578.000; -424.000
397.700;  -77.850; -607.000; -614.000
397.828;  -43.775;  120.000;  -90.000
397.956;  -35.125; -508.000; -478.000
398.084;  -37.100; -767.000; -626.000
398.212;    5.950;  137.000;  124.000
398.340;  -21.800;  -56.000;  159.000
398.468;  -39.575; -390.000; -169.000
398.596; -156.275; -993.000; -953.000
398.724; -121.375; -762.000; -767.000
398.852; -145.075;-1024.000; -976.000
398.980;  -78.100; -560.000; -560.000
399.108;  -91.350; -982.000; -735.000
399.236;   -4.950;   13.000;    8.000
399.363;    1.700;  222.000;  196.000
399.491;  -43.700; -404.000; -398.000
399.619; -108.525; -829.000; -800.000
399.747;  -88.350; -859.000; -771.000
399.875;   23.900;  220.000;  234.000
400.003;  -72.700; -359.000; -284.000
400.130;  -91.150; -421.000; -341.000
400.258;  -25.250;  -83.000;   38.000
400.386;  -56.325; -352.000; -168.000
400.514;  -93.750; -526.000; -587.000
400.641; -135.975; -928.000; -802.000
400.769; -140.950; -979.000; -888.000
400.897; -115.075; -838.000; -793.000
401.025;  -16.800; -166.000; -152.000
401.152;   -5.400;  220.000;   38.000
401.280;  -76.000; -430.000; -429.000
401.408; -104.100; -712.000; -576.000
401.535;  -98.250; -735.000; -758.000
401.663; -184.275;-1134.000;-1054.000
401.790;  -89.500; -514.000; -525.000
401.918;   37.050;  436.000;  405.000
402.046;    0.100;  134.000;  122.000
402.173;  -39.125;  -18.000;    7.000
402.301;  -57.075; -519.000; -397.000
402.428;   36.400;  528.000;  383.000
402.556; -133.775;-1188.000; -913.000
402.683;  -25.975;  -20.000;   -1.000
402.811;  -10.350;  -37.000; -206.000
402.938;  -12.675;   20.000;   27.000
403.066;   14.425; -574.000; -558.000
403.193;  120.550;  299.000;  239.000
403.321;   72.025; -396.000; -574.000
403.448;  145.600;   83.000;   27.000
403.575;   70.700;  -90.000;  -46.000
403.703;  -87.550; -732.000; -557.000
403.830;  -44.150; -531.000; -496.000
403.957; -108.925;-1117.000;-1023.000
404.085;   58.700;  -61.000; -172.000
404.212;  137.875;  -50.000;   63.000
404.339;  468.775; -566.000; -306.000
404.467; 8877.050; -612.000; -524.000
404.594; 5594.175; -287.000; -227.000
404.721; 1029.325; -869.000; -764.000
404.848;  144.350; -113.000; -202.000
404.976;  -84.700; -856.000; -783.000
405.103;   11.100;  -14.000;  -82.000
405.230;   14.525;  190.000;  226.000
405.357;   94.275;  117.000;   44.000
405.484;  437.225;  -49.000;    5.000
405.612;  143.975; -548.000; -563.000
405.739;  -49.675; -488.000; -243.000
405.866;   91.875;  669.000;  385.000
405.993;  -30.625; -398.000; -102.000
406.120; -121.175; -801.000; -887.000
406.247;  -88.900; -323.000; -342.000
406.374;  143.725;  540.000;  629.000
406.501;  -58.200; -632.000; -702.000
406.628;  -76.375; -621.000; -589.000
406.755; -111.300; -803.000; -620.000
406.882;  -47.175; -228.000; -277.000
407.009;  -92.500; -719.000; -628.000
407.136;  -23.725; -480.000; -401.000
407.263;    8.425; -939.000; -829.000
407.390;  -63.075; -692.000; -614.000
407.517; -159.075;-1139.000;-1187.000
407.644;  -64.375; -332.000; -256.000
407.771;  -54.950; -249.000; -287.000
407.898;   -6.050;  168.000;  328.000
408.025;  -51.450; -421.000; -313.000
408.151;   13.100;   82.000;  153.000
408.278;  -68.950; -267.000; -216.000
408.405; -125.875; -931.000; -899.000
408.532;  -91.175; -549.000; -542.000
408.659; -108.975; -677.000; -648.000
408.785; -201.625;-1298.000;-1170.000
408.912;  -51.125; -412.000; -296.000
409.039;  -99.450; -610.000; -686.000
409.166;  -71.125; -591.000; -555.000
409.292;  -95.650; -571.000; -534.000
409.419; -104.700; -665.000; -649.000
409.546;  -77.000; -431.000; -192.000
409.672;  -86.150; -713.000; -545.000
409.799;  -28.000;  -36.000;   34.000
409.926;  -39.750; -180.000; -179.000
410.052; -171.025;-1127.000;-1091.000
410.179;  -59.750; -368.000; -392.000
410.305;  -83.175; -375.000; -493.000
410.432;   -7.775; -220.000; -333.000
410.558;  -80.000; -305.000; -380.000
410.685;  -91.100; -688.000; -431.000
410.812;  -90.350; -409.000; -588.000
410.938; -137.375; -964.000; -808.000
411.065; -102.925; -671.000; -645.000
411.191;  -27.200; -189.000; -174.000
411.317; -135.300; -823.000; -742.000
411.444;  -74.700; -317.000; -246.000
411.570;  -67.175; -339.000; -294.000
411.697; -114.475; -758.000; -752.000
411.823; -160.850; -989.000; -999.000
411.949;  -40.875;  -56.000;   17.000
412.076;  -98.150; -539.000; -519.000
412.202; -114.925; -758.000; -757.000
412.329; -119.950; -798.000; -752.000
412.455; -104.825; -821.000; -657.000
412.581;  -31.575;  -15.000;  172.000
412.707;  -81.225; -540.000; -457.000
412.834;   10.950;  156.000;  219.000
412.960;  -96.625; -785.000; -784.000
413.086; -105.700; -743.000; -701.000
413.212;  142.975;  604.000;  578.000
413.339;  -87.725; -685.000; -701.000
413.465;  -52.600; -364.000; -310.000
413.591; -111.350; -757.000; -474.000
413.717;  -40.550; -358.000; -366.000
413.843; -115.200; -839.000; -861.000
413.969;  -48.075;  -47.000; -292.000
414.096;  -94.150; -679.000; -679.000
414.222;   -3.350;  -33.000;   85.000
414.348;  -76.150; -652.000; -385.000
414.474;   11.800;   38.000;  -52.000
414.600;  -13.275; -126.000; -144.000
414.726;  -11.675;  -96.000;  -55.000
414.852;  -36.350; -365.000; -342.000
414.978;   57.800;  104.000;  -18.000
415.104;   54.000;   38.000;   80.000
415.230;   64.500; -329.000; -330.000
415.356;   73.475; -409.000; -514.000
415.482;  245.200;   13.000;  -35.000
415.608;  436.100; -247.000; -323.000
415.734; 1400.675;   67.000;   38.000
415.860;28630.100; -875.000; -767.000
415.986;24198.900; -685.000; -607.000
416.111; 2283.575; -798.000; -652.000
416.237;  505.875; -424.000; -571.000
416.363; 1660.700; -765.000; -733.000
416.489; 6698.100; -324.000; -251.000
416.615;  932.875; -707.000; -742.000
416.741;   86.100; -677.000; -784.000
416.866;  -39.725; -673.000; -736.000
416.992;  -74.125; -801.000; -818.000
417.118;   -9.250;  -41.000;  -80.000
417.244;  -60.775; -798.000; -531.000
417.369;  -71.550; -801.000; -612.000
417.495;    9.850; -325.000; -254.000
417.621;  -74.825;-1015.000; -803.000
417.746;   28.550; -579.000; -572.000
417.872;   94.900; -254.000; -144.000
417.998;  157.175; -515.000; -530.000
418.123; 1534.250;-1073.000; -845.000
418.249; 8627.175; -512.000; -601.000
418.374; 1547.575; -916.000; -824.000
418.500;  259.225; -383.000; -482.000
418.626;  195.025;   70.000;  -59.000
418.751;  187.525; -549.000; -448.000
418.877;  344.175; -637.000; -643.000
419.002; 2597.800; -688.000; -560.000
419.128;19465.225; -930.000; -721.000
419.253; 5690.000; -967.000; -837.000
419.379;  796.775; -391.000; -338.000
419.504;  606.675;  325.000;  415.000
419.629;  803.550; -393.000; -212.000
419.755; 5103.825; -317.000; -254.000
419.880;33657.075;  -98.000;   67.000
420.006;17401.025; -280.000; -221.000
420.131;44077.050; -662.000; -775.000
420.256; 7369.875; -315.000; -316.000
420.382; 1029.175; -665.000; -687.000
420.507;  211.925; -649.000; -778.000
420.632;   74.375; -337.000; -339.000
420.758;   79.075; -251.000; -425.000
420.883;  -82.925; -876.000; -672.000
421.008;  -88.350; -775.000; -619.000
421.133;  -84.025; -509.000; -467.000
421.259;  -34.500; -325.000; -259.000
421.384; -116.975; -834.000; -693.000
421.509;  -89.625;-1052.000; -862.000
421.634;  226.575; -936.000; -820.000
421.759;  140.800; -359.000; -327.000
421.885;  -81.725; -717.000; -656.000
422.010;  -78.300; -673.000; -542.000
422.135; -145.650; -695.000; -727.000
422.260;   12.525;  340.000;  280.000
422.385;  -33.375;   12.000;  -98.000
422.510;    5.125;  151.000;  -26.000
422.635;   -7.375;  -87.000;  -43.000
422.760;  -12.700; -766.000; -791.000
422.885;   41.200;  -57.000;  -80.000
423.010;  -18.025; -112.000; -169.000
423.135;  -81.375; -481.000; -561.000
423.260;  -20.700; -150.000; -245.000
423.385;   29.525;  476.000;  222.000
423.510;    6.275;   71.000;  -22.000
423.635;   19.775;  133.000;   45.000
423.760;   63.400;  383.000;  328.000
423.885;   23.225;  336.000;  391.000
424.010;    8.350;  -68.000;  -13.000
424.135;  -11.400;    5.000;  -33.000
424.259;  -56.475; -654.000; -457.000
424.384;  -43.850; -279.000; -272.000
424.509;   -5.950; -260.000; -186.000
424.634;  -67.625; -761.000; -623.000
424.759;  -45.950; -688.000; -544.000
424.883;    2.675; -506.000; -527.000
425.008;  207.125; -502.000; -410.000
425.133; 2870.650; -679.000; -653.000
425.258; 1571.950; -517.000; -381.000
425.382;  493.275; -867.000; -774.000
425.507; 1092.400; -487.000; -543.000
425.632;  346.700; -802.000; -663.000
425.756;  663.825; -256.000; -146.000
425.881; 9144.100; -831.000; -857.000
426.006;28927.025; -604.000; -355.000
426.130; 4952.125; -696.000; -508.000
426.255;  682.775; -611.000; -491.000
426.379;  268.650; -189.000; -577.000
426.504;  522.300;  660.000;  544.000
426.629; 6008.975; -519.000; -466.000
426.753; 4822.400;   64.000;  -46.000
426.878;  596.875; -252.000; -288.000
427.002;  326.625; -651.000; -668.000
427.127; 1997.725;  -35.000; -158.000
427.251;17052.175;  372.000;  401.000
427.375; 5708.775; -191.000; -173.000
427.500; 1296.525; -616.000; -610.000
427.624;  407.650; -234.000; -400.000
427.749;  162.625; -216.000; -225.000
427.873;   29.675; -499.000; -412.000
427.997;  -28.000; -222.000; -230.000
428.122;   55.225;  795.000;  703.000
428.246;   50.975;  433.000;  434.000
428.371; -124.575; -869.000; -773.000
428.495; -104.675; -624.000; -646.000
428.619;  -36.225; -186.000; -117.000
428.743;   21.000;   65.000;  132.000
428.868;  -69.475; -732.000; -643.000
428.992;  434.300; -219.000; -326.000
429.116;  188.700; -329.000; -357.000
429.240;  133.950;  419.000;  426.000
429.365;  -16.875; -454.000; -574.000
429.489;  -35.275; -638.000; -647.000
429.613;   39.900; -236.000; -177.000
429.737;  115.525; -563.000; -432.000
429.861;  402.250; -247.000; -133.000
429.985; 7923.925; -425.000; -305.000
430.109;10368.275; -770.000; -908.000
430.234; 1310.925;   76.000;  -50.000
430.358;  172.950; -250.000; -160.000
430.482;   -4.325; -672.000; -564.000
430.606;  -54.225; -655.000; -375.000
430.730;  -34.025; -437.000; -388.000
430.854;  -57.525; -909.000; -835.000
430.978;  -45.225; -795.000; -764.000
431.102;  -43.700; -499.000; -422.000
431.226;  -48.675; -874.000; -815.000
431.350;   57.625;  345.000;  422.000
431.474;  -63.700; -661.000; -373.000
431.597; -155.225;-1060.000; -848.000
431.721;  -70.000; -276.000; -267.000
431.845; -105.575; -704.000; -472.000
431.969;  -69.250; -304.000; -349.000
432.093;  -84.950; -395.000; -317.000
432.217;   -6.800;   32.000;   82.000
432.341;  -70.825; -523.000; -518.000
432.464;    5.975;   96.000;   40.000
432.588;   -5.550; -401.000; -329.000
432.712;   26.250;  -52.000;  -52.000
432.836;   61.925;  213.000;  263.000
432.959;   45.250; -372.000; -311.000
433.083;  173.350;   11.000;    2.000
433.207;  580.425;  285.000;  930.000
433.330; 7498.925; -391.000; -200.000
433.454;10608.800; -654.000; -638.000
433.578; 5933.825;  583.000;  278.000
433.701; 1332.025; -623.000; -675.000
433.825;  167.150; -292.000; -299.000
433.949;   75.925;   28.000;  -72.000
434.072;   14.475; -410.000; -323.000
434.196;   -1.975; -309.000; -117.000
434.319; 3425.375;25482.000;25124.000
434.443;  870.050; -656.000; -603.000
434.566; 4041.900;  281.000;   62.000
434.690;  932.750; -637.000; -383.000
434.813;  203.825; -251.000; -173.000
434.937;   -7.100; -569.000; -696.000
435.060;  -65.350; -423.000; -332.000
435.184;   38.450; -492.000; -217.000
435.307;   32.725;  159.000;  102.000
435.431;   -6.450;  -40.000;   24.000
435.554;  -68.525; -399.000; -240.000
435.677;  -65.075; -350.000; -258.000
435.801;  -49.575;  -25.000;   49.000
435.924;  -13.325;    1.000;  -67.000
436.048; -142.100;-1019.000; -732.000
436.171;  -64.625; -240.000;  -66.000
436.294;   10.125; -248.000; -229.000
436.417;  249.275; -963.000; -849.000
436.541;  -21.475; -814.000; -840.000
436.664;  -44.175; -242.000; -316.000
436.787;  -24.575;   13.000;  113.000
436.910; -110.650; -792.000; -422.000
437.034;   -2.675;  142.000;  143.000
437.157;   43.750;  -11.000;    0.000
437.280;  -79.900; -392.000; -292.000
437.403; -117.450; -982.000; -869.000
437.526;   54.200; -903.000; -865.000
437.649;  652.175; -505.000; -332.000
437.772;   42.725; -692.000; -540.000
437.896;   66.100;  700.000;  544.000
438.019;  -81.300; -758.000; -503.000
438.142;  -79.025; -596.000; -506.000
438.265;  -98.500; -639.000; -670.000
438.388;   48.925; -520.000; -410.000
438.511;  -44.200; -597.000; -394.000
438.634;  -43.575; -247.000; -125.000
438.757; -125.050; -693.000; -619.000
438.880;  -41.825;  -34.000;  -57.000
439.003;  -82.525; -417.000; -437.000
439.126;  -57.800; -287.000; -167.000
439.248;  -70.975;  -98.000; -139.000
439.371;  -31.675;    9.000;  -53.000
439.494;   12.525;  510.000;  439.000
439.617;  -36.650;   65.000;  -88.000
439.740; -162.425; -968.000; -816.000
439.863; -129.100; -755.000; -595.000
439.986; -111.775; -476.000; -431.000
440.108;  -29.000; -161.000; -112.000
440.231; -171.975; -950.000; -836.000
440.354;  -35.850;  -64.000; -150.000
440.477; -106.300; -566.000; -542.000
440.599;  -59.675; -200.000; -225.000
440.722; -132.100; -709.000; -586.000
440.845;   56.825;  751.000;  928.000
440.968; -103.925; -415.000; -311.000
441.090;  -59.250; -199.000;  -33.000
441.213; -170.700;-1021.000; -825.000
441.336;  -57.000; -159.000;   -5.000
441.458; -107.950; -549.000; -396.000
441.581; -123.800; -628.000; -629.000
441.703;  -85.775; -152.000;   13.000
441.826; -101.525; -557.000; -400.000
441.948;  -58.475;   56.000;   51.000
442.071;   32.825;  555.000;  424.000
442.193; -114.450; -531.000; -485.000
442.316;   -8.050;  152.000;   97.000
442.438;   75.375; -233.000;  -10.000
442.561;   98.250;  272.000;  262.000
442.683;   95.100; -809.000; -522.000
442.806;  336.450;   -8.000;   74.000
442.928;  -89.200; -859.000; -604.000
443.051;  -62.900; -577.000; -373.000
443.173;  -94.225; -341.000; -339.000
443.295;  -82.025; -263.000; -371.000
443.418;  -81.975; -321.000;  -29.000
443.540;  -28.600; -106.000;   -4.000
443.662; -125.475; -563.000; -465.000
443.785;  -13.125;  335.000;  199.000
443.907; -105.800; -362.000; -208.000
444.029; -110.400; -767.000; -494.000
444.152; -138.725; -644.000; -554.000
444.274;  -32.225;  -18.000;  -24.000
444.396; -131.700; -461.000; -221.000
444.518; -121.600; -691.000; -454.000
444.640;  -99.900; -268.000; -111.000
444.763;  -12.175;  388.000;  249.000
444.885; -117.900; -432.000; -392.000
445.007;  -15.600;   35.000;   86.000
445.129; -123.325; -610.000; -515.000
445.251;  -94.775; -372.000; -439.000
445.373; -130.575; -537.000; -386.000
445.495;  -20.200;  242.000;  350.000
445.617;   29.875;  853.000;  753.000
445.739;  -65.575; -215.000;  -97.000
445.861;  -75.050; -245.000; -112.000
445.984;  -82.500; -267.000; -101.000
446.105;  -17.650; -418.000; -251.000
446.227;  130.550; -176.000;  -19.000
446.349;  -75.125; -358.000; -249.000
446.471; -109.975; -615.000; -448.000
446.593;  -90.775; -316.000;   19.000
446.715;  -40.650;  -67.000;   41.000
446.837;   42.725;  697.000;  832.000
446.959; -102.650; -457.000; -478.000
447.081; -138.825; -628.000; -518.000
447.203;   41.050;  862.000;  834.000
447.325;  -87.750; -270.000;   42.000
447.446;  -12.650;  286.000;  530.000
447.568; -146.575; -921.000; -803.000
447.690;  -75.375; -236.000; -245.000
447.812; -139.875; -798.000; -519.000
447.933;  -26.050;  155.000;  127.000
448.055;  -68.450; -306.000; -261.000
448.177;   48.550;   31.000;   79.000
448.299;  -79.875; -935.000; -727.000
448.420;   -5.625;  -25.000;  159.000
448.542;  -54.325;   -3.000;   33.000
448.664;   -9.850;  109.000;  322.000
448.785;  -35.350;  265.000;   83.000
448.907; -102.025; -614.000; -353.000
449.028; -100.400; -771.000; -471.000
449.150;   48.100;  492.000;  589.000
449.272; -174.400;-1044.000; -913.000
449.393;   31.250;  612.000;  694.000
449.515; -137.925; -634.000; -581.000
449.636;  -49.200; -264.000; -155.000
449.758;   34.500;  763.000;  622.000
449.879;  -70.300; -498.000; -396.000
450.001;  -74.275; -149.000;  -49.000
450.122;  -25.050;  -95.000;  162.000
450.244;   -8.350;   37.000;  364.000
450.365;  -52.850; -495.000; -301.000
450.486;    2.450;   80.000;  268.000
450.608;   48.350;  393.000;  326.000
450.729;  120.200;  578.000;  645.000
450.850;  102.900; -574.000; -466.000
450.972; 1175.950; -552.000; -389.000
451.093; 7685.450;  190.000;  588.000
451.214; 4101.950; -516.000; -337.000
451.336;  720.550;  773.000;  579.000
451.457;  110.950;  264.000;  393.000
451.578;   -7.125; -118.000;  -74.000
451.699;  -89.775; -546.000; -540.000
451.821;  -34.625; -284.000;  -50.000
451.942;   13.850;  278.000;  285.000
452.063;   77.675;  228.000;  419.000
452.184;  813.600;  -54.000;  -49.000
452.305; 1768.475;  103.000;  170.000
452.427;  359.925; -549.000; -301.000
452.548;   21.750;   23.000;   79.000
452.669;  -61.600; -257.000;  -89.000
452.790;  -37.625;    3.000;  -18.000
452.911;  -16.825;  195.000;  259.000
453.032;  -72.200; -289.000;  -60.000
453.153;  -59.275;  -29.000;   81.000
453.274;   48.175;  737.000;  868.000
453.395;  -54.025;  -51.000;  175.000
453.516;    0.175; 1317.000; 1388.000
453.637; -113.375; -205.000; -150.000
453.758;  -46.075;   15.000;   69.000
453.879; -115.025; -462.000; -250.000
454.000;   64.675; 1086.000;  948.000
454.121; -122.625; -554.000; -326.000
454.242; -101.200; -599.000; -383.000
454.362;  -45.900;  -99.000;  114.000
454.483;   24.400; -309.000; -229.000
454.604;   95.150;  512.000;  580.000
454.725; -107.375; -627.000; -555.000
454.846; -128.200; -474.000; -406.000
454.967;  -21.950;  230.000;  539.000
455.087;  -50.675;  179.000;  153.000
455.208;   18.925;  554.000;  856.000
455.329;  -53.400;  -22.000;   82.000
455.450;   62.925;  473.000;  633.000
455.570;  -67.550; -234.000; -211.000
455.691;  -20.825;  201.000;  407.000
455.812; -103.925; -270.000;  -92.000
455.932;  -53.175;  107.000;  -97.000
456.053;  -74.850;   36.000;   24.000
456.173;  -92.825; -433.000; -355.000
456.294; -131.225; -476.000; -303.000
456.415;  -57.125;  -73.000;   70.000
456.535;  -44.375;  297.000;  273.000
456.656;  -46.725;  132.000;  240.000
456.776;  -77.325;    3.000;  298.000
456.897;   -3.050;  308.000;  513.000
457.017;  -68.300; -153.000;   -3.000
457.138;  -93.250; -402.000; -249.000
457.258;  -32.125;  263.000;  224.000
457.379;   -8.800;  509.000;  521.000
457.499;  -15.775;  443.000;  432.000
457.620; -108.225; -407.000; -231.000
457.740;  -80.475; -132.000;  -11.000
457.860;  -42.800;   87.000;   44.000
457.981;  -11.925;  132.000;  124.000
458.101;  -46.825;  -89.000;   40.000
458.221;  -15.150;  336.000;  402.000
458.342;  -56.550;   -4.000;  -37.000
458.462;   52.025;  617.000;  352.000
458.582;   22.100; -302.000; -294.000
458.703;   51.100;  303.000;  154.000
458.823;   15.125;   22.000;  163.000
458.943;   64.175;  341.000;  467.000
459.063;   44.500; 1124.000;  192.000
459.183;  -11.525;  328.000;  313.000
459.304;    6.775;  315.000;  517.000
459.424;  -40.225; -246.000;  -89.000
459.544;  472.300;  388.000;  764.000
459.664; 1285.750;  499.000;  506.000
459.784;  545.000; 1004.000; 1175.000
459.904;   94.000;  867.000;  744.000
460.024;   67.075;  867.000;  684.000
460.144;  -16.850;  449.000;  554.000
460.264;   15.775;  515.000;  327.000
460.385;  -87.700; -145.000; -119.000
460.505;   28.050;  905.000;  858.000
460.625;  -90.775;  -17.000;  -68.000
460.745;   -9.725;  396.000;  541.000
460.864;  -20.425;  153.000;  469.000
460.984;   82.100;  499.000;  573.000
461.104;  164.775; 1656.000; 1775.000
461.224;   18.975;  657.000;  650.000
461.344;  -49.475;  431.000;  360.000
461.464;  -37.275;  258.000;  513.000
461.584;  -23.850;  283.000;  466.000
461.704;  -64.575;   58.000;  108.000
461.824;  -66.725;  238.000;  259.000
461.943;  -24.975;  191.000;  130.000
462.063;  -79.650;    2.000;  324.000
462.183;   33.350;  639.000;  717.000
462.303;   84.550; 1678.000; 1230.000
462.422;   28.250;  781.000;  840.000
462.542;  -44.475;  271.000;  391.000
462.662;   49.250;  353.000;  380.000
462.782;  317.425;  833.000;  572.000
462.901;  754.900;  545.000;  717.000
463.021;  418.100; 1702.000; 1638.000
463.141;   11.825;  337.000;  770.000
463.260;  -13.225;  614.000;  474.000
463.380;   21.000;  902.000;  884.000
463.499;  -39.150;  342.000;  332.000
463.619;  -14.300;  581.000;  559.000
463.738;   96.075; 1644.000;  903.000
463.858;    9.075;  657.000;  811.000
463.978;  -30.450;  542.000;  396.000
464.097;   47.625;  921.000; 1114.000
464.217;  130.300; 1196.000; 1143.000
464.336;  152.075; 1068.000; 1130.000
464.455;  -24.775;  328.000;  659.000
464.575;    4.250;  597.000;  602.000
464.694;  112.550; 1204.000; 1179.000
464.814;  144.300; 1190.000; 1138.000
464.933;   71.500; 1095.000; 1027.000
465.052;  100.425; 1412.000; 1054.000
465.172;   66.400;  922.000;  799.000
465.291;  120.125; 1376.000; 1320.000
465.410;   -1.700;  462.000;  735.000
465.530;   77.400; 1355.000; 1310.000
465.649;   49.875; 1209.000; 1273.000
465.768;  150.825; 1673.000; 1508.000
465.888;   87.400;  941.000; 1174.000
466.007;   97.475; 1335.000; 1440.000
466.126;   -3.700;  721.000;  641.000
466.245;   34.500; 1176.000; 1187.000
466.364;   26.000;  950.000; 1060.000
466.484;   52.350; 1024.000; 1213.000
466.603;   30.975; 1101.000; 1222.000
466.722;  116.875; 1490.000; 1769.000
466.841;   60.050; 1151.000; 1401.000
466.960;   32.900; 1069.000;  972.000
467.079;  119.125; 1971.000; 1786.000
467.198;   45.825; 1238.000; 1181.000
467.317;   83.400; 1768.000; 1162.000
467.436;   80.800; 1709.000; 1261.000
467.555;  135.525; 1796.000; 1746.000
467.674;   64.650; 1227.000; 1329.000
467.793;   49.675; 1376.000; 1374.000
467.912;   88.250; 1658.000; 1539.000
468.031;  136.350; 2038.000; 1930.000
468.150;  139.175; 1842.000; 1837.000
468.269;  171.575; 2313.000; 2090.000
468.388;  199.350; 2168.000; 2339.000
468.507;  245.025; 2884.000; 2903.000
468.626;  236.175; 2555.000; 2541.000
468.744;  153.050; 2018.000; 2174.000
468.863;  187.425; 2312.000; 2523.000
468.982;   96.250; 1503.000; 1555.000
469.101;  233.525; 2788.000; 2692.000
469.220;  158.100; 2333.000; 2176.000
469.338;  262.550; 2935.000; 3051.000
469.457;  193.225; 2719.000; 2545.000
469.576;  356.550; 3953.000; 3784.000
469.695;  248.225; 2877.000; 3066.000
469.813;  418.650; 4148.000; 4192.000
469.932;  400.275; 4255.000; 4485.000
470.051;  458.100; 4075.000; 4161.000
470.169; 1019.675; 4470.000; 4338.000
470.288; 2013.275; 4700.000; 4809.000
470.406; 1209.700; 5059.000; 5194.000
470.525;  689.050; 6101.000; 5787.000
470.644;  651.625; 6847.000; 6794.000
470.762;  781.525; 8397.000; 7873.000
470.881;  892.250; 8651.000; 8464.000
470.999; 1049.225; 9685.000; 9151.000
471.118; 1096.275;11174.000;10711.000

