
Integration time [ms]: 100.000
Averaging Nr. [scans]: 40
Smoothing Nr. [pixels]: 0
Data measured with spectrometer [name]: 2101012U2
Wave   ;Sample   ;Dark     ;Reference
[nm]   ;[counts] ;[counts] ;[counts] 

197.733;   57.400;  516.000;  404.000
197.879;  -77.875; -610.000; -634.000
198.025;  -41.425; -475.000; -420.000
198.171;  -84.325; -602.000; -612.000
198.317;  -28.875; -401.000; -316.000
198.463;  -52.600; -655.000; -404.000
198.609;   40.775;  181.000; -137.000
198.755;  -71.975; -644.000; -410.000
198.901;  -63.700; -505.000; -424.000
199.047;  -61.075; -615.000; -488.000
199.193;  -31.200; -230.000; -468.000
199.339;  -42.350; -222.000; -369.000
199.485;   39.725;  330.000;  271.000
199.631;    1.225;  227.000;  310.000
199.777;  -48.475; -466.000; -398.000
199.923;  -57.200; -610.000; -424.000
200.069;   -9.425; -141.000;  -58.000
200.215;   50.100;  128.000;  453.000
200.361;   41.425;  243.000;  477.000
200.507;  -65.300; -600.000; -373.000
200.653;   -8.125; -371.000; -194.000
200.798;  -59.925; -215.000; -125.000
200.944;   -1.100; -146.000;  -41.000
201.090;   39.000;   61.000;  222.000
201.236;   -4.750; -116.000; -158.000
201.382;  115.625;  874.000;  903.000
201.528;    0.375;  -58.000;  -48.000
201.674;  -64.075; -386.000; -293.000
201.819;  -51.275; -540.000; -439.000
201.965;  -88.750; -699.000; -447.000
202.111;  -17.775; -273.000; -226.000
202.257;  -51.500; -250.000; -238.000
202.402;   10.100;   13.000;  -36.000
202.548;  -28.750; -169.000; -116.000
202.694;   91.175;  410.000; -183.000
202.840;  -71.475; -603.000; -531.000
202.985;  -75.500; -681.000; -639.000
203.131; -101.425; -832.000; -666.000
203.277;   -8.275; -199.000; -262.000
203.423;  -60.475; -434.000; -520.000
203.568;  -30.950; -462.000; -237.000
203.714;  -73.975; -535.000; -542.000
203.860;  -75.400; -682.000; -641.000
204.005;    4.350;  112.000;  167.000
204.151;   74.125;  561.000;  556.000
204.296;  -55.725; -354.000; -221.000
204.442;  -66.350; -600.000; -547.000
204.588;  -75.875; -592.000; -579.000
204.733;   10.250;  178.000;  168.000
204.879; -130.375;-1018.000; -822.000
205.025;   22.775;  -99.000;  126.000
205.170;   -6.775;  -17.000;   94.000
205.316;   69.425;  438.000;  661.000
205.461;  -70.475; -698.000; -554.000
205.607;   80.375;  609.000;  665.000
205.752;  -76.225; -626.000; -551.000
205.898;  -52.650; -501.000; -391.000
206.043;  -63.225; -578.000; -506.000
206.189;  -41.225; -243.000; -285.000
206.334;   64.850;  554.000;  606.000
206.480;   79.475;  409.000;  239.000
206.625;  -96.975; -529.000; -552.000
206.771;  -42.850; -451.000; -373.000
206.916;  -26.300; -210.000; -537.000
207.062;  -70.500; -545.000; -591.000
207.207;  -53.900; -546.000; -443.000
207.353;   55.625;  185.000;  460.000
207.498;   12.575;  196.000;   85.000
207.643;  -39.425; -501.000; -370.000
207.789; -118.150;-1069.000; -910.000
207.934;  -86.400; -665.000; -713.000
208.080;  -43.975; -154.000;   66.000
208.225;   -5.375;  -22.000;  -57.000
208.370;  -79.025; -727.000; -619.000
208.516;  -64.725; -741.000; -487.000
208.661;  -41.350; -127.000;  -69.000
208.806;  -17.925; -165.000; -171.000
208.952; -127.000;-1044.000; -731.000
209.097;   72.950;  378.000;  349.000
209.242;  -46.400; -307.000; -382.000
209.387;   82.625;  392.000;  350.000
209.533;  -52.900; -321.000; -350.000
209.678;   65.925;  472.000;  543.000
209.823;  -67.450; -408.000; -310.000
209.969;  -84.375; -860.000; -757.000
210.114;  -93.975; -907.000; -719.000
210.259; -106.350; -939.000; -889.000
210.404;  -22.300; -171.000;  103.000
210.549;   19.450;  108.000;    3.000
210.695;  -14.425;   -3.000;  -95.000
210.840;   36.600;   94.000;   67.000
210.985;  -66.175; -484.000; -303.000
211.130;   71.900;  268.000;  406.000
211.275;   -0.700;  207.000;  199.000
211.420;  -37.150; -300.000; -289.000
211.566;  -70.475; -536.000; -489.000
211.711;   14.675;  218.000;  157.000
211.856;  -65.575; -545.000; -519.000
212.001;    8.675;  151.000;   44.000
212.146;    7.075;  153.000;   49.000
212.291;  -23.175; -210.000; -186.000
212.436;  -42.175; -280.000;   -6.000
212.581;  -77.950; -685.000; -653.000
212.726;  -78.500; -487.000; -538.000
212.871;  -45.800; -552.000; -217.000
213.016; -153.475;-1172.000;-1029.000
213.161;   60.050;  406.000;  291.000
213.306;  -79.000; -435.000; -577.000
213.451;  -93.025; -778.000; -689.000
213.596;  -54.625; -455.000; -347.000
213.741;  -47.950; -448.000; -538.000
213.886;  -92.125; -498.000; -517.000
214.031;  -24.475; -294.000; -124.000
214.176;  -54.975; -408.000; -341.000
214.321;  -17.050; -296.000; -157.000
214.466;  -39.200; -163.000;  -43.000
214.611;   -7.950;  -61.000;  -10.000
214.756; -124.275; -948.000; -858.000
214.901;  -28.400; -388.000; -226.000
215.046; -113.225; -797.000; -825.000
215.191;   15.025;  128.000;   35.000
215.336;  -32.950; -157.000;  -19.000
215.480;  -63.975; -684.000; -505.000
215.625;  -11.750; -175.000;  -19.000
215.770;  -83.650; -757.000; -662.000
215.915;  -20.225;   -5.000;  -97.000
216.060;    3.550; -113.000;  -21.000
216.205; -116.125; -731.000; -779.000
216.349;  -67.725; -470.000; -533.000
216.494; -133.700; -939.000; -867.000
216.639; -113.625; -823.000; -888.000
216.784;  -88.025; -577.000; -525.000
216.929;   54.275;  392.000;  281.000
217.073;   -7.150; -244.000;  -31.000
217.218;   10.775;   78.000;  -47.000
217.363;  -88.725; -656.000; -618.000
217.507;  -75.200; -623.000; -588.000
217.652; -117.275; -845.000; -874.000
217.797;  -74.050; -708.000; -659.000
217.942; -110.025; -856.000; -720.000
218.086;   76.325;  608.000;  539.000
218.231;  -25.325; -174.000;  -26.000
218.376;  -24.725; -337.000; -229.000
218.520;   -5.900;  -41.000;   96.000
218.665;  -31.525; -338.000; -204.000
218.810;  -38.375; -275.000; -233.000
218.954;   16.675;  201.000;   35.000
219.099; -119.250; -713.000; -963.000
219.243;  -61.725; -589.000; -554.000
219.388;  -27.625; -264.000; -136.000
219.532;  -17.625; -116.000; -116.000
219.677;  -79.200; -564.000; -521.000
219.822;   18.225;   33.000;   89.000
219.966;  -13.650;   17.000;  -99.000
220.111;  -29.550; -328.000;  -40.000
220.255; -100.225; -797.000; -750.000
220.400;   -8.675; -180.000; -146.000
220.544;  -75.650; -516.000; -450.000
220.689;  -45.775; -422.000; -451.000
220.833;  -37.200; -123.000;  -58.000
220.978;  -39.400; -393.000; -563.000
221.122;    0.575;  319.000;  307.000
221.267;  -93.475; -906.000; -837.000
221.411;  -72.425; -478.000; -394.000
221.555;  -13.175; -104.000;  -23.000
221.700;  -56.025; -329.000; -222.000
221.844;   43.025;  255.000;  272.000
221.989;  -52.700; -328.000; -311.000
222.133;  -32.300; -289.000; -307.000
222.277;  -31.225;    5.000;   78.000
222.422;   27.825;  227.000;  113.000
222.566;  -46.600; -381.000; -214.000
222.711;  -44.600; -414.000; -479.000
222.855;  -75.825; -643.000; -586.000
222.999;  -75.625; -642.000; -717.000
223.144;  -25.725; -195.000; -194.000
223.288;   56.075;  423.000;  251.000
223.432;    5.800;  184.000;  230.000
223.576;   13.150;  152.000;  -21.000
223.721;   37.300;  364.000;  273.000
223.865;  -57.375; -472.000; -475.000
224.009;  225.475; 1673.000; 1631.000
224.153;  -67.525; -660.000; -671.000
224.298;  -70.000; -531.000; -489.000
224.442;   -5.250;  -74.000;  -33.000
224.586;  -24.775; -169.000; -106.000
224.730; -100.675; -858.000; -670.000
224.875; -106.950; -739.000; -688.000
225.019;   27.575;  102.000;  188.000
225.163;   36.775;  208.000;  341.000
225.307;    7.650;   97.000;  -91.000
225.451;   34.500;  360.000;  481.000
225.595;   28.600;  264.000;  176.000
225.739;  -25.000; -170.000;  -94.000
225.884;    4.700;   86.000;    5.000
226.028; -100.350; -760.000; -626.000
226.172;  -31.200; -260.000; -273.000
226.316; -121.875; -941.000; -902.000
226.460;  -62.475; -645.000; -493.000
226.604;  -47.875; -406.000; -400.000
226.748;  -93.500; -836.000; -733.000
226.892;  -37.975; -227.000; -181.000
227.036;  -36.650; -537.000; -447.000
227.180;  -55.325; -551.000; -375.000
227.324;  -65.250; -561.000; -580.000
227.468; -113.175; -819.000; -717.000
227.612;   20.650;  242.000;  -28.000
227.756; -106.100; -845.000; -698.000
227.900;   46.100;  342.000;  441.000
228.044;  -49.600; -509.000; -290.000
228.188;   61.525;  448.000;  568.000
228.332;  -98.950; -546.000; -472.000
228.476;  -19.875; -223.000; -149.000
228.620;  -41.525; -210.000; -150.000
228.764;   74.600;  431.000;  349.000
228.908;  -34.150; -155.000;   30.000
229.052;  -54.675; -615.000; -528.000
229.195;  -21.400; -172.000;   13.000
229.339;  -28.175; -235.000; -305.000
229.483;  -47.375;    5.000; -162.000
229.627;   -1.500; -156.000;  139.000
229.771;  -52.325; -218.000; -294.000
229.915;   19.050;  230.000;   79.000
230.059;  -93.500; -648.000; -663.000
230.202;  -23.750; -370.000; -317.000
230.346;  -30.725; -107.000;  107.000
230.490;  -58.550; -489.000; -521.000
230.634; -108.875; -736.000; -553.000
230.777;   68.500;  478.000;  509.000
230.921;  -61.700; -450.000; -359.000
231.065;  -29.550; -246.000; -286.000
231.209;   17.750;  261.000;  265.000
231.352;   22.350;   54.000;   40.000
231.496;   13.200;  568.000;  188.000
231.640;  -72.000; -693.000; -621.000
231.783;   40.650;  546.000;  525.000
231.927;  -35.375; -294.000; -365.000
232.071; -130.125; -962.000; -736.000
232.214;  -92.575; -980.000; -764.000
232.358;  -96.150; -683.000; -599.000
232.502;    2.450;  -19.000;    7.000
232.645; -133.900;-1090.000; -927.000
232.789;  -15.325; -257.000; -218.000
232.933;  -44.700; -407.000; -224.000
233.076; -121.750;-1038.000; -897.000
233.220; -121.350; -752.000; -777.000
233.363;  -63.750; -669.000; -477.000
233.507;   49.675;  371.000;  129.000
233.650;  -86.825; -764.000; -834.000
233.794;   42.025;  438.000;  461.000
233.938;  -55.050; -530.000; -362.000
234.081;  -17.150;  -93.000;   31.000
234.225;  -64.200; -631.000; -539.000
234.368; -114.200; -773.000; -723.000
234.512;  -27.625; -385.000; -299.000
234.655;  -95.750; -582.000; -555.000
234.798;  -55.625; -493.000; -466.000
234.942; -144.400; -884.000;-1002.000
235.085;  -75.300; -651.000; -443.000
235.229;  -75.175; -405.000; -410.000
235.372;  -48.450; -247.000; -191.000
235.516;  -71.025; -397.000; -321.000
235.659;    9.650;   92.000;  121.000
235.802;  -13.575;  -38.000;  -22.000
235.946;   24.550;  335.000;  215.000
236.089;   13.050;  126.000;  250.000
236.233;   63.975;  275.000;  298.000
236.376;  -54.575; -235.000; -378.000
236.519;  -43.575; -297.000; -319.000
236.663;  -25.675; -215.000; -117.000
236.806; -127.150;-1029.000; -999.000
236.949;   40.825;  543.000;  431.000
237.092;   60.100;  412.000;  391.000
237.236; -103.725; -589.000; -502.000
237.379;   55.800;  352.000;  428.000
237.522; -127.750; -879.000; -768.000
237.666;  -17.400; -271.000;   18.000
237.809; -120.800; -851.000; -823.000
237.952;   41.900;  469.000;  271.000
238.095;  -67.175; -447.000; -442.000
238.238;   79.175;  688.000;  700.000
238.382;  -10.700;  166.000;  103.000
238.525;  -66.475; -598.000; -511.000
238.668; -134.475;-1060.000; -985.000
238.811;  -86.550; -638.000; -643.000
238.954;  -61.425; -483.000; -334.000
239.097;   80.550;  617.000;  664.000
239.241;   20.550;  394.000;  326.000
239.384;  -38.025; -254.000; -214.000
239.527;  -73.625; -424.000; -224.000
239.670; -122.550; -994.000;-1091.000
239.813; -110.150; -696.000; -658.000
239.956;   75.800;  579.000;  473.000
240.099; -111.400; -778.000; -725.000
240.242;   49.350;  428.000;  432.000
240.385;   34.725;  466.000;  450.000
240.528;  -75.150; -706.000; -473.000
240.671;   16.550;  189.000;  134.000
240.814;  -52.150; -441.000; -158.000
240.957; -101.600; -767.000; -578.000
241.100;  -87.525; -779.000; -755.000
241.243; -143.125;-1234.000; -893.000
241.386;  -59.850; -508.000; -379.000
241.529;  -96.600; -735.000; -547.000
241.672;  -47.825; -566.000; -495.000
241.815; -117.550; -832.000; -808.000
241.958;  -30.575; -125.000; -182.000
242.101;  -98.200; -545.000; -390.000
242.244;  -50.300; -270.000; -325.000
242.387;  -43.200; -304.000; -246.000
242.530;   52.375;  470.000;  134.000
242.673;  -47.725; -381.000; -309.000
242.815; -102.225; -925.000; -899.000
242.958;  -67.575; -482.000; -381.000
243.101;    6.100;  132.000;  187.000
243.244;  -89.100; -564.000; -521.000
243.387;  -33.775; -313.000; -316.000
243.530; -107.775; -657.000; -674.000
243.672;    4.375;   43.000;  -92.000
243.815;  -66.900; -355.000; -283.000
243.958;    8.150;   98.000;  -26.000
244.101;   -7.750;   59.000;  -16.000
244.243;   -1.200;  -47.000;  101.000
244.386; -114.525; -761.000; -630.000
244.529;  -30.275; -132.000; -139.000
244.672; -158.475;-1154.000; -951.000
244.814;  -93.525; -621.000; -794.000
244.957;  -63.050; -380.000; -304.000
245.100;  -67.550; -489.000; -489.000
245.242;  -71.475; -387.000; -374.000
245.385;    1.875;  -59.000;  -39.000
245.528; -132.475; -871.000; -705.000
245.670;   82.000;  612.000;  634.000
245.813;  -91.175; -599.000; -547.000
245.956;  -25.750; -324.000; -275.000
246.098;  -79.700; -508.000; -650.000
246.241;    2.900;  194.000;   48.000
246.383;  -27.025; -119.000;  -73.000
246.526;  -76.625; -454.000; -525.000
246.669; -116.725; -889.000; -780.000
246.811;   14.600;  172.000;   -1.000
246.954;  -53.425; -512.000; -426.000
247.096;  -18.000;  -84.000;   -6.000
247.239;  -84.425; -482.000; -445.000
247.381;  -79.025; -647.000; -488.000
247.524;   63.225;  645.000;  679.000
247.666;  -25.450;   58.000;   11.000
247.809; -131.025; -887.000; -691.000
247.951;   -7.175;  -75.000;  138.000
248.094;   22.975;  432.000;  308.000
248.236; -147.550;-1262.000;-1238.000
248.378;  -12.500; -356.000;  -81.000
248.521;  -40.100; -334.000; -337.000
248.663;  -51.475; -236.000; -267.000
248.806;  -30.000; -300.000; -266.000
248.948; -123.300; -886.000; -763.000
249.090;  -52.650; -428.000; -398.000
249.233;  -68.700; -344.000; -381.000
249.375;  -64.900; -474.000; -451.000
249.518;  -16.625;  -83.000; -133.000
249.660;  -12.200; -103.000;    3.000
249.802; -174.975;-1303.000;-1189.000
249.945;  -69.350; -612.000; -540.000
250.087; -112.200; -834.000; -768.000
250.229;  -49.250; -362.000; -480.000
250.371;  -81.275; -494.000; -439.000
250.514;  -52.325; -310.000; -244.000
250.656;  -72.825;   69.000;  102.000
250.798; -108.550; -849.000; -800.000
250.940;  -62.400; -322.000; -322.000
251.083;  -23.975; -335.000; -111.000
251.225;   43.725;  338.000;  310.000
251.367;  -38.000; -274.000; -373.000
251.509;  -50.275; -265.000; -210.000
251.651;  -95.900; -731.000; -671.000
251.794;   36.275;  538.000;  632.000
251.936;  -95.675; -821.000; -747.000
252.078;  -70.800; -540.000; -461.000
252.220;  -74.150; -645.000; -477.000
252.362;   46.500;  344.000;  462.000
252.504;  -82.925; -677.000; -584.000
252.646; -113.125; -875.000; -722.000
252.788;   -1.525;   14.000; -128.000
252.931;  -49.925; -257.000; -253.000
253.073;  -35.450; -376.000; -317.000
253.215;  -18.050;  141.000;  122.000
253.357;  -17.750;   82.000; -153.000
253.499;  -53.075; -374.000; -234.000
253.641;  -89.650; -749.000; -594.000
253.783; -103.825; -609.000; -527.000
253.925;  -86.000; -586.000; -591.000
254.067; -116.775; -744.000; -667.000
254.209;  -42.325; -391.000; -259.000
254.351; -125.425; -865.000; -883.000
254.493;  -53.675; -441.000; -417.000
254.635; -142.150; -936.000; -818.000
254.777;  -87.200; -752.000; -687.000
254.918;  -76.875; -512.000; -430.000
255.060;  -70.425; -551.000; -395.000
255.202;  -59.150; -473.000; -261.000
255.344;  -73.100; -658.000; -455.000
255.486;  -70.625; -471.000; -406.000
255.628; -112.050; -780.000; -781.000
255.770;  -93.475; -676.000; -536.000
255.912;  -53.300; -559.000; -468.000
256.053; -100.900; -730.000; -508.000
256.195;  145.050; 1008.000;  903.000
256.337; -117.375; -861.000; -595.000
256.479;   67.850;  532.000;  416.000
256.621;  -50.575; -394.000; -212.000
256.762;  -92.075; -789.000; -742.000
256.904;   37.125;  485.000;  487.000
257.046;  -42.400; -381.000; -271.000
257.188;  -69.025; -351.000; -264.000
257.329;  -73.775; -525.000; -464.000
257.471; -123.125; -939.000; -807.000
257.613;  -73.275; -584.000; -498.000
257.755; -146.725;-1073.000; -982.000
257.896;   28.800;  286.000;  392.000
258.038;  -66.000; -403.000; -352.000
258.180;  -35.750; -354.000; -279.000
258.321;  -91.450; -581.000; -457.000
258.463;  -10.050;  -71.000;  133.000
258.605;  -97.800; -562.000; -570.000
258.746; -106.425; -886.000; -772.000
258.888; -159.525;-1026.000;-1020.000
259.029;   24.850;  121.000;   -8.000
259.171;  -86.350; -614.000; -550.000
259.313;   -7.650;  -49.000;  -47.000
259.454;  -89.375; -536.000; -414.000
259.596;  -55.525; -483.000; -390.000
259.737;  -74.175; -590.000; -474.000
259.879;   42.325;  217.000;  311.000
260.020;   54.775;  901.000;  636.000
260.162;  -24.100; -146.000; -253.000
260.303; -125.300; -768.000; -687.000
260.445;  -77.025; -609.000; -613.000
260.586;   10.325;  392.000;  157.000
260.728;  -46.875; -360.000; -248.000
260.869;  -76.900; -350.000; -343.000
261.011;   74.900;  706.000;  537.000
261.152;  -61.475; -479.000; -319.000
261.293;  -68.950; -576.000; -595.000
261.435;  -37.800; -219.000; -184.000
261.576;  -54.525; -455.000; -325.000
261.718;   31.750;  420.000;  470.000
261.859; -119.200; -940.000; -949.000
262.000; -134.425; -951.000;-1016.000
262.142;  -10.175;  -52.000;  -60.000
262.283; -112.675; -808.000; -691.000
262.424;  -79.200; -666.000; -625.000
262.566; -163.025;-1161.000; -983.000
262.707; -112.550; -840.000; -830.000
262.848; -122.775; -769.000; -726.000
262.990;  -48.325; -362.000; -345.000
263.131;   86.550;  650.000;  681.000
263.272;  -14.800;  -61.000;  -41.000
263.413;  -92.175; -589.000; -561.000
263.555;  -52.825; -669.000; -143.000
263.696;  -88.925; -550.000; -641.000
263.837;  -61.150; -449.000; -551.000
263.978;  -19.975;   -5.000;  -77.000
264.119;  -42.950; -283.000; -264.000
264.261;  -96.450; -847.000; -630.000
264.402;  -13.575;   33.000;   40.000
264.543;  -81.500; -509.000; -524.000
264.684;    0.175;   61.000;  -50.000
264.825;  -83.100; -816.000; -538.000
264.966;   -9.675;  -84.000;  -67.000
265.107; -113.000; -646.000; -670.000
265.248; -115.950; -825.000; -812.000
265.390;  -27.225;  152.000;   -9.000
265.531;  -18.700; -238.000; -107.000
265.672;  -90.450; -557.000; -630.000
265.813;   52.750;  563.000;  439.000
265.954; -145.775; -959.000; -940.000
266.095;  -27.175; -372.000; -322.000
266.236; -104.600; -686.000; -548.000
266.377;  -46.300; -243.000; -297.000
266.518;  -75.100; -619.000; -547.000
266.659;   23.600;  170.000;  268.000
266.800;   -1.925;   83.000;   85.000
266.941;  -79.300; -487.000; -478.000
267.082;   -5.000;  354.000;   99.000
267.223;  -41.050; -344.000; -273.000
267.364; -123.300; -892.000; -686.000
267.504;  -17.175;    3.000;  135.000
267.645;   -6.200;  160.000;   67.000
267.786;  -28.450; -147.000;  -86.000
267.927;  -78.925; -473.000; -379.000
268.068;  -10.800; -186.000;  -61.000
268.209;  -49.225; -175.000; -413.000
268.350;  -56.825; -388.000; -532.000
268.490;  -81.300; -648.000; -521.000
268.631;   31.375;  127.000;  225.000
268.772; -115.100; -874.000; -647.000
268.913;  -37.300; -328.000; -476.000
269.054;  -16.625; -117.000;   12.000
269.194;  -39.100; -418.000; -402.000
269.335; -158.650;-1137.000;-1074.000
269.476;  -12.200;   33.000;  -35.000
269.617;  -70.175; -347.000; -392.000
269.757;  -81.475; -713.000; -646.000
269.898; -105.275; -856.000; -613.000
270.039;  -64.125; -415.000; -405.000
270.180; -138.250; -952.000; -816.000
270.320;  -20.550; -190.000; -250.000
270.461;  -39.700; -277.000; -249.000
270.602;  -16.250; -186.000; -156.000
270.742; -130.900; -868.000; -943.000
270.883;  -62.125; -442.000; -390.000
271.023;  -58.400; -358.000; -357.000
271.164;  -80.475; -607.000; -528.000
271.305;  -96.675; -666.000; -654.000
271.445;  -89.675; -722.000; -683.000
271.586;  -73.550; -462.000; -283.000
271.726;  -48.225; -397.000; -322.000
271.867;  -79.825; -594.000; -534.000
272.008;   48.575; -473.000; -285.000
272.148;   69.300;  462.000;  468.000
272.289;   -8.475; -113.000; -181.000
272.429;   -6.950;   19.000;  185.000
272.570;  -84.200; -633.000; -737.000
272.710; -105.975; -825.000; -775.000
272.851;  -20.550;  113.000; -130.000
272.991; -159.425;-1173.000;-1077.000
273.131;  -73.525; -419.000; -459.000
273.272; -112.175; -683.000; -723.000
273.412;  -10.150; -143.000;  -31.000
273.553;  -74.675; -488.000; -507.000
273.693;  127.625;  913.000;  858.000
273.834; -123.150; -894.000; -692.000
273.974;  -73.850; -664.000; -615.000
274.114; -119.100; -772.000; -560.000
274.255;   55.600;  414.000;  373.000
274.395;  -23.900; -180.000; -125.000
274.535;   26.250;  199.000;  350.000
274.676;   10.775;  225.000;   94.000
274.816;   -3.175;  110.000;   34.000
274.956; -109.300; -624.000; -690.000
275.097;  -87.650;-1014.000; -922.000
275.237; -120.825; -913.000; -803.000
275.377; -107.575; -778.000; -689.000
275.517; -143.375; -878.000; -937.000
275.658;  -73.975; -590.000; -555.000
275.798;  -90.650; -606.000; -413.000
275.938;   18.975;  215.000;  323.000
276.078;  -82.825; -626.000; -395.000
276.218;   -7.775;   99.000;  104.000
276.359; -136.175;-1026.000;-1024.000
276.499;  -66.100; -605.000; -446.000
276.639;  -33.250; -305.000; -151.000
276.779;  -52.525; -475.000; -357.000
276.919; -116.450; -783.000; -624.000
277.059;  -34.800; -261.000; -212.000
277.199;  -68.625; -357.000; -259.000
277.340;   35.775;  287.000;  175.000
277.480; -122.850; -840.000; -693.000
277.620;   21.975;  192.000;   16.000
277.760; -189.525;-1533.000;-1294.000
277.900;    1.900;  113.000;   33.000
278.040;    0.100;  137.000;  159.000
278.180;   28.750;  270.000;  170.000
278.320;  -14.700;   21.000;   56.000
278.460;  -61.450; -443.000; -469.000
278.600;  -89.625; -708.000; -598.000
278.740;   52.825;  448.000;  224.000
278.880; -115.375; -768.000; -791.000
279.020;  -32.125; -194.000; -144.000
279.160;  -92.550; -672.000; -595.000
279.300; -123.000; -926.000; -873.000
279.440; -110.450; -709.000; -622.000
279.579;  -86.750;-1014.000; -929.000
279.719;  -65.975; -410.000; -394.000
279.859;   42.625;   -4.000;   41.000
279.999;   -8.250; -208.000;  101.000
280.139;  -47.025; -435.000; -387.000
280.279;  -77.050; -708.000; -745.000
280.419;  -18.950; -229.000; -147.000
280.559;  -49.300; -259.000; -180.000
280.698;  -89.775; -790.000; -639.000
280.838; -111.350; -778.000; -800.000
280.978;  -93.925; -846.000; -790.000
281.118; -110.875; -811.000; -704.000
281.257;   11.050;   24.000;    6.000
281.397; -140.450;-1094.000; -960.000
281.537;  -96.625; -599.000; -712.000
281.677;  -18.625; -150.000; -101.000
281.816;  -78.650; -700.000; -630.000
281.956;  -28.275; -193.000; -257.000
282.096;  -62.125; -539.000; -396.000
282.235; -101.925; -672.000; -638.000
282.375;  -20.400; -243.000;  -98.000
282.515; -100.875; -715.000; -707.000
282.654;    3.175;   29.000;  106.000
282.794;   14.675;  388.000;  244.000
282.934;  -50.500; -530.000; -491.000
283.073; -135.000;-1030.000; -857.000
283.213;  -37.625; -460.000; -467.000
283.353;  -58.925; -408.000; -349.000
283.492;  -27.675; -264.000; -296.000
283.632;  -69.125; -254.000; -168.000
283.771;  -77.600; -859.000; -730.000
283.911;  -58.650; -369.000; -260.000
284.050; -100.450; -794.000; -748.000
284.190; -159.950;-1229.000;-1096.000
284.329; -142.825;-1055.000; -964.000
284.469; -105.825; -516.000; -591.000
284.608;  -62.925; -559.000; -598.000
284.748;  -97.025; -614.000; -570.000
284.887;   -3.475;  -87.000;  -20.000
285.027; -132.450; -844.000; -892.000
285.166;  -28.375; -192.000; -249.000
285.306;  -28.825; -116.000;  -33.000
285.445;  -37.600; -229.000; -343.000
285.584;  -86.200; -630.000; -494.000
285.724;  -35.175; -282.000; -322.000
285.863; -119.225; -857.000; -507.000
286.002;  -43.400; -366.000; -276.000
286.142; -108.375; -715.000; -622.000
286.281;  -58.225; -525.000; -493.000
286.420;  -90.575; -554.000; -417.000
286.560;   85.300;  653.000;  623.000
286.699; -139.300; -958.000; -912.000
286.838;  -73.450; -590.000; -591.000
286.978;  -97.925; -533.000; -537.000
287.117; -112.350;-1085.000; -950.000
287.256;  -42.750; -228.000; -211.000
287.395;  -51.300; -197.000; -378.000
287.535;  -62.475; -370.000; -298.000
287.674;  -87.200; -509.000; -484.000
287.813;   37.400;  661.000;  533.000
287.952; -114.025;-1010.000; -871.000
288.091; -159.475;-1049.000; -915.000
288.231;    4.125;   13.000;   15.000
288.370; -158.700;-1217.000;-1200.000
288.509;  -78.025; -728.000; -645.000
288.648;  -97.475; -770.000; -548.000
288.787;  -28.725; -243.000;  -87.000
288.926;  -80.875; -454.000; -475.000
289.065;   80.375;  859.000;  672.000
289.204;  -57.050; -377.000; -217.000
289.344;  -93.025; -791.000; -690.000
289.483;    4.375;  416.000;  304.000
289.622;  -30.350; -291.000; -149.000
289.761;  -29.375; -309.000; -166.000
289.900; -100.500; -785.000; -626.000
290.039;  -39.325;  -12.000;  -95.000
290.178;  -39.175; -274.000; -180.000
290.317;  -96.700; -618.000; -479.000
290.456;  -65.100; -463.000; -451.000
290.595; -129.325; -961.000; -833.000
290.734; -129.875; -904.000; -891.000
290.873;  -68.700; -456.000; -420.000
291.011;  -94.375; -833.000; -843.000
291.150; -118.225; -770.000; -682.000
291.289;  -29.900; -343.000; -110.000
291.428; -100.925; -599.000; -480.000
291.567;  -53.675; -370.000; -442.000
291.706;  -11.000;  109.000;  154.000
291.845;  -85.800; -597.000; -505.000
291.984; -160.050;-1234.000;-1061.000
292.122;   58.425;  602.000;  582.000
292.261;   36.875;  620.000;  463.000
292.400;   -8.475; -144.000;  211.000
292.539; -131.700; -959.000; -813.000
292.678;  -24.925; -325.000; -300.000
292.816; -159.050;-1136.000; -965.000
292.955;  -98.200; -844.000; -684.000
293.094;  -38.675; -173.000; -337.000
293.233;  -54.925; -556.000; -400.000
293.371;  -35.300; -225.000;  -84.000
293.510; -102.550; -866.000; -780.000
293.649; -132.500; -959.000; -924.000
293.787; -115.550;-1083.000;-1012.000
293.926;  -21.200; -113.000;  -32.000
294.065;  -27.075; -379.000; -290.000
294.203;   36.550;  298.000;  406.000
294.342;   39.025;   74.000;  156.000
294.481; 5116.100;51180.000; -836.000
294.619;  -41.975; -425.000; -582.000
294.758; -139.400;-1230.000;-1137.000
294.896;   18.350; -125.000;    5.000
295.035; -135.225;-1040.000;-1006.000
295.174; -123.800;-1082.000; -954.000
295.312;  -46.775; -323.000; -203.000
295.451;  -31.750; -307.000; -428.000
295.589;  -84.025; -389.000; -518.000
295.728;    5.125; -292.000; -165.000
295.866;  -23.775;  -36.000;  -51.000
296.005;  -61.375; -584.000; -341.000
296.143;  -85.050; -558.000; -596.000
296.282; -104.900; -957.000; -881.000
296.420; -101.500; -657.000; -557.000
296.559;  -86.650; -892.000; -633.000
296.697;  -75.975; -847.000; -665.000
296.835;  -90.125;-1141.000;-1002.000
296.974;   10.100;  -23.000;   39.000
297.112;  -31.750; -443.000; -504.000
297.251; -108.250; -815.000; -755.000
297.389;  -19.000; -576.000; -438.000
297.527;   -0.975; -145.000;  -83.000
297.666;  -57.250; -486.000; -438.000
297.804;  -66.025; -404.000; -264.000
297.942;    4.225; -136.000; -161.000
298.081;   -6.800; -183.000;   63.000
298.219;   11.675;  -17.000;  -19.000
298.357;  -19.825; -144.000;  -71.000
298.495;  -58.100; -810.000; -812.000
298.634;   14.125;  245.000;  219.000
298.772;  -12.275; -220.000; -338.000
298.910;  -67.325; -309.000; -182.000
299.048;   -7.375; -130.000; -153.000
299.187;  -27.775; -350.000; -250.000
299.325;    0.800;   52.000;  122.000
299.463;  -32.625; -389.000; -299.000
299.601;   14.975; -327.000; -271.000
299.739; -129.375; -908.000; -883.000
299.877;  -84.250; -791.000; -703.000
300.016; -109.550;-1095.000; -935.000
300.154;   39.150;  -19.000; -161.000
300.292;  -29.125; -428.000; -348.000
300.430;  -17.575; -408.000; -291.000
300.568; -129.225; -940.000; -874.000
300.706;  -65.975; -366.000; -469.000
300.844; -136.375;-1108.000; -979.000
300.982;   63.025;  246.000;  282.000
301.120; -132.050; -965.000; -866.000
301.258;  -90.575; -812.000; -705.000
301.396;   -8.600;  104.000;  -41.000
301.534;  -18.225; -218.000; -293.000
301.672;  -75.400; -664.000; -521.000
301.810;  -45.275; -613.000; -545.000
301.948;   34.875;   53.000;  149.000
302.086;  234.075; -250.000;  -32.000
302.224;  248.500; -610.000; -585.000
302.362;  -48.350; -558.000; -622.000
302.500; -108.800; -923.000; -893.000
302.638;   40.775;  128.000;  245.000
302.776;  -29.125; -352.000; -408.000
302.913;   46.000;  447.000;  236.000
303.051;  -45.725;  -86.000;  -23.000
303.189;   24.100;   90.000;  118.000
303.327;  -51.575; -341.000; -256.000
303.465;  -84.050; -832.000; -588.000
303.603; -109.925; -805.000; -604.000
303.740;   62.475;  417.000;  241.000
303.878;  -66.600; -800.000; -759.000
304.016; -103.575; -915.000; -790.000
304.154; -155.875;-1123.000;-1152.000
304.291;  -45.875; -505.000; -554.000
304.429;  -14.725;  102.000;   74.000
304.567; -119.200; -908.000; -893.000
304.705;  -78.675; -408.000; -515.000
304.842;  -20.400; -616.000; -540.000
304.980;    9.950;  215.000;   35.000
305.118;  -10.750; -367.000; -365.000
305.255; -124.825; -945.000; -927.000
305.393;   29.100;  178.000;  239.000
305.531; -128.525;-1173.000; -956.000
305.668;  -78.000; -663.000; -582.000
305.806;   -9.175; -358.000; -439.000
305.943;    2.075; -629.000; -637.000
306.081;  -22.750; -378.000; -267.000
306.219;  -92.550; -863.000; -748.000
306.356;   10.825;  158.000;   27.000
306.494;  109.600;  981.000;  761.000
306.631;   -7.475;  -11.000;  -55.000
306.769;    2.575; -613.000; -485.000
306.906;  -21.850; -284.000; -258.000
307.044;  -38.725; -473.000; -488.000
307.181;  -70.700; -410.000; -332.000
307.319;   15.850;  112.000;   87.000
307.456; -163.950;-1191.000;-1153.000
307.594; -100.050; -980.000; -727.000
307.731;  -22.400; -371.000; -164.000
307.868;   -0.550;  -15.000;   20.000
308.006; -140.200; -961.000; -847.000
308.143;  -65.050; -618.000; -330.000
308.281;   29.925;  -37.000; -254.000
308.418;  -42.325; -748.000; -640.000
308.555;  -70.525; -400.000; -250.000
308.693;  -68.650; -577.000; -573.000
308.830;  -98.475; -712.000; -657.000
308.967;   -1.925; -215.000;  -95.000
309.105;  -50.000; -507.000; -396.000
309.242;    0.100; -468.000; -367.000
309.379;   61.800; -577.000; -655.000
309.517;  -81.475; -936.000; -948.000
309.654;  -99.075; -910.000; -734.000
309.791;  -61.475; -662.000; -580.000
309.928; -120.400; -977.000; -914.000
310.065;  145.275;  819.000;  697.000
310.203;  -81.825; -825.000; -850.000
310.340;  -21.825; -465.000; -321.000
310.477;  -80.375; -412.000; -516.000
310.614;  -40.725; -383.000; -473.000
310.751;  -65.550; -427.000; -518.000
310.889;  -13.725;    1.000;   11.000
311.026; -140.600;-1161.000; -939.000
311.163;  -44.425; -386.000; -380.000
311.300;  -74.725; -512.000; -479.000
311.437;  -55.700; -658.000; -619.000
311.574; -138.725;-1226.000; -985.000
311.711;  -42.050; -595.000; -433.000
311.848;  -28.750; -380.000; -388.000
311.985;   21.175;  270.000;   93.000
312.122; -122.100; -932.000; -762.000
312.259;  -95.500; -941.000; -994.000
312.396;  -66.875; -508.000; -551.000
312.533;  -75.550; -812.000; -790.000
312.670; -129.575;-1070.000; -898.000
312.807;  -11.650; -352.000; -367.000
312.944;  -62.925; -513.000; -611.000
313.081;  -14.725; -150.000; -415.000
313.218;  -92.050;-1111.000; -867.000
313.355;    6.300; -531.000; -449.000
313.492;   -3.250; -455.000; -292.000
313.629;  129.025;  815.000;  735.000
313.766; -152.875;-1176.000;-1008.000
313.902;  -14.225; -186.000;   21.000
314.039;  -61.525; -372.000; -289.000
314.176;   33.200;  286.000;  192.000
314.313;  -62.200; -569.000; -473.000
314.450;  -63.875; -788.000; -684.000
314.587;  -66.050; -468.000; -480.000
314.723;   19.600;  -78.000;  130.000
314.860;   17.900;  318.000;  332.000
314.997;   36.425;  223.000;  142.000
315.134;  -26.650; -385.000; -368.000
315.270;  -26.425; -480.000; -496.000
315.407; -114.250;-1094.000; -967.000
315.544;  -33.825; -657.000; -538.000
315.681;  -70.175; -681.000; -565.000
315.817;   41.650; -133.000; -176.000
315.954;   42.775; -613.000; -392.000
316.091; -112.175;-1045.000;-1023.000
316.227;  -26.200;  -71.000; -179.000
316.364;   13.750;   23.000;    6.000
316.500;  -51.475; -113.000; -300.000
316.637;  -35.900; -181.000; -302.000
316.774;  -92.175; -625.000; -358.000
316.910;  -87.500; -598.000; -629.000
317.047;  -85.950; -487.000; -351.000
317.183;  -54.900; -435.000; -566.000
317.320;   26.675; -367.000; -321.000
317.456;  -27.075; -733.000; -805.000
317.593;  -94.700; -598.000; -641.000
317.729;    7.625;  168.000;  -67.000
317.866; -198.525;-1434.000;-1285.000
318.002;  -91.500; -708.000; -948.000
318.139; -125.200; -883.000; -867.000
318.275; -112.850;-1003.000; -738.000
318.412;  -73.625; -517.000; -336.000
318.548;  -67.450; -751.000; -720.000
318.685; -114.850; -985.000; -888.000
318.821;  -77.025; -762.000; -735.000
318.957;  -26.050;   34.000;  -23.000
319.094;   24.575;  297.000;  154.000
319.230;  -82.950; -756.000; -742.000
319.367;    6.650; -471.000; -520.000
319.503;  -18.100; -538.000; -436.000
319.639;  -89.575; -877.000; -793.000
319.775;  -95.025; -750.000; -685.000
319.912;  -66.450; -424.000; -519.000
320.048;  -95.000;-1184.000;-1184.000
320.184;   94.800;   59.000;   70.000
320.321;  -57.925; -497.000; -467.000
320.457;   68.950;  475.000;  662.000
320.593;  -73.050; -375.000; -382.000
320.729;  -91.625; -732.000; -734.000
320.866;  -77.350; -577.000; -635.000
321.002;  -94.175; -759.000; -809.000
321.138;  -36.175; -135.000; -211.000
321.274;   26.000; -148.000; -115.000
321.410;  -63.775; -585.000; -353.000
321.546;  -85.025;-1011.000; -911.000
321.683;   35.450;  400.000;  185.000
321.819;  -17.275;  -48.000; -117.000
321.955; -116.900; -743.000; -722.000
322.091;  -63.300; -585.000; -540.000
322.227;  -55.825; -382.000; -202.000
322.363;  -48.725; -320.000; -215.000
322.499;  -69.675; -343.000; -331.000
322.635;   93.500;  636.000;  443.000
322.771;  -15.575; -139.000;   12.000
322.907;   34.225;  129.000;  327.000
323.043;  -53.275; -115.000; -206.000
323.179;  -59.100; -394.000; -363.000
323.315;  -60.325; -401.000; -371.000
323.451;   20.075; -328.000; -236.000
323.587;   41.700;  -60.000;  -77.000
323.723;  -60.825; -682.000; -601.000
323.859;  -31.150; -258.000;  -76.000
323.995;  -50.500; -467.000; -409.000
324.131; -135.850; -967.000; -892.000
324.267;  -47.675; -254.000; -276.000
324.402; -136.600; -960.000; -983.000
324.538;  -22.975; -279.000; -104.000
324.674;   -6.300;  164.000;   77.000
324.810;   63.675;  226.000;  308.000
324.946;  -59.725; -810.000; -658.000
325.082;  -78.725; -568.000; -475.000
325.217;  -37.500;  -62.000;   16.000
325.353; -102.350; -764.000; -659.000
325.489; -102.225; -540.000; -506.000
325.625;  -78.250; -579.000; -525.000
325.760;   73.750;  517.000;  376.000
325.896;   26.425; -515.000; -702.000
326.032;  -55.375; -403.000; -352.000
326.168;  -62.500; -462.000; -369.000
326.303;  -67.950; -352.000; -461.000
326.439;  -18.425; -336.000; -276.000
326.575;  -12.450; -190.000;  -29.000
326.710;   -9.425; -156.000;  -30.000
326.846;  -22.225;  146.000;  103.000
326.982;  -91.925; -530.000; -548.000
327.117;  -74.625; -481.000; -442.000
327.253;  -63.550; -745.000; -742.000
327.388; -133.150;-1137.000;-1153.000
327.524;  -74.900; -811.000; -578.000
327.659;  -35.875;  -58.000;  -22.000
327.795;  -12.700;   69.000;   45.000
327.931;  -84.700; -723.000; -499.000
328.066;  -26.650; -417.000; -276.000
328.202;  -40.225;   12.000; -129.000
328.337;   84.200;  957.000;  713.000
328.473;   15.250;  -12.000;  -74.000
328.608;  -16.375; -256.000; -267.000
328.743; -101.350; -799.000; -664.000
328.879;    7.775;  214.000;  114.000
329.014;  -35.775; -102.000; -122.000
329.150;  -85.125; -358.000; -483.000
329.285;  -94.775; -465.000; -466.000
329.421;  -54.075; -548.000; -246.000
329.556;  -38.200;  -36.000;   85.000
329.691;  -94.100; -633.000; -615.000
329.827;  -75.700; -626.000; -480.000
329.962;  -34.850;  131.000; -301.000
330.097;  -81.650; -673.000; -585.000
330.233;  -44.800; -410.000; -223.000
330.368; -127.925; -839.000; -628.000
330.503;  -13.950;    3.000;   98.000
330.638;   -1.875;  -93.000; -125.000
330.774;  -85.275; -609.000; -530.000
330.909;  -55.150; -434.000; -244.000
331.044;  -96.650; -714.000; -708.000
331.179; -174.075;-1217.000;-1109.000
331.315;    1.375;   77.000;   20.000
331.450;   10.300;  157.000;  285.000
331.585;  -93.875; -805.000; -706.000
331.720;  -96.550; -510.000; -460.000
331.855;   -1.900;  -35.000; -102.000
331.990;  419.550;   62.000;  138.000
332.126;  220.200; -110.000;   71.000
332.261;    3.100; -379.000; -265.000
332.396;   30.125; -135.000; -242.000
332.531;  -53.125;-1074.000;-1031.000
332.666;  105.300; -519.000; -363.000
332.801;  -89.425; -726.000; -807.000
332.936;  -14.025; -192.000; -122.000
333.071; -137.750; -870.000; -817.000
333.206;   14.425;  307.000;  379.000
333.341;   16.925;  344.000;  418.000
333.476;  -78.625; -627.000; -623.000
333.611;  -60.625; -251.000; -173.000
333.746;  -34.175; -381.000; -464.000
333.881; -128.350; -973.000; -935.000
334.016; -123.100; -936.000; -917.000
334.151; -123.600; -746.000; -702.000
334.286;   22.550;  152.000;  186.000
334.421;  -21.450; -125.000; -178.000
334.556;  -76.925; -611.000; -567.000
334.690;  -96.975; -631.000; -577.000
334.825;   53.525;  381.000;   83.000
334.960;  -61.275; -285.000; -413.000
335.095;    8.675;  135.000;  -91.000
335.230; -107.400; -722.000; -738.000
335.365; -111.850;-1084.000; -990.000
335.499; -124.825;-1108.000;-1037.000
335.634;   25.825;    9.000;  534.000
335.769;  -96.250; -755.000; -720.000
335.904;  -53.025; -603.000; -561.000
336.038;  -45.500; -735.000; -657.000
336.173;  -98.175;-1206.000;-1194.000
336.308;   21.000; -116.000; -189.000
336.443;   68.600; -544.000; -634.000
336.577;  -39.950; -936.000; -787.000
336.712;   84.875;   -4.000;  -12.000
336.847;  -21.625; -724.000; -607.000
336.981;   77.700; -272.000; -208.000
337.116;  310.775;  615.000;  501.000
337.250;  148.025; -434.000; -421.000
337.385;  452.400; -297.000; -208.000
337.520;  218.200; -632.000; -603.000
337.654;  -45.075; -215.000; -126.000
337.789; -126.900; -989.000; -933.000
337.923;  -30.450; -104.000; -205.000
338.058;  -93.175; -673.000; -738.000
338.192;  -59.925; -611.000; -488.000
338.327;   -8.350;  -18.000; -155.000
338.461;  -64.950; -299.000; -469.000
338.596;  -99.300; -780.000; -638.000
338.730;  -96.750; -767.000; -803.000
338.865;  160.975;  -46.000; -140.000
338.999;  -20.425; -846.000; -702.000
339.134;    1.300; -634.000; -536.000
339.268;   20.425; -741.000; -603.000
339.403;  567.775; -740.000; -775.000
339.537;  271.625; -894.000; -820.000
339.671;  -93.150; -829.000; -813.000
339.806;  -43.375; -556.000; -512.000
339.940;   27.075; -261.000; -235.000
340.074;  -96.250; -685.000; -510.000
340.209;  -50.825; -351.000; -230.000
340.343;  -99.150; -517.000; -573.000
340.477;  133.800;  998.000; 1036.000
340.612;    6.650;-1033.000; -900.000
340.746;  244.575; -199.000; -243.000
340.880; -109.650; -924.000; -785.000
341.014;  -19.725;  -45.000; -154.000
341.149; -124.775; -756.000; -718.000
341.283; -107.525; -839.000; -754.000
341.417; -145.575;-1124.000; -938.000
341.551;  -27.700; -768.000; -708.000
341.685;  -67.750; -633.000; -611.000
341.820;  -55.600; -562.000; -493.000
341.954;  -61.225; -218.000; -349.000
342.088; -135.175;-1102.000;-1019.000
342.222;   44.800;  565.000;  618.000
342.356;  -78.525; -395.000; -335.000
342.490; -120.825; -880.000; -841.000
342.624;  -58.500; -339.000; -242.000
342.758;  -64.300; -364.000; -312.000
342.892;  -93.775; -710.000; -585.000
343.026;  -63.700;  -58.000; -116.000
343.160;  -59.425; -426.000; -376.000
343.294;  -95.425; -474.000; -337.000
343.428;  -62.575; -488.000; -448.000
343.562;  -35.525; -172.000;  -23.000
343.696;  -53.150; -385.000; -314.000
343.830;  -59.950; -362.000; -356.000
343.964;  -25.150; -231.000; -168.000
344.098;  310.950;  199.000;   70.000
344.232;  277.250; -266.000; -127.000
344.366;   67.750; -567.000; -453.000
344.500;  -37.750; -665.000; -744.000
344.634;  -47.625; -324.000; -164.000
344.768;  -54.550; -531.000; -341.000
344.902;    1.975;  278.000;  256.000
345.035;  -81.750; -556.000; -496.000
345.169; -155.050; -933.000; -656.000
345.303;  -47.975; -308.000; -482.000
345.437; -118.150; -826.000; -717.000
345.571;  -54.925; -675.000; -594.000
345.704;  -82.525; -309.000; -532.000
345.838;  -25.775; -331.000; -284.000
345.972;  -71.450; -543.000; -495.000
346.106;  270.400; -179.000; -190.000
346.239;  476.150; -312.000; -243.000
346.373;    3.750; -343.000; -302.000
346.507; -147.650; -950.000; -962.000
346.640;   52.650;  -30.000;   13.000
346.774; -101.675; -650.000; -797.000
346.908;  -29.150; -138.000;  -11.000
347.041; -101.000; -646.000; -593.000
347.175;    7.125;  259.000;   27.000
347.309; -116.450; -698.000; -628.000
347.442; -104.925; -883.000; -732.000
347.576;  123.825;  670.000;  668.000
347.709;   59.075; -123.000;  -52.000
347.843; -129.675; -933.000; -825.000
347.976;   25.200;  235.000;  294.000
348.110; -182.700;-1268.000;-1186.000
348.243;  -96.675; -679.000; -772.000
348.377;    2.200;  -26.000;   60.000
348.510;   60.400;  403.000;  540.000
348.644;  -37.400;  -37.000; -159.000
348.777;   -7.750;  180.000;  191.000
348.911;  -50.175; -142.000; -112.000
349.044;   94.500;  471.000;  448.000
349.178;  -13.975;-1069.000;-1006.000
349.311;   90.975;  141.000;  255.000
349.444;   21.300; -927.000; -813.000
349.578;  -21.125; -347.000; -200.000
349.711; -137.875; -959.000; -862.000
349.845;  -62.625; -661.000; -591.000
349.978; -166.950;-1224.000;-1137.000
350.111;  -87.475; -546.000; -612.000
350.244; -110.000; -596.000; -700.000
350.378;  -57.650; -392.000; -393.000
350.511;  -71.350; -393.000; -426.000
350.644;  -92.150; -808.000; -806.000
350.778;    5.300;  168.000;  104.000
350.911;    0.750;  134.000;  140.000
351.044; -101.375; -685.000; -615.000
351.177;  -46.325; -321.000; -281.000
351.310;  -34.000;    3.000; -131.000
351.444;  -96.375; -888.000; -788.000
351.577;   39.675;  140.000;   90.000
351.710;   69.925;  593.000;  417.000
351.843;  -55.425; -165.000;  -77.000
351.976;  -14.825;  149.000;  -79.000
352.109; -106.525; -621.000; -612.000
352.242;  -38.625; -464.000; -419.000
352.376;  -96.650; -580.000; -636.000
352.509;   22.225; -437.000; -356.000
352.642;  -88.250; -654.000; -604.000
352.775;   16.550; -141.000;  -98.000
352.908; -128.275; -933.000; -904.000
353.041;  -85.275; -814.000; -824.000
353.174;  -63.725; -551.000; -424.000
353.307;  -96.325; -753.000; -764.000
353.440;   45.875;  541.000;  453.000
353.573;  -98.175; -957.000;-1008.000
353.706;  -56.750; -384.000; -558.000
353.839;  -15.275; -264.000; -220.000
353.971;  -96.075; -657.000; -512.000
354.104; -107.350; -896.000; -835.000
354.237;  -91.250; -627.000; -662.000
354.370;  -95.825; -846.000; -879.000
354.503; -180.900;-1231.000;-1308.000
354.636;  -27.050; -529.000; -348.000
354.769; -123.650; -937.000; -860.000
354.902;  -13.775; -230.000; -139.000
355.034;  -19.400; -164.000; -220.000
355.167;    3.125; -262.000; -162.000
355.300;  -69.975;-1061.000; -880.000
355.433; 1474.975;  -71.000;  -14.000
355.565; 2295.075; -402.000; -384.000
355.698;  615.975; -356.000; -296.000
355.831;  -20.400; -882.000; -801.000
355.964;   35.100; -285.000; -170.000
356.096;  -81.175; -856.000; -843.000
356.229;   12.825; -523.000; -530.000
356.362;  528.700; -373.000; -266.000
356.494;  940.775; -229.000; -162.000
356.627;  331.525;  269.000;  377.000
356.760;  901.775;  120.000;   53.000
356.892; 1506.600; -286.000; -601.000
357.025;  371.675;  403.000;  389.000
357.157;  242.075; -167.000; -179.000
357.290; 1180.575; -856.000; -713.000
357.423;  360.650; -667.000; -556.000
357.555;  109.925; -217.000; -228.000
357.688;  144.475; -483.000; -364.000
357.820;  204.450; -870.000; -877.000
357.953; 1556.350; -563.000; -589.000
358.085;  274.100; -632.000; -612.000
358.218;  156.200;-1131.000; -932.000
358.350;   47.850;  -58.000;  312.000
358.483; -169.150;-1300.000;-1187.000
358.615; -101.375;-1182.000;-1078.000
358.747; -142.225;-1187.000;-1058.000
358.880;  -39.800; -810.000; -744.000
359.012;  -44.850; -376.000; -202.000
359.145;  -57.550; -480.000; -511.000
359.277;  -59.100; -962.000; -913.000
359.409; 1379.975;  536.000;  231.000
359.542;  281.850; -738.000; -688.000
359.674;   23.750;   46.000;   13.000
359.806;  -78.025; -565.000; -438.000
359.939;  -29.425; -617.000; -516.000
360.071;   18.650; -583.000; -579.000
360.203;  -12.650; -411.000; -364.000
360.335;   11.025;  164.000;  -16.000
360.468;   94.625; -249.000; -307.000
360.600; 1382.350; -547.000; -454.000
360.732; 4239.775; -546.000; -423.000
360.864;  669.625;-1216.000;-1044.000
360.996;   83.550; -516.000; -554.000
361.129;  -45.600; -389.000; -598.000
361.261;   -0.275;  110.000; -113.000
361.393;  -59.450; -252.000; -214.000
361.525;    8.600;   94.000;  244.000
361.657; -112.625; -821.000; -703.000
361.789;  -25.125; -139.000; -155.000
361.921;  -40.625; -642.000; -593.000
362.053;  106.850;  524.000;  541.000
362.185;   10.150;  288.000;   72.000
362.318; -107.500; -709.000; -705.000
362.450;   32.750;  294.000;  444.000
362.582;  -68.725; -913.000; -870.000
362.714;  -70.300; -353.000; -332.000
362.846;  -87.250; -606.000; -490.000
362.978; -144.750; -941.000; -811.000
363.109;  -20.850; -161.000; -260.000
363.241;  159.850; -739.000; -749.000
363.373;  657.850; -649.000; -564.000
363.505; 1053.400; -186.000;  -91.000
363.637;  243.125; -787.000; -601.000
363.769; -117.500;-1067.000;-1080.000
363.901;  -80.725; -596.000; -654.000
364.033; -160.025;-1103.000;-1062.000
364.165;  -40.175; -283.000; -283.000
364.296;   90.250; -316.000; -177.000
364.428;  194.825;-1344.000;-1220.000
364.560;  -70.350; -679.000; -661.000
364.692;  -76.600; -738.000; -835.000
364.824;   -5.425; -588.000; -456.000
364.955;  506.100; -402.000; -564.000
365.087; 1693.175;-1097.000; -852.000
365.219;  103.500; -686.000; -816.000
365.351;  -65.900; -526.000; -572.000
365.482;   32.000;  300.000;  240.000
365.614;  -70.800; -402.000; -314.000
365.746; -103.575; -729.000; -752.000
365.877;  -94.525; -706.000; -672.000
366.009;  418.075;  -35.000;  -62.000
366.141;  -27.750;-1249.000;-1134.000
366.272;  -90.725; -803.000; -719.000
366.404; -115.950;-1005.000; -874.000
366.535;   -8.300; -139.000;  -12.000
366.667; -114.700; -644.000; -649.000
366.799;   28.150;  353.000;  203.000
366.930; -145.000; -862.000; -996.000
367.062;  186.650; -639.000; -613.000
367.193;  331.825; -872.000; -842.000
367.325;  -36.475; -580.000; -684.000
367.456;   -2.825; -246.000;   31.000
367.588;  270.075; -371.000; -318.000
367.719;   46.550;  -44.000;  -45.000
367.851;  -43.775; -222.000; -241.000
367.982; -116.775; -875.000; -732.000
368.113;    5.300; -475.000; -358.000
368.245; -149.450; -960.000; -841.000
368.376;  -49.350; -254.000; -302.000
368.508;  -61.500; -188.000; -263.000
368.639; -147.550;-1166.000;-1034.000
368.770;  -96.525; -670.000; -589.000
368.902; -106.850; -836.000; -926.000
369.033; -122.775; -906.000; -855.000
369.164;  -35.375; -720.000; -653.000
369.296; -107.075; -452.000; -601.000
369.427;  -24.825; -209.000; -144.000
369.558;  -78.775; -593.000; -377.000
369.689;  -79.225; -721.000; -569.000
369.821; -138.900; -951.000; -845.000
369.952;   -8.625;   42.000; -108.000
370.083;  -70.325; -229.000; -108.000
370.214;  -97.550; -735.000; -650.000
370.345;  -28.875;   65.000;   81.000
370.477; -103.875; -810.000; -790.000
370.608;   39.975; -328.000; -264.000
370.739; -114.875;-1233.000;-1292.000
370.870; -117.650;-1102.000; -923.000
371.001;  -26.575; -378.000; -467.000
371.132;  -91.175; -754.000; -735.000
371.263;  -36.300;  -42.000; -148.000
371.394; -150.450; -841.000; -748.000
371.525;   24.875;  345.000;  225.000
371.657; -132.975; -808.000; -670.000
371.788;   32.475;  103.000;  199.000
371.919;    4.725; -384.000; -304.000
372.050; 1381.175;  -91.000; -156.000
372.181;  407.925; -188.000; -294.000
372.311;  102.725;   42.000; -127.000
372.442;  -46.000; -457.000; -451.000
372.573;  -42.625; -444.000; -340.000
372.704; -151.575;-1008.000; -980.000
372.835;  -19.925; -228.000; -289.000
372.966;  -87.700; -646.000; -554.000
373.097;  -90.375; -575.000; -711.000
373.228;  -89.200; -717.000; -542.000
373.359;  -34.575; -824.000; -536.000
373.490;  184.525; -881.000; -727.000
373.620;  317.175;-1001.000; -803.000
373.751;  582.425; -332.000; -396.000
373.882;  258.025; -663.000; -733.000
374.013;  -10.000; -449.000; -262.000
374.143;  -68.775; -581.000; -659.000
374.274; -131.775; -987.000; -908.000
374.405;   51.575; -388.000; -276.000
374.536;  131.125; -526.000; -387.000
374.666;  331.850; -759.000; -807.000
374.797;   -8.050; -817.000; -868.000
374.928;  220.275; -710.000; -560.000
375.058;  215.400; -535.000; -500.000
375.189;   14.425;  -59.000;  -93.000
375.320; -137.475; -928.000;-1034.000
375.450;  -47.825; -625.000; -616.000
375.581;  -53.150; -526.000; -436.000
375.712;  -51.200; -574.000; -250.000
375.842;   16.325; -438.000; -415.000
375.973;   -3.975; -554.000; -513.000
376.103; -116.075; -665.000; -648.000
376.234;  -92.800; -531.000; -552.000
376.364; -123.500; -944.000; -867.000
376.495;  165.500;  925.000;  529.000
376.625;  -69.300; -472.000; -485.000
376.756;  -54.125; -709.000; -678.000
376.886; -141.975;-1178.000;-1026.000
377.017;  148.575;-1048.000;-1061.000
377.147;  632.450; -786.000; -782.000
377.278;   89.050;  174.000;  228.000
377.408; -119.900; -801.000; -815.000
377.538;  -96.400; -707.000; -693.000
377.669;  -96.075; -537.000; -613.000
377.799; -103.925; -645.000; -635.000
377.929;  -88.050; -610.000; -428.000
378.060; -116.750; -781.000; -847.000
378.190;  -38.200; -726.000; -531.000
378.320;  -33.400; -401.000; -406.000
378.451;  -42.575; -131.000;  -22.000
378.581;  -13.800;  -67.000; -110.000
378.711;   90.350; 1035.000;  866.000
378.841;  -66.150; -533.000; -675.000
378.972; -136.575; -871.000; -751.000
379.102;  -57.950; -652.000; -579.000
379.232;  -36.725; -126.000;  -73.000
379.362; -124.900;-1001.000; -885.000
379.492;  -56.050; -373.000; -424.000
379.623;   53.000;    0.000;  111.000
379.753; -131.275;-1107.000; -974.000
379.883;   79.900;   59.000;  156.000
380.013;  -78.875;-1081.000;-1017.000
380.143; -121.750;-1097.000;-1056.000
380.273; -116.825; -985.000; -861.000
380.403;   12.875; -344.000; -257.000
380.533;  -39.575; -651.000; -664.000
380.663;   22.050;  173.000;  128.000
380.793; -148.300;-1027.000;-1074.000
380.923;  -30.900; -103.000;  -34.000
381.053; -109.975; -613.000; -623.000
381.183;  -32.175; -106.000; -248.000
381.313;  -64.525; -656.000; -470.000
381.443;  -51.275; -692.000; -473.000
381.573;  -27.850; -402.000; -409.000
381.703;  -60.500;-1249.000;-1095.000
381.833; -192.575;-1454.000;-1336.000
381.963;   14.225; -134.000;  -87.000
382.093;  418.725; -925.000; -909.000
382.223;  113.900; -713.000; -602.000
382.353;  -86.700; -801.000; -608.000
382.482;   19.000;-1091.000; -964.000
382.612;  197.075; -872.000; -644.000
382.742;  103.075; -695.000; -622.000
382.872;  -16.425; -565.000; -551.000
383.002;   37.850;  347.000; -132.000
383.131;  -41.975; -226.000; -160.000
383.261;  -35.875; -706.000; -768.000
383.391;  330.075; -552.000; -377.000
383.521; 5005.650;  451.000;  263.000
383.650; 1499.125; -947.000; -904.000
383.780;   31.000; -783.000; -656.000
383.910;   95.775;  880.000;  802.000
384.039;  -61.050; -794.000; -656.000
384.169;  -76.425;-1205.000;-1017.000
384.299;  -86.025; -650.000; -662.000
384.428; -125.925; -764.000; -680.000
384.558;  -60.500; -308.000; -275.000
384.687;  -80.750; -414.000; -334.000
384.817;  -15.150;   75.000;   -2.000
384.947;  -38.075; -234.000; -141.000
385.076;  168.400;  982.000;  912.000
385.206;   50.975;  369.000;  480.000
385.335;  -53.950; -549.000; -417.000
385.465; -101.525; -655.000; -663.000
385.594;   28.300;  -53.000;  -44.000
385.724;   34.575; -868.000; -838.000
385.853;   -0.950; -296.000; -270.000
385.982;  385.400; -743.000; -787.000
386.112;  733.575;-1052.000; -871.000
386.241;    2.675; -307.000; -312.000
386.371;  -11.750; -174.000;  -87.000
386.500;  -63.950; -825.000; -789.000
386.629;    3.300; -874.000; -817.000
386.759;   63.375;  -43.000;   68.000
386.888;  -19.050; -170.000; -250.000
387.017;  -95.025; -648.000; -620.000
387.147; -100.575; -771.000; -798.000
387.276;  -70.325; -410.000; -397.000
387.405;  -48.150; -398.000; -342.000
387.535;  -92.925; -452.000; -361.000
387.664;  -65.200; -692.000; -620.000
387.793;  -29.475; -198.000; -113.000
387.922;  159.225;  255.000;  200.000
388.052;  -59.575; -576.000; -423.000
388.181;  -68.850; -342.000; -472.000
388.310;  -99.225; -889.000; -710.000
388.439;  -99.100; -749.000; -742.000
388.568;   38.375;  365.000;  244.000
388.697;  298.800; -756.000; -653.000
388.826;   -4.400; -768.000; -666.000
388.956;  -34.375; -285.000; -307.000
389.085;  -79.125; -347.000; -287.000
389.214; -119.725; -842.000; -872.000
389.343;  -75.325; -645.000; -413.000
389.472;  560.950;  126.000;  149.000
389.601;  627.475;   91.000;    0.000
389.730;   -3.075; -568.000; -687.000
389.859;   23.775;  226.000;   46.000
389.988;   34.925; -423.000; -408.000
390.117;   35.375; -168.000; -146.000
390.246;  -56.700; -331.000; -320.000
390.375;  -78.100; -673.000; -626.000
390.504;  -83.350; -703.000; -621.000
390.633; -117.175; -672.000; -726.000
390.761; -105.425; -732.000; -645.000
390.890;  -41.575;   -4.000; -130.000
391.019;  -65.500; -421.000; -441.000
391.148; -132.800; -826.000; -855.000
391.277;  -87.350; -576.000; -493.000
391.406; -114.975; -821.000; -805.000
391.534;   18.150;  574.000; -301.000
391.663;  -98.150; -583.000; -645.000
391.792;  -90.375; -673.000; -701.000
391.921;   -5.775;   -3.000;   15.000
392.050;    0.550; -287.000; -228.000
392.178; -143.000;-1206.000;-1061.000
392.307;  -12.350; -758.000; -712.000
392.436;  -45.600; -427.000; -641.000
392.564;   -0.275;  166.000;   -6.000
392.693; -121.025; -860.000; -682.000
392.822;   19.125; -529.000; -534.000
392.950;  -54.400; -880.000; -714.000
393.079;   71.000; -188.000; -328.000
393.208;  -65.175; -488.000; -511.000
393.336;  -17.850; -170.000; -145.000
393.465;  -52.625; -317.000; -199.000
393.593;  -11.900;   62.000;   79.000
393.722; -161.725;-1121.000; -916.000
393.850;  -40.200; -188.000;  -61.000
393.979; -146.525; -926.000; -805.000
394.107;  -70.150; -517.000; -537.000
394.236;  -61.175; -570.000; -507.000
394.364;  109.375;  383.000;  206.000
394.493;   64.400; -911.000; -767.000
394.621;   20.775; -955.000; -916.000
394.750; 1154.075; -873.000; -923.000
394.878; 4522.825; -247.000; -149.000
395.007; 6659.025; -721.000; -807.000
395.135;  610.750; -790.000; -721.000
395.263;  -52.800;-1038.000;-1040.000
395.392;   16.700;  -25.000; -107.000
395.520; -134.125; -818.000; -679.000
395.648; -121.350; -865.000; -915.000
395.777;  -86.075; -366.000; -405.000
395.905;  -73.600; -449.000; -564.000
396.033;  -25.300;  217.000;  172.000
396.162;  132.075; -399.000; -453.000
396.290;  130.025;  -17.000;   -2.000
396.418;  -36.600; -555.000; -514.000
396.546;  -92.225; -571.000; -466.000
396.674; -132.350; -850.000; -878.000
396.803;  -26.275;  -72.000;  -23.000
396.931;  -17.250; -179.000; -199.000
397.059; -132.325;-1026.000; -989.000
397.187; -123.925;-1026.000; -975.000
397.315; -135.400; -884.000; -649.000
397.443;  -94.625; -592.000; -443.000
397.572; -102.050; -578.000; -424.000
397.700;  -80.200; -607.000; -614.000
397.828;  -36.750;  120.000;  -90.000
397.956;  -37.250; -508.000; -478.000
398.084;  -43.475; -767.000; -626.000
398.212;   24.850;  137.000;  124.000
398.340;  -23.975;  -56.000;  159.000
398.468;  -53.225; -390.000; -169.000
398.596; -157.775; -993.000; -953.000
398.724; -109.650; -762.000; -767.000
398.852; -167.650;-1024.000; -976.000
398.980;  -83.925; -560.000; -560.000
399.108; -115.725; -982.000; -735.000
399.236;  -10.225;   13.000;    8.000
399.363;  -24.050;  222.000;  196.000
399.491;  -59.950; -404.000; -398.000
399.619; -123.125; -829.000; -800.000
399.747; -111.600; -859.000; -771.000
399.875;   31.425;  220.000;  234.000
400.003;  -60.975; -359.000; -284.000
400.130; -113.050; -421.000; -341.000
400.258;  -38.375;  -83.000;   38.000
400.386;  -87.725; -352.000; -168.000
400.514;  -86.675; -526.000; -587.000
400.641; -155.775; -928.000; -802.000
400.769; -151.075; -979.000; -888.000
400.897; -129.375; -838.000; -793.000
401.025;  -24.225; -166.000; -152.000
401.152;   -9.925;  220.000;   38.000
401.280;  -79.875; -430.000; -429.000
401.408; -122.925; -712.000; -576.000
401.535; -108.800; -735.000; -758.000
401.663; -196.525;-1134.000;-1054.000
401.790;  -95.075; -514.000; -525.000
401.918;   20.775;  436.000;  405.000
402.046;  -27.250;  134.000;  122.000
402.173;  -50.225;  -18.000;    7.000
402.301;  -79.450; -519.000; -397.000
402.428;   29.000;  528.000;  383.000
402.556; -134.725;-1188.000; -913.000
402.683;  -57.775;  -20.000;   -1.000
402.811;  -26.025;  -37.000; -206.000
402.938;  -19.250;   20.000;   27.000
403.066;    0.475; -574.000; -558.000
403.193;   92.050;  299.000;  239.000
403.321;   55.650; -396.000; -574.000
403.448;  121.900;   83.000;   27.000
403.575;   66.925;  -90.000;  -46.000
403.703; -109.900; -732.000; -557.000
403.830;  -43.675; -531.000; -496.000
403.957; -125.900;-1117.000;-1023.000
404.085;   40.475;  -61.000; -172.000
404.212;  110.950;  -50.000;   63.000
404.339;  427.600; -566.000; -306.000
404.467; 9049.450; -612.000; -524.000
404.594; 5639.875; -287.000; -227.000
404.721;  973.675; -869.000; -764.000
404.848;  112.600; -113.000; -202.000
404.976; -117.300; -856.000; -783.000
405.103;    5.300;  -14.000;  -82.000
405.230;   -3.250;  190.000;  226.000
405.357;   38.875;  117.000;   44.000
405.484;  401.375;  -49.000;    5.000
405.612;  122.450; -548.000; -563.000
405.739;  -64.025; -488.000; -243.000
405.866;   68.225;  669.000;  385.000
405.993;  -54.725; -398.000; -102.000
406.120; -144.375; -801.000; -887.000
406.247;  -79.325; -323.000; -342.000
406.374;  109.650;  540.000;  629.000
406.501;  -76.250; -632.000; -702.000
406.628;  -86.500; -621.000; -589.000
406.755; -126.125; -803.000; -620.000
406.882;  -50.500; -228.000; -277.000
407.009; -134.675; -719.000; -628.000
407.136;  -44.925; -480.000; -401.000
407.263;  -71.675; -939.000; -829.000
407.390; -101.900; -692.000; -614.000
407.517; -175.075;-1139.000;-1187.000
407.644;  -63.925; -332.000; -256.000
407.771;  -81.725; -249.000; -287.000
407.898;    9.050;  168.000;  328.000
408.025;  -84.700; -421.000; -313.000
408.151;  -13.000;   82.000;  153.000
408.278;  -56.875; -267.000; -216.000
408.405; -123.225; -931.000; -899.000
408.532;  -95.350; -549.000; -542.000
408.659; -118.275; -677.000; -648.000
408.785; -194.325;-1298.000;-1170.000
408.912;  -60.375; -412.000; -296.000
409.039; -127.500; -610.000; -686.000
409.166; -100.950; -591.000; -555.000
409.292; -130.075; -571.000; -534.000
409.419; -106.450; -665.000; -649.000
409.546;  -84.625; -431.000; -192.000
409.672; -114.925; -713.000; -545.000
409.799;  -50.225;  -36.000;   34.000
409.926;  -49.475; -180.000; -179.000
410.052; -183.275;-1127.000;-1091.000
410.179;  -65.000; -368.000; -392.000
410.305; -103.100; -375.000; -493.000
410.432;  -30.325; -220.000; -333.000
410.558;  -98.825; -305.000; -380.000
410.685; -102.850; -688.000; -431.000
410.812; -115.375; -409.000; -588.000
410.938; -125.800; -964.000; -808.000
411.065; -113.975; -671.000; -645.000
411.191;  -12.950; -189.000; -174.000
411.317; -139.750; -823.000; -742.000
411.444;  -58.475; -317.000; -246.000
411.570;  -89.950; -339.000; -294.000
411.697; -124.100; -758.000; -752.000
411.823; -177.725; -989.000; -999.000
411.949;  -43.400;  -56.000;   17.000
412.076; -120.950; -539.000; -519.000
412.202; -118.825; -758.000; -757.000
412.329; -131.775; -798.000; -752.000
412.455; -133.875; -821.000; -657.000
412.581;  -37.025;  -15.000;  172.000
412.707;  -87.775; -540.000; -457.000
412.834;  -11.650;  156.000;  219.000
412.960; -110.650; -785.000; -784.000
413.086; -121.775; -743.000; -701.000
413.212;  106.625;  604.000;  578.000
413.339; -115.775; -685.000; -701.000
413.465;  -48.275; -364.000; -310.000
413.591; -117.600; -757.000; -474.000
413.717;  -50.700; -358.000; -366.000
413.843; -156.475; -839.000; -861.000
413.969;  -54.900;  -47.000; -292.000
414.096; -106.200; -679.000; -679.000
414.222;   -9.925;  -33.000;   85.000
414.348;  -79.050; -652.000; -385.000
414.474;   13.375;   38.000;  -52.000
414.600;  -30.100; -126.000; -144.000
414.726;   -2.425;  -96.000;  -55.000
414.852;  -49.400; -365.000; -342.000
414.978;   46.275;  104.000;  -18.000
415.104;   48.875;   38.000;   80.000
415.230;   36.900; -329.000; -330.000
415.356;   50.750; -409.000; -514.000
415.482;  235.275;   13.000;  -35.000
415.608;  411.375; -247.000; -323.000
415.734; 1369.700;   67.000;   38.000
415.860;28039.200; -875.000; -767.000
415.986;23378.350; -685.000; -607.000
416.111; 2180.925; -798.000; -652.000
416.237;  468.375; -424.000; -571.000
416.363; 1644.625; -765.000; -733.000
416.489; 6831.250; -324.000; -251.000
416.615;  931.750; -707.000; -742.000
416.741;   55.125; -677.000; -784.000
416.866;  -64.200; -673.000; -736.000
416.992;  -97.925; -801.000; -818.000
417.118;  -27.650;  -41.000;  -80.000
417.244;  -72.250; -798.000; -531.000
417.369;  -82.375; -801.000; -612.000
417.495;  -16.450; -325.000; -254.000
417.621;  -86.525;-1015.000; -803.000
417.746;    6.650; -579.000; -572.000
417.872;   57.300; -254.000; -144.000
417.998;  123.075; -515.000; -530.000
418.123; 1546.325;-1073.000; -845.000
418.249; 8736.375; -512.000; -601.000
418.374; 1485.525; -916.000; -824.000
418.500;  226.625; -383.000; -482.000
418.626;  153.575;   70.000;  -59.000
418.751;  172.550; -549.000; -448.000
418.877;  293.525; -637.000; -643.000
419.002; 2592.650; -688.000; -560.000
419.128;19749.025; -930.000; -721.000
419.253; 5682.000; -967.000; -837.000
419.379;  778.725; -391.000; -338.000
419.504;  594.825;  325.000;  415.000
419.629;  820.700; -393.000; -212.000
419.755; 5338.550; -317.000; -254.000
419.880;35098.175;  -98.000;   67.000
420.006;17678.275; -280.000; -221.000
420.131;44033.450; -662.000; -775.000
420.256; 7211.925; -315.000; -316.000
420.382;  976.925; -665.000; -687.000
420.507;  194.600; -649.000; -778.000
420.632;   54.000; -337.000; -339.000
420.758;   69.875; -251.000; -425.000
420.883; -102.675; -876.000; -672.000
421.008;  -99.250; -775.000; -619.000
421.133; -102.050; -509.000; -467.000
421.259;  -56.325; -325.000; -259.000
421.384; -137.750; -834.000; -693.000
421.509;  -95.650;-1052.000; -862.000
421.634;  210.550; -936.000; -820.000
421.759;  123.450; -359.000; -327.000
421.885;  -90.925; -717.000; -656.000
422.010;  -94.050; -673.000; -542.000
422.135; -152.175; -695.000; -727.000
422.260;   19.625;  340.000;  280.000
422.385;  -54.900;   12.000;  -98.000
422.510;   -6.700;  151.000;  -26.000
422.635;  -21.150;  -87.000;  -43.000
422.760;  -21.350; -766.000; -791.000
422.885;    9.650;  -57.000;  -80.000
423.010;  -32.525; -112.000; -169.000
423.135;  -98.300; -481.000; -561.000
423.260;  -30.825; -150.000; -245.000
423.385;   12.625;  476.000;  222.000
423.510;   15.275;   71.000;  -22.000
423.635;   -2.475;  133.000;   45.000
423.760;   50.125;  383.000;  328.000
423.885;   29.375;  336.000;  391.000
424.010;   -6.475;  -68.000;  -13.000
424.135;  -27.000;    5.000;  -33.000
424.259;  -76.475; -654.000; -457.000
424.384;  -60.725; -279.000; -272.000
424.509;  -12.975; -260.000; -186.000
424.634;  -90.025; -761.000; -623.000
424.759;  -30.525; -688.000; -544.000
424.883;    0.675; -506.000; -527.000
425.008;  222.425; -502.000; -410.000
425.133; 2880.700; -679.000; -653.000
425.258; 1593.750; -517.000; -381.000
425.382;  516.425; -867.000; -774.000
425.507; 1254.425; -487.000; -543.000
425.632;  386.000; -802.000; -663.000
425.756;  700.000; -256.000; -146.000
425.881; 9902.550; -831.000; -857.000
426.006;30935.150; -604.000; -355.000
426.130; 5197.350; -696.000; -508.000
426.255;  708.650; -611.000; -491.000
426.379;  279.600; -189.000; -577.000
426.504;  507.125;  660.000;  544.000
426.629; 5808.850; -519.000; -466.000
426.753; 4590.875;   64.000;  -46.000
426.878;  582.275; -252.000; -288.000
427.002;  325.875; -651.000; -668.000
427.127; 2082.700;  -35.000; -158.000
427.251;17479.700;  372.000;  401.000
427.375; 5771.200; -191.000; -173.000
427.500; 1391.775; -616.000; -610.000
427.624;  443.400; -234.000; -400.000
427.749;   92.775; -216.000; -225.000
427.873;  -17.425; -499.000; -412.000
427.997;  -47.000; -222.000; -230.000
428.122;   43.300;  795.000;  703.000
428.246;   33.650;  433.000;  434.000
428.371; -148.050; -869.000; -773.000
428.495;  -98.600; -624.000; -646.000
428.619;  -47.975; -186.000; -117.000
428.743;   -2.075;   65.000;  132.000
428.868;  -76.650; -732.000; -643.000
428.992;  501.875; -219.000; -326.000
429.116;  199.000; -329.000; -357.000
429.240;  131.100;  419.000;  426.000
429.365;  -57.950; -454.000; -574.000
429.489;  -38.300; -638.000; -647.000
429.613;   22.600; -236.000; -177.000
429.737;   88.950; -563.000; -432.000
429.861;  375.375; -247.000; -133.000
429.985; 7998.800; -425.000; -305.000
430.109;10327.275; -770.000; -908.000
430.234; 1286.300;   76.000;  -50.000
430.358;  143.850; -250.000; -160.000
430.482;  -49.950; -672.000; -564.000
430.606;  -73.100; -655.000; -375.000
430.730;  -40.025; -437.000; -388.000
430.854;  -87.325; -909.000; -835.000
430.978;  -90.250; -795.000; -764.000
431.102;  -97.050; -499.000; -422.000
431.226; -109.975; -874.000; -815.000
431.350;    9.025;  345.000;  422.000
431.474;  -83.400; -661.000; -373.000
431.597; -165.050;-1060.000; -848.000
431.721;  -74.575; -276.000; -267.000
431.845; -128.125; -704.000; -472.000
431.969;  -82.875; -304.000; -349.000
432.093;  -97.475; -395.000; -317.000
432.217;  -11.925;   32.000;   82.000
432.341;  -97.700; -523.000; -518.000
432.464;   -6.425;   96.000;   40.000
432.588;  -12.825; -401.000; -329.000
432.712;   26.025;  -52.000;  -52.000
432.836;   42.275;  213.000;  263.000
432.959;   23.050; -372.000; -311.000
433.083;  157.950;   11.000;    2.000
433.207;  558.350;  285.000;  930.000
433.330; 7626.150; -391.000; -200.000
433.454;10778.550; -654.000; -638.000
433.578; 5924.575;  583.000;  278.000
433.701; 1302.625; -623.000; -675.000
433.825;  167.125; -292.000; -299.000
433.949;   60.725;   28.000;  -72.000
434.072;  -19.375; -410.000; -323.000
434.196;    7.125; -309.000; -117.000
434.319; 3469.325;25482.000;25124.000
434.443;  878.975; -656.000; -603.000
434.566; 4119.375;  281.000;   62.000
434.690;  907.150; -637.000; -383.000
434.813;  139.800; -251.000; -173.000
434.937;  -35.325; -569.000; -696.000
435.060;  -83.725; -423.000; -332.000
435.184;   -8.475; -492.000; -217.000
435.307;    4.850;  159.000;  102.000
435.431;  -37.150;  -40.000;   24.000
435.554;  -68.150; -399.000; -240.000
435.677;  -82.950; -350.000; -258.000
435.801;  -57.925;  -25.000;   49.000
435.924;  -48.400;    1.000;  -67.000
436.048; -166.000;-1019.000; -732.000
436.171;  -66.525; -240.000;  -66.000
436.294;  -26.925; -248.000; -229.000
436.417;  219.200; -963.000; -849.000
436.541;  -31.175; -814.000; -840.000
436.664;  -56.525; -242.000; -316.000
436.787;  -54.350;   13.000;  113.000
436.910; -107.325; -792.000; -422.000
437.034;  -24.950;  142.000;  143.000
437.157;   -0.825;  -11.000;    0.000
437.280;  -83.450; -392.000; -292.000
437.403; -143.850; -982.000; -869.000
437.526;   21.075; -903.000; -865.000
437.649;  572.725; -505.000; -332.000
437.772;   10.725; -692.000; -540.000
437.896;   53.500;  700.000;  544.000
438.019; -110.175; -758.000; -503.000
438.142;  -94.150; -596.000; -506.000
438.265; -117.075; -639.000; -670.000
438.388;   34.575; -520.000; -410.000
438.511;  -75.225; -597.000; -394.000
438.634;  -79.775; -247.000; -125.000
438.757; -144.800; -693.000; -619.000
438.880;  -30.825;  -34.000;  -57.000
439.003;  -98.475; -417.000; -437.000
439.126;  -72.125; -287.000; -167.000
439.248;  -58.000;  -98.000; -139.000
439.371;  -44.625;    9.000;  -53.000
439.494;   19.800;  510.000;  439.000
439.617;  -54.475;   65.000;  -88.000
439.740; -184.575; -968.000; -816.000
439.863; -144.050; -755.000; -595.000
439.986; -127.175; -476.000; -431.000
440.108;  -38.275; -161.000; -112.000
440.231; -182.900; -950.000; -836.000
440.354;  -59.000;  -64.000; -150.000
440.477; -109.675; -566.000; -542.000
440.599;  -78.100; -200.000; -225.000
440.722; -127.500; -709.000; -586.000
440.845;   65.800;  751.000;  928.000
440.968; -114.775; -415.000; -311.000
441.090;  -74.025; -199.000;  -33.000
441.213; -162.425;-1021.000; -825.000
441.336;  -61.875; -159.000;   -5.000
441.458; -108.225; -549.000; -396.000
441.581; -123.775; -628.000; -629.000
441.703;  -84.250; -152.000;   13.000
441.826; -113.150; -557.000; -400.000
441.948;  -55.925;   56.000;   51.000
442.071;   13.325;  555.000;  424.000
442.193; -120.275; -531.000; -485.000
442.316;   13.450;  152.000;   97.000
442.438;   71.450; -233.000;  -10.000
442.561;   60.125;  272.000;  262.000
442.683;   72.400; -809.000; -522.000
442.806;  323.775;   -8.000;   74.000
442.928;  -93.750; -859.000; -604.000
443.051;  -82.100; -577.000; -373.000
443.173; -109.050; -341.000; -339.000
443.295;  -74.825; -263.000; -371.000
443.418;  -86.900; -321.000;  -29.000
443.540;  -40.700; -106.000;   -4.000
443.662; -137.275; -563.000; -465.000
443.785;  -11.950;  335.000;  199.000
443.907; -112.825; -362.000; -208.000
444.029; -117.125; -767.000; -494.000
444.152; -155.800; -644.000; -554.000
444.274;  -41.425;  -18.000;  -24.000
444.396; -132.825; -461.000; -221.000
444.518; -130.650; -691.000; -454.000
444.640; -107.700; -268.000; -111.000
444.763;  -25.400;  388.000;  249.000
444.885; -137.425; -432.000; -392.000
445.007;  -30.650;   35.000;   86.000
445.129; -129.975; -610.000; -515.000
445.251; -106.925; -372.000; -439.000
445.373; -166.400; -537.000; -386.000
445.495;  -10.750;  242.000;  350.000
445.617;   20.825;  853.000;  753.000
445.739;  -78.725; -215.000;  -97.000
445.861;  -50.825; -245.000; -112.000
445.984;  -69.150; -267.000; -101.000
446.105;  -23.400; -418.000; -251.000
446.227;  134.275; -176.000;  -19.000
446.349;  -76.800; -358.000; -249.000
446.471; -116.975; -615.000; -448.000
446.593;  -91.725; -316.000;   19.000
446.715;  -46.875;  -67.000;   41.000
446.837;   46.200;  697.000;  832.000
446.959; -108.075; -457.000; -478.000
447.081; -139.000; -628.000; -518.000
447.203;   49.875;  862.000;  834.000
447.325; -104.025; -270.000;   42.000
447.446;  -13.500;  286.000;  530.000
447.568; -170.025; -921.000; -803.000
447.690; -101.725; -236.000; -245.000
447.812; -165.875; -798.000; -519.000
447.933;  -21.475;  155.000;  127.000
448.055;  -83.600; -306.000; -261.000
448.177;   19.250;   31.000;   79.000
448.299;  -91.450; -935.000; -727.000
448.420;   -0.800;  -25.000;  159.000
448.542;  -79.225;   -3.000;   33.000
448.664;  -25.550;  109.000;  322.000
448.785;  -39.975;  265.000;   83.000
448.907; -100.325; -614.000; -353.000
449.028; -107.850; -771.000; -471.000
449.150;   35.050;  492.000;  589.000
449.272; -187.400;-1044.000; -913.000
449.393;   19.300;  612.000;  694.000
449.515; -159.025; -634.000; -581.000
449.636;  -76.175; -264.000; -155.000
449.758;   44.275;  763.000;  622.000
449.879;  -84.600; -498.000; -396.000
450.001;  -81.550; -149.000;  -49.000
450.122;  -25.775;  -95.000;  162.000
450.244;  -26.700;   37.000;  364.000
450.365;  -66.625; -495.000; -301.000
450.486;  -21.775;   80.000;  268.000
450.608;   45.075;  393.000;  326.000
450.729;   88.775;  578.000;  645.000
450.850;  108.450; -574.000; -466.000
450.972; 1198.425; -552.000; -389.000
451.093; 7974.425;  190.000;  588.000
451.214; 4173.525; -516.000; -337.000
451.336;  698.225;  773.000;  579.000
451.457;  101.825;  264.000;  393.000
451.578;  -28.525; -118.000;  -74.000
451.699; -105.300; -546.000; -540.000
451.821;  -53.050; -284.000;  -50.000
451.942;  -14.175;  278.000;  285.000
452.063;   51.825;  228.000;  419.000
452.184;  818.975;  -54.000;  -49.000
452.305; 1747.900;  103.000;  170.000
452.427;  346.225; -549.000; -301.000
452.548;   15.700;   23.000;   79.000
452.669;  -78.425; -257.000;  -89.000
452.790;  -53.425;    3.000;  -18.000
452.911;  -22.650;  195.000;  259.000
453.032;  -77.150; -289.000;  -60.000
453.153;  -74.550;  -29.000;   81.000
453.274;   46.050;  737.000;  868.000
453.395;  -76.100;  -51.000;  175.000
453.516;   92.100; 1317.000; 1388.000
453.637;  -87.050; -205.000; -150.000
453.758;  -61.825;   15.000;   69.000
453.879; -134.975; -462.000; -250.000
454.000;   60.675; 1086.000;  948.000
454.121; -138.000; -554.000; -326.000
454.242; -106.325; -599.000; -383.000
454.362;  -62.675;  -99.000;  114.000
454.483;  -21.950; -309.000; -229.000
454.604;   63.550;  512.000;  580.000
454.725; -124.250; -627.000; -555.000
454.846; -137.675; -474.000; -406.000
454.967;  -31.200;  230.000;  539.000
455.087;  -66.150;  179.000;  153.000
455.208;   11.950;  554.000;  856.000
455.329;  -67.675;  -22.000;   82.000
455.450;   44.425;  473.000;  633.000
455.570;  -76.450; -234.000; -211.000
455.691;  -38.900;  201.000;  407.000
455.812; -113.775; -270.000;  -92.000
455.932;  -55.175;  107.000;  -97.000
456.053;  -90.400;   36.000;   24.000
456.173; -106.325; -433.000; -355.000
456.294; -138.800; -476.000; -303.000
456.415;  -53.700;  -73.000;   70.000
456.535;  -39.275;  297.000;  273.000
456.656;  -47.600;  132.000;  240.000
456.776;  -71.325;    3.000;  298.000
456.897;    3.075;  308.000;  513.000
457.017;  -78.250; -153.000;   -3.000
457.138;  -98.175; -402.000; -249.000
457.258;  -49.375;  263.000;  224.000
457.379;  -23.000;  509.000;  521.000
457.499;  -42.875;  443.000;  432.000
457.620; -120.325; -407.000; -231.000
457.740; -105.850; -132.000;  -11.000
457.860;  -48.500;   87.000;   44.000
457.981;  -53.075;  132.000;  124.000
458.101;  -52.000;  -89.000;   40.000
458.221;  -32.850;  336.000;  402.000
458.342;  -36.150;   -4.000;  -37.000
458.462;   46.700;  617.000;  352.000
458.582;   25.950; -302.000; -294.000
458.703;   55.600;  303.000;  154.000
458.823;    5.475;   22.000;  163.000
458.943;   45.075;  341.000;  467.000
459.063;   26.625; 1124.000;  192.000
459.183;  -32.350;  328.000;  313.000
459.304;   21.625;  315.000;  517.000
459.424;  -43.375; -246.000;  -89.000
459.544;  479.875;  388.000;  764.000
459.664; 1308.050;  499.000;  506.000
459.784;  518.925; 1004.000; 1175.000
459.904;   78.050;  867.000;  744.000
460.024;   39.175;  867.000;  684.000
460.144;  -16.550;  449.000;  554.000
460.264;   -9.625;  515.000;  327.000
460.385;  -90.750; -145.000; -119.000
460.505;   28.500;  905.000;  858.000
460.625; -103.850;  -17.000;  -68.000
460.745;  -14.575;  396.000;  541.000
460.864;  -49.000;  153.000;  469.000
460.984;   29.900;  499.000;  573.000
461.104;  152.600; 1656.000; 1775.000
461.224;   14.975;  657.000;  650.000
461.344;  -42.650;  431.000;  360.000
461.464;  -42.500;  258.000;  513.000
461.584;  -33.525;  283.000;  466.000
461.704;  -65.700;   58.000;  108.000
461.824;  -69.425;  238.000;  259.000
461.943;  -46.275;  191.000;  130.000
462.063;  -71.900;    2.000;  324.000
462.183;   22.900;  639.000;  717.000
462.303;   74.125; 1678.000; 1230.000
462.422;   33.875;  781.000;  840.000
462.542;  -37.025;  271.000;  391.000
462.662;   45.200;  353.000;  380.000
462.782;  344.425;  833.000;  572.000
462.901;  781.700;  545.000;  717.000
463.021;  414.175; 1702.000; 1638.000
463.141;   23.675;  337.000;  770.000
463.260;  -15.075;  614.000;  474.000
463.380;   16.250;  902.000;  884.000
463.499;  -40.700;  342.000;  332.000
463.619;  -18.975;  581.000;  559.000
463.738;   97.625; 1644.000;  903.000
463.858;    7.650;  657.000;  811.000
463.978;  -46.700;  542.000;  396.000
464.097;   57.425;  921.000; 1114.000
464.217;  137.100; 1196.000; 1143.000
464.336;  148.625; 1068.000; 1130.000
464.455;  -38.975;  328.000;  659.000
464.575;   23.975;  597.000;  602.000
464.694;  129.300; 1204.000; 1179.000
464.814;  154.800; 1190.000; 1138.000
464.933;   74.750; 1095.000; 1027.000
465.052;   82.150; 1412.000; 1054.000
465.172;   64.375;  922.000;  799.000
465.291;  128.000; 1376.000; 1320.000
465.410;  -23.350;  462.000;  735.000
465.530;   67.750; 1355.000; 1310.000
465.649;   49.625; 1209.000; 1273.000
465.768;  146.725; 1673.000; 1508.000
465.888;   62.075;  941.000; 1174.000
466.007;   95.850; 1335.000; 1440.000
466.126;  -13.725;  721.000;  641.000
466.245;   59.575; 1176.000; 1187.000
466.364;   21.525;  950.000; 1060.000
466.484;   67.675; 1024.000; 1213.000
466.603;   14.975; 1101.000; 1222.000
466.722;  119.275; 1490.000; 1769.000
466.841;   50.700; 1151.000; 1401.000
466.960;   48.800; 1069.000;  972.000
467.079;  132.700; 1971.000; 1786.000
467.198;   59.200; 1238.000; 1181.000
467.317;   87.025; 1768.000; 1162.000
467.436;   84.150; 1709.000; 1261.000
467.555;  109.025; 1796.000; 1746.000
467.674;   64.675; 1227.000; 1329.000
467.793;   39.325; 1376.000; 1374.000
467.912;   82.125; 1658.000; 1539.000
468.031;  117.450; 2038.000; 1930.000
468.150;  122.350; 1842.000; 1837.000
468.269;  168.475; 2313.000; 2090.000
468.388;  195.250; 2168.000; 2339.000
468.507;  230.925; 2884.000; 2903.000
468.626;  233.250; 2555.000; 2541.000
468.744;  130.100; 2018.000; 2174.000
468.863;  206.125; 2312.000; 2523.000
468.982;   88.325; 1503.000; 1555.000
469.101;  220.075; 2788.000; 2692.000
469.220;  130.600; 2333.000; 2176.000
469.338;  246.425; 2935.000; 3051.000
469.457;  187.625; 2719.000; 2545.000
469.576;  338.800; 3953.000; 3784.000
469.695;  232.475; 2877.000; 3066.000
469.813;  423.925; 4148.000; 4192.000
469.932;  415.725; 4255.000; 4485.000
470.051;  431.025; 4075.000; 4161.000
470.169; 1029.625; 4470.000; 4338.000
470.288; 2027.175; 4700.000; 4809.000
470.406; 1170.475; 5059.000; 5194.000
470.525;  670.975; 6101.000; 5787.000
470.644;  638.975; 6847.000; 6794.000
470.762;  795.650; 8397.000; 7873.000
470.881;  922.300; 8651.000; 8464.000
470.999; 1067.475; 9685.000; 9151.000
471.118; 1106.025;11174.000;10711.000

