
Integration time [ms]: 100.000
Averaging Nr. [scans]: 40
Smoothing Nr. [pixels]: 0
Data measured with spectrometer [name]: 2101012U2
Wave   ;Sample   ;Dark     ;Reference
[nm]   ;[counts] ;[counts] ;[counts] 

197.733;   65.525;  516.000;  404.000
197.879;  -78.150; -610.000; -634.000
198.025;  -38.175; -475.000; -420.000
198.171;  -72.475; -602.000; -612.000
198.317;  -26.150; -401.000; -316.000
198.463;  -65.150; -655.000; -404.000
198.609;   25.975;  181.000; -137.000
198.755;  -85.175; -644.000; -410.000
198.901;  -57.600; -505.000; -424.000
199.047;  -67.000; -615.000; -488.000
199.193;  -33.825; -230.000; -468.000
199.339;  -49.525; -222.000; -369.000
199.485;   37.625;  330.000;  271.000
199.631;    4.925;  227.000;  310.000
199.777;  -45.025; -466.000; -398.000
199.923;  -55.425; -610.000; -424.000
200.069;   -1.900; -141.000;  -58.000
200.215;   52.250;  128.000;  453.000
200.361;   42.550;  243.000;  477.000
200.507;  -66.300; -600.000; -373.000
200.653;  -19.150; -371.000; -194.000
200.798;  -33.400; -215.000; -125.000
200.944;  -13.500; -146.000;  -41.000
201.090;   33.800;   61.000;  222.000
201.236;   -3.325; -116.000; -158.000
201.382;  114.250;  874.000;  903.000
201.528;    9.525;  -58.000;  -48.000
201.674;  -62.225; -386.000; -293.000
201.819;  -59.825; -540.000; -439.000
201.965;  -90.475; -699.000; -447.000
202.111;  -29.625; -273.000; -226.000
202.257;  -33.075; -250.000; -238.000
202.402;   -4.675;   13.000;  -36.000
202.548;  -26.875; -169.000; -116.000
202.694;  105.350;  410.000; -183.000
202.840;  -67.700; -603.000; -531.000
202.985;  -65.575; -681.000; -639.000
203.131; -115.200; -832.000; -666.000
203.277;  -25.550; -199.000; -262.000
203.423;  -54.925; -434.000; -520.000
203.568;  -29.400; -462.000; -237.000
203.714;  -65.500; -535.000; -542.000
203.860;  -68.575; -682.000; -641.000
204.005;   13.550;  112.000;  167.000
204.151;   75.675;  561.000;  556.000
204.296;  -47.100; -354.000; -221.000
204.442;  -68.050; -600.000; -547.000
204.588;  -75.300; -592.000; -579.000
204.733;   19.200;  178.000;  168.000
204.879; -132.500;-1018.000; -822.000
205.025;   10.400;  -99.000;  126.000
205.170;   -6.500;  -17.000;   94.000
205.316;   80.275;  438.000;  661.000
205.461;  -70.800; -698.000; -554.000
205.607;   84.925;  609.000;  665.000
205.752;  -68.550; -626.000; -551.000
205.898;  -59.900; -501.000; -391.000
206.043;  -74.525; -578.000; -506.000
206.189;  -38.275; -243.000; -285.000
206.334;   69.500;  554.000;  606.000
206.480;   83.975;  409.000;  239.000
206.625;  -72.900; -529.000; -552.000
206.771;  -47.125; -451.000; -373.000
206.916;  -29.500; -210.000; -537.000
207.062;  -69.225; -545.000; -591.000
207.207;  -48.100; -546.000; -443.000
207.353;   57.350;  185.000;  460.000
207.498;   13.175;  196.000;   85.000
207.643;  -47.425; -501.000; -370.000
207.789; -136.525;-1069.000; -910.000
207.934;  -95.975; -665.000; -713.000
208.080;  -20.650; -154.000;   66.000
208.225;   -6.375;  -22.000;  -57.000
208.370;  -92.850; -727.000; -619.000
208.516;  -82.750; -741.000; -487.000
208.661;  -42.800; -127.000;  -69.000
208.806;  -18.600; -165.000; -171.000
208.952; -134.875;-1044.000; -731.000
209.097;   73.275;  378.000;  349.000
209.242;  -47.150; -307.000; -382.000
209.387;   60.300;  392.000;  350.000
209.533;  -61.350; -321.000; -350.000
209.678;   82.825;  472.000;  543.000
209.823;  -57.325; -408.000; -310.000
209.969;  -88.350; -860.000; -757.000
210.114; -104.925; -907.000; -719.000
210.259; -114.600; -939.000; -889.000
210.404;  -28.025; -171.000;  103.000
210.549;   16.575;  108.000;    3.000
210.695;  -25.700;   -3.000;  -95.000
210.840;   34.150;   94.000;   67.000
210.985;  -74.975; -484.000; -303.000
211.130;   62.575;  268.000;  406.000
211.275;    8.875;  207.000;  199.000
211.420;  -49.375; -300.000; -289.000
211.566;  -72.325; -536.000; -489.000
211.711;   34.975;  218.000;  157.000
211.856;  -80.875; -545.000; -519.000
212.001;    6.175;  151.000;   44.000
212.146;   10.325;  153.000;   49.000
212.291;  -21.150; -210.000; -186.000
212.436;  -25.850; -280.000;   -6.000
212.581;  -83.850; -685.000; -653.000
212.726;  -73.225; -487.000; -538.000
212.871;  -56.200; -552.000; -217.000
213.016; -149.975;-1172.000;-1029.000
213.161;   66.325;  406.000;  291.000
213.306;  -73.650; -435.000; -577.000
213.451;  -95.000; -778.000; -689.000
213.596;  -48.925; -455.000; -347.000
213.741;  -39.275; -448.000; -538.000
213.886;  -68.850; -498.000; -517.000
214.031;  -24.450; -294.000; -124.000
214.176;  -52.800; -408.000; -341.000
214.321;  -24.700; -296.000; -157.000
214.466;  -31.675; -163.000;  -43.000
214.611;  -13.375;  -61.000;  -10.000
214.756; -122.650; -948.000; -858.000
214.901;  -13.125; -388.000; -226.000
215.046; -135.450; -797.000; -825.000
215.191;   27.225;  128.000;   35.000
215.336;  -29.100; -157.000;  -19.000
215.480;  -61.700; -684.000; -505.000
215.625;   -7.325; -175.000;  -19.000
215.770;  -79.350; -757.000; -662.000
215.915;  -18.625;   -5.000;  -97.000
216.060;  -16.325; -113.000;  -21.000
216.205; -105.075; -731.000; -779.000
216.349;  -62.575; -470.000; -533.000
216.494; -140.150; -939.000; -867.000
216.639; -111.150; -823.000; -888.000
216.784;  -73.200; -577.000; -525.000
216.929;   53.400;  392.000;  281.000
217.073;  -13.850; -244.000;  -31.000
217.218;    6.300;   78.000;  -47.000
217.363;  -93.075; -656.000; -618.000
217.507;  -73.925; -623.000; -588.000
217.652; -121.475; -845.000; -874.000
217.797;  -89.050; -708.000; -659.000
217.942; -119.900; -856.000; -720.000
218.086;   74.425;  608.000;  539.000
218.231;  -32.125; -174.000;  -26.000
218.376;  -42.250; -337.000; -229.000
218.520;   -4.175;  -41.000;   96.000
218.665;  -31.425; -338.000; -204.000
218.810;  -47.450; -275.000; -233.000
218.954;   20.575;  201.000;   35.000
219.099; -110.425; -713.000; -963.000
219.243;  -75.775; -589.000; -554.000
219.388;  -29.875; -264.000; -136.000
219.532;   -6.525; -116.000; -116.000
219.677;  -75.275; -564.000; -521.000
219.822;    4.950;   33.000;   89.000
219.966;   10.975;   17.000;  -99.000
220.111;  -27.425; -328.000;  -40.000
220.255; -100.500; -797.000; -750.000
220.400;   -9.575; -180.000; -146.000
220.544;  -74.425; -516.000; -450.000
220.689;  -57.200; -422.000; -451.000
220.833;  -17.925; -123.000;  -58.000
220.978;  -46.100; -393.000; -563.000
221.122;   21.775;  319.000;  307.000
221.267; -107.775; -906.000; -837.000
221.411;  -66.375; -478.000; -394.000
221.555;   -5.575; -104.000;  -23.000
221.700;  -53.800; -329.000; -222.000
221.844;   35.975;  255.000;  272.000
221.989;  -46.350; -328.000; -311.000
222.133;  -32.375; -289.000; -307.000
222.277;   -9.600;    5.000;   78.000
222.422;    6.650;  227.000;  113.000
222.566;  -43.750; -381.000; -214.000
222.711;  -62.625; -414.000; -479.000
222.855;  -80.250; -643.000; -586.000
222.999;  -86.800; -642.000; -717.000
223.144;  -36.850; -195.000; -194.000
223.288;   69.625;  423.000;  251.000
223.432;   18.800;  184.000;  230.000
223.576;   22.975;  152.000;  -21.000
223.721;   39.700;  364.000;  273.000
223.865;  -66.025; -472.000; -475.000
224.009;  235.350; 1673.000; 1631.000
224.153;  -74.400; -660.000; -671.000
224.298;  -67.875; -531.000; -489.000
224.442;    7.075;  -74.000;  -33.000
224.586;  -12.475; -169.000; -106.000
224.730;  -91.525; -858.000; -670.000
224.875; -101.125; -739.000; -688.000
225.019;    6.675;  102.000;  188.000
225.163;   41.525;  208.000;  341.000
225.307;    8.150;   97.000;  -91.000
225.451;   39.775;  360.000;  481.000
225.595;   31.875;  264.000;  176.000
225.739;  -27.575; -170.000;  -94.000
225.884;    1.400;   86.000;    5.000
226.028; -103.200; -760.000; -626.000
226.172;  -38.625; -260.000; -273.000
226.316; -114.225; -941.000; -902.000
226.460;  -73.250; -645.000; -493.000
226.604;  -56.900; -406.000; -400.000
226.748;  -95.500; -836.000; -733.000
226.892;  -33.625; -227.000; -181.000
227.036;  -58.000; -537.000; -447.000
227.180;  -63.575; -551.000; -375.000
227.324;  -61.075; -561.000; -580.000
227.468; -127.750; -819.000; -717.000
227.612;   13.050;  242.000;  -28.000
227.756; -104.325; -845.000; -698.000
227.900;   51.825;  342.000;  441.000
228.044;  -54.100; -509.000; -290.000
228.188;   63.075;  448.000;  568.000
228.332;  -78.200; -546.000; -472.000
228.476;  -33.450; -223.000; -149.000
228.620;  -45.850; -210.000; -150.000
228.764;   69.725;  431.000;  349.000
228.908;  -16.975; -155.000;   30.000
229.052;  -59.050; -615.000; -528.000
229.195;  -12.525; -172.000;   13.000
229.339;  -22.775; -235.000; -305.000
229.483;  -19.725;    5.000; -162.000
229.627;  -11.625; -156.000;  139.000
229.771;  -51.125; -218.000; -294.000
229.915;    6.600;  230.000;   79.000
230.059; -105.775; -648.000; -663.000
230.202;  -37.525; -370.000; -317.000
230.346;  -24.675; -107.000;  107.000
230.490;  -51.775; -489.000; -521.000
230.634; -112.250; -736.000; -553.000
230.777;   88.200;  478.000;  509.000
230.921;  -46.950; -450.000; -359.000
231.065;  -38.500; -246.000; -286.000
231.209;   25.850;  261.000;  265.000
231.352;   22.775;   54.000;   40.000
231.496;   12.975;  568.000;  188.000
231.640;  -81.825; -693.000; -621.000
231.783;   54.175;  546.000;  525.000
231.927;  -37.100; -294.000; -365.000
232.071; -119.425; -962.000; -736.000
232.214; -108.475; -980.000; -764.000
232.358; -101.150; -683.000; -599.000
232.502;    9.975;  -19.000;    7.000
232.645; -134.175;-1090.000; -927.000
232.789;  -12.875; -257.000; -218.000
232.933;  -34.400; -407.000; -224.000
233.076; -122.250;-1038.000; -897.000
233.220; -101.300; -752.000; -777.000
233.363;  -58.375; -669.000; -477.000
233.507;   48.975;  371.000;  129.000
233.650; -103.925; -764.000; -834.000
233.794;   31.825;  438.000;  461.000
233.938;  -63.450; -530.000; -362.000
234.081;  -18.525;  -93.000;   31.000
234.225;  -72.725; -631.000; -539.000
234.368; -109.350; -773.000; -723.000
234.512;  -40.400; -385.000; -299.000
234.655;  -90.075; -582.000; -555.000
234.798;  -50.050; -493.000; -466.000
234.942; -125.700; -884.000;-1002.000
235.085;  -73.600; -651.000; -443.000
235.229;  -69.400; -405.000; -410.000
235.372;  -48.475; -247.000; -191.000
235.516;  -63.550; -397.000; -321.000
235.659;   22.225;   92.000;  121.000
235.802;  -17.450;  -38.000;  -22.000
235.946;   31.850;  335.000;  215.000
236.089;   19.925;  126.000;  250.000
236.233;   53.150;  275.000;  298.000
236.376;  -53.325; -235.000; -378.000
236.519;  -59.200; -297.000; -319.000
236.663;  -41.525; -215.000; -117.000
236.806; -123.900;-1029.000; -999.000
236.949;   35.100;  543.000;  431.000
237.092;   45.100;  412.000;  391.000
237.236;  -98.650; -589.000; -502.000
237.379;   60.875;  352.000;  428.000
237.522; -125.800; -879.000; -768.000
237.666;  -15.350; -271.000;   18.000
237.809; -131.200; -851.000; -823.000
237.952;   36.675;  469.000;  271.000
238.095;  -78.700; -447.000; -442.000
238.238;   70.200;  688.000;  700.000
238.382;    5.050;  166.000;  103.000
238.525;  -68.000; -598.000; -511.000
238.668; -138.700;-1060.000; -985.000
238.811;  -81.550; -638.000; -643.000
238.954;  -75.975; -483.000; -334.000
239.097;  100.125;  617.000;  664.000
239.241;   17.400;  394.000;  326.000
239.384;  -28.575; -254.000; -214.000
239.527;  -63.075; -424.000; -224.000
239.670; -144.350; -994.000;-1091.000
239.813; -104.225; -696.000; -658.000
239.956;   77.350;  579.000;  473.000
240.099; -126.850; -778.000; -725.000
240.242;   55.250;  428.000;  432.000
240.385;   22.650;  466.000;  450.000
240.528;  -66.350; -706.000; -473.000
240.671;    2.600;  189.000;  134.000
240.814;  -37.875; -441.000; -158.000
240.957; -107.625; -767.000; -578.000
241.100;  -84.400; -779.000; -755.000
241.243; -152.000;-1234.000; -893.000
241.386;  -69.025; -508.000; -379.000
241.529;  -98.625; -735.000; -547.000
241.672;  -70.125; -566.000; -495.000
241.815; -126.700; -832.000; -808.000
241.958;  -22.825; -125.000; -182.000
242.101;  -77.825; -545.000; -390.000
242.244;  -35.250; -270.000; -325.000
242.387;  -62.600; -304.000; -246.000
242.530;   55.675;  470.000;  134.000
242.673;  -49.500; -381.000; -309.000
242.815; -112.375; -925.000; -899.000
242.958;  -63.950; -482.000; -381.000
243.101;   16.250;  132.000;  187.000
243.244;  -82.100; -564.000; -521.000
243.387;  -47.000; -313.000; -316.000
243.530; -108.900; -657.000; -674.000
243.672;   -7.175;   43.000;  -92.000
243.815;  -52.050; -355.000; -283.000
243.958;   -5.400;   98.000;  -26.000
244.101;  -15.375;   59.000;  -16.000
244.243;   -7.125;  -47.000;  101.000
244.386; -109.675; -761.000; -630.000
244.529;  -15.025; -132.000; -139.000
244.672; -147.525;-1154.000; -951.000
244.814;  -79.500; -621.000; -794.000
244.957;  -41.975; -380.000; -304.000
245.100;  -57.675; -489.000; -489.000
245.242;  -63.800; -387.000; -374.000
245.385;   -4.775;  -59.000;  -39.000
245.528; -127.425; -871.000; -705.000
245.670;   91.225;  612.000;  634.000
245.813;  -80.050; -599.000; -547.000
245.956;  -35.900; -324.000; -275.000
246.098;  -83.025; -508.000; -650.000
246.241;   12.925;  194.000;   48.000
246.383;  -15.925; -119.000;  -73.000
246.526;  -78.925; -454.000; -525.000
246.669; -125.000; -889.000; -780.000
246.811;   18.650;  172.000;   -1.000
246.954;  -62.250; -512.000; -426.000
247.096;  -24.675;  -84.000;   -6.000
247.239;  -65.750; -482.000; -445.000
247.381;  -56.300; -647.000; -488.000
247.524;   92.375;  645.000;  679.000
247.666;  -11.975;   58.000;   11.000
247.809; -114.050; -887.000; -691.000
247.951;    0.750;  -75.000;  138.000
248.094;   23.150;  432.000;  308.000
248.236; -146.925;-1262.000;-1238.000
248.378;   12.650; -356.000;  -81.000
248.521;  -10.625; -334.000; -337.000
248.663;  -32.800; -236.000; -267.000
248.806;  -23.750; -300.000; -266.000
248.948;  -96.475; -886.000; -763.000
249.090;  -45.100; -428.000; -398.000
249.233;  -41.950; -344.000; -381.000
249.375;  -64.400; -474.000; -451.000
249.518;  -25.225;  -83.000; -133.000
249.660;   -1.575; -103.000;    3.000
249.802; -176.975;-1303.000;-1189.000
249.945;  -63.450; -612.000; -540.000
250.087; -112.325; -834.000; -768.000
250.229;  -57.650; -362.000; -480.000
250.371;  -74.900; -494.000; -439.000
250.514;  -48.425; -310.000; -244.000
250.656;  -27.000;   69.000;  102.000
250.798; -121.100; -849.000; -800.000
250.940;  -45.750; -322.000; -322.000
251.083;  -18.150; -335.000; -111.000
251.225;   52.325;  338.000;  310.000
251.367;  -40.300; -274.000; -373.000
251.509;  -40.450; -265.000; -210.000
251.651;  -88.250; -731.000; -671.000
251.794;   58.375;  538.000;  632.000
251.936; -102.725; -821.000; -747.000
252.078;  -80.000; -540.000; -461.000
252.220;  -68.275; -645.000; -477.000
252.362;   81.050;  344.000;  462.000
252.504;  -60.350; -677.000; -584.000
252.646; -111.475; -875.000; -722.000
252.788;   -6.750;   14.000; -128.000
252.931;  -44.175; -257.000; -253.000
253.073;  -31.450; -376.000; -317.000
253.215;  -15.950;  141.000;  122.000
253.357;  -11.750;   82.000; -153.000
253.499;  -42.800; -374.000; -234.000
253.641;  -82.975; -749.000; -594.000
253.783;  -97.050; -609.000; -527.000
253.925;  -90.475; -586.000; -591.000
254.067; -101.025; -744.000; -667.000
254.209;  -28.275; -391.000; -259.000
254.351; -139.825; -865.000; -883.000
254.493;  -46.175; -441.000; -417.000
254.635; -133.900; -936.000; -818.000
254.777;  -81.000; -752.000; -687.000
254.918;  -67.475; -512.000; -430.000
255.060;  -62.650; -551.000; -395.000
255.202;  -66.700; -473.000; -261.000
255.344;  -62.825; -658.000; -455.000
255.486;  -70.975; -471.000; -406.000
255.628; -106.175; -780.000; -781.000
255.770; -126.350; -676.000; -536.000
255.912;  -60.575; -559.000; -468.000
256.053;  -84.275; -730.000; -508.000
256.195;  153.500; 1008.000;  903.000
256.337; -105.100; -861.000; -595.000
256.479;   71.500;  532.000;  416.000
256.621;  -50.450; -394.000; -212.000
256.762;  -96.700; -789.000; -742.000
256.904;   37.700;  485.000;  487.000
257.046;  -48.950; -381.000; -271.000
257.188;  -44.450; -351.000; -264.000
257.329;  -76.800; -525.000; -464.000
257.471; -108.900; -939.000; -807.000
257.613;  -51.025; -584.000; -498.000
257.755; -140.925;-1073.000; -982.000
257.896;   37.800;  286.000;  392.000
258.038;  -67.100; -403.000; -352.000
258.180;  -30.425; -354.000; -279.000
258.321;  -81.650; -581.000; -457.000
258.463;   -0.325;  -71.000;  133.000
258.605;  -83.875; -562.000; -570.000
258.746;  -88.000; -886.000; -772.000
258.888; -150.275;-1026.000;-1020.000
259.029;    8.375;  121.000;   -8.000
259.171;  -78.000; -614.000; -550.000
259.313;    6.475;  -49.000;  -47.000
259.454;  -73.225; -536.000; -414.000
259.596;  -54.350; -483.000; -390.000
259.737;  -78.050; -590.000; -474.000
259.879;   41.075;  217.000;  311.000
260.020;   88.350;  901.000;  636.000
260.162;  -22.325; -146.000; -253.000
260.303; -118.650; -768.000; -687.000
260.445;  -76.225; -609.000; -613.000
260.586;   31.450;  392.000;  157.000
260.728;  -44.950; -360.000; -248.000
260.869; -111.375; -350.000; -343.000
261.011;   87.625;  706.000;  537.000
261.152;  -69.825; -479.000; -319.000
261.293;  -75.625; -576.000; -595.000
261.435;  -31.650; -219.000; -184.000
261.576;  -42.450; -455.000; -325.000
261.718;   52.400;  420.000;  470.000
261.859; -127.875; -940.000; -949.000
262.000; -127.700; -951.000;-1016.000
262.142;   -8.575;  -52.000;  -60.000
262.283; -122.000; -808.000; -691.000
262.424;  -83.575; -666.000; -625.000
262.566; -134.850;-1161.000; -983.000
262.707; -106.075; -840.000; -830.000
262.848; -123.625; -769.000; -726.000
262.990;  -61.725; -362.000; -345.000
263.131;   63.100;  650.000;  681.000
263.272;   -7.800;  -61.000;  -41.000
263.413;  -88.975; -589.000; -561.000
263.555;  -66.900; -669.000; -143.000
263.696;  -90.525; -550.000; -641.000
263.837;  -47.675; -449.000; -551.000
263.978;  -11.900;   -5.000;  -77.000
264.119;  -43.050; -283.000; -264.000
264.261; -112.725; -847.000; -630.000
264.402;   -5.675;   33.000;   40.000
264.543;  -77.775; -509.000; -524.000
264.684;   -0.800;   61.000;  -50.000
264.825;  -72.125; -816.000; -538.000
264.966;   -2.800;  -84.000;  -67.000
265.107; -110.100; -646.000; -670.000
265.248; -118.300; -825.000; -812.000
265.390;  -14.425;  152.000;   -9.000
265.531;  -14.450; -238.000; -107.000
265.672;  -92.975; -557.000; -630.000
265.813;   63.600;  563.000;  439.000
265.954; -152.050; -959.000; -940.000
266.095;   -0.550; -372.000; -322.000
266.236;  -99.975; -686.000; -548.000
266.377;  -38.250; -243.000; -297.000
266.518;  -79.400; -619.000; -547.000
266.659;   13.475;  170.000;  268.000
266.800;   13.175;   83.000;   85.000
266.941;  -71.925; -487.000; -478.000
267.082;    3.250;  354.000;   99.000
267.223;  -42.550; -344.000; -273.000
267.364; -121.350; -892.000; -686.000
267.504;  -12.350;    3.000;  135.000
267.645;  -17.975;  160.000;   67.000
267.786;  -40.700; -147.000;  -86.000
267.927;  -69.100; -473.000; -379.000
268.068;  -23.400; -186.000;  -61.000
268.209;  -53.100; -175.000; -413.000
268.350;  -59.850; -388.000; -532.000
268.490;  -84.225; -648.000; -521.000
268.631;   22.425;  127.000;  225.000
268.772; -113.525; -874.000; -647.000
268.913;  -49.150; -328.000; -476.000
269.054;  -24.100; -117.000;   12.000
269.194;  -46.450; -418.000; -402.000
269.335; -161.275;-1137.000;-1074.000
269.476;  -14.775;   33.000;  -35.000
269.617;  -32.800; -347.000; -392.000
269.757;  -81.575; -713.000; -646.000
269.898; -112.275; -856.000; -613.000
270.039;  -60.050; -415.000; -405.000
270.180; -138.975; -952.000; -816.000
270.320;  -27.350; -190.000; -250.000
270.461;  -38.625; -277.000; -249.000
270.602;  -15.425; -186.000; -156.000
270.742; -121.575; -868.000; -943.000
270.883;  -59.075; -442.000; -390.000
271.023;  -61.050; -358.000; -357.000
271.164;  -66.150; -607.000; -528.000
271.305; -104.050; -666.000; -654.000
271.445;  -94.925; -722.000; -683.000
271.586;  -57.175; -462.000; -283.000
271.726;  -44.550; -397.000; -322.000
271.867;  -55.325; -594.000; -534.000
272.008;  196.850; -473.000; -285.000
272.148;  140.325;  462.000;  468.000
272.289;   10.750; -113.000; -181.000
272.429;   12.125;   19.000;  185.000
272.570;  -81.600; -633.000; -737.000
272.710;  -96.250; -825.000; -775.000
272.851;  -29.275;  113.000; -130.000
272.991; -159.300;-1173.000;-1077.000
273.131;  -71.425; -419.000; -459.000
273.272; -105.750; -683.000; -723.000
273.412;   19.650; -143.000;  -31.000
273.553;  -54.425; -488.000; -507.000
273.693;  126.025;  913.000;  858.000
273.834;  -93.025; -894.000; -692.000
273.974;  -62.425; -664.000; -615.000
274.114; -104.075; -772.000; -560.000
274.255;   70.000;  414.000;  373.000
274.395;    7.775; -180.000; -125.000
274.535;   32.350;  199.000;  350.000
274.676;   13.875;  225.000;   94.000
274.816;    2.575;  110.000;   34.000
274.956;  -84.900; -624.000; -690.000
275.097;  -46.050;-1014.000; -922.000
275.237; -104.325; -913.000; -803.000
275.377; -102.400; -778.000; -689.000
275.517; -141.175; -878.000; -937.000
275.658;  -61.500; -590.000; -555.000
275.798;  -65.000; -606.000; -413.000
275.938;   27.625;  215.000;  323.000
276.078; -110.200; -626.000; -395.000
276.218;    2.150;   99.000;  104.000
276.359; -124.925;-1026.000;-1024.000
276.499;  -62.475; -605.000; -446.000
276.639;  -38.100; -305.000; -151.000
276.779;  -51.150; -475.000; -357.000
276.919; -100.275; -783.000; -624.000
277.059;  -17.775; -261.000; -212.000
277.199;  -45.150; -357.000; -259.000
277.340;   63.650;  287.000;  175.000
277.480; -112.100; -840.000; -693.000
277.620;   29.650;  192.000;   16.000
277.760; -189.425;-1533.000;-1294.000
277.900;   19.325;  113.000;   33.000
278.040;   25.950;  137.000;  159.000
278.180;   40.300;  270.000;  170.000
278.320;    0.050;   21.000;   56.000
278.460;  -58.975; -443.000; -469.000
278.600;  -99.175; -708.000; -598.000
278.740;   54.950;  448.000;  224.000
278.880;  -51.250; -768.000; -791.000
279.020;    4.725; -194.000; -144.000
279.160;  -91.950; -672.000; -595.000
279.300; -105.675; -926.000; -873.000
279.440;  -85.200; -709.000; -622.000
279.579;    4.400;-1014.000; -929.000
279.719;  -47.950; -410.000; -394.000
279.859;   84.550;   -4.000;   41.000
279.999;   26.250; -208.000;  101.000
280.139;   -3.850; -435.000; -387.000
280.279;  -70.150; -708.000; -745.000
280.419;  -11.000; -229.000; -147.000
280.559;  -40.825; -259.000; -180.000
280.698;  -80.475; -790.000; -639.000
280.838;  -99.825; -778.000; -800.000
280.978;  -97.050; -846.000; -790.000
281.118; -105.800; -811.000; -704.000
281.257;   -4.900;   24.000;    6.000
281.397; -105.125;-1094.000; -960.000
281.537;  -90.500; -599.000; -712.000
281.677;  -33.625; -150.000; -101.000
281.816;  -83.225; -700.000; -630.000
281.956;  -32.475; -193.000; -257.000
282.096;  -49.225; -539.000; -396.000
282.235; -100.950; -672.000; -638.000
282.375;   -9.850; -243.000;  -98.000
282.515; -112.425; -715.000; -707.000
282.654;   16.025;   29.000;  106.000
282.794;   17.825;  388.000;  244.000
282.934;  -53.775; -530.000; -491.000
283.073; -128.500;-1030.000; -857.000
283.213;  -38.975; -460.000; -467.000
283.353;  -31.550; -408.000; -349.000
283.492;  -21.325; -264.000; -296.000
283.632;  -41.625; -254.000; -168.000
283.771;  -94.500; -859.000; -730.000
283.911;  -43.675; -369.000; -260.000
284.050; -113.800; -794.000; -748.000
284.190; -159.525;-1229.000;-1096.000
284.329; -141.800;-1055.000; -964.000
284.469;  -62.775; -516.000; -591.000
284.608;  -57.125; -559.000; -598.000
284.748;  -78.875; -614.000; -570.000
284.887;   -6.575;  -87.000;  -20.000
285.027; -116.275; -844.000; -892.000
285.166;  -26.125; -192.000; -249.000
285.306;   18.225; -116.000;  -33.000
285.445;  -30.500; -229.000; -343.000
285.584;  -85.500; -630.000; -494.000
285.724;  -31.600; -282.000; -322.000
285.863; -101.675; -857.000; -507.000
286.002;  -56.575; -366.000; -276.000
286.142; -110.975; -715.000; -622.000
286.281;  -70.075; -525.000; -493.000
286.420;  -82.575; -554.000; -417.000
286.560;   94.400;  653.000;  623.000
286.699; -136.500; -958.000; -912.000
286.838;  -75.975; -590.000; -591.000
286.978;  -91.800; -533.000; -537.000
287.117; -128.150;-1085.000; -950.000
287.256;  -30.275; -228.000; -211.000
287.395;  -50.200; -197.000; -378.000
287.535;  -47.875; -370.000; -298.000
287.674;  -77.525; -509.000; -484.000
287.813;   67.925;  661.000;  533.000
287.952; -131.725;-1010.000; -871.000
288.091; -150.450;-1049.000; -915.000
288.231;   11.625;   13.000;   15.000
288.370; -176.750;-1217.000;-1200.000
288.509;  -78.350; -728.000; -645.000
288.648;  -90.475; -770.000; -548.000
288.787;  -29.050; -243.000;  -87.000
288.926;  -76.625; -454.000; -475.000
289.065;  118.850;  859.000;  672.000
289.204;  -48.275; -377.000; -217.000
289.344;  -99.625; -791.000; -690.000
289.483;   17.750;  416.000;  304.000
289.622;  -11.400; -291.000; -149.000
289.761;  -32.375; -309.000; -166.000
289.900;  -92.325; -785.000; -626.000
290.039;  -20.650;  -12.000;  -95.000
290.178;  -44.625; -274.000; -180.000
290.317;  -82.000; -618.000; -479.000
290.456;  -66.325; -463.000; -451.000
290.595; -132.475; -961.000; -833.000
290.734; -124.075; -904.000; -891.000
290.873;  -70.425; -456.000; -420.000
291.011; -108.225; -833.000; -843.000
291.150; -104.025; -770.000; -682.000
291.289;  -22.675; -343.000; -110.000
291.428; -103.275; -599.000; -480.000
291.567;  -60.725; -370.000; -442.000
291.706;  -16.550;  109.000;  154.000
291.845;  -88.475; -597.000; -505.000
291.984; -166.075;-1234.000;-1061.000
292.122;   77.400;  602.000;  582.000
292.261;   35.825;  620.000;  463.000
292.400;   -0.175; -144.000;  211.000
292.539; -125.850; -959.000; -813.000
292.678;  -34.900; -325.000; -300.000
292.816; -157.250;-1136.000; -965.000
292.955;  -84.400; -844.000; -684.000
293.094;  -35.750; -173.000; -337.000
293.233;  -54.875; -556.000; -400.000
293.371;  -37.025; -225.000;  -84.000
293.510; -103.300; -866.000; -780.000
293.649; -121.250; -959.000; -924.000
293.787;  -38.150;-1083.000;-1012.000
293.926;  -11.600; -113.000;  -32.000
294.065;  -47.775; -379.000; -290.000
294.203;   43.350;  298.000;  406.000
294.342;   35.375;   74.000;  156.000
294.481; 6150.600;51180.000; -836.000
294.619;   -3.775; -425.000; -582.000
294.758; -144.375;-1230.000;-1137.000
294.896;   82.775; -125.000;    5.000
295.035; -135.300;-1040.000;-1006.000
295.174; -115.175;-1082.000; -954.000
295.312;  -47.550; -323.000; -203.000
295.451;  -15.225; -307.000; -428.000
295.589;  -53.350; -389.000; -518.000
295.728;   13.950; -292.000; -165.000
295.866;    6.575;  -36.000;  -51.000
296.005;  -49.725; -584.000; -341.000
296.143;  -78.450; -558.000; -596.000
296.282; -105.050; -957.000; -881.000
296.420;  -79.875; -657.000; -557.000
296.559;  -84.675; -892.000; -633.000
296.697;   47.825; -847.000; -665.000
296.835;   90.150;-1141.000;-1002.000
296.974;   53.250;  -23.000;   39.000
297.112;   19.300; -443.000; -504.000
297.251;  -74.850; -815.000; -755.000
297.389;  118.350; -576.000; -438.000
297.527;   34.425; -145.000;  -83.000
297.666;  -33.700; -486.000; -438.000
297.804;  -72.750; -404.000; -264.000
297.942;    2.750; -136.000; -161.000
298.081;   -2.025; -183.000;   63.000
298.219;   88.775;  -17.000;  -19.000
298.357;   53.825; -144.000;  -71.000
298.495;   55.500; -810.000; -812.000
298.634;   91.475;  245.000;  219.000
298.772;   80.675; -220.000; -338.000
298.910;  -34.800; -309.000; -182.000
299.048;   -7.300; -130.000; -153.000
299.187;  -48.950; -350.000; -250.000
299.325;   23.750;   52.000;  122.000
299.463;   71.350; -389.000; -299.000
299.601;  141.000; -327.000; -271.000
299.739; -105.875; -908.000; -883.000
299.877;  -72.900; -791.000; -703.000
300.016;  -20.225;-1095.000; -935.000
300.154;  186.350;  -19.000; -161.000
300.292;   75.250; -428.000; -348.000
300.430;   41.275; -408.000; -291.000
300.568;  -94.475; -940.000; -874.000
300.706;  -53.175; -366.000; -469.000
300.844;  -70.050;-1108.000; -979.000
300.982;  128.100;  246.000;  282.000
301.120; -102.275; -965.000; -866.000
301.258;  -70.300; -812.000; -705.000
301.396;   30.475;  104.000;  -41.000
301.534;  113.500; -218.000; -293.000
301.672;    3.650; -664.000; -521.000
301.810;   71.475; -613.000; -545.000
301.948;  144.450;   53.000;  149.000
302.086;  701.250; -250.000;  -32.000
302.224; 1073.675; -610.000; -585.000
302.362;   64.575; -558.000; -622.000
302.500;   -3.250; -923.000; -893.000
302.638;  124.575;  128.000;  245.000
302.776;   -0.025; -352.000; -408.000
302.913;   38.325;  447.000;  236.000
303.051;   -1.375;  -86.000;  -23.000
303.189;   64.450;   90.000;  118.000
303.327;  -35.300; -341.000; -256.000
303.465;  -73.825; -832.000; -588.000
303.603;  -99.775; -805.000; -604.000
303.740;   97.800;  417.000;  241.000
303.878;   30.975; -800.000; -759.000
304.016;  -85.950; -915.000; -790.000
304.154; -117.300;-1123.000;-1152.000
304.291;  -32.075; -505.000; -554.000
304.429;    2.675;  102.000;   74.000
304.567; -117.350; -908.000; -893.000
304.705;  -54.950; -408.000; -515.000
304.842;  126.625; -616.000; -540.000
304.980;   57.850;  215.000;   35.000
305.118;   48.575; -367.000; -365.000
305.255;  -75.150; -945.000; -927.000
305.393;   75.350;  178.000;  239.000
305.531;  -97.850;-1173.000; -956.000
305.668;  -69.575; -663.000; -582.000
305.806;  126.300; -358.000; -439.000
305.943;  122.350; -629.000; -637.000
306.081;   67.000; -378.000; -267.000
306.219; -109.150; -863.000; -748.000
306.356;    0.975;  158.000;   27.000
306.494;  119.875;  981.000;  761.000
306.631;    1.975;  -11.000;  -55.000
306.769;    8.825; -613.000; -485.000
306.906;   -9.750; -284.000; -258.000
307.044;  -57.250; -473.000; -488.000
307.181;  -60.150; -410.000; -332.000
307.319;    9.725;  112.000;   87.000
307.456; -179.125;-1191.000;-1153.000
307.594;  -89.075; -980.000; -727.000
307.731;   -5.125; -371.000; -164.000
307.868;   -0.425;  -15.000;   20.000
308.006; -142.500; -961.000; -847.000
308.143;  -68.000; -618.000; -330.000
308.281;  196.975;  -37.000; -254.000
308.418;   12.725; -748.000; -640.000
308.555;  -74.475; -400.000; -250.000
308.693;  -76.200; -577.000; -573.000
308.830; -106.250; -712.000; -657.000
308.967;   -3.975; -215.000;  -95.000
309.105;  -52.775; -507.000; -396.000
309.242;   60.375; -468.000; -367.000
309.379;  398.725; -577.000; -655.000
309.517;  -50.750; -936.000; -948.000
309.654; -114.625; -910.000; -734.000
309.791;  -64.825; -662.000; -580.000
309.928; -111.825; -977.000; -914.000
310.065;  186.850;  819.000;  697.000
310.203;    3.375; -825.000; -850.000
310.340;    2.800; -465.000; -321.000
310.477;  -95.375; -412.000; -516.000
310.614;  -62.650; -383.000; -473.000
310.751;  -81.850; -427.000; -518.000
310.889;  -21.325;    1.000;   11.000
311.026; -151.775;-1161.000; -939.000
311.163;  -45.100; -386.000; -380.000
311.300;  -74.700; -512.000; -479.000
311.437;  -70.150; -658.000; -619.000
311.574; -144.325;-1226.000; -985.000
311.711;  -55.700; -595.000; -433.000
311.848;  -37.575; -380.000; -388.000
311.985;   16.625;  270.000;   93.000
312.122; -120.225; -932.000; -762.000
312.259; -111.000; -941.000; -994.000
312.396;  -90.400; -508.000; -551.000
312.533;  -77.500; -812.000; -790.000
312.670; -125.450;-1070.000; -898.000
312.807;  -31.125; -352.000; -367.000
312.944;  -81.875; -513.000; -611.000
313.081;  -14.600; -150.000; -415.000
313.218; -103.150;-1111.000; -867.000
313.355;   26.750; -531.000; -449.000
313.492;    7.475; -455.000; -292.000
313.629;  130.200;  815.000;  735.000
313.766; -153.400;-1176.000;-1008.000
313.902;  -10.175; -186.000;   21.000
314.039;  -59.575; -372.000; -289.000
314.176;   29.075;  286.000;  192.000
314.313;  -66.525; -569.000; -473.000
314.450;  -76.200; -788.000; -684.000
314.587;  -52.775; -468.000; -480.000
314.723;    7.825;  -78.000;  130.000
314.860;   12.875;  318.000;  332.000
314.997;   35.925;  223.000;  142.000
315.134;  -40.125; -385.000; -368.000
315.270;  -36.150; -480.000; -496.000
315.407; -114.675;-1094.000; -967.000
315.544;  -45.350; -657.000; -538.000
315.681;  -73.850; -681.000; -565.000
315.817;   35.500; -133.000; -176.000
315.954;   10.275; -613.000; -392.000
316.091; -105.875;-1045.000;-1023.000
316.227;  -29.175;  -71.000; -179.000
316.364;    0.900;   23.000;    6.000
316.500;  -51.875; -113.000; -300.000
316.637;  -44.925; -181.000; -302.000
316.774;  -86.200; -625.000; -358.000
316.910;  -84.825; -598.000; -629.000
317.047;  -82.425; -487.000; -351.000
317.183;  -31.000; -435.000; -566.000
317.320;  -34.750; -367.000; -321.000
317.456;  -63.600; -733.000; -805.000
317.593;  -97.800; -598.000; -641.000
317.729;    3.225;  168.000;  -67.000
317.866; -186.375;-1434.000;-1285.000
318.002;  -85.275; -708.000; -948.000
318.139;  -90.350; -883.000; -867.000
318.275;  -98.500;-1003.000; -738.000
318.412;  -51.000; -517.000; -336.000
318.548;  -24.400; -751.000; -720.000
318.685;  -93.150; -985.000; -888.000
318.821; -106.300; -762.000; -735.000
318.957;   -9.525;   34.000;  -23.000
319.094;   43.100;  297.000;  154.000
319.230;  -56.675; -756.000; -742.000
319.367;  159.800; -471.000; -520.000
319.503;   68.250; -538.000; -436.000
319.639;  -87.825; -877.000; -793.000
319.775;  -52.900; -750.000; -685.000
319.912;  -48.325; -424.000; -519.000
320.048;  -67.650;-1184.000;-1184.000
320.184;   78.925;   59.000;   70.000
320.321;  -67.425; -497.000; -467.000
320.457;   65.300;  475.000;  662.000
320.593;  -68.450; -375.000; -382.000
320.729;  -94.550; -732.000; -734.000
320.866;  -68.125; -577.000; -635.000
321.002;  -66.050; -759.000; -809.000
321.138;   -7.825; -135.000; -211.000
321.274;   75.500; -148.000; -115.000
321.410;  -21.325; -585.000; -353.000
321.546;  -14.775;-1011.000; -911.000
321.683;   61.700;  400.000;  185.000
321.819;   15.525;  -48.000; -117.000
321.955; -114.625; -743.000; -722.000
322.091;  -25.875; -585.000; -540.000
322.227;  -10.725; -382.000; -202.000
322.363;   -2.850; -320.000; -215.000
322.499;  -46.550; -343.000; -331.000
322.635;  181.225;  636.000;  443.000
322.771;   15.750; -139.000;   12.000
322.907;  100.300;  129.000;  327.000
323.043;  -21.875; -115.000; -206.000
323.179;  -31.500; -394.000; -363.000
323.315;   28.250; -401.000; -371.000
323.451;  107.425; -328.000; -236.000
323.587;   70.425;  -60.000;  -77.000
323.723;   36.800; -682.000; -601.000
323.859;  -28.525; -258.000;  -76.000
323.995;  -19.025; -467.000; -409.000
324.131; -113.175; -967.000; -892.000
324.267;  -31.250; -254.000; -276.000
324.402; -122.875; -960.000; -983.000
324.538;   -8.825; -279.000; -104.000
324.674;   16.550;  164.000;   77.000
324.810;  155.375;  226.000;  308.000
324.946;   32.150; -810.000; -658.000
325.082;  -69.100; -568.000; -475.000
325.217;  -12.300;  -62.000;   16.000
325.353;  -88.350; -764.000; -659.000
325.489;  -88.375; -540.000; -506.000
325.625;  -69.375; -579.000; -525.000
325.760;   43.850;  517.000;  376.000
325.896;  -21.525; -515.000; -702.000
326.032;  -46.800; -403.000; -352.000
326.168;  -44.225; -462.000; -369.000
326.303;  -56.150; -352.000; -461.000
326.439;  -25.025; -336.000; -276.000
326.575;   -7.375; -190.000;  -29.000
326.710;  -16.475; -156.000;  -30.000
326.846;  -27.300;  146.000;  103.000
326.982;  -93.375; -530.000; -548.000
327.117;  -68.875; -481.000; -442.000
327.253;  -87.550; -745.000; -742.000
327.388; -137.950;-1137.000;-1153.000
327.524;  -46.825; -811.000; -578.000
327.659;  -37.450;  -58.000;  -22.000
327.795;  -25.625;   69.000;   45.000
327.931;  -84.075; -723.000; -499.000
328.066;  -23.575; -417.000; -276.000
328.202;  -35.475;   12.000; -129.000
328.337;   90.175;  957.000;  713.000
328.473;   32.975;  -12.000;  -74.000
328.608;  -26.800; -256.000; -267.000
328.743;  -75.900; -799.000; -664.000
328.879;   26.075;  214.000;  114.000
329.014;  -43.325; -102.000; -122.000
329.150;  -81.200; -358.000; -483.000
329.285;  -81.775; -465.000; -466.000
329.421;  -28.700; -548.000; -246.000
329.556;  -41.400;  -36.000;   85.000
329.691; -101.150; -633.000; -615.000
329.827;  -93.275; -626.000; -480.000
329.962;  -43.775;  131.000; -301.000
330.097;  -96.850; -673.000; -585.000
330.233;  -36.575; -410.000; -223.000
330.368; -130.625; -839.000; -628.000
330.503;   -5.475;    3.000;   98.000
330.638;   -3.500;  -93.000; -125.000
330.774;  -53.000; -609.000; -530.000
330.909;  -40.550; -434.000; -244.000
331.044;  -87.850; -714.000; -708.000
331.179; -172.000;-1217.000;-1109.000
331.315;   -5.875;   77.000;   20.000
331.450;    9.350;  157.000;  285.000
331.585;  -76.100; -805.000; -706.000
331.720;  -88.725; -510.000; -460.000
331.855;   -5.675;  -35.000; -102.000
331.990;  226.425;   62.000;  138.000
332.126;  125.575; -110.000;   71.000
332.261;  -25.300; -379.000; -265.000
332.396;   -3.350; -135.000; -242.000
332.531; -102.200;-1074.000;-1031.000
332.666;   27.650; -519.000; -363.000
332.801; -115.675; -726.000; -807.000
332.936;  -18.300; -192.000; -122.000
333.071; -146.500; -870.000; -817.000
333.206;   15.675;  307.000;  379.000
333.341;   26.750;  344.000;  418.000
333.476;  -92.050; -627.000; -623.000
333.611;  -34.475; -251.000; -173.000
333.746;  -44.050; -381.000; -464.000
333.881; -123.125; -973.000; -935.000
334.016; -120.975; -936.000; -917.000
334.151; -124.050; -746.000; -702.000
334.286;   15.150;  152.000;  186.000
334.421;  -17.400; -125.000; -178.000
334.556;  -68.725; -611.000; -567.000
334.690;  -79.350; -631.000; -577.000
334.825;   62.800;  381.000;   83.000
334.960;  -49.525; -285.000; -413.000
335.095;   11.575;  135.000;  -91.000
335.230; -119.475; -722.000; -738.000
335.365; -124.550;-1084.000; -990.000
335.499; -124.025;-1108.000;-1037.000
335.634;   20.125;    9.000;  534.000
335.769;  -99.775; -755.000; -720.000
335.904;  -56.575; -603.000; -561.000
336.038;  -58.050; -735.000; -657.000
336.173; -105.825;-1206.000;-1194.000
336.308;   13.050; -116.000; -189.000
336.443;   -7.675; -544.000; -634.000
336.577;  -64.350; -936.000; -787.000
336.712;   79.425;   -4.000;  -12.000
336.847;  -21.975; -724.000; -607.000
336.981;   89.275; -272.000; -208.000
337.116;  306.800;  615.000;  501.000
337.250;  178.950; -434.000; -421.000
337.385;  233.525; -297.000; -208.000
337.520;   62.950; -632.000; -603.000
337.654;  -40.100; -215.000; -126.000
337.789; -128.975; -989.000; -933.000
337.923;  -29.300; -104.000; -205.000
338.058;  -86.300; -673.000; -738.000
338.192;  -29.825; -611.000; -488.000
338.327;    1.550;  -18.000; -155.000
338.461;  -61.150; -299.000; -469.000
338.596;  -86.575; -780.000; -638.000
338.730; -116.075; -767.000; -803.000
338.865;   78.525;  -46.000; -140.000
338.999;  -46.875; -846.000; -702.000
339.134;  -35.625; -634.000; -536.000
339.268;   16.525; -741.000; -603.000
339.403;  346.750; -740.000; -775.000
339.537;  107.275; -894.000; -820.000
339.671; -108.500; -829.000; -813.000
339.806;  -65.800; -556.000; -512.000
339.940;   -1.300; -261.000; -235.000
340.074;  -93.525; -685.000; -510.000
340.209;  -43.650; -351.000; -230.000
340.343;  -87.950; -517.000; -573.000
340.477;  161.325;  998.000; 1036.000
340.612;  -53.200;-1033.000; -900.000
340.746;  135.125; -199.000; -243.000
340.880;  -71.200; -924.000; -785.000
341.014;   -8.375;  -45.000; -154.000
341.149; -106.550; -756.000; -718.000
341.283; -105.775; -839.000; -754.000
341.417;  -96.950;-1124.000; -938.000
341.551;  182.825; -768.000; -708.000
341.685;  -23.725; -633.000; -611.000
341.820;  -41.500; -562.000; -493.000
341.954;  -41.200; -218.000; -349.000
342.088; -144.875;-1102.000;-1019.000
342.222;   44.600;  565.000;  618.000
342.356;  -56.050; -395.000; -335.000
342.490;  -99.000; -880.000; -841.000
342.624;  -38.600; -339.000; -242.000
342.758;    5.400; -364.000; -312.000
342.892;  -64.000; -710.000; -585.000
343.026;  -41.425;  -58.000; -116.000
343.160;  -53.275; -426.000; -376.000
343.294;  -67.950; -474.000; -337.000
343.428;   -2.425; -488.000; -448.000
343.562;  -25.950; -172.000;  -23.000
343.696;  -28.250; -385.000; -314.000
343.830;  -27.975; -362.000; -356.000
343.964;   26.400; -231.000; -168.000
344.098; 1026.375;  199.000;   70.000
344.232;  876.300; -266.000; -127.000
344.366;   98.575; -567.000; -453.000
344.500;   96.750; -665.000; -744.000
344.634;   60.400; -324.000; -164.000
344.768;    0.425; -531.000; -341.000
344.902;   15.775;  278.000;  256.000
345.035;  -71.375; -556.000; -496.000
345.169; -130.550; -933.000; -656.000
345.303;  -21.475; -308.000; -482.000
345.437;  -71.125; -826.000; -717.000
345.571;  -59.225; -675.000; -594.000
345.704;  -82.150; -309.000; -532.000
345.838;  -17.625; -331.000; -284.000
345.972;  -34.275; -543.000; -495.000
346.106;  148.150; -179.000; -190.000
346.239;  444.150; -312.000; -243.000
346.373;   14.325; -343.000; -302.000
346.507; -139.075; -950.000; -962.000
346.640;  162.375;  -30.000;   13.000
346.774;  -31.800; -650.000; -797.000
346.908;   -5.725; -138.000;  -11.000
347.041;  -95.125; -646.000; -593.000
347.175;    8.450;  259.000;   27.000
347.309;  -63.975; -698.000; -628.000
347.442;  -90.900; -883.000; -732.000
347.576;  299.900;  670.000;  668.000
347.709;  232.825; -123.000;  -52.000
347.843;  -88.175; -933.000; -825.000
347.976;   38.900;  235.000;  294.000
348.110; -177.225;-1268.000;-1186.000
348.243;  -98.925; -679.000; -772.000
348.377;    6.100;  -26.000;   60.000
348.510;   57.150;  403.000;  540.000
348.644;  -31.275;  -37.000; -159.000
348.777;   -8.925;  180.000;  191.000
348.911;  -59.350; -142.000; -112.000
349.044;  191.175;  471.000;  448.000
349.178;  188.525;-1069.000;-1006.000
349.311;  109.125;  141.000;  255.000
349.444;   -4.475; -927.000; -813.000
349.578;   -6.700; -347.000; -200.000
349.711;  -95.475; -959.000; -862.000
349.845;   19.825; -661.000; -591.000
349.978; -144.550;-1224.000;-1137.000
350.111;  -78.075; -546.000; -612.000
350.244;  -62.300; -596.000; -700.000
350.378;   19.600; -392.000; -393.000
350.511;  -65.250; -393.000; -426.000
350.644;  -92.325; -808.000; -806.000
350.778;   -5.575;  168.000;  104.000
350.911;    7.725;  134.000;  140.000
351.044;  -96.400; -685.000; -615.000
351.177;  -24.075; -321.000; -281.000
351.310;  -25.450;    3.000; -131.000
351.444;  -64.350; -888.000; -788.000
351.577;  132.700;  140.000;   90.000
351.710;   90.650;  593.000;  417.000
351.843;  -34.000; -165.000;  -77.000
351.976;   -0.525;  149.000;  -79.000
352.109;  -85.400; -621.000; -612.000
352.242;  -25.950; -464.000; -419.000
352.376;  -45.800; -580.000; -636.000
352.509;  186.850; -437.000; -356.000
352.642;   43.700; -654.000; -604.000
352.775;   81.225; -141.000;  -98.000
352.908; -116.650; -933.000; -904.000
353.041; -104.475; -814.000; -824.000
353.174;  -63.025; -551.000; -424.000
353.307;  -74.975; -753.000; -764.000
353.440;   74.525;  541.000;  453.000
353.573; -104.900; -957.000;-1008.000
353.706;  -43.825; -384.000; -558.000
353.839;  -19.000; -264.000; -220.000
353.971;  -88.675; -657.000; -512.000
354.104;  -72.675; -896.000; -835.000
354.237;  -27.175; -627.000; -662.000
354.370;  -77.075; -846.000; -879.000
354.503; -178.175;-1231.000;-1308.000
354.636;  -37.575; -529.000; -348.000
354.769; -130.750; -937.000; -860.000
354.902;   -9.100; -230.000; -139.000
355.034;  -30.900; -164.000; -220.000
355.167;   -7.125; -262.000; -162.000
355.300;  -88.625;-1061.000; -880.000
355.433;  957.325;  -71.000;  -14.000
355.565; 1472.550; -402.000; -384.000
355.698;  378.450; -356.000; -296.000
355.831;   -8.550; -882.000; -801.000
355.964;   86.850; -285.000; -170.000
356.096;  -77.800; -856.000; -843.000
356.229;   25.650; -523.000; -530.000
356.362;  298.950; -373.000; -266.000
356.494;  600.400; -229.000; -162.000
356.627;  532.750;  269.000;  377.000
356.760;  671.300;  120.000;   53.000
356.892;  948.475; -286.000; -601.000
357.025;  719.875;  403.000;  389.000
357.157;  697.575; -167.000; -179.000
357.290;  635.475; -856.000; -713.000
357.423;  199.150; -667.000; -556.000
357.555;  119.925; -217.000; -228.000
357.688;  135.725; -483.000; -364.000
357.820;  514.250; -870.000; -877.000
357.953; 4070.975; -563.000; -589.000
358.085;  941.200; -632.000; -612.000
358.218; 1352.425;-1131.000; -932.000
358.350;  242.250;  -58.000;  312.000
358.483;  -93.975;-1300.000;-1187.000
358.615;    8.450;-1182.000;-1078.000
358.747;  -48.475;-1187.000;-1058.000
358.880;   52.475; -810.000; -744.000
359.012;   -4.250; -376.000; -202.000
359.145;  -35.825; -480.000; -511.000
359.277;   90.850; -962.000; -913.000
359.409; 3345.725;  536.000;  231.000
359.542;  910.350; -738.000; -688.000
359.674;   88.775;   46.000;   13.000
359.806;  -74.275; -565.000; -438.000
359.939;  -26.950; -617.000; -516.000
360.071;  -13.125; -583.000; -579.000
360.203;  -31.175; -411.000; -364.000
360.335;   43.375;  164.000;  -16.000
360.468;  206.475; -249.000; -307.000
360.600; 2680.500; -547.000; -454.000
360.732; 2770.075; -546.000; -423.000
360.864;  411.450;-1216.000;-1044.000
360.996;  339.250; -516.000; -554.000
361.129;   51.525; -389.000; -598.000
361.261;   31.500;  110.000; -113.000
361.393;  -37.675; -252.000; -214.000
361.525;   21.250;   94.000;  244.000
361.657;  -35.625; -821.000; -703.000
361.789;   27.375; -139.000; -155.000
361.921;  274.650; -642.000; -593.000
362.053;  296.925;  524.000;  541.000
362.185;   53.975;  288.000;   72.000
362.318;  -69.900; -709.000; -705.000
362.450;  120.225;  294.000;  444.000
362.582;  161.700; -913.000; -870.000
362.714;  -31.200; -353.000; -332.000
362.846;  -90.925; -606.000; -490.000
362.978; -138.800; -941.000; -811.000
363.109;   58.575; -161.000; -260.000
363.241;  522.025; -739.000; -749.000
363.373;  448.675; -649.000; -564.000
363.505;  634.375; -186.000;  -91.000
363.637;  172.475; -787.000; -601.000
363.769; -103.125;-1067.000;-1080.000
363.901;  -61.275; -596.000; -654.000
364.033; -109.900;-1103.000;-1062.000
364.165;   -1.025; -283.000; -283.000
364.296;   68.775; -316.000; -177.000
364.428;   71.900;-1344.000;-1220.000
364.560;  -62.725; -679.000; -661.000
364.692;  -60.975; -738.000; -835.000
364.824;  324.700; -588.000; -456.000
364.955;  454.075; -402.000; -564.000
365.087;  880.000;-1097.000; -852.000
365.219;   46.575; -686.000; -816.000
365.351;  -54.650; -526.000; -572.000
365.482;   71.900;  300.000;  240.000
365.614;  -49.400; -402.000; -314.000
365.746;  -93.375; -729.000; -752.000
365.877;  -97.800; -706.000; -672.000
366.009;  261.200;  -35.000;  -62.000
366.141;  -96.100;-1249.000;-1134.000
366.272; -112.550; -803.000; -719.000
366.404; -104.700;-1005.000; -874.000
366.535;    1.575; -139.000;  -12.000
366.667;  -94.800; -644.000; -649.000
366.799;   47.075;  353.000;  203.000
366.930; -113.575; -862.000; -996.000
367.062;  133.575; -639.000; -613.000
367.193;  133.950; -872.000; -842.000
367.325;  -70.025; -580.000; -684.000
367.456;   46.200; -246.000;   31.000
367.588;  165.075; -371.000; -318.000
367.719;   30.650;  -44.000;  -45.000
367.851;  -16.125; -222.000; -241.000
367.982;  -24.325; -875.000; -732.000
368.113;  127.950; -475.000; -358.000
368.245; -118.875; -960.000; -841.000
368.376;   -7.975; -254.000; -302.000
368.508;  -31.575; -188.000; -263.000
368.639; -129.600;-1166.000;-1034.000
368.770;   -1.150; -670.000; -589.000
368.902;  -54.775; -836.000; -926.000
369.033; -103.975; -906.000; -855.000
369.164;  -46.325; -720.000; -653.000
369.296; -104.200; -452.000; -601.000
369.427;    9.150; -209.000; -144.000
369.558;  -33.900; -593.000; -377.000
369.689;  -68.950; -721.000; -569.000
369.821; -128.600; -951.000; -845.000
369.952;  -15.700;   42.000; -108.000
370.083;  -52.125; -229.000; -108.000
370.214;  -64.425; -735.000; -650.000
370.345;   -2.575;   65.000;   81.000
370.477;  -92.950; -810.000; -790.000
370.608;  251.075; -328.000; -264.000
370.739;  -30.000;-1233.000;-1292.000
370.870;  -31.250;-1102.000; -923.000
371.001;  114.175; -378.000; -467.000
371.132;  -69.000; -754.000; -735.000
371.263;  -16.225;  -42.000; -148.000
371.394; -135.875; -841.000; -748.000
371.525;   23.650;  345.000;  225.000
371.657;  -89.625; -808.000; -670.000
371.788;   87.975;  103.000;  199.000
371.919;  198.075; -384.000; -304.000
372.050; 4033.250;  -91.000; -156.000
372.181; 1265.975; -188.000; -294.000
372.311;  435.950;   42.000; -127.000
372.442;   60.875; -457.000; -451.000
372.573;  -10.725; -444.000; -340.000
372.704; -110.250;-1008.000; -980.000
372.835;   98.575; -228.000; -289.000
372.966;  -41.975; -646.000; -554.000
373.097;  -58.850; -575.000; -711.000
373.228;  -25.325; -717.000; -542.000
373.359;  169.000; -824.000; -536.000
373.490; 1097.300; -881.000; -727.000
373.620; 1403.200;-1001.000; -803.000
373.751; 2035.950; -332.000; -396.000
373.882;  959.575; -663.000; -733.000
374.013;   78.300; -449.000; -262.000
374.143;  -35.050; -581.000; -659.000
374.274;  -83.450; -987.000; -908.000
374.405;  209.925; -388.000; -276.000
374.536;  496.650; -526.000; -387.000
374.666; 1315.375; -759.000; -807.000
374.797;  279.075; -817.000; -868.000
374.928; 1003.750; -710.000; -560.000
375.058; 1056.950; -535.000; -500.000
375.189;   98.600;  -59.000;  -93.000
375.320; -110.325; -928.000;-1034.000
375.450;  -34.075; -625.000; -616.000
375.581;  -57.950; -526.000; -436.000
375.712;  -33.875; -574.000; -250.000
375.842;  358.750; -438.000; -415.000
375.973;  279.575; -554.000; -513.000
376.103;  -29.550; -665.000; -648.000
376.234;  -69.900; -531.000; -552.000
376.364;  -16.700; -944.000; -867.000
376.495;  367.050;  925.000;  529.000
376.625;   12.250; -472.000; -485.000
376.756;   91.250; -709.000; -678.000
376.886;  -58.100;-1178.000;-1026.000
377.017;   57.625;-1048.000;-1061.000
377.147;  330.375; -786.000; -782.000
377.278;   58.650;  174.000;  228.000
377.408; -135.150; -801.000; -815.000
377.538;  -93.550; -707.000; -693.000
377.669;  -92.200; -537.000; -613.000
377.799;  -80.625; -645.000; -635.000
377.929;  -56.575; -610.000; -428.000
378.060; -116.450; -781.000; -847.000
378.190;  -57.375; -726.000; -531.000
378.320;  -54.700; -401.000; -406.000
378.451;  -25.950; -131.000;  -22.000
378.581;  -16.975;  -67.000; -110.000
378.711;  146.175; 1035.000;  866.000
378.841;   -2.050; -533.000; -675.000
378.972;  -74.025; -871.000; -751.000
379.102;   15.725; -652.000; -579.000
379.232;   -7.175; -126.000;  -73.000
379.362; -103.175;-1001.000; -885.000
379.492;   18.050; -373.000; -424.000
379.623;  125.825;    0.000;  111.000
379.753;  -79.100;-1107.000; -974.000
379.883;  227.100;   59.000;  156.000
380.013;   26.275;-1081.000;-1017.000
380.143;  -99.475;-1097.000;-1056.000
380.273;  -91.825; -985.000; -861.000
380.403;    3.200; -344.000; -257.000
380.533;  -19.950; -651.000; -664.000
380.663;   80.150;  173.000;  128.000
380.793;  -83.625;-1027.000;-1074.000
380.923;  -14.475; -103.000;  -34.000
381.053;  -93.850; -613.000; -623.000
381.183;  -17.500; -106.000; -248.000
381.313;   56.500; -656.000; -470.000
381.443;   72.825; -692.000; -473.000
381.573;  225.825; -402.000; -409.000
381.703;  378.325;-1249.000;-1095.000
381.833; -105.400;-1454.000;-1336.000
381.963;  138.975; -134.000;  -87.000
382.093; 1599.775; -925.000; -909.000
382.223;  521.975; -713.000; -602.000
382.353;   14.925; -801.000; -608.000
382.482;  443.025;-1091.000; -964.000
382.612;  907.475; -872.000; -644.000
382.742;  521.075; -695.000; -622.000
382.872;  314.750; -565.000; -551.000
383.002;   86.750;  347.000; -132.000
383.131;  -23.475; -226.000; -160.000
383.261;  -21.000; -706.000; -768.000
383.391;  303.425; -552.000; -377.000
383.521; 3066.200;  451.000;  263.000
383.650;  765.525; -947.000; -904.000
383.780;   -6.100; -783.000; -656.000
383.910;  107.700;  880.000;  802.000
384.039;   55.600; -794.000; -656.000
384.169;  285.875;-1205.000;-1017.000
384.299;    8.900; -650.000; -662.000
384.428;  -96.125; -764.000; -680.000
384.558;  -39.850; -308.000; -275.000
384.687;  -29.075; -414.000; -334.000
384.817;   16.575;   75.000;   -2.000
384.947;   14.250; -234.000; -141.000
385.076;  316.250;  982.000;  912.000
385.206;  121.100;  369.000;  480.000
385.335;  -25.875; -549.000; -417.000
385.465;  -75.750; -655.000; -663.000
385.594;  160.325;  -53.000;  -44.000
385.724;  509.525; -868.000; -838.000
385.853;  128.400; -296.000; -270.000
385.982; 1524.350; -743.000; -787.000
386.112; 2517.625;-1052.000; -871.000
386.241;  196.025; -307.000; -312.000
386.371;   32.900; -174.000;  -87.000
386.500;   25.625; -825.000; -789.000
386.629;   39.500; -874.000; -817.000
386.759;   80.000;  -43.000;   68.000
386.888;   11.250; -170.000; -250.000
387.017;  -86.075; -648.000; -620.000
387.147;  -73.075; -771.000; -798.000
387.276;    8.375; -410.000; -397.000
387.405;   23.500; -398.000; -342.000
387.535;  -46.175; -452.000; -361.000
387.664;  -45.175; -692.000; -620.000
387.793;   70.350; -198.000; -113.000
387.922;  602.250;  255.000;  200.000
388.052;   47.975; -576.000; -423.000
388.181;   35.850; -342.000; -472.000
388.310;   23.000; -889.000; -710.000
388.439;  -10.650; -749.000; -742.000
388.568;  203.300;  365.000;  244.000
388.697; 1238.175; -756.000; -653.000
388.826;  269.925; -768.000; -666.000
388.956;   78.925; -285.000; -307.000
389.085;  -47.475; -347.000; -287.000
389.214; -102.725; -842.000; -872.000
389.343;  -72.950; -645.000; -413.000
389.472;  382.300;  126.000;  149.000
389.601;  528.550;   91.000;    0.000
389.730;   34.950; -568.000; -687.000
389.859;   72.775;  226.000;   46.000
389.988;  225.150; -423.000; -408.000
390.117;  163.125; -168.000; -146.000
390.246;   -1.650; -331.000; -320.000
390.375;  127.900; -673.000; -626.000
390.504;  -44.275; -703.000; -621.000
390.633;  -90.050; -672.000; -726.000
390.761;  -53.500; -732.000; -645.000
390.890;   30.350;   -4.000; -130.000
391.019;  -12.125; -421.000; -441.000
391.148; -123.850; -826.000; -855.000
391.277;  -57.150; -576.000; -493.000
391.406;  -72.700; -821.000; -805.000
391.534;   28.200;  574.000; -301.000
391.663;  -64.975; -583.000; -645.000
391.792;  -74.550; -673.000; -701.000
391.921;  102.900;   -3.000;   15.000
392.050;  222.075; -287.000; -228.000
392.178;  -31.225;-1206.000;-1061.000
392.307;  162.650; -758.000; -712.000
392.436;   97.725; -427.000; -641.000
392.564;   25.975;  166.000;   -6.000
392.693;  -97.875; -860.000; -682.000
392.822;  239.375; -529.000; -534.000
392.950;  131.975; -880.000; -714.000
393.079;  382.300; -188.000; -328.000
393.208;   53.350; -488.000; -511.000
393.336;   -8.575; -170.000; -145.000
393.465;  -54.850; -317.000; -199.000
393.593;    4.725;   62.000;   79.000
393.722; -152.725;-1121.000; -916.000
393.850;  -39.700; -188.000;  -61.000
393.979; -155.250; -926.000; -805.000
394.107;  -70.875; -517.000; -537.000
394.236;  -23.725; -570.000; -507.000
394.364;  253.175;  383.000;  206.000
394.493;  449.125; -911.000; -767.000
394.621;    3.675; -955.000; -916.000
394.750;  668.200; -873.000; -923.000
394.878; 2870.725; -247.000; -149.000
395.007; 4009.825; -721.000; -807.000
395.135;  331.025; -790.000; -721.000
395.263; -106.400;-1038.000;-1040.000
395.392;   -2.925;  -25.000; -107.000
395.520; -144.175; -818.000; -679.000
395.648;  -80.425; -865.000; -915.000
395.777;   -5.850; -366.000; -405.000
395.905;  -31.700; -449.000; -564.000
396.033;    8.425;  217.000;  172.000
396.162;  700.675; -399.000; -453.000
396.290;  635.250;  -17.000;   -2.000
396.418;  142.750; -555.000; -514.000
396.546;  -73.050; -571.000; -466.000
396.674;  -90.675; -850.000; -878.000
396.803;   14.675;  -72.000;  -23.000
396.931;   92.225; -179.000; -199.000
397.059;  106.525;-1026.000; -989.000
397.187;  -86.000;-1026.000; -975.000
397.315; -147.650; -884.000; -649.000
397.443;  -95.725; -592.000; -443.000
397.572; -101.425; -578.000; -424.000
397.700;    6.625; -607.000; -614.000
397.828;   18.050;  120.000;  -90.000
397.956;  -34.050; -508.000; -478.000
398.084;  -77.075; -767.000; -626.000
398.212;   38.425;  137.000;  124.000
398.340;    4.600;  -56.000;  159.000
398.468;   50.750; -390.000; -169.000
398.596; -127.375; -993.000; -953.000
398.724; -118.850; -762.000; -767.000
398.852; -157.600;-1024.000; -976.000
398.980;  -47.400; -560.000; -560.000
399.108;  -34.650; -982.000; -735.000
399.236;   40.700;   13.000;    8.000
399.363;    7.575;  222.000;  196.000
399.491;  -59.650; -404.000; -398.000
399.619; -124.175; -829.000; -800.000
399.747;  -87.500; -859.000; -771.000
399.875;   75.450;  220.000;  234.000
400.003;  -36.100; -359.000; -284.000
400.130;  -96.075; -421.000; -341.000
400.258;  -36.025;  -83.000;   38.000
400.386;  -66.775; -352.000; -168.000
400.514;  -43.150; -526.000; -587.000
400.641;  -86.075; -928.000; -802.000
400.769; -143.900; -979.000; -888.000
400.897; -116.550; -838.000; -793.000
401.025;   -9.900; -166.000; -152.000
401.152;  -15.950;  220.000;   38.000
401.280;  -79.850; -430.000; -429.000
401.408; -117.600; -712.000; -576.000
401.535;  -99.625; -735.000; -758.000
401.663; -200.000;-1134.000;-1054.000
401.790;  -74.900; -514.000; -525.000
401.918;   29.550;  436.000;  405.000
402.046;  -18.825;  134.000;  122.000
402.173;  -32.175;  -18.000;    7.000
402.301;  -71.975; -519.000; -397.000
402.428;   28.725;  528.000;  383.000
402.556; -140.250;-1188.000; -913.000
402.683;  -38.800;  -20.000;   -1.000
402.811;  -16.650;  -37.000; -206.000
402.938;  -19.075;   20.000;   27.000
403.066;  226.350; -574.000; -558.000
403.193;  371.075;  299.000;  239.000
403.321;  298.000; -396.000; -574.000
403.448;  373.550;   83.000;   27.000
403.575;  184.850;  -90.000;  -46.000
403.703; -103.500; -732.000; -557.000
403.830;  -75.700; -531.000; -496.000
403.957; -144.450;-1117.000;-1023.000
404.085;   -1.075;  -61.000; -172.000
404.212;   93.250;  -50.000;   63.000
404.339;  261.600; -566.000; -306.000
404.467; 5589.850; -612.000; -524.000
404.594; 4022.925; -287.000; -227.000
404.721; 1031.875; -869.000; -764.000
404.848;   91.500; -113.000; -202.000
404.976;  -94.025; -856.000; -783.000
405.103;  -15.350;  -14.000;  -82.000
405.230;   -3.150;  190.000;  226.000
405.357;   19.100;  117.000;   44.000
405.484;  255.425;  -49.000;    5.000
405.612;   60.000; -548.000; -563.000
405.739;  -74.125; -488.000; -243.000
405.866;   75.475;  669.000;  385.000
405.993;  -43.875; -398.000; -102.000
406.120; -140.300; -801.000; -887.000
406.247;  -65.700; -323.000; -342.000
406.374;  483.700;  540.000;  629.000
406.501;  153.850; -632.000; -702.000
406.628;  -72.975; -621.000; -589.000
406.755;  -95.100; -803.000; -620.000
406.882;  -31.200; -228.000; -277.000
407.009; -104.100; -719.000; -628.000
407.136;   58.825; -480.000; -401.000
407.263;  175.375; -939.000; -829.000
407.390;  -75.250; -692.000; -614.000
407.517; -153.925;-1139.000;-1187.000
407.644;  -47.875; -332.000; -256.000
407.771;  -76.800; -249.000; -287.000
407.898;   18.200;  168.000;  328.000
408.025;  -75.450; -421.000; -313.000
408.151;    0.700;   82.000;  153.000
408.278;  -84.825; -267.000; -216.000
408.405; -117.725; -931.000; -899.000
408.532;  -54.625; -549.000; -542.000
408.659; -106.475; -677.000; -648.000
408.785; -190.525;-1298.000;-1170.000
408.912;  -54.750; -412.000; -296.000
409.039; -114.875; -610.000; -686.000
409.166; -107.400; -591.000; -555.000
409.292; -107.900; -571.000; -534.000
409.419; -115.750; -665.000; -649.000
409.546;  -93.650; -431.000; -192.000
409.672; -100.175; -713.000; -545.000
409.799;  -33.275;  -36.000;   34.000
409.926;  -41.800; -180.000; -179.000
410.052; -175.225;-1127.000;-1091.000
410.179;  -49.325; -368.000; -392.000
410.305;  -97.150; -375.000; -493.000
410.432;  -32.475; -220.000; -333.000
410.558;  -95.200; -305.000; -380.000
410.685; -103.950; -688.000; -431.000
410.812;  -87.225; -409.000; -588.000
410.938; -120.075; -964.000; -808.000
411.065;  -87.675; -671.000; -645.000
411.191;  -18.450; -189.000; -174.000
411.317; -115.675; -823.000; -742.000
411.444;  -69.225; -317.000; -246.000
411.570;  -69.550; -339.000; -294.000
411.697; -128.400; -758.000; -752.000
411.823; -174.950; -989.000; -999.000
411.949;  -38.550;  -56.000;   17.000
412.076; -111.300; -539.000; -519.000
412.202; -113.700; -758.000; -757.000
412.329; -124.100; -798.000; -752.000
412.455; -121.500; -821.000; -657.000
412.581;  -22.275;  -15.000;  172.000
412.707;  -60.625; -540.000; -457.000
412.834;    9.450;  156.000;  219.000
412.960;  -75.975; -785.000; -784.000
413.086;  -89.500; -743.000; -701.000
413.212;  148.525;  604.000;  578.000
413.339;  -61.075; -685.000; -701.000
413.465;   10.375; -364.000; -310.000
413.591;  -80.150; -757.000; -474.000
413.717;  -43.950; -358.000; -366.000
413.843; -128.675; -839.000; -861.000
413.969;  -55.550;  -47.000; -292.000
414.096;  -96.950; -679.000; -679.000
414.222;   -0.425;  -33.000;   85.000
414.348;  -10.250; -652.000; -385.000
414.474;  121.400;   38.000;  -52.000
414.600;  -14.325; -126.000; -144.000
414.726;   -8.375;  -96.000;  -55.000
414.852;  -70.650; -365.000; -342.000
414.978;   34.675;  104.000;  -18.000
415.104;   38.750;   38.000;   80.000
415.230;   15.975; -329.000; -330.000
415.356;   47.375; -409.000; -514.000
415.482;  210.500;   13.000;  -35.000
415.608;  263.350; -247.000; -323.000
415.734;  959.825;   67.000;   38.000
415.860;19390.425; -875.000; -767.000
415.986;15284.700; -685.000; -607.000
416.111; 1361.350; -798.000; -652.000
416.237;  275.000; -424.000; -571.000
416.363; 1030.475; -765.000; -733.000
416.489; 4202.600; -324.000; -251.000
416.615;  486.250; -707.000; -742.000
416.741;  -23.725; -677.000; -784.000
416.866; -104.900; -673.000; -736.000
416.992; -117.275; -801.000; -818.000
417.118;  -21.250;  -41.000;  -80.000
417.244;  -67.325; -798.000; -531.000
417.369;  -65.750; -801.000; -612.000
417.495;   -5.400; -325.000; -254.000
417.621;  -83.750;-1015.000; -803.000
417.746;    4.225; -579.000; -572.000
417.872;   53.575; -254.000; -144.000
417.998;   37.500; -515.000; -530.000
418.123;  964.500;-1073.000; -845.000
418.249; 5381.075; -512.000; -601.000
418.374;  829.925; -916.000; -824.000
418.500;  112.425; -383.000; -482.000
418.626;  118.225;   70.000;  -59.000
418.751;  128.625; -549.000; -448.000
418.877;  202.475; -637.000; -643.000
419.002; 1667.200; -688.000; -560.000
419.128;12300.075; -930.000; -721.000
419.253; 3300.675; -967.000; -837.000
419.379;  434.300; -391.000; -338.000
419.504;  408.325;  325.000;  415.000
419.629;  497.200; -393.000; -212.000
419.755; 3268.200; -317.000; -254.000
419.880;20520.025;  -98.000;   67.000
420.006;11227.350; -280.000; -221.000
420.131;29612.925; -662.000; -775.000
420.256; 4648.375; -315.000; -316.000
420.382;  599.825; -665.000; -687.000
420.507;   88.200; -649.000; -778.000
420.632;  136.625; -337.000; -339.000
420.758;  293.175; -251.000; -425.000
420.883;  -82.175; -876.000; -672.000
421.008;  -85.075; -775.000; -619.000
421.133;  -81.675; -509.000; -467.000
421.259;  -35.500; -325.000; -259.000
421.384; -121.150; -834.000; -693.000
421.509;  -25.075;-1052.000; -862.000
421.634; 1323.500; -936.000; -820.000
421.759;  640.700; -359.000; -327.000
421.885;  -35.450; -717.000; -656.000
422.010;  -69.725; -673.000; -542.000
422.135; -154.700; -695.000; -727.000
422.260;   32.325;  340.000;  280.000
422.385;  -58.275;   12.000;  -98.000
422.510;   13.325;  151.000;  -26.000
422.635;   17.800;  -87.000;  -43.000
422.760;  116.675; -766.000; -791.000
422.885;   59.025;  -57.000;  -80.000
423.010;  -37.575; -112.000; -169.000
423.135; -102.825; -481.000; -561.000
423.260;   -7.900; -150.000; -245.000
423.385;   68.600;  476.000;  222.000
423.510;   29.975;   71.000;  -22.000
423.635;   77.025;  133.000;   45.000
423.760;   54.525;  383.000;  328.000
423.885;   48.450;  336.000;  391.000
424.010;   22.950;  -68.000;  -13.000
424.135;  -28.475;    5.000;  -33.000
424.259;  -83.725; -654.000; -457.000
424.384;  -66.300; -279.000; -272.000
424.509;  -20.725; -260.000; -186.000
424.634; -104.375; -761.000; -623.000
424.759;  -11.900; -688.000; -544.000
424.883;    5.700; -506.000; -527.000
425.008;  170.600; -502.000; -410.000
425.133; 1928.900; -679.000; -653.000
425.258; 1004.150; -517.000; -381.000
425.382; 1078.075; -867.000; -774.000
425.507; 2956.075; -487.000; -543.000
425.632;  497.950; -802.000; -663.000
425.756;  455.200; -256.000; -146.000
425.881; 5958.800; -831.000; -857.000
426.006;17238.450; -604.000; -355.000
426.130; 2958.675; -696.000; -508.000
426.255;  373.475; -611.000; -491.000
426.379;  150.775; -189.000; -577.000
426.504;  360.800;  660.000;  544.000
426.629; 3943.175; -519.000; -466.000
426.753; 2934.000;   64.000;  -46.000
426.878;  347.700; -252.000; -288.000
427.002;  160.100; -651.000; -668.000
427.127; 1487.000;  -35.000; -158.000
427.251;11139.525;  372.000;  401.000
427.375; 3493.200; -191.000; -173.000
427.500; 2538.625; -616.000; -610.000
427.624;  935.125; -234.000; -400.000
427.749;  127.950; -216.000; -225.000
427.873;  -33.200; -499.000; -412.000
427.997;  -40.925; -222.000; -230.000
428.122;   82.625;  795.000;  703.000
428.246;   91.450;  433.000;  434.000
428.371; -118.200; -869.000; -773.000
428.495;  -91.750; -624.000; -646.000
428.619;  -25.325; -186.000; -117.000
428.743;   13.875;   65.000;  132.000
428.868;   23.525; -732.000; -643.000
428.992; 1553.900; -219.000; -326.000
429.116;  679.325; -329.000; -357.000
429.240;  323.750;  419.000;  426.000
429.365;  -17.450; -454.000; -574.000
429.489;  -27.900; -638.000; -647.000
429.613;   20.550; -236.000; -177.000
429.737;   37.900; -563.000; -432.000
429.861;  257.800; -247.000; -133.000
429.985; 5342.200; -425.000; -305.000
430.109; 6330.000; -770.000; -908.000
430.234;  774.450;   76.000;  -50.000
430.358;   62.100; -250.000; -160.000
430.482;  -66.025; -672.000; -564.000
430.606;  -61.925; -655.000; -375.000
430.730;   11.775; -437.000; -388.000
430.854;  155.925; -909.000; -835.000
430.978;  -56.575; -795.000; -764.000
431.102;  -82.175; -499.000; -422.000
431.226; -119.150; -874.000; -815.000
431.350;   14.775;  345.000;  422.000
431.474;  -59.250; -661.000; -373.000
431.597; -155.575;-1060.000; -848.000
431.721;  -85.100; -276.000; -267.000
431.845; -128.050; -704.000; -472.000
431.969;  -83.250; -304.000; -349.000
432.093;  -95.600; -395.000; -317.000
432.217;  -22.850;   32.000;   82.000
432.341;  -93.650; -523.000; -518.000
432.464;   16.725;   96.000;   40.000
432.588;  247.250; -401.000; -329.000
432.712;  111.475;  -52.000;  -52.000
432.836;   41.950;  213.000;  263.000
432.959;  -23.275; -372.000; -311.000
433.083;   72.350;   11.000;    2.000
433.207;  371.000;  285.000;  930.000
433.330; 4760.325; -391.000; -200.000
433.454; 6321.800; -654.000; -638.000
433.578; 3600.650;  583.000;  278.000
433.701;  753.125; -623.000; -675.000
433.825;  183.300; -292.000; -299.000
433.949;  206.900;   28.000;  -72.000
434.072;   64.000; -410.000; -323.000
434.196;   -4.850; -309.000; -117.000
434.319; 3598.325;25482.000;25124.000
434.443;  706.900; -656.000; -603.000
434.566; 2661.650;  281.000;   62.000
434.690;  503.500; -637.000; -383.000
434.813;   58.900; -251.000; -173.000
434.937;  -73.475; -569.000; -696.000
435.060;  -50.850; -423.000; -332.000
435.184;  360.400; -492.000; -217.000
435.307;  213.900;  159.000;  102.000
435.431;   -8.600;  -40.000;   24.000
435.554;  -85.875; -399.000; -240.000
435.677;  -89.250; -350.000; -258.000
435.801;  -49.625;  -25.000;   49.000
435.924;   -7.375;    1.000;  -67.000
436.048; -101.800;-1019.000; -732.000
436.171;  -56.575; -240.000;  -66.000
436.294;  -34.500; -248.000; -229.000
436.417;   92.025; -963.000; -849.000
436.541;  -82.750; -814.000; -840.000
436.664;  -29.875; -242.000; -316.000
436.787;  -41.425;   13.000;  113.000
436.910; -113.275; -792.000; -422.000
437.034;    1.025;  142.000;  143.000
437.157;   55.825;  -11.000;    0.000
437.280;  -35.400; -392.000; -292.000
437.403;  -80.050; -982.000; -869.000
437.526;  690.850; -903.000; -865.000
437.649; 2648.500; -505.000; -332.000
437.772;  462.300; -692.000; -540.000
437.896;  126.775;  700.000;  544.000
438.019;  -94.375; -758.000; -503.000
438.142;  -87.975; -596.000; -506.000
438.265;   -2.325; -639.000; -670.000
438.388;  667.575; -520.000; -410.000
438.511;  128.475; -597.000; -394.000
438.634;  -27.375; -247.000; -125.000
438.757; -142.050; -693.000; -619.000
438.880;  -21.225;  -34.000;  -57.000
439.003;  -74.125; -417.000; -437.000
439.126;  -75.650; -287.000; -167.000
439.248;  -65.925;  -98.000; -139.000
439.371;  -53.500;    9.000;  -53.000
439.494;   20.050;  510.000;  439.000
439.617;  -54.050;   65.000;  -88.000
439.740; -188.350; -968.000; -816.000
439.863; -135.075; -755.000; -595.000
439.986; -123.925; -476.000; -431.000
440.108;  -47.050; -161.000; -112.000
440.231; -162.575; -950.000; -836.000
440.354;  -41.125;  -64.000; -150.000
440.477;   52.150; -566.000; -542.000
440.599;   27.400; -200.000; -225.000
440.722; -119.525; -709.000; -586.000
440.845;   56.450;  751.000;  928.000
440.968; -114.250; -415.000; -311.000
441.090;  -73.775; -199.000;  -33.000
441.213; -179.450;-1021.000; -825.000
441.336;  -69.925; -159.000;   -5.000
441.458;  -78.075; -549.000; -396.000
441.581;  -72.175; -628.000; -629.000
441.703;  -80.750; -152.000;   13.000
441.826;  -99.575; -557.000; -400.000
441.948;  -64.900;   56.000;   51.000
442.071;   32.600;  555.000;  424.000
442.193; -126.600; -531.000; -485.000
442.316;   20.250;  152.000;   97.000
442.438;   43.550; -233.000;  -10.000
442.561;   86.450;  272.000;  262.000
442.683;  592.175; -809.000; -522.000
442.806; 1364.825;   -8.000;   74.000
442.928;   72.350; -859.000; -604.000
443.051;  -54.825; -577.000; -373.000
443.173;  -84.550; -341.000; -339.000
443.295;  -75.300; -263.000; -371.000
443.418;  -62.450; -321.000;  -29.000
443.540;   -7.375; -106.000;   -4.000
443.662; -116.450; -563.000; -465.000
443.785;  -20.825;  335.000;  199.000
443.907; -114.750; -362.000; -208.000
444.029; -129.550; -767.000; -494.000
444.152; -147.050; -644.000; -554.000
444.274;  -29.350;  -18.000;  -24.000
444.396; -122.125; -461.000; -221.000
444.518; -126.025; -691.000; -454.000
444.640; -111.025; -268.000; -111.000
444.763;  -25.325;  388.000;  249.000
444.885; -134.175; -432.000; -392.000
445.007;  -27.425;   35.000;   86.000
445.129; -113.350; -610.000; -515.000
445.251; -107.575; -372.000; -439.000
445.373; -134.925; -537.000; -386.000
445.495;    2.400;  242.000;  350.000
445.617;   56.850;  853.000;  753.000
445.739;  -61.675; -215.000;  -97.000
445.861;  -41.425; -245.000; -112.000
445.984;  -24.025; -267.000; -101.000
446.105;  218.525; -418.000; -251.000
446.227;  703.350; -176.000;  -19.000
446.349;   36.300; -358.000; -249.000
446.471;  -85.400; -615.000; -448.000
446.593;  -65.725; -316.000;   19.000
446.715;   -8.625;  -67.000;   41.000
446.837;   49.375;  697.000;  832.000
446.959; -109.125; -457.000; -478.000
447.081; -135.525; -628.000; -518.000
447.203;   49.200;  862.000;  834.000
447.325;  -80.725; -270.000;   42.000
447.446;   -1.775;  286.000;  530.000
447.568; -164.950; -921.000; -803.000
447.690;  -66.525; -236.000; -245.000
447.812; -145.825; -798.000; -519.000
447.933;  -39.875;  155.000;  127.000
448.055;  -67.150; -306.000; -261.000
448.177;  153.825;   31.000;   79.000
448.299;  127.925; -935.000; -727.000
448.420;   34.775;  -25.000;  159.000
448.542;  -46.525;   -3.000;   33.000
448.664;  -15.300;  109.000;  322.000
448.785;  -44.800;  265.000;   83.000
448.907;  -65.400; -614.000; -353.000
449.028;  -23.375; -771.000; -471.000
449.150;   69.600;  492.000;  589.000
449.272; -172.425;-1044.000; -913.000
449.393;   40.650;  612.000;  694.000
449.515; -147.225; -634.000; -581.000
449.636;  -55.875; -264.000; -155.000
449.758;   59.300;  763.000;  622.000
449.879;  -86.100; -498.000; -396.000
450.001;  -74.950; -149.000;  -49.000
450.122;  -45.275;  -95.000;  162.000
450.244;  -37.300;   37.000;  364.000
450.365;  -86.925; -495.000; -301.000
450.486;  -43.550;   80.000;  268.000
450.608;   21.200;  393.000;  326.000
450.729;   61.875;  578.000;  645.000
450.850;   12.075; -574.000; -466.000
450.972;  680.700; -552.000; -389.000
451.093; 4659.700;  190.000;  588.000
451.214; 2240.950; -516.000; -337.000
451.336;  411.050;  773.000;  579.000
451.457;   54.625;  264.000;  393.000
451.578;  -25.500; -118.000;  -74.000
451.699; -132.075; -546.000; -540.000
451.821;  -67.625; -284.000;  -50.000
451.942;  -13.925;  278.000;  285.000
452.063;   36.650;  228.000;  419.000
452.184;  507.975;  -54.000;  -49.000
452.305; 1113.525;  103.000;  170.000
452.427;  164.800; -549.000; -301.000
452.548;  -11.250;   23.000;   79.000
452.669;  -58.475; -257.000;  -89.000
452.790;  -28.250;    3.000;  -18.000
452.911;  -11.100;  195.000;  259.000
453.032;  -65.150; -289.000;  -60.000
453.153;  -42.325;  -29.000;   81.000
453.274;   60.625;  737.000;  868.000
453.395;  -57.250;  -51.000;  175.000
453.516;  114.800; 1317.000; 1388.000
453.637;  -57.350; -205.000; -150.000
453.758;  -53.300;   15.000;   69.000
453.879; -131.325; -462.000; -250.000
454.000;   79.425; 1086.000;  948.000
454.121; -117.075; -554.000; -326.000
454.242; -120.425; -599.000; -383.000
454.362;  -74.225;  -99.000;  114.000
454.483;  -54.675; -309.000; -229.000
454.604;   57.375;  512.000;  580.000
454.725; -126.850; -627.000; -555.000
454.846; -138.300; -474.000; -406.000
454.967;  -23.125;  230.000;  539.000
455.087;  -59.100;  179.000;  153.000
455.208;   12.600;  554.000;  856.000
455.329;  -59.100;  -22.000;   82.000
455.450;   27.025;  473.000;  633.000
455.570;  -85.400; -234.000; -211.000
455.691;  -46.650;  201.000;  407.000
455.812; -104.325; -270.000;  -92.000
455.932;  -63.000;  107.000;  -97.000
456.053;  -91.350;   36.000;   24.000
456.173; -117.250; -433.000; -355.000
456.294; -142.825; -476.000; -303.000
456.415;  -69.625;  -73.000;   70.000
456.535;  -38.575;  297.000;  273.000
456.656;  -49.400;  132.000;  240.000
456.776;  -70.325;    3.000;  298.000
456.897;  -15.875;  308.000;  513.000
457.017;  -93.800; -153.000;   -3.000
457.138; -113.575; -402.000; -249.000
457.258;  -33.250;  263.000;  224.000
457.379;  -10.850;  509.000;  521.000
457.499;  -29.825;  443.000;  432.000
457.620; -113.625; -407.000; -231.000
457.740; -102.350; -132.000;  -11.000
457.860;  -49.125;   87.000;   44.000
457.981;  -52.575;  132.000;  124.000
458.101;  -80.850;  -89.000;   40.000
458.221;  -35.150;  336.000;  402.000
458.342;  -48.675;   -4.000;  -37.000
458.462;   16.150;  617.000;  352.000
458.582;  -37.725; -302.000; -294.000
458.703;    2.450;  303.000;  154.000
458.823;  -24.500;   22.000;  163.000
458.943;   15.775;  341.000;  467.000
459.063;   -6.600; 1124.000;  192.000
459.183;  -18.375;  328.000;  313.000
459.304;    6.400;  315.000;  517.000
459.424;  -72.900; -246.000;  -89.000
459.544;  310.025;  388.000;  764.000
459.664;  815.350;  499.000;  506.000
459.784;  329.975; 1004.000; 1175.000
459.904;   57.375;  867.000;  744.000
460.024;   60.025;  867.000;  684.000
460.144;   10.300;  449.000;  554.000
460.264;  -20.850;  515.000;  327.000
460.385;  -78.350; -145.000; -119.000
460.505;   20.825;  905.000;  858.000
460.625;  -99.400;  -17.000;  -68.000
460.745;  -21.575;  396.000;  541.000
460.864;  -51.925;  153.000;  469.000
460.984;    8.875;  499.000;  573.000
461.104;  146.100; 1656.000; 1775.000
461.224;   20.650;  657.000;  650.000
461.344;  -14.775;  431.000;  360.000
461.464;  -32.725;  258.000;  513.000
461.584;  -22.900;  283.000;  466.000
461.704;  -45.175;   58.000;  108.000
461.824;  -55.525;  238.000;  259.000
461.943;  -49.750;  191.000;  130.000
462.063;  -78.000;    2.000;  324.000
462.183;   43.675;  639.000;  717.000
462.303;   92.100; 1678.000; 1230.000
462.422;   41.450;  781.000;  840.000
462.542;  -44.050;  271.000;  391.000
462.662;   37.950;  353.000;  380.000
462.782;  231.375;  833.000;  572.000
462.901;  480.300;  545.000;  717.000
463.021;  283.225; 1702.000; 1638.000
463.141;   -2.950;  337.000;  770.000
463.260;  -34.250;  614.000;  474.000
463.380;   13.600;  902.000;  884.000
463.499;  -48.700;  342.000;  332.000
463.619;  -36.350;  581.000;  559.000
463.738;  110.075; 1644.000;  903.000
463.858;   31.800;  657.000;  811.000
463.978;  -34.150;  542.000;  396.000
464.097;   56.600;  921.000; 1114.000
464.217;  109.250; 1196.000; 1143.000
464.336;  111.725; 1068.000; 1130.000
464.455;  -34.000;  328.000;  659.000
464.575;   52.675;  597.000;  602.000
464.694;  165.375; 1204.000; 1179.000
464.814;  142.825; 1190.000; 1138.000
464.933;   70.700; 1095.000; 1027.000
465.052;  105.225; 1412.000; 1054.000
465.172;   88.525;  922.000;  799.000
465.291;  144.925; 1376.000; 1320.000
465.410;   14.575;  462.000;  735.000
465.530;   77.225; 1355.000; 1310.000
465.649;   59.575; 1209.000; 1273.000
465.768;  130.400; 1673.000; 1508.000
465.888;   40.050;  941.000; 1174.000
466.007;   89.200; 1335.000; 1440.000
466.126;  -13.300;  721.000;  641.000
466.245;   47.525; 1176.000; 1187.000
466.364;   15.125;  950.000; 1060.000
466.484;   63.675; 1024.000; 1213.000
466.603;   34.100; 1101.000; 1222.000
466.722;  118.800; 1490.000; 1769.000
466.841;   76.900; 1151.000; 1401.000
466.960;   60.450; 1069.000;  972.000
467.079;  123.450; 1971.000; 1786.000
467.198;   45.450; 1238.000; 1181.000
467.317;   96.750; 1768.000; 1162.000
467.436;   62.500; 1709.000; 1261.000
467.555;  119.375; 1796.000; 1746.000
467.674;   57.475; 1227.000; 1329.000
467.793;   43.050; 1376.000; 1374.000
467.912;   78.800; 1658.000; 1539.000
468.031;  130.100; 2038.000; 1930.000
468.150;  137.975; 1842.000; 1837.000
468.269;  177.250; 2313.000; 2090.000
468.388;  202.750; 2168.000; 2339.000
468.507;  239.175; 2884.000; 2903.000
468.626;  262.700; 2555.000; 2541.000
468.744;  132.400; 2018.000; 2174.000
468.863;  209.300; 2312.000; 2523.000
468.982;   89.575; 1503.000; 1555.000
469.101;  205.850; 2788.000; 2692.000
469.220;  123.825; 2333.000; 2176.000
469.338;  249.700; 2935.000; 3051.000
469.457;  193.625; 2719.000; 2545.000
469.576;  353.225; 3953.000; 3784.000
469.695;  235.550; 2877.000; 3066.000
469.813;  427.075; 4148.000; 4192.000
469.932;  399.300; 4255.000; 4485.000
470.051;  402.375; 4075.000; 4161.000
470.169;  828.575; 4470.000; 4338.000
470.288; 1450.450; 4700.000; 4809.000
470.406;  899.150; 5059.000; 5194.000
470.525;  611.450; 6101.000; 5787.000
470.644;  653.525; 6847.000; 6794.000
470.762;  813.800; 8397.000; 7873.000
470.881;  883.250; 8651.000; 8464.000
470.999; 1037.625; 9685.000; 9151.000
471.118; 1101.800;11174.000;10711.000

