
Integration time [ms]: 200.000
Averaging Nr. [scans]: 10
Smoothing Nr. [pixels]: 0
Data measured with spectrometer [name]: 2101012U2
Wave   ;Sample   ;Dark     ;Reference
[nm]   ;[counts] ;[counts] ;[counts] 

197.733;  128.600;  516.000;  404.000
197.879; -176.800; -610.000; -634.000
198.025; -119.900; -475.000; -420.000
198.171; -182.500; -602.000; -612.000
198.317;  -82.200; -401.000; -316.000
198.463; -170.300; -655.000; -404.000
198.609;   32.800;  181.000; -137.000
198.755; -195.600; -644.000; -410.000
198.901; -120.500; -505.000; -424.000
199.047; -143.000; -615.000; -488.000
199.193;  -57.200; -230.000; -468.000
199.339;  -94.100; -222.000; -369.000
199.485;   88.300;  330.000;  271.000
199.631;   36.700;  227.000;  310.000
199.777; -137.800; -466.000; -398.000
199.923; -143.000; -610.000; -424.000
200.069;   10.100; -141.000;  -58.000
200.215;  112.900;  128.000;  453.000
200.361;  117.900;  243.000;  477.000
200.507; -156.600; -600.000; -373.000
200.653;  -39.200; -371.000; -194.000
200.798;  -79.800; -215.000; -125.000
200.944;  -23.700; -146.000;  -41.000
201.090;   88.000;   61.000;  222.000
201.236;  -20.000; -116.000; -158.000
201.382;  256.200;  874.000;  903.000
201.528;   29.800;  -58.000;  -48.000
201.674;  -92.100; -386.000; -293.000
201.819; -134.300; -540.000; -439.000
201.965; -182.700; -699.000; -447.000
202.111;  -43.400; -273.000; -226.000
202.257;  -71.900; -250.000; -238.000
202.402;    4.200;   13.000;  -36.000
202.548;  -67.300; -169.000; -116.000
202.694;  172.900;  410.000; -183.000
202.840; -158.600; -603.000; -531.000
202.985; -165.700; -681.000; -639.000
203.131; -232.400; -832.000; -666.000
203.277;  -39.200; -199.000; -262.000
203.423; -100.600; -434.000; -520.000
203.568;  -87.300; -462.000; -237.000
203.714; -124.000; -535.000; -542.000
203.860; -173.700; -682.000; -641.000
204.005;   31.000;  112.000;  167.000
204.151;  163.700;  561.000;  556.000
204.296; -106.300; -354.000; -221.000
204.442; -150.400; -600.000; -547.000
204.588; -176.400; -592.000; -579.000
204.733;   53.400;  178.000;  168.000
204.879; -283.200;-1018.000; -822.000
205.025;   12.900;  -99.000;  126.000
205.170;  -31.000;  -17.000;   94.000
205.316;  196.300;  438.000;  661.000
205.461; -170.100; -698.000; -554.000
205.607;  173.300;  609.000;  665.000
205.752; -185.600; -626.000; -551.000
205.898; -119.600; -501.000; -391.000
206.043; -172.900; -578.000; -506.000
206.189;  -78.800; -243.000; -285.000
206.334;  171.000;  554.000;  606.000
206.480;  167.800;  409.000;  239.000
206.625; -195.000; -529.000; -552.000
206.771;  -88.900; -451.000; -373.000
206.916;  -65.100; -210.000; -537.000
207.062; -174.100; -545.000; -591.000
207.207; -143.800; -546.000; -443.000
207.353;   91.100;  185.000;  460.000
207.498;   22.900;  196.000;   85.000
207.643; -100.600; -501.000; -370.000
207.789; -283.800;-1069.000; -910.000
207.934; -185.300; -665.000; -713.000
208.080;  -41.900; -154.000;   66.000
208.225;  -17.500;  -22.000;  -57.000
208.370; -170.300; -727.000; -619.000
208.516; -157.300; -741.000; -487.000
208.661;  -85.500; -127.000;  -69.000
208.806;  -51.300; -165.000; -171.000
208.952; -254.800;-1044.000; -731.000
209.097;  178.100;  378.000;  349.000
209.242;  -82.900; -307.000; -382.000
209.387;   96.200;  392.000;  350.000
209.533; -127.500; -321.000; -350.000
209.678;  194.500;  472.000;  543.000
209.823; -126.100; -408.000; -310.000
209.969; -222.100; -860.000; -757.000
210.114; -230.200; -907.000; -719.000
210.259; -251.700; -939.000; -889.000
210.404;  -42.000; -171.000;  103.000
210.549;   25.000;  108.000;    3.000
210.695;  -16.300;   -3.000;  -95.000
210.840;   47.400;   94.000;   67.000
210.985; -135.400; -484.000; -303.000
211.130;  171.200;  268.000;  406.000
211.275;   26.200;  207.000;  199.000
211.420; -115.500; -300.000; -289.000
211.566; -157.500; -536.000; -489.000
211.711;   38.200;  218.000;  157.000
211.856; -162.900; -545.000; -519.000
212.001;    4.600;  151.000;   44.000
212.146;   -4.200;  153.000;   49.000
212.291;  -57.800; -210.000; -186.000
212.436;  -68.100; -280.000;   -6.000
212.581; -193.200; -685.000; -653.000
212.726; -157.900; -487.000; -538.000
212.871; -120.800; -552.000; -217.000
213.016; -329.000;-1172.000;-1029.000
213.161;  129.800;  406.000;  291.000
213.306; -144.000; -435.000; -577.000
213.451; -198.000; -778.000; -689.000
213.596; -135.800; -455.000; -347.000
213.741; -131.000; -448.000; -538.000
213.886; -178.300; -498.000; -517.000
214.031;  -68.000; -294.000; -124.000
214.176; -108.300; -408.000; -341.000
214.321;   12.300; -296.000; -157.000
214.466;  -75.500; -163.000;  -43.000
214.611;    5.100;  -61.000;  -10.000
214.756; -284.200; -948.000; -858.000
214.901;  -46.000; -388.000; -226.000
215.046; -260.500; -797.000; -825.000
215.191;   34.100;  128.000;   35.000
215.336;  -26.100; -157.000;  -19.000
215.480; -130.100; -684.000; -505.000
215.625;  -56.200; -175.000;  -19.000
215.770; -177.400; -757.000; -662.000
215.915;   -2.000;   -5.000;  -97.000
216.060;    2.100; -113.000;  -21.000
216.205; -236.500; -731.000; -779.000
216.349; -143.900; -470.000; -533.000
216.494; -315.300; -939.000; -867.000
216.639; -222.000; -823.000; -888.000
216.784; -198.300; -577.000; -525.000
216.929;   93.800;  392.000;  281.000
217.073;   -7.800; -244.000;  -31.000
217.218;   19.800;   78.000;  -47.000
217.363; -174.600; -656.000; -618.000
217.507; -143.400; -623.000; -588.000
217.652; -261.200; -845.000; -874.000
217.797; -175.000; -708.000; -659.000
217.942; -241.200; -856.000; -720.000
218.086;  159.300;  608.000;  539.000
218.231;  -62.900; -174.000;  -26.000
218.376;  -52.700; -337.000; -229.000
218.520;    1.400;  -41.000;   96.000
218.665;  -47.000; -338.000; -204.000
218.810;  -85.000; -275.000; -233.000
218.954;   46.300;  201.000;   35.000
219.099; -237.600; -713.000; -963.000
219.243; -146.100; -589.000; -554.000
219.388;  -45.400; -264.000; -136.000
219.532;  -11.500; -116.000; -116.000
219.677; -160.700; -564.000; -521.000
219.822;    7.900;   33.000;   89.000
219.966;  -20.700;   17.000;  -99.000
220.111;  -53.700; -328.000;  -40.000
220.255; -204.900; -797.000; -750.000
220.400;  -16.100; -180.000; -146.000
220.544; -151.500; -516.000; -450.000
220.689; -113.400; -422.000; -451.000
220.833;  -42.700; -123.000;  -58.000
220.978; -119.800; -393.000; -563.000
221.122;   56.900;  319.000;  307.000
221.267; -266.300; -906.000; -837.000
221.411; -128.000; -478.000; -394.000
221.555;   -0.500; -104.000;  -23.000
221.700; -100.200; -329.000; -222.000
221.844;   92.100;  255.000;  272.000
221.989; -126.800; -328.000; -311.000
222.133;  -61.700; -289.000; -307.000
222.277;    7.100;    5.000;   78.000
222.422;   68.700;  227.000;  113.000
222.566;  -85.800; -381.000; -214.000
222.711; -112.300; -414.000; -479.000
222.855; -169.500; -643.000; -586.000
222.999; -165.500; -642.000; -717.000
223.144;  -66.300; -195.000; -194.000
223.288;  140.000;  423.000;  251.000
223.432;  -21.900;  184.000;  230.000
223.576;   34.800;  152.000;  -21.000
223.721;   89.700;  364.000;  273.000
223.865; -108.300; -472.000; -475.000
224.009;  546.700; 1673.000; 1631.000
224.153; -174.100; -660.000; -671.000
224.298; -160.200; -531.000; -489.000
224.442;  -41.800;  -74.000;  -33.000
224.586;  -42.500; -169.000; -106.000
224.730; -190.600; -858.000; -670.000
224.875; -242.000; -739.000; -688.000
225.019;    7.900;  102.000;  188.000
225.163;  126.000;  208.000;  341.000
225.307;   40.500;   97.000;  -91.000
225.451;   79.300;  360.000;  481.000
225.595;   88.900;  264.000;  176.000
225.739;  -51.600; -170.000;  -94.000
225.884;    6.600;   86.000;    5.000
226.028; -224.300; -760.000; -626.000
226.172;  -90.700; -260.000; -273.000
226.316; -264.900; -941.000; -902.000
226.460; -131.900; -645.000; -493.000
226.604;  -98.900; -406.000; -400.000
226.748; -199.500; -836.000; -733.000
226.892;  -49.600; -227.000; -181.000
227.036;  -75.600; -537.000; -447.000
227.180;  -78.800; -551.000; -375.000
227.324; -129.800; -561.000; -580.000
227.468; -238.200; -819.000; -717.000
227.612;   12.900;  242.000;  -28.000
227.756; -219.700; -845.000; -698.000
227.900;  119.000;  342.000;  441.000
228.044; -155.900; -509.000; -290.000
228.188;  156.600;  448.000;  568.000
228.332; -160.500; -546.000; -472.000
228.476;  -27.500; -223.000; -149.000
228.620;  -50.900; -210.000; -150.000
228.764;  141.900;  431.000;  349.000
228.908;  -37.800; -155.000;   30.000
229.052; -102.700; -615.000; -528.000
229.195;  -50.100; -172.000;   13.000
229.339;  -52.300; -235.000; -305.000
229.483;  -45.400;    5.000; -162.000
229.627;    4.400; -156.000;  139.000
229.771; -106.500; -218.000; -294.000
229.915;   35.200;  230.000;   79.000
230.059; -175.600; -648.000; -663.000
230.202;  -98.900; -370.000; -317.000
230.346;  -24.800; -107.000;  107.000
230.490; -148.000; -489.000; -521.000
230.634; -260.700; -736.000; -553.000
230.777;  156.900;  478.000;  509.000
230.921; -102.000; -450.000; -359.000
231.065;  -86.800; -246.000; -286.000
231.209;   51.500;  261.000;  265.000
231.352;   51.300;   54.000;   40.000
231.496;   31.800;  568.000;  188.000
231.640; -170.800; -693.000; -621.000
231.783;  137.000;  546.000;  525.000
231.927;  -90.600; -294.000; -365.000
232.071; -267.000; -962.000; -736.000
232.214; -224.400; -980.000; -764.000
232.358; -224.500; -683.000; -599.000
232.502;   -1.700;  -19.000;    7.000
232.645; -315.000;-1090.000; -927.000
232.789;  -38.300; -257.000; -218.000
232.933;  -95.100; -407.000; -224.000
233.076; -289.400;-1038.000; -897.000
233.220; -235.900; -752.000; -777.000
233.363; -145.800; -669.000; -477.000
233.507;  136.900;  371.000;  129.000
233.650; -196.000; -764.000; -834.000
233.794;   82.900;  438.000;  461.000
233.938; -129.500; -530.000; -362.000
234.081;  -36.900;  -93.000;   31.000
234.225; -162.500; -631.000; -539.000
234.368; -244.500; -773.000; -723.000
234.512;  -86.500; -385.000; -299.000
234.655; -204.500; -582.000; -555.000
234.798; -111.100; -493.000; -466.000
234.942; -269.400; -884.000;-1002.000
235.085; -141.800; -651.000; -443.000
235.229; -153.900; -405.000; -410.000
235.372;  -78.800; -247.000; -191.000
235.516; -146.600; -397.000; -321.000
235.659;   55.900;   92.000;  121.000
235.802;   -6.700;  -38.000;  -22.000
235.946;   70.400;  335.000;  215.000
236.089;   22.900;  126.000;  250.000
236.233;   97.600;  275.000;  298.000
236.376;  -91.300; -235.000; -378.000
236.519;  -77.500; -297.000; -319.000
236.663;  -34.600; -215.000; -117.000
236.806; -260.300;-1029.000; -999.000
236.949;  145.200;  543.000;  431.000
237.092;  142.800;  412.000;  391.000
237.236; -186.800; -589.000; -502.000
237.379;  126.600;  352.000;  428.000
237.522; -252.100; -879.000; -768.000
237.666;   -2.800; -271.000;   18.000
237.809; -253.900; -851.000; -823.000
237.952;  122.200;  469.000;  271.000
238.095; -159.200; -447.000; -442.000
238.238;  184.500;  688.000;  700.000
238.382;   12.900;  166.000;  103.000
238.525; -155.000; -598.000; -511.000
238.668; -312.300;-1060.000; -985.000
238.811; -150.000; -638.000; -643.000
238.954; -116.400; -483.000; -334.000
239.097;  230.200;  617.000;  664.000
239.241;   78.100;  394.000;  326.000
239.384;  -54.700; -254.000; -214.000
239.527; -135.200; -424.000; -224.000
239.670; -298.400; -994.000;-1091.000
239.813; -234.100; -696.000; -658.000
239.956;  196.200;  579.000;  473.000
240.099; -258.200; -778.000; -725.000
240.242;  144.400;  428.000;  432.000
240.385;  109.800;  466.000;  450.000
240.528; -131.200; -706.000; -473.000
240.671;   35.400;  189.000;  134.000
240.814;  -72.600; -441.000; -158.000
240.957; -206.000; -767.000; -578.000
241.100; -169.500; -779.000; -755.000
241.243; -290.500;-1234.000; -893.000
241.386; -141.600; -508.000; -379.000
241.529; -187.000; -735.000; -547.000
241.672; -111.400; -566.000; -495.000
241.815; -263.300; -832.000; -808.000
241.958;  -48.700; -125.000; -182.000
242.101; -153.700; -545.000; -390.000
242.244;  -63.100; -270.000; -325.000
242.387;  -57.400; -304.000; -246.000
242.530;  151.900;  470.000;  134.000
242.673;  -84.500; -381.000; -309.000
242.815; -251.100; -925.000; -899.000
242.958; -151.100; -482.000; -381.000
243.101;   47.400;  132.000;  187.000
243.244; -152.700; -564.000; -521.000
243.387;  -98.700; -313.000; -316.000
243.530; -212.100; -657.000; -674.000
243.672;   17.000;   43.000;  -92.000
243.815; -122.500; -355.000; -283.000
243.958;   23.400;   98.000;  -26.000
244.101;    8.300;   59.000;  -16.000
244.243;   -7.100;  -47.000;  101.000
244.386; -257.000; -761.000; -630.000
244.529;  -64.400; -132.000; -139.000
244.672; -323.200;-1154.000; -951.000
244.814; -220.300; -621.000; -794.000
244.957;  -75.200; -380.000; -304.000
245.100; -162.700; -489.000; -489.000
245.242; -116.400; -387.000; -374.000
245.385;   11.400;  -59.000;  -39.000
245.528; -279.200; -871.000; -705.000
245.670;  199.000;  612.000;  634.000
245.813; -194.300; -599.000; -547.000
245.956;  -83.100; -324.000; -275.000
246.098; -171.100; -508.000; -650.000
246.241;   13.500;  194.000;   48.000
246.383;  -49.100; -119.000;  -73.000
246.526; -125.800; -454.000; -525.000
246.669; -241.200; -889.000; -780.000
246.811;   47.500;  172.000;   -1.000
246.954; -138.300; -512.000; -426.000
247.096;  -55.100;  -84.000;   -6.000
247.239; -136.200; -482.000; -445.000
247.381; -149.000; -647.000; -488.000
247.524;  189.500;  645.000;  679.000
247.666;    0.100;   58.000;   11.000
247.809; -276.600; -887.000; -691.000
247.951;    9.300;  -75.000;  138.000
248.094;   65.100;  432.000;  308.000
248.236; -340.500;-1262.000;-1238.000
248.378;    4.400; -356.000;  -81.000
248.521;  -26.800; -334.000; -337.000
248.663;  -88.400; -236.000; -267.000
248.806;  -41.000; -300.000; -266.000
248.948; -194.200; -886.000; -763.000
249.090;  -96.100; -428.000; -398.000
249.233; -107.400; -344.000; -381.000
249.375; -154.400; -474.000; -451.000
249.518;  -68.300;  -83.000; -133.000
249.660;  -14.100; -103.000;    3.000
249.802; -359.800;-1303.000;-1189.000
249.945; -149.800; -612.000; -540.000
250.087; -241.800; -834.000; -768.000
250.229;  -79.700; -362.000; -480.000
250.371; -139.000; -494.000; -439.000
250.514;  -92.300; -310.000; -244.000
250.656;  -23.500;   69.000;  102.000
250.798; -242.700; -849.000; -800.000
250.940; -142.500; -322.000; -322.000
251.083;  -46.000; -335.000; -111.000
251.225;  118.300;  338.000;  310.000
251.367;  -71.300; -274.000; -373.000
251.509; -108.800; -265.000; -210.000
251.651; -180.700; -731.000; -671.000
251.794;  131.200;  538.000;  632.000
251.936; -224.000; -821.000; -747.000
252.078; -133.900; -540.000; -461.000
252.220; -163.300; -645.000; -477.000
252.362;  168.700;  344.000;  462.000
252.504; -144.400; -677.000; -584.000
252.646; -254.700; -875.000; -722.000
252.788;   10.900;   14.000; -128.000
252.931;  -72.100; -257.000; -253.000
253.073;  -77.900; -376.000; -317.000
253.215;    5.600;  141.000;  122.000
253.357;    0.300;   82.000; -153.000
253.499;  -99.100; -374.000; -234.000
253.641; -162.100; -749.000; -594.000
253.783; -196.500; -609.000; -527.000
253.925; -176.900; -586.000; -591.000
254.067; -221.500; -744.000; -667.000
254.209;  -71.900; -391.000; -259.000
254.351; -274.500; -865.000; -883.000
254.493; -106.800; -441.000; -417.000
254.635; -242.500; -936.000; -818.000
254.777; -172.400; -752.000; -687.000
254.918; -171.000; -512.000; -430.000
255.060; -117.200; -551.000; -395.000
255.202; -116.900; -473.000; -261.000
255.344; -137.300; -658.000; -455.000
255.486; -146.400; -471.000; -406.000
255.628; -219.700; -780.000; -781.000
255.770; -169.900; -676.000; -536.000
255.912; -136.200; -559.000; -468.000
256.053; -164.400; -730.000; -508.000
256.195;  340.600; 1008.000;  903.000
256.337; -219.000; -861.000; -595.000
256.479;  143.400;  532.000;  416.000
256.621; -100.900; -394.000; -212.000
256.762; -202.300; -789.000; -742.000
256.904;  121.100;  485.000;  487.000
257.046;  -81.800; -381.000; -271.000
257.188; -106.900; -351.000; -264.000
257.329; -143.000; -525.000; -464.000
257.471; -210.100; -939.000; -807.000
257.613; -117.100; -584.000; -498.000
257.755; -302.700;-1073.000; -982.000
257.896;   78.300;  286.000;  392.000
258.038; -111.700; -403.000; -352.000
258.180;  -63.500; -354.000; -279.000
258.321; -174.800; -581.000; -457.000
258.463;  -22.300;  -71.000;  133.000
258.605; -181.300; -562.000; -570.000
258.746; -207.800; -886.000; -772.000
258.888; -321.700;-1026.000;-1020.000
259.029;   64.600;  121.000;   -8.000
259.171; -192.000; -614.000; -550.000
259.313;  -17.300;  -49.000;  -47.000
259.454; -160.500; -536.000; -414.000
259.596; -112.800; -483.000; -390.000
259.737; -129.000; -590.000; -474.000
259.879;   71.100;  217.000;  311.000
260.020;  213.200;  901.000;  636.000
260.162;  -33.300; -146.000; -253.000
260.303; -237.100; -768.000; -687.000
260.445; -156.700; -609.000; -613.000
260.586;   57.400;  392.000;  157.000
260.728;  -59.400; -360.000; -248.000
260.869; -150.000; -350.000; -343.000
261.011;  189.200;  706.000;  537.000
261.152; -125.100; -479.000; -319.000
261.293; -150.600; -576.000; -595.000
261.435;  -70.000; -219.000; -184.000
261.576;  -95.800; -455.000; -325.000
261.718;  129.900;  420.000;  470.000
261.859; -260.000; -940.000; -949.000
262.000; -280.500; -951.000;-1016.000
262.142;  -55.300;  -52.000;  -60.000
262.283; -243.100; -808.000; -691.000
262.424; -166.000; -666.000; -625.000
262.566; -333.200;-1161.000; -983.000
262.707; -205.600; -840.000; -830.000
262.848; -242.200; -769.000; -726.000
262.990;  -78.600; -362.000; -345.000
263.131;  190.500;  650.000;  681.000
263.272;   28.100;  -61.000;  -41.000
263.413; -181.300; -589.000; -561.000
263.555; -120.100; -669.000; -143.000
263.696; -166.200; -550.000; -641.000
263.837; -104.500; -449.000; -551.000
263.978;   24.800;   -5.000;  -77.000
264.119;  -85.600; -283.000; -264.000
264.261; -233.000; -847.000; -630.000
264.402;   -1.600;   33.000;   40.000
264.543; -175.500; -509.000; -524.000
264.684;   11.900;   61.000;  -50.000
264.825; -153.800; -816.000; -538.000
264.966;    4.800;  -84.000;  -67.000
265.107; -256.800; -646.000; -670.000
265.248; -234.200; -825.000; -812.000
265.390;   -9.400;  152.000;   -9.000
265.531;  -25.900; -238.000; -107.000
265.672; -192.200; -557.000; -630.000
265.813;  143.700;  563.000;  439.000
265.954; -264.900; -959.000; -940.000
266.095;  -26.400; -372.000; -322.000
266.236; -205.800; -686.000; -548.000
266.377;  -78.900; -243.000; -297.000
266.518; -135.600; -619.000; -547.000
266.659;   89.000;  170.000;  268.000
266.800;   15.400;   83.000;   85.000
266.941; -142.000; -487.000; -478.000
267.082;   29.200;  354.000;   99.000
267.223; -107.000; -344.000; -273.000
267.364; -244.200; -892.000; -686.000
267.504;    8.200;    3.000;  135.000
267.645;    8.600;  160.000;   67.000
267.786;  -44.900; -147.000;  -86.000
267.927; -159.300; -473.000; -379.000
268.068;  -21.900; -186.000;  -61.000
268.209;  -81.200; -175.000; -413.000
268.350; -115.000; -388.000; -532.000
268.490; -158.900; -648.000; -521.000
268.631;   48.900;  127.000;  225.000
268.772; -221.300; -874.000; -647.000
268.913;  -92.900; -328.000; -476.000
269.054;  -39.900; -117.000;   12.000
269.194;  -71.200; -418.000; -402.000
269.335; -305.000;-1137.000;-1074.000
269.476;  -27.600;   33.000;  -35.000
269.617;  -65.900; -347.000; -392.000
269.757; -172.800; -713.000; -646.000
269.898; -237.400; -856.000; -613.000
270.039; -104.000; -415.000; -405.000
270.180; -283.900; -952.000; -816.000
270.320;  -53.200; -190.000; -250.000
270.461;  -65.300; -277.000; -249.000
270.602;   -3.600; -186.000; -156.000
270.742; -256.900; -868.000; -943.000
270.883;  -77.100; -442.000; -390.000
271.023;  -99.400; -358.000; -357.000
271.164; -133.700; -607.000; -528.000
271.305; -201.000; -666.000; -654.000
271.445; -166.100; -722.000; -683.000
271.586; -120.700; -462.000; -283.000
271.726;  -50.700; -397.000; -322.000
271.867; -129.800; -594.000; -534.000
272.008;  277.800; -473.000; -285.000
272.148;  241.500;  462.000;  468.000
272.289;   20.700; -113.000; -181.000
272.429;   87.000;   19.000;  185.000
272.570; -171.700; -633.000; -737.000
272.710; -221.800; -825.000; -775.000
272.851;  -63.000;  113.000; -130.000
272.991; -333.500;-1173.000;-1077.000
273.131; -124.100; -419.000; -459.000
273.272; -208.200; -683.000; -723.000
273.412;   36.400; -143.000;  -31.000
273.553; -120.400; -488.000; -507.000
273.693;  260.700;  913.000;  858.000
273.834; -206.000; -894.000; -692.000
273.974; -141.200; -664.000; -615.000
274.114; -191.700; -772.000; -560.000
274.255;  173.200;  414.000;  373.000
274.395;   11.600; -180.000; -125.000
274.535;   75.100;  199.000;  350.000
274.676;   52.100;  225.000;   94.000
274.816;   40.700;  110.000;   34.000
274.956; -189.000; -624.000; -690.000
275.097; -140.500;-1014.000; -922.000
275.237; -229.500; -913.000; -803.000
275.377; -180.900; -778.000; -689.000
275.517; -301.100; -878.000; -937.000
275.658; -112.600; -590.000; -555.000
275.798; -117.600; -606.000; -413.000
275.938;   62.000;  215.000;  323.000
276.078; -138.900; -626.000; -395.000
276.218;   35.900;   99.000;  104.000
276.359; -277.100;-1026.000;-1024.000
276.499; -140.300; -605.000; -446.000
276.639;  -71.000; -305.000; -151.000
276.779;  -88.700; -475.000; -357.000
276.919; -200.700; -783.000; -624.000
277.059;  -28.800; -261.000; -212.000
277.199;  -91.500; -357.000; -259.000
277.340;  111.600;  287.000;  175.000
277.480; -210.500; -840.000; -693.000
277.620;   97.200;  192.000;   16.000
277.760; -396.000;-1533.000;-1294.000
277.900;   58.100;  113.000;   33.000
278.040;   43.800;  137.000;  159.000
278.180;   87.000;  270.000;  170.000
278.320;  -32.500;   21.000;   56.000
278.460; -115.100; -443.000; -469.000
278.600; -202.300; -708.000; -598.000
278.740;  113.700;  448.000;  224.000
278.880; -190.200; -768.000; -791.000
279.020;   71.500; -194.000; -144.000
279.160; -166.600; -672.000; -595.000
279.300; -212.700; -926.000; -873.000
279.440; -209.200; -709.000; -622.000
279.579;  -78.400;-1014.000; -929.000
279.719; -119.200; -410.000; -394.000
279.859;  128.000;   -4.000;   41.000
279.999;   66.700; -208.000;  101.000
280.139;  -41.600; -435.000; -387.000
280.279; -157.700; -708.000; -745.000
280.419;  -30.100; -229.000; -147.000
280.559;  -33.400; -259.000; -180.000
280.698; -155.900; -790.000; -639.000
280.838; -197.500; -778.000; -800.000
280.978; -216.800; -846.000; -790.000
281.118; -234.500; -811.000; -704.000
281.257;   45.800;   24.000;    6.000
281.397; -255.700;-1094.000; -960.000
281.537; -166.500; -599.000; -712.000
281.677;  -58.400; -150.000; -101.000
281.816; -163.200; -700.000; -630.000
281.956;  -47.600; -193.000; -257.000
282.096; -115.800; -539.000; -396.000
282.235; -222.400; -672.000; -638.000
282.375;  -26.300; -243.000;  -98.000
282.515; -167.400; -715.000; -707.000
282.654;   58.800;   29.000;  106.000
282.794;   91.200;  388.000;  244.000
282.934; -107.400; -530.000; -491.000
283.073; -286.400;-1030.000; -857.000
283.213; -110.400; -460.000; -467.000
283.353;  -70.200; -408.000; -349.000
283.492;  -32.800; -264.000; -296.000
283.632;  -91.300; -254.000; -168.000
283.771; -191.400; -859.000; -730.000
283.911;  -87.700; -369.000; -260.000
284.050; -233.200; -794.000; -748.000
284.190; -320.700;-1229.000;-1096.000
284.329; -277.100;-1055.000; -964.000
284.469; -136.600; -516.000; -591.000
284.608; -135.600; -559.000; -598.000
284.748; -131.300; -614.000; -570.000
284.887;    9.900;  -87.000;  -20.000
285.027; -220.400; -844.000; -892.000
285.166;  -63.200; -192.000; -249.000
285.306;   16.100; -116.000;  -33.000
285.445;  -49.500; -229.000; -343.000
285.584; -181.500; -630.000; -494.000
285.724;  -84.400; -282.000; -322.000
285.863; -241.800; -857.000; -507.000
286.002; -111.000; -366.000; -276.000
286.142; -213.700; -715.000; -622.000
286.281; -142.800; -525.000; -493.000
286.420; -150.500; -554.000; -417.000
286.560;  227.200;  653.000;  623.000
286.699; -287.400; -958.000; -912.000
286.838; -154.000; -590.000; -591.000
286.978; -192.600; -533.000; -537.000
287.117; -241.300;-1085.000; -950.000
287.256;  -74.400; -228.000; -211.000
287.395;  -91.200; -197.000; -378.000
287.535; -115.700; -370.000; -298.000
287.674; -158.900; -509.000; -484.000
287.813;  127.100;  661.000;  533.000
287.952; -261.500;-1010.000; -871.000
288.091; -296.700;-1049.000; -915.000
288.231;   39.700;   13.000;   15.000
288.370; -357.700;-1217.000;-1200.000
288.509; -155.300; -728.000; -645.000
288.648; -168.000; -770.000; -548.000
288.787;  -25.300; -243.000;  -87.000
288.926; -132.800; -454.000; -475.000
289.065;  262.500;  859.000;  672.000
289.204; -101.200; -377.000; -217.000
289.344; -181.000; -791.000; -690.000
289.483;   45.800;  416.000;  304.000
289.622;  -18.900; -291.000; -149.000
289.761;   -1.300; -309.000; -166.000
289.900; -190.700; -785.000; -626.000
290.039;   -9.300;  -12.000;  -95.000
290.178;  -56.500; -274.000; -180.000
290.317; -155.300; -618.000; -479.000
290.456; -108.400; -463.000; -451.000
290.595; -259.300; -961.000; -833.000
290.734; -261.100; -904.000; -891.000
290.873; -140.000; -456.000; -420.000
291.011; -209.600; -833.000; -843.000
291.150; -207.700; -770.000; -682.000
291.289;  -36.200; -343.000; -110.000
291.428; -167.100; -599.000; -480.000
291.567;  -81.000; -370.000; -442.000
291.706;   -0.600;  109.000;  154.000
291.845; -157.600; -597.000; -505.000
291.984; -344.000;-1234.000;-1061.000
292.122;  169.300;  602.000;  582.000
292.261;  104.600;  620.000;  463.000
292.400;   35.000; -144.000;  211.000
292.539; -247.200; -959.000; -813.000
292.678;  -51.700; -325.000; -300.000
292.816; -336.200;-1136.000; -965.000
292.955; -165.100; -844.000; -684.000
293.094;  -29.900; -173.000; -337.000
293.233; -118.600; -556.000; -400.000
293.371;  -67.900; -225.000;  -84.000
293.510; -220.900; -866.000; -780.000
293.649; -257.100; -959.000; -924.000
293.787; -162.600;-1083.000;-1012.000
293.926;   11.500; -113.000;  -32.000
294.065; -112.700; -379.000; -290.000
294.203;   74.100;  298.000;  406.000
294.342;   71.600;   74.000;  156.000
294.481;13585.800;51180.000; -836.000
294.619;  -57.500; -425.000; -582.000
294.758; -278.900;-1230.000;-1137.000
294.896;  110.700; -125.000;    5.000
295.035; -273.700;-1040.000;-1006.000
295.174; -232.100;-1082.000; -954.000
295.312;  -68.500; -323.000; -203.000
295.451;  -17.600; -307.000; -428.000
295.589; -128.600; -389.000; -518.000
295.728;   55.700; -292.000; -165.000
295.866;    0.300;  -36.000;  -51.000
296.005; -127.700; -584.000; -341.000
296.143; -151.500; -558.000; -596.000
296.282; -204.000; -957.000; -881.000
296.420; -162.700; -657.000; -557.000
296.559; -181.000; -892.000; -633.000
296.697;  -16.200; -847.000; -665.000
296.835;   55.100;-1141.000;-1002.000
296.974;   76.700;  -23.000;   39.000
297.112;   13.400; -443.000; -504.000
297.251; -175.800; -815.000; -755.000
297.389;  135.500; -576.000; -438.000
297.527;   71.600; -145.000;  -83.000
297.666;  -89.800; -486.000; -438.000
297.804; -110.400; -404.000; -264.000
297.942;   44.900; -136.000; -161.000
298.081;   -3.500; -183.000;   63.000
298.219;  119.600;  -17.000;  -19.000
298.357;   70.700; -144.000;  -71.000
298.495;   33.300; -810.000; -812.000
298.634;  128.000;  245.000;  219.000
298.772;  116.800; -220.000; -338.000
298.910;  -71.400; -309.000; -182.000
299.048;   15.500; -130.000; -153.000
299.187;  -75.500; -350.000; -250.000
299.325;   53.900;   52.000;  122.000
299.463;   38.900; -389.000; -299.000
299.601;  139.300; -327.000; -271.000
299.739; -239.700; -908.000; -883.000
299.877; -150.000; -791.000; -703.000
300.016; -131.000;-1095.000; -935.000
300.154;  256.200;  -19.000; -161.000
300.292;   53.800; -428.000; -348.000
300.430;   23.200; -408.000; -291.000
300.568; -214.300; -940.000; -874.000
300.706; -128.000; -366.000; -469.000
300.844; -187.400;-1108.000; -979.000
300.982;  228.300;  246.000;  282.000
301.120; -217.400; -965.000; -866.000
301.258; -149.200; -812.000; -705.000
301.396;   88.100;  104.000;  -41.000
301.534;  114.000; -218.000; -293.000
301.672;  -53.900; -664.000; -521.000
301.810;   24.300; -613.000; -545.000
301.948;  271.400;   53.000;  149.000
302.086;  919.900; -250.000;  -32.000
302.224; 1506.800; -610.000; -585.000
302.362;   52.700; -558.000; -622.000
302.500;  -78.900; -923.000; -893.000
302.638;  207.800;  128.000;  245.000
302.776;    8.900; -352.000; -408.000
302.913;  142.100;  447.000;  236.000
303.051;   -0.600;  -86.000;  -23.000
303.189;   95.500;   90.000;  118.000
303.327;  -70.500; -341.000; -256.000
303.465; -172.600; -832.000; -588.000
303.603; -217.800; -805.000; -604.000
303.740;  190.800;  417.000;  241.000
303.878;  -63.700; -800.000; -759.000
304.016; -181.600; -915.000; -790.000
304.154; -287.900;-1123.000;-1152.000
304.291;  -81.800; -505.000; -554.000
304.429;   17.700;  102.000;   74.000
304.567; -245.200; -908.000; -893.000
304.705;  -96.200; -408.000; -515.000
304.842;  126.800; -616.000; -540.000
304.980;   88.300;  215.000;   35.000
305.118;   46.200; -367.000; -365.000
305.255; -179.000; -945.000; -927.000
305.393;  132.900;  178.000;  239.000
305.531; -204.500;-1173.000; -956.000
305.668; -133.800; -663.000; -582.000
305.806;  180.100; -358.000; -439.000
305.943;  179.400; -629.000; -637.000
306.081;   88.500; -378.000; -267.000
306.219; -204.600; -863.000; -748.000
306.356;   27.500;  158.000;   27.000
306.494;  237.200;  981.000;  761.000
306.631;    7.600;  -11.000;  -55.000
306.769;    7.100; -613.000; -485.000
306.906;  -45.600; -284.000; -258.000
307.044; -102.800; -473.000; -488.000
307.181; -101.000; -410.000; -332.000
307.319;   98.100;  112.000;   87.000
307.456; -330.200;-1191.000;-1153.000
307.594; -187.700; -980.000; -727.000
307.731;   -4.100; -371.000; -164.000
307.868;   -5.500;  -15.000;   20.000
308.006; -277.600; -961.000; -847.000
308.143; -100.800; -618.000; -330.000
308.281;  343.900;  -37.000; -254.000
308.418;   30.800; -748.000; -640.000
308.555; -130.800; -400.000; -250.000
308.693; -126.000; -577.000; -573.000
308.830; -217.500; -712.000; -657.000
308.967;   19.500; -215.000;  -95.000
309.105;  -75.600; -507.000; -396.000
309.242;   74.300; -468.000; -367.000
309.379;  663.600; -577.000; -655.000
309.517;  -91.500; -936.000; -948.000
309.654; -196.500; -910.000; -734.000
309.791; -157.200; -662.000; -580.000
309.928; -223.300; -977.000; -914.000
310.065;  387.400;  819.000;  697.000
310.203;  -47.800; -825.000; -850.000
310.340;   -7.700; -465.000; -321.000
310.477; -148.300; -412.000; -516.000
310.614; -122.700; -383.000; -473.000
310.751; -132.300; -427.000; -518.000
310.889;   -9.700;    1.000;   11.000
311.026; -312.200;-1161.000; -939.000
311.163;  -90.300; -386.000; -380.000
311.300; -149.500; -512.000; -479.000
311.437; -127.800; -658.000; -619.000
311.574; -305.300;-1226.000; -985.000
311.711;  -78.500; -595.000; -433.000
311.848;  -59.800; -380.000; -388.000
311.985;   91.300;  270.000;   93.000
312.122; -230.700; -932.000; -762.000
312.259; -235.800; -941.000; -994.000
312.396; -160.000; -508.000; -551.000
312.533; -141.500; -812.000; -790.000
312.670; -278.900;-1070.000; -898.000
312.807;  -31.600; -352.000; -367.000
312.944; -148.500; -513.000; -611.000
313.081;  -44.300; -150.000; -415.000
313.218; -211.700;-1111.000; -867.000
313.355;   26.200; -531.000; -449.000
313.492;  -17.000; -455.000; -292.000
313.629;  309.700;  815.000;  735.000
313.766; -296.700;-1176.000;-1008.000
313.902;   31.000; -186.000;   21.000
314.039; -127.000; -372.000; -289.000
314.176;  103.800;  286.000;  192.000
314.313; -130.900; -569.000; -473.000
314.450; -135.600; -788.000; -684.000
314.587;  -92.300; -468.000; -480.000
314.723;   41.600;  -78.000;  130.000
314.860;   80.100;  318.000;  332.000
314.997;   87.000;  223.000;  142.000
315.134;  -70.900; -385.000; -368.000
315.270;  -57.600; -480.000; -496.000
315.407; -283.800;-1094.000; -967.000
315.544; -107.800; -657.000; -538.000
315.681; -153.200; -681.000; -565.000
315.817;   74.200; -133.000; -176.000
315.954;   12.900; -613.000; -392.000
316.091; -240.000;-1045.000;-1023.000
316.227;  -39.600;  -71.000; -179.000
316.364;   36.300;   23.000;    6.000
316.500;  -75.600; -113.000; -300.000
316.637;  -66.800; -181.000; -302.000
316.774; -147.600; -625.000; -358.000
316.910; -165.600; -598.000; -629.000
317.047; -118.600; -487.000; -351.000
317.183;  -84.500; -435.000; -566.000
317.320;    4.800; -367.000; -321.000
317.456;  -83.000; -733.000; -805.000
317.593; -176.600; -598.000; -641.000
317.729;   39.500;  168.000;  -67.000
317.866; -393.400;-1434.000;-1285.000
318.002; -150.100; -708.000; -948.000
318.139; -175.600; -883.000; -867.000
318.275; -198.100;-1003.000; -738.000
318.412; -144.300; -517.000; -336.000
318.548;  -99.700; -751.000; -720.000
318.685; -226.300; -985.000; -888.000
318.821; -145.000; -762.000; -735.000
318.957;  -36.800;   34.000;  -23.000
319.094;  111.000;  297.000;  154.000
319.230; -172.500; -756.000; -742.000
319.367;  192.600; -471.000; -520.000
319.503;   65.300; -538.000; -436.000
319.639; -181.400; -877.000; -793.000
319.775; -118.400; -750.000; -685.000
319.912;  -87.600; -424.000; -519.000
320.048; -203.300;-1184.000;-1184.000
320.184;  172.900;   59.000;   70.000
320.321;  -95.500; -497.000; -467.000
320.457;  172.200;  475.000;  662.000
320.593; -105.600; -375.000; -382.000
320.729; -191.900; -732.000; -734.000
320.866; -127.100; -577.000; -635.000
321.002; -122.500; -759.000; -809.000
321.138;  -15.800; -135.000; -211.000
321.274;  177.900; -148.000; -115.000
321.410;  -31.500; -585.000; -353.000
321.546;  -89.300;-1011.000; -911.000
321.683;  113.100;  400.000;  185.000
321.819;   38.300;  -48.000; -117.000
321.955; -200.200; -743.000; -722.000
322.091;  -89.900; -585.000; -540.000
322.227;  -16.400; -382.000; -202.000
322.363;  -11.200; -320.000; -215.000
322.499;  -95.800; -343.000; -331.000
322.635;  316.300;  636.000;  443.000
322.771;   47.300; -139.000;   12.000
322.907;  223.900;  129.000;  327.000
323.043;  -26.800; -115.000; -206.000
323.179;  -63.700; -394.000; -363.000
323.315;   -5.200; -401.000; -371.000
323.451;  100.100; -328.000; -236.000
323.587;   98.800;  -60.000;  -77.000
323.723;   23.800; -682.000; -601.000
323.859;  -31.400; -258.000;  -76.000
323.995;  -55.900; -467.000; -409.000
324.131; -264.600; -967.000; -892.000
324.267;  -68.400; -254.000; -276.000
324.402; -253.900; -960.000; -983.000
324.538;  -17.300; -279.000; -104.000
324.674;   35.500;  164.000;   77.000
324.810;  260.000;  226.000;  308.000
324.946;  -13.000; -810.000; -658.000
325.082; -129.600; -568.000; -475.000
325.217;    1.000;  -62.000;   16.000
325.353; -174.600; -764.000; -659.000
325.489; -173.800; -540.000; -506.000
325.625; -133.900; -579.000; -525.000
325.760;  179.000;  517.000;  376.000
325.896;   -0.900; -515.000; -702.000
326.032;  -84.400; -403.000; -352.000
326.168;  -85.200; -462.000; -369.000
326.303; -112.400; -352.000; -461.000
326.439;  -19.100; -336.000; -276.000
326.575;   -0.400; -190.000;  -29.000
326.710;    7.200; -156.000;  -30.000
326.846;   17.800;  146.000;  103.000
326.982; -167.500; -530.000; -548.000
327.117; -136.100; -481.000; -442.000
327.253; -148.800; -745.000; -742.000
327.388; -269.300;-1137.000;-1153.000
327.524;  -78.900; -811.000; -578.000
327.659;  -18.000;  -58.000;  -22.000
327.795;   -3.700;   69.000;   45.000
327.931; -171.800; -723.000; -499.000
328.066;  -16.700; -417.000; -276.000
328.202;   -4.700;   12.000; -129.000
328.337;  222.800;  957.000;  713.000
328.473;    6.900;  -12.000;  -74.000
328.608;  -19.100; -256.000; -267.000
328.743; -198.500; -799.000; -664.000
328.879;   89.900;  214.000;  114.000
329.014; -154.200; -102.000; -122.000
329.150; -140.400; -358.000; -483.000
329.285; -126.400; -465.000; -466.000
329.421;  -56.100; -548.000; -246.000
329.556;  -15.300;  -36.000;   85.000
329.691; -175.800; -633.000; -615.000
329.827; -155.200; -626.000; -480.000
329.962;  -55.500;  131.000; -301.000
330.097; -178.000; -673.000; -585.000
330.233;  -52.600; -410.000; -223.000
330.368; -220.500; -839.000; -628.000
330.503;   -0.200;    3.000;   98.000
330.638;   28.700;  -93.000; -125.000
330.774;  -92.800; -609.000; -530.000
330.909;  -89.000; -434.000; -244.000
331.044; -166.500; -714.000; -708.000
331.179; -369.100;-1217.000;-1109.000
331.315;   48.000;   77.000;   20.000
331.450;   54.300;  157.000;  285.000
331.585; -143.400; -805.000; -706.000
331.720; -160.200; -510.000; -460.000
331.855;   15.800;  -35.000; -102.000
331.990;  536.600;   62.000;  138.000
332.126;  285.500; -110.000;   71.000
332.261;   -2.800; -379.000; -265.000
332.396;   23.300; -135.000; -242.000
332.531; -209.000;-1074.000;-1031.000
332.666;   89.800; -519.000; -363.000
332.801; -198.200; -726.000; -807.000
332.936;  -25.400; -192.000; -122.000
333.071; -295.100; -870.000; -817.000
333.206;   57.000;  307.000;  379.000
333.341;   84.700;  344.000;  418.000
333.476; -162.400; -627.000; -623.000
333.611;  -63.200; -251.000; -173.000
333.746;  -74.500; -381.000; -464.000
333.881; -250.500; -973.000; -935.000
334.016; -211.400; -936.000; -917.000
334.151; -269.000; -746.000; -702.000
334.286;  112.600;  152.000;  186.000
334.421;  -31.500; -125.000; -178.000
334.556; -147.300; -611.000; -567.000
334.690; -158.500; -631.000; -577.000
334.825;  131.100;  381.000;   83.000
334.960; -110.900; -285.000; -413.000
335.095;   27.500;  135.000;  -91.000
335.230; -222.100; -722.000; -738.000
335.365; -251.700;-1084.000; -990.000
335.499; -280.800;-1108.000;-1037.000
335.634;   55.000;    9.000;  534.000
335.769; -189.400; -755.000; -720.000
335.904; -139.400; -603.000; -561.000
336.038; -143.600; -735.000; -657.000
336.173; -240.200;-1206.000;-1194.000
336.308;  -10.600; -116.000; -189.000
336.443;   56.900; -544.000; -634.000
336.577; -154.100; -936.000; -787.000
336.712;  103.800;   -4.000;  -12.000
336.847;  -78.200; -724.000; -607.000
336.981;   97.800; -272.000; -208.000
337.116;  461.400;  615.000;  501.000
337.250;  208.900; -434.000; -421.000
337.385;  532.200; -297.000; -208.000
337.520;  194.700; -632.000; -603.000
337.654;  -65.400; -215.000; -126.000
337.789; -254.800; -989.000; -933.000
337.923;  -28.100; -104.000; -205.000
338.058; -130.400; -673.000; -738.000
338.192;  -84.700; -611.000; -488.000
338.327;   26.200;  -18.000; -155.000
338.461; -119.400; -299.000; -469.000
338.596; -172.300; -780.000; -638.000
338.730; -202.600; -767.000; -803.000
338.865;  172.400;  -46.000; -140.000
338.999;  -87.300; -846.000; -702.000
339.134;  -18.200; -634.000; -536.000
339.268;   19.300; -741.000; -603.000
339.403;  695.500; -740.000; -775.000
339.537;  229.600; -894.000; -820.000
339.671; -167.200; -829.000; -813.000
339.806;  -93.000; -556.000; -512.000
339.940;   25.700; -261.000; -235.000
340.074; -199.500; -685.000; -510.000
340.209;  -65.300; -351.000; -230.000
340.343; -150.700; -517.000; -573.000
340.477;  382.700;  998.000; 1036.000
340.612;  -95.000;-1033.000; -900.000
340.746;  273.800; -199.000; -243.000
340.880; -146.100; -924.000; -785.000
341.014;  -21.400;  -45.000; -154.000
341.149; -217.400; -756.000; -718.000
341.283; -223.500; -839.000; -754.000
341.417; -199.300;-1124.000; -938.000
341.551;  167.600; -768.000; -708.000
341.685;  -70.700; -633.000; -611.000
341.820;  -75.600; -562.000; -493.000
341.954;  -66.700; -218.000; -349.000
342.088; -308.200;-1102.000;-1019.000
342.222;   84.600;  565.000;  618.000
342.356; -121.000; -395.000; -335.000
342.490; -202.300; -880.000; -841.000
342.624;  -80.900; -339.000; -242.000
342.758;  -18.200; -364.000; -312.000
342.892; -108.500; -710.000; -585.000
343.026;  -56.200;  -58.000; -116.000
343.160; -103.300; -426.000; -376.000
343.294; -155.700; -474.000; -337.000
343.428;  -17.600; -488.000; -448.000
343.562;   12.000; -172.000;  -23.000
343.696;   -5.300; -385.000; -314.000
343.830;  -27.100; -362.000; -356.000
343.964;   58.000; -231.000; -168.000
344.098; 1314.300;  199.000;   70.000
344.232; 1189.200; -266.000; -127.000
344.366;  155.000; -567.000; -453.000
344.500;   69.200; -665.000; -744.000
344.634;   50.100; -324.000; -164.000
344.768;  -41.100; -531.000; -341.000
344.902;   62.600;  278.000;  256.000
345.035; -110.100; -556.000; -496.000
345.169; -281.500; -933.000; -656.000
345.303;  -56.900; -308.000; -482.000
345.437; -161.600; -826.000; -717.000
345.571; -131.900; -675.000; -594.000
345.704; -154.900; -309.000; -532.000
345.838;   -5.000; -331.000; -284.000
345.972;  -75.000; -543.000; -495.000
346.106;  342.300; -179.000; -190.000
346.239;  737.300; -312.000; -243.000
346.373;   18.600; -343.000; -302.000
346.507; -278.000; -950.000; -962.000
346.640;  277.600;  -30.000;   13.000
346.774; -114.000; -650.000; -797.000
346.908;   -2.200; -138.000;  -11.000
347.041; -161.100; -646.000; -593.000
347.175;   58.700;  259.000;   27.000
347.309; -121.500; -698.000; -628.000
347.442; -177.700; -883.000; -732.000
347.576;  497.400;  670.000;  668.000
347.709;  312.500; -123.000;  -52.000
347.843; -191.500; -933.000; -825.000
347.976;   97.000;  235.000;  294.000
348.110; -332.900;-1268.000;-1186.000
348.243; -168.500; -679.000; -772.000
348.377;   39.800;  -26.000;   60.000
348.510;  131.800;  403.000;  540.000
348.644;  -79.900;  -37.000; -159.000
348.777;    3.400;  180.000;  191.000
348.911;  -79.000; -142.000; -112.000
349.044;  312.800;  471.000;  448.000
349.178;  190.000;-1069.000;-1006.000
349.311;  255.600;  141.000;  255.000
349.444;  -11.000; -927.000; -813.000
349.578;   -6.500; -347.000; -200.000
349.711; -193.100; -959.000; -862.000
349.845;   -9.600; -661.000; -591.000
349.978; -312.600;-1224.000;-1137.000
350.111; -114.100; -546.000; -612.000
350.244; -179.800; -596.000; -700.000
350.378;   15.200; -392.000; -393.000
350.511; -122.800; -393.000; -426.000
350.644; -159.400; -808.000; -806.000
350.778;   44.100;  168.000;  104.000
350.911;   19.000;  134.000;  140.000
351.044; -168.100; -685.000; -615.000
351.177;  -17.400; -321.000; -281.000
351.310;    3.100;    3.000; -131.000
351.444; -155.900; -888.000; -788.000
351.577;  205.900;  140.000;   90.000
351.710;  268.400;  593.000;  417.000
351.843;  -49.500; -165.000;  -77.000
351.976;   14.900;  149.000;  -79.000
352.109; -163.700; -621.000; -612.000
352.242;  -55.600; -464.000; -419.000
352.376; -129.300; -580.000; -636.000
352.509;  263.500; -437.000; -356.000
352.642;  -34.600; -654.000; -604.000
352.775;  113.600; -141.000;  -98.000
352.908; -227.800; -933.000; -904.000
353.041; -177.600; -814.000; -824.000
353.174; -101.100; -551.000; -424.000
353.307; -184.000; -753.000; -764.000
353.440;  161.400;  541.000;  453.000
353.573; -194.000; -957.000;-1008.000
353.706; -131.600; -384.000; -558.000
353.839;  -12.200; -264.000; -220.000
353.971; -160.600; -657.000; -512.000
354.104; -173.500; -896.000; -835.000
354.237;  -82.800; -627.000; -662.000
354.370; -159.000; -846.000; -879.000
354.503; -352.800;-1231.000;-1308.000
354.636;  -48.500; -529.000; -348.000
354.769; -238.300; -937.000; -860.000
354.902;   -2.800; -230.000; -139.000
355.034;    2.200; -164.000; -220.000
355.167;   -9.900; -262.000; -162.000
355.300; -185.700;-1061.000; -880.000
355.433; 1881.800;  -71.000;  -14.000
355.565; 2856.300; -402.000; -384.000
355.698;  753.900; -356.000; -296.000
355.831;  -30.600; -882.000; -801.000
355.964;  127.200; -285.000; -170.000
356.096; -198.800; -856.000; -843.000
356.229;   -3.800; -523.000; -530.000
356.362;  633.300; -373.000; -266.000
356.494; 1134.900; -229.000; -162.000
356.627;  809.700;  269.000;  377.000
356.760; 1228.800;  120.000;   53.000
356.892; 1843.700; -286.000; -601.000
357.025; 1102.100;  403.000;  389.000
357.157;  985.100; -167.000; -179.000
357.290; 1344.200; -856.000; -713.000
357.423;  336.400; -667.000; -556.000
357.555;  188.700; -217.000; -228.000
357.688;  195.800; -483.000; -364.000
357.820;  640.200; -870.000; -877.000
357.953; 5780.600; -563.000; -589.000
358.085; 1187.800; -632.000; -612.000
358.218; 1602.600;-1131.000; -932.000
358.350;  377.000;  -58.000;  312.000
358.483; -261.900;-1300.000;-1187.000
358.615;  -77.600;-1182.000;-1078.000
358.747; -141.900;-1187.000;-1058.000
358.880;    3.500; -810.000; -744.000
359.012;  -16.400; -376.000; -202.000
359.145;  -56.400; -480.000; -511.000
359.277;   24.800; -962.000; -913.000
359.409; 4829.300;  536.000;  231.000
359.542; 1151.800; -738.000; -688.000
359.674;  119.100;   46.000;   13.000
359.806; -128.500; -565.000; -438.000
359.939;  -79.000; -617.000; -516.000
360.071;  -25.800; -583.000; -579.000
360.203;  -30.100; -411.000; -364.000
360.335;  140.600;  164.000;  -16.000
360.468;  333.000; -249.000; -307.000
360.600; 3911.100; -547.000; -454.000
360.732; 5359.800; -546.000; -423.000
360.864;  650.000;-1216.000;-1044.000
360.996;  451.200; -516.000; -554.000
361.129;   24.500; -389.000; -598.000
361.261;   80.800;  110.000; -113.000
361.393;  -49.400; -252.000; -214.000
361.525;   80.600;   94.000;  244.000
361.657;  -96.600; -821.000; -703.000
361.789;   44.800; -139.000; -155.000
361.921;  347.300; -642.000; -593.000
362.053;  445.100;  524.000;  541.000
362.185;  115.600;  288.000;   72.000
362.318; -153.500; -709.000; -705.000
362.450;  173.900;  294.000;  444.000
362.582;   63.500; -913.000; -870.000
362.714;  -59.100; -353.000; -332.000
362.846; -138.200; -606.000; -490.000
362.978; -267.600; -941.000; -811.000
363.109;   60.600; -161.000; -260.000
363.241;  665.900; -739.000; -749.000
363.373;  789.400; -649.000; -564.000
363.505; 1339.300; -186.000;  -91.000
363.637;  324.200; -787.000; -601.000
363.769; -265.700;-1067.000;-1080.000
363.901;  -93.300; -596.000; -654.000
364.033; -226.400;-1103.000;-1062.000
364.165;    6.800; -283.000; -283.000
364.296;  155.900; -316.000; -177.000
364.428;  146.100;-1344.000;-1220.000
364.560; -115.700; -679.000; -661.000
364.692; -114.600; -738.000; -835.000
364.824;  393.000; -588.000; -456.000
364.955;  808.700; -402.000; -564.000
365.087; 1849.700;-1097.000; -852.000
365.219;   65.200; -686.000; -816.000
365.351;  -97.700; -526.000; -572.000
365.482;  184.500;  300.000;  240.000
365.614;  -67.300; -402.000; -314.000
365.746; -154.100; -729.000; -752.000
365.877; -195.000; -706.000; -672.000
366.009;  530.500;  -35.000;  -62.000
366.141; -177.400;-1249.000;-1134.000
366.272; -203.400; -803.000; -719.000
366.404; -224.400;-1005.000; -874.000
366.535;   41.300; -139.000;  -12.000
366.667; -184.600; -644.000; -649.000
366.799;  129.000;  353.000;  203.000
366.930; -239.100; -862.000; -996.000
367.062;  253.500; -639.000; -613.000
367.193;  284.300; -872.000; -842.000
367.325;  -60.900; -580.000; -684.000
367.456;   55.400; -246.000;   31.000
367.588;  306.100; -371.000; -318.000
367.719;   64.600;  -44.000;  -45.000
367.851;  -15.000; -222.000; -241.000
367.982; -134.200; -875.000; -732.000
368.113;  140.800; -475.000; -358.000
368.245; -230.700; -960.000; -841.000
368.376;   29.000; -254.000; -302.000
368.508;  -26.400; -188.000; -263.000
368.639; -247.200;-1166.000;-1034.000
368.770;  -51.200; -670.000; -589.000
368.902; -125.800; -836.000; -926.000
369.033; -197.400; -906.000; -855.000
369.164;  -47.200; -720.000; -653.000
369.296; -192.400; -452.000; -601.000
369.427;   19.300; -209.000; -144.000
369.558;  -94.100; -593.000; -377.000
369.689; -146.800; -721.000; -569.000
369.821; -243.900; -951.000; -845.000
369.952;    2.100;   42.000; -108.000
370.083;  -79.200; -229.000; -108.000
370.214; -113.000; -735.000; -650.000
370.345;   16.400;   65.000;   81.000
370.477; -125.600; -810.000; -790.000
370.608;  345.400; -328.000; -264.000
370.739; -148.000;-1233.000;-1292.000
370.870;  -81.600;-1102.000; -923.000
371.001;  119.000; -378.000; -467.000
371.132; -131.800; -754.000; -735.000
371.263;    9.600;  -42.000; -148.000
371.394; -237.300; -841.000; -748.000
371.525;  148.700;  345.000;  225.000
371.657; -161.500; -808.000; -670.000
371.788;  188.200;  103.000;  199.000
371.919;  247.500; -384.000; -304.000
372.050; 5629.400;  -91.000; -156.000
372.181; 1573.500; -188.000; -294.000
372.311;  589.900;   42.000; -127.000
372.442;   64.800; -457.000; -451.000
372.573;    1.600; -444.000; -340.000
372.704; -257.900;-1008.000; -980.000
372.835;  141.400; -228.000; -289.000
372.966; -136.900; -646.000; -554.000
373.097; -119.900; -575.000; -711.000
373.228; -105.600; -717.000; -542.000
373.359;  166.000; -824.000; -536.000
373.490; 1361.900; -881.000; -727.000
373.620; 1724.200;-1001.000; -803.000
373.751; 2720.900; -332.000; -396.000
373.882; 1130.600; -663.000; -733.000
374.013;   48.900; -449.000; -262.000
374.143;  -81.400; -581.000; -659.000
374.274; -190.800; -987.000; -908.000
374.405;  289.300; -388.000; -276.000
374.536;  658.800; -526.000; -387.000
374.666; 1637.900; -759.000; -807.000
374.797;  279.500; -817.000; -868.000
374.928; 1260.900; -710.000; -560.000
375.058; 1263.400; -535.000; -500.000
375.189;  142.800;  -59.000;  -93.000
375.320; -208.700; -928.000;-1034.000
375.450;  -18.500; -625.000; -616.000
375.581;  -99.900; -526.000; -436.000
375.712;  -39.400; -574.000; -250.000
375.842;  441.000; -438.000; -415.000
375.973;  340.800; -554.000; -513.000
376.103; -101.700; -665.000; -648.000
376.234; -142.100; -531.000; -552.000
376.364; -110.900; -944.000; -867.000
376.495;  601.000;  925.000;  529.000
376.625;  -48.600; -472.000; -485.000
376.756;   89.900; -709.000; -678.000
376.886; -185.400;-1178.000;-1026.000
377.017;  122.500;-1048.000;-1061.000
377.147;  665.300; -786.000; -782.000
377.278;  159.400;  174.000;  228.000
377.408; -216.900; -801.000; -815.000
377.538; -176.100; -707.000; -693.000
377.669; -133.100; -537.000; -613.000
377.799; -157.500; -645.000; -635.000
377.929; -123.400; -610.000; -428.000
378.060; -223.300; -781.000; -847.000
378.190;  -84.700; -726.000; -531.000
378.320;  -76.700; -401.000; -406.000
378.451;   12.800; -131.000;  -22.000
378.581;   57.300;  -67.000; -110.000
378.711;  325.800; 1035.000;  866.000
378.841;  -40.700; -533.000; -675.000
378.972; -164.000; -871.000; -751.000
379.102;  -22.300; -652.000; -579.000
379.232;  -11.600; -126.000;  -73.000
379.362; -202.500;-1001.000; -885.000
379.492;    8.400; -373.000; -424.000
379.623;  192.200;    0.000;  111.000
379.753; -203.700;-1107.000; -974.000
379.883;  369.300;   59.000;  156.000
380.013;  -21.300;-1081.000;-1017.000
380.143; -197.400;-1097.000;-1056.000
380.273; -206.100; -985.000; -861.000
380.403;    1.000; -344.000; -257.000
380.533;  -66.600; -651.000; -664.000
380.663;  160.000;  173.000;  128.000
380.793; -201.200;-1027.000;-1074.000
380.923;   -7.200; -103.000;  -34.000
381.053; -140.700; -613.000; -623.000
381.183;  -20.900; -106.000; -248.000
381.313;   15.200; -656.000; -470.000
381.443;   47.400; -692.000; -473.000
381.573;  301.200; -402.000; -409.000
381.703;  321.900;-1249.000;-1095.000
381.833; -272.400;-1454.000;-1336.000
381.963;  237.700; -134.000;  -87.000
382.093; 2213.800; -925.000; -909.000
382.223;  625.700; -713.000; -602.000
382.353;  -38.000; -801.000; -608.000
382.482;  506.800;-1091.000; -964.000
382.612; 1166.500; -872.000; -644.000
382.742;  659.900; -695.000; -622.000
382.872;  369.400; -565.000; -551.000
383.002;  183.900;  347.000; -132.000
383.131;  -18.300; -226.000; -160.000
383.261;  -69.700; -706.000; -768.000
383.391;  530.500; -552.000; -377.000
383.521; 6263.300;  451.000;  263.000
383.650; 1396.300; -947.000; -904.000
383.780;  -12.000; -783.000; -656.000
383.910;  254.000;  880.000;  802.000
384.039;   15.700; -794.000; -656.000
384.169;  242.700;-1205.000;-1017.000
384.299;  -41.500; -650.000; -662.000
384.428; -157.600; -764.000; -680.000
384.558;  -43.900; -308.000; -275.000
384.687;  -51.100; -414.000; -334.000
384.817;   70.300;   75.000;   -2.000
384.947;   65.000; -234.000; -141.000
385.076;  536.700;  982.000;  912.000
385.206;  195.600;  369.000;  480.000
385.335;  -39.000; -549.000; -417.000
385.465; -141.500; -655.000; -663.000
385.594;  235.900;  -53.000;  -44.000
385.724;  559.500; -868.000; -838.000
385.853;  190.600; -296.000; -270.000
385.982; 2159.300; -743.000; -787.000
386.112; 3120.700;-1052.000; -871.000
386.241;  190.300; -307.000; -312.000
386.371;  101.600; -174.000;  -87.000
386.500;  -28.700; -825.000; -789.000
386.629;   51.900; -874.000; -817.000
386.759;  131.200;  -43.000;   68.000
386.888;   52.800; -170.000; -250.000
387.017; -156.200; -648.000; -620.000
387.147; -179.100; -771.000; -798.000
387.276;  -30.000; -410.000; -397.000
387.405;   48.600; -398.000; -342.000
387.535;  -81.300; -452.000; -361.000
387.664; -109.300; -692.000; -620.000
387.793;  108.800; -198.000; -113.000
387.922;  796.000;  255.000;  200.000
388.052;  -16.400; -576.000; -423.000
388.181;   38.400; -342.000; -472.000
388.310;  -64.900; -889.000; -710.000
388.439; -108.700; -749.000; -742.000
388.568;  337.400;  365.000;  244.000
388.697; 1580.900; -756.000; -653.000
388.826;  275.500; -768.000; -666.000
388.956;   72.200; -285.000; -307.000
389.085;  -79.000; -347.000; -287.000
389.214; -191.900; -842.000; -872.000
389.343; -115.300; -645.000; -413.000
389.472;  849.800;  126.000;  149.000
389.601;  990.700;   91.000;    0.000
389.730;   35.100; -568.000; -687.000
389.859;  149.600;  226.000;   46.000
389.988;  334.500; -423.000; -408.000
390.117;  220.100; -168.000; -146.000
390.246;   18.000; -331.000; -320.000
390.375;  120.700; -673.000; -626.000
390.504; -108.700; -703.000; -621.000
390.633; -173.100; -672.000; -726.000
390.761; -100.300; -732.000; -645.000
390.890;   21.800;   -4.000; -130.000
391.019;  -42.400; -421.000; -441.000
391.148; -229.000; -826.000; -855.000
391.277; -110.900; -576.000; -493.000
391.406; -161.100; -821.000; -805.000
391.534;   98.200;  574.000; -301.000
391.663; -113.500; -583.000; -645.000
391.792; -123.000; -673.000; -701.000
391.921;  161.800;   -3.000;   15.000
392.050;  300.000; -287.000; -228.000
392.178; -158.600;-1206.000;-1061.000
392.307;  224.600; -758.000; -712.000
392.436;   78.100; -427.000; -641.000
392.564;   73.600;  166.000;   -6.000
392.693; -198.900; -860.000; -682.000
392.822;  317.600; -529.000; -534.000
392.950;  112.100; -880.000; -714.000
393.079;  485.600; -188.000; -328.000
393.208;   10.900; -488.000; -511.000
393.336;   12.200; -170.000; -145.000
393.465;  -51.800; -317.000; -199.000
393.593;   54.600;   62.000;   79.000
393.722; -266.200;-1121.000; -916.000
393.850;  -31.700; -188.000;  -61.000
393.979; -290.400; -926.000; -805.000
394.107;  -57.700; -517.000; -537.000
394.236;  -34.400; -570.000; -507.000
394.364;  498.200;  383.000;  206.000
394.493;  717.500; -911.000; -767.000
394.621;    7.500; -955.000; -916.000
394.750; 1458.100; -873.000; -923.000
394.878; 6004.500; -247.000; -149.000
395.007; 7636.300; -721.000; -807.000
395.135;  547.200; -790.000; -721.000
395.263; -174.400;-1038.000;-1040.000
395.392;   38.800;  -25.000; -107.000
395.520; -257.400; -818.000; -679.000
395.648; -158.500; -865.000; -915.000
395.777;  -41.000; -366.000; -405.000
395.905;  -64.900; -449.000; -564.000
396.033;   43.600;  217.000;  172.000
396.162; 1246.900; -399.000; -453.000
396.290; 1058.300;  -17.000;   -2.000
396.418;  192.900; -555.000; -514.000
396.546; -154.100; -571.000; -466.000
396.674; -173.900; -850.000; -878.000
396.803;   52.100;  -72.000;  -23.000
396.931;  179.100; -179.000; -199.000
397.059;  -21.600;-1026.000; -989.000
397.187; -223.400;-1026.000; -975.000
397.315; -241.700; -884.000; -649.000
397.443; -159.300; -592.000; -443.000
397.572; -152.600; -578.000; -424.000
397.700;  -27.200; -607.000; -614.000
397.828;    4.500;  120.000;  -90.000
397.956;  -72.900; -508.000; -478.000
398.084;  -98.600; -767.000; -626.000
398.212;   79.900;  137.000;  124.000
398.340;   51.100;  -56.000;  159.000
398.468;   63.100; -390.000; -169.000
398.596; -255.500; -993.000; -953.000
398.724; -223.700; -762.000; -767.000
398.852; -303.600;-1024.000; -976.000
398.980;  -97.700; -560.000; -560.000
399.108; -114.300; -982.000; -735.000
399.236;   63.300;   13.000;    8.000
399.363;   46.700;  222.000;  196.000
399.491;  -82.400; -404.000; -398.000
399.619; -253.500; -829.000; -800.000
399.747; -173.400; -859.000; -771.000
399.875;  181.000;  220.000;  234.000
400.003;  -57.700; -359.000; -284.000
400.130; -156.500; -421.000; -341.000
400.258;   17.900;  -83.000;   38.000
400.386;  -78.300; -352.000; -168.000
400.514; -104.700; -526.000; -587.000
400.641; -170.100; -928.000; -802.000
400.769; -255.700; -979.000; -888.000
400.897; -180.900; -838.000; -793.000
401.025;   24.400; -166.000; -152.000
401.152;   49.300;  220.000;   38.000
401.280;  -80.300; -430.000; -429.000
401.408; -219.500; -712.000; -576.000
401.535; -176.800; -735.000; -758.000
401.663; -349.800;-1134.000;-1054.000
401.790; -103.000; -514.000; -525.000
401.918;  114.100;  436.000;  405.000
402.046;   11.900;  134.000;  122.000
402.173;  -42.100;  -18.000;    7.000
402.301;  -91.900; -519.000; -397.000
402.428;  102.700;  528.000;  383.000
402.556; -258.300;-1188.000; -913.000
402.683;  -23.300;  -20.000;   -1.000
402.811;  -11.000;  -37.000; -206.000
402.938;   11.600;   20.000;   27.000
403.066;  301.500; -574.000; -558.000
403.193;  495.500;  299.000;  239.000
403.321;  408.000; -396.000; -574.000
403.448;  519.500;   83.000;   27.000
403.575;  243.400;  -90.000;  -46.000
403.703; -176.500; -732.000; -557.000
403.830;  -71.900; -531.000; -496.000
403.957; -235.100;-1117.000;-1023.000
404.085;   48.800;  -61.000; -172.000
404.212;  245.000;  -50.000;   63.000
404.339;  580.700; -566.000; -306.000
404.467;11717.000; -612.000; -524.000
404.594; 6906.700; -287.000; -227.000
404.721; 1463.000; -869.000; -764.000
404.848;  197.500; -113.000; -202.000
404.976; -198.800; -856.000; -783.000
405.103;   19.600;  -14.000;  -82.000
405.230;   55.300;  190.000;  226.000
405.357;   94.800;  117.000;   44.000
405.484;  527.500;  -49.000;    5.000
405.612;   87.100; -548.000; -563.000
405.739;  -68.000; -488.000; -243.000
405.866;  225.200;  669.000;  385.000
405.993;  -57.400; -398.000; -102.000
406.120; -209.600; -801.000; -887.000
406.247;  -89.900; -323.000; -342.000
406.374;  788.100;  540.000;  629.000
406.501;   92.200; -632.000; -702.000
406.628; -109.400; -621.000; -589.000
406.755; -161.000; -803.000; -620.000
406.882;  -39.700; -228.000; -277.000
407.009; -161.800; -719.000; -628.000
407.136;   99.000; -480.000; -401.000
407.263;  150.300; -939.000; -829.000
407.390; -128.100; -692.000; -614.000
407.517; -334.400;-1139.000;-1187.000
407.644;  -59.300; -332.000; -256.000
407.771; -250.800; -249.000; -287.000
407.898;   89.400;  168.000;  328.000
408.025; -110.100; -421.000; -313.000
408.151;   40.600;   82.000;  153.000
408.278;  -82.400; -267.000; -216.000
408.405; -199.000; -931.000; -899.000
408.532; -112.700; -549.000; -542.000
408.659; -172.900; -677.000; -648.000
408.785; -356.200;-1298.000;-1170.000
408.912;  -81.400; -412.000; -296.000
409.039; -183.600; -610.000; -686.000
409.166; -153.700; -591.000; -555.000
409.292; -145.100; -571.000; -534.000
409.419; -197.900; -665.000; -649.000
409.546; -122.200; -431.000; -192.000
409.672; -206.300; -713.000; -545.000
409.799;  -12.900;  -36.000;   34.000
409.926;  -32.000; -180.000; -179.000
410.052; -333.700;-1127.000;-1091.000
410.179;  -89.700; -368.000; -392.000
410.305; -136.100; -375.000; -493.000
410.432;  -28.200; -220.000; -333.000
410.558; -150.200; -305.000; -380.000
410.685; -152.400; -688.000; -431.000
410.812; -164.300; -409.000; -588.000
410.938; -214.200; -964.000; -808.000
411.065; -144.700; -671.000; -645.000
411.191;   10.500; -189.000; -174.000
411.317; -221.000; -823.000; -742.000
411.444;  -83.100; -317.000; -246.000
411.570;  -70.900; -339.000; -294.000
411.697; -219.700; -758.000; -752.000
411.823; -296.000; -989.000; -999.000
411.949;  -36.900;  -56.000;   17.000
412.076; -197.400; -539.000; -519.000
412.202; -213.300; -758.000; -757.000
412.329; -233.200; -798.000; -752.000
412.455; -216.800; -821.000; -657.000
412.581;   -4.300;  -15.000;  172.000
412.707; -137.800; -540.000; -457.000
412.834;   43.100;  156.000;  219.000
412.960; -138.200; -785.000; -784.000
413.086; -145.000; -743.000; -701.000
413.212;  344.900;  604.000;  578.000
413.339; -152.400; -685.000; -701.000
413.465;   21.300; -364.000; -310.000
413.591; -143.000; -757.000; -474.000
413.717;  -60.000; -358.000; -366.000
413.843; -241.400; -839.000; -861.000
413.969;  -48.800;  -47.000; -292.000
414.096; -189.100; -679.000; -679.000
414.222;   54.600;  -33.000;   85.000
414.348;  -38.500; -652.000; -385.000
414.474;  180.100;   38.000;  -52.000
414.600;   22.200; -126.000; -144.000
414.726;   11.000;  -96.000;  -55.000
414.852;  -57.000; -365.000; -342.000
414.978;  123.700;  104.000;  -18.000
415.104;  161.200;   38.000;   80.000
415.230;   93.000; -329.000; -330.000
415.356;  118.100; -409.000; -514.000
415.482;  425.400;   13.000;  -35.000
415.608;  568.200; -247.000; -323.000
415.734; 1979.900;   67.000;   38.000
415.860;40723.500; -875.000; -767.000
415.986;26587.000; -685.000; -607.000
416.111; 2224.300; -798.000; -652.000
416.237;  531.700; -424.000; -571.000
416.363; 2457.400; -765.000; -733.000
416.489; 8240.000; -324.000; -251.000
416.615;  795.800; -707.000; -742.000
416.741;  -24.000; -677.000; -784.000
416.866; -128.200; -673.000; -736.000
416.992; -198.400; -801.000; -818.000
417.118;  -20.200;  -41.000;  -80.000
417.244; -101.200; -798.000; -531.000
417.369; -164.900; -801.000; -612.000
417.495;   39.100; -325.000; -254.000
417.621; -151.000;-1015.000; -803.000
417.746;   49.900; -579.000; -572.000
417.872;  118.900; -254.000; -144.000
417.998;  155.400; -515.000; -530.000
418.123; 2357.100;-1073.000; -845.000
418.249;10641.600; -512.000; -601.000
418.374; 1352.100; -916.000; -824.000
418.500;  244.600; -383.000; -482.000
418.626;  258.200;   70.000;  -59.000
418.751;  258.000; -549.000; -448.000
418.877;  392.700; -637.000; -643.000
419.002; 4057.600; -688.000; -560.000
419.128;24862.700; -930.000; -721.000
419.253; 5533.100; -967.000; -837.000
419.379;  750.600; -391.000; -338.000
419.504;  881.000;  325.000;  415.000
419.629; 1041.100; -393.000; -212.000
419.755; 7927.600; -317.000; -254.000
419.880;41710.900;  -98.000;   67.000
420.006;23099.200; -280.000; -221.000
420.131;55986.800; -662.000; -775.000
420.256; 7279.700; -315.000; -316.000
420.382; 1029.500; -665.000; -687.000
420.507;  141.400; -649.000; -778.000
420.632;  206.500; -337.000; -339.000
420.758;  339.800; -251.000; -425.000
420.883; -151.300; -876.000; -672.000
421.008; -191.100; -775.000; -619.000
421.133; -131.800; -509.000; -467.000
421.259;  -55.900; -325.000; -259.000
421.384; -226.900; -834.000; -693.000
421.509;  -94.700;-1052.000; -862.000
421.634; 1576.400; -936.000; -820.000
421.759;  646.200; -359.000; -327.000
421.885; -147.400; -717.000; -656.000
422.010; -116.800; -673.000; -542.000
422.135; -239.100; -695.000; -727.000
422.260;  125.100;  340.000;  280.000
422.385;  -43.300;   12.000;  -98.000
422.510;   88.600;  151.000;  -26.000
422.635;   42.200;  -87.000;  -43.000
422.760;  179.500; -766.000; -791.000
422.885;  110.100;  -57.000;  -80.000
423.010;   13.600; -112.000; -169.000
423.135; -155.800; -481.000; -561.000
423.260;   30.400; -150.000; -245.000
423.385;  149.500;  476.000;  222.000
423.510;  116.100;   71.000;  -22.000
423.635;  156.800;  133.000;   45.000
423.760;  167.200;  383.000;  328.000
423.885;  174.100;  336.000;  391.000
424.010;   73.400;  -68.000;  -13.000
424.135;   13.900;    5.000;  -33.000
424.259; -120.900; -654.000; -457.000
424.384;  -93.600; -279.000; -272.000
424.509;   -4.500; -260.000; -186.000
424.634; -151.400; -761.000; -623.000
424.759;  -31.000; -688.000; -544.000
424.883;   17.200; -506.000; -527.000
425.008;  378.300; -502.000; -410.000
425.133; 4090.600; -679.000; -653.000
425.258; 1683.500; -517.000; -381.000
425.382; 1667.600; -867.000; -774.000
425.507; 3905.800; -487.000; -543.000
425.632;  670.800; -802.000; -663.000
425.756;  951.800; -256.000; -146.000
425.881;14328.400; -831.000; -857.000
426.006;34776.700; -604.000; -355.000
426.130; 4817.200; -696.000; -508.000
426.255;  655.300; -611.000; -491.000
426.379;  360.500; -189.000; -577.000
426.504;  833.500;  660.000;  544.000
426.629; 8391.100; -519.000; -466.000
426.753; 5028.400;   64.000;  -46.000
426.878;  633.000; -252.000; -288.000
427.002;  331.800; -651.000; -668.000
427.127; 3400.700;  -35.000; -158.000
427.251;22981.200;  372.000;  401.000
427.375; 5743.000; -191.000; -173.000
427.500; 3716.800; -616.000; -610.000
427.624; 1105.400; -234.000; -400.000
427.749;  169.300; -216.000; -225.000
427.873;  -77.900; -499.000; -412.000
427.997;    9.700; -222.000; -230.000
428.122;  223.800;  795.000;  703.000
428.246;  207.000;  433.000;  434.000
428.371; -233.000; -869.000; -773.000
428.495; -161.400; -624.000; -646.000
428.619;   -5.500; -186.000; -117.000
428.743;   96.300;   65.000;  132.000
428.868;   18.300; -732.000; -643.000
428.992; 2143.300; -219.000; -326.000
429.116;  792.100; -329.000; -357.000
429.240;  440.500;  419.000;  426.000
429.365;    2.700; -454.000; -574.000
429.489;  -53.500; -638.000; -647.000
429.613;   70.400; -236.000; -177.000
429.737;  132.100; -563.000; -432.000
429.861;  617.400; -247.000; -133.000
429.985;11745.200; -425.000; -305.000
430.109;11548.100; -770.000; -908.000
430.234; 1294.500;   76.000;  -50.000
430.358;  160.700; -250.000; -160.000
430.482;  -95.100; -672.000; -564.000
430.606;  -70.000; -655.000; -375.000
430.730;   55.100; -437.000; -388.000
430.854;  150.000; -909.000; -835.000
430.978; -136.300; -795.000; -764.000
431.102; -132.000; -499.000; -422.000
431.226; -175.600; -874.000; -815.000
431.350;   91.400;  345.000;  422.000
431.474; -117.100; -661.000; -373.000
431.597; -291.400;-1060.000; -848.000
431.721;  -87.600; -276.000; -267.000
431.845; -219.700; -704.000; -472.000
431.969; -109.600; -304.000; -349.000
432.093; -141.900; -395.000; -317.000
432.217;   44.600;   32.000;   82.000
432.341; -150.200; -523.000; -518.000
432.464;   34.800;   96.000;   40.000
432.588;  326.400; -401.000; -329.000
432.712;  199.800;  -52.000;  -52.000
432.836;  147.500;  213.000;  263.000
432.959;   74.700; -372.000; -311.000
433.083;  235.200;   11.000;    2.000
433.207;  843.600;  285.000;  930.000
433.330;10580.400; -391.000; -200.000
433.454;12004.800; -654.000; -638.000
433.578; 6994.800;  583.000;  278.000
433.701; 1148.700; -623.000; -675.000
433.825;  227.600; -292.000; -299.000
433.949;  242.800;   28.000;  -72.000
434.072;   96.400; -410.000; -323.000
434.196;    5.900; -309.000; -117.000
434.319; 8011.900;25482.000;25124.000
434.443; 1478.600; -656.000; -603.000
434.566; 5257.300;  281.000;   62.000
434.690;  795.600; -637.000; -383.000
434.813;  112.400; -251.000; -173.000
434.937; -113.900; -569.000; -696.000
435.060;  -51.900; -423.000; -332.000
435.184;  412.100; -492.000; -217.000
435.307;  218.500;  159.000;  102.000
435.431;   13.600;  -40.000;   24.000
435.554; -108.600; -399.000; -240.000
435.677; -122.700; -350.000; -258.000
435.801;  -47.300;  -25.000;   49.000
435.924;   14.700;    1.000;  -67.000
436.048; -226.000;-1019.000; -732.000
436.171;  -90.200; -240.000;  -66.000
436.294;    2.100; -248.000; -229.000
436.417;  267.900; -963.000; -849.000
436.541; -126.300; -814.000; -840.000
436.664;  -63.000; -242.000; -316.000
436.787;   18.000;   13.000;  113.000
436.910; -171.500; -792.000; -422.000
437.034;   75.600;  142.000;  143.000
437.157;  118.000;  -11.000;    0.000
437.280;  -84.900; -392.000; -292.000
437.403; -191.100; -982.000; -869.000
437.526;  888.300; -903.000; -865.000
437.649; 2995.600; -505.000; -332.000
437.772;  307.200; -692.000; -540.000
437.896;  268.100;  700.000;  544.000
438.019; -165.900; -758.000; -503.000
438.142; -166.900; -596.000; -506.000
438.265;  -53.600; -639.000; -670.000
438.388;  848.200; -520.000; -410.000
438.511;  101.600; -597.000; -394.000
438.634;  -81.300; -247.000; -125.000
438.757; -239.200; -693.000; -619.000
438.880;   23.700;  -34.000;  -57.000
439.003; -152.700; -417.000; -437.000
439.126;  -96.700; -287.000; -167.000
439.248;  -85.000;  -98.000; -139.000
439.371;  -42.500;    9.000;  -53.000
439.494;  127.600;  510.000;  439.000
439.617;  -13.000;   65.000;  -88.000
439.740; -322.300; -968.000; -816.000
439.863; -213.800; -755.000; -595.000
439.986; -212.500; -476.000; -431.000
440.108;  -63.500; -161.000; -112.000
440.231; -296.400; -950.000; -836.000
440.354;  -30.700;  -64.000; -150.000
440.477;   24.600; -566.000; -542.000
440.599;   13.000; -200.000; -225.000
440.722; -230.200; -709.000; -586.000
440.845;  223.700;  751.000;  928.000
440.968; -160.800; -415.000; -311.000
441.090;  -67.300; -199.000;  -33.000
441.213; -313.200;-1021.000; -825.000
441.336;  -43.500; -159.000;   -5.000
441.458; -117.100; -549.000; -396.000
441.581; -152.500; -628.000; -629.000
441.703;  -92.100; -152.000;   13.000
441.826; -161.500; -557.000; -400.000
441.948;  -37.200;   56.000;   51.000
442.071;  129.200;  555.000;  424.000
442.193; -195.400; -531.000; -485.000
442.316;   71.000;  152.000;   97.000
442.438;  122.700; -233.000;  -10.000
442.561;  168.400;  272.000;  262.000
442.683;  776.800; -809.000; -522.000
442.806; 1562.400;   -8.000;   74.000
442.928;  -57.900; -859.000; -604.000
443.051; -126.800; -577.000; -373.000
443.173; -116.600; -341.000; -339.000
443.295; -127.800; -263.000; -371.000
443.418; -122.800; -321.000;  -29.000
443.540;   10.300; -106.000;   -4.000
443.662; -210.900; -563.000; -465.000
443.785;   41.300;  335.000;  199.000
443.907; -201.600; -362.000; -208.000
444.029; -210.700; -767.000; -494.000
444.152; -222.100; -644.000; -554.000
444.274;  -13.300;  -18.000;  -24.000
444.396; -178.700; -461.000; -221.000
444.518; -218.400; -691.000; -454.000
444.640; -149.800; -268.000; -111.000
444.763;   24.300;  388.000;  249.000
444.885; -203.600; -432.000; -392.000
445.007;  -38.400;   35.000;   86.000
445.129; -201.800; -610.000; -515.000
445.251; -154.200; -372.000; -439.000
445.373; -253.900; -537.000; -386.000
445.495;   70.500;  242.000;  350.000
445.617;  131.400;  853.000;  753.000
445.739;  -65.200; -215.000;  -97.000
445.861;  -24.100; -245.000; -112.000
445.984;  -36.300; -267.000; -101.000
446.105;  293.500; -418.000; -251.000
446.227;  889.900; -176.000;  -19.000
446.349;  -16.800; -358.000; -249.000
446.471; -152.300; -615.000; -448.000
446.593;  -84.800; -316.000;   19.000
446.715;   39.200;  -67.000;   41.000
446.837;  201.700;  697.000;  832.000
446.959; -134.900; -457.000; -478.000
447.081; -228.500; -628.000; -518.000
447.203;  187.300;  862.000;  834.000
447.325; -115.600; -270.000;   42.000
447.446;   66.400;  286.000;  530.000
447.568; -274.300; -921.000; -803.000
447.690; -115.600; -236.000; -245.000
447.812; -268.800; -798.000; -519.000
447.933;   12.800;  155.000;  127.000
448.055; -102.000; -306.000; -261.000
448.177;  261.100;   31.000;   79.000
448.299;   42.700; -935.000; -727.000
448.420;   73.100;  -25.000;  159.000
448.542;  -22.100;   -3.000;   33.000
448.664;    8.700;  109.000;  322.000
448.785;  -33.600;  265.000;   83.000
448.907; -104.200; -614.000; -353.000
449.028; -109.600; -771.000; -471.000
449.150;  188.600;  492.000;  589.000
449.272; -324.200;-1044.000; -913.000
449.393;  125.600;  612.000;  694.000
449.515; -226.700; -634.000; -581.000
449.636;  -69.700; -264.000; -155.000
449.758;  180.200;  763.000;  622.000
449.879; -120.800; -498.000; -396.000
450.001; -105.400; -149.000;  -49.000
450.122;    9.500;  -95.000;  162.000
450.244;   41.500;   37.000;  364.000
450.365; -136.800; -495.000; -301.000
450.486;  -19.300;   80.000;  268.000
450.608;   45.300;  393.000;  326.000
450.729;  210.900;  578.000;  645.000
450.850;  106.700; -574.000; -466.000
450.972; 1719.600; -552.000; -389.000
451.093;10290.300;  190.000;  588.000
451.214; 3819.100; -516.000; -337.000
451.336;  788.800;  773.000;  579.000
451.457;  195.600;  264.000;  393.000
451.578;  -13.900; -118.000;  -74.000
451.699; -183.200; -546.000; -540.000
451.821;  -58.600; -284.000;  -50.000
451.942;   58.300;  278.000;  285.000
452.063;  121.000;  228.000;  419.000
452.184; 1261.400;  -54.000;  -49.000
452.305; 2199.100;  103.000;  170.000
452.427;  221.300; -549.000; -301.000
452.548;    8.100;   23.000;   79.000
452.669;  -64.200; -257.000;  -89.000
452.790;  -21.900;    3.000;  -18.000
452.911;   61.000;  195.000;  259.000
453.032;  -77.000; -289.000;  -60.000
453.153;  -54.500;  -29.000;   81.000
453.274;  169.200;  737.000;  868.000
453.395;  -67.200;  -51.000;  175.000
453.516;  325.200; 1317.000; 1388.000
453.637; -111.000; -205.000; -150.000
453.758;  -43.400;   15.000;   69.000
453.879; -196.700; -462.000; -250.000
454.000;  202.800; 1086.000;  948.000
454.121; -226.000; -554.000; -326.000
454.242; -196.800; -599.000; -383.000
454.362;  -63.900;  -99.000;  114.000
454.483;   -5.800; -309.000; -229.000
454.604;  112.100;  512.000;  580.000
454.725; -229.000; -627.000; -555.000
454.846; -264.500; -474.000; -406.000
454.967;   43.200;  230.000;  539.000
455.087;  -41.400;  179.000;  153.000
455.208;  140.100;  554.000;  856.000
455.329;  -30.800;  -22.000;   82.000
455.450;  178.400;  473.000;  633.000
455.570; -124.800; -234.000; -211.000
455.691;  -30.200;  201.000;  407.000
455.812; -165.700; -270.000;  -92.000
455.932;  -31.200;  107.000;  -97.000
456.053;  -91.300;   36.000;   24.000
456.173; -125.900; -433.000; -355.000
456.294; -235.700; -476.000; -303.000
456.415;  -72.400;  -73.000;   70.000
456.535;  -26.600;  297.000;  273.000
456.656;  -20.000;  132.000;  240.000
456.776;  -79.100;    3.000;  298.000
456.897;   87.500;  308.000;  513.000
457.017; -129.600; -153.000;   -3.000
457.138; -173.200; -402.000; -249.000
457.258;   -1.600;  263.000;  224.000
457.379;   36.900;  509.000;  521.000
457.499;  -30.000;  443.000;  432.000
457.620; -195.100; -407.000; -231.000
457.740; -133.300; -132.000;  -11.000
457.860;  -46.000;   87.000;   44.000
457.981;  -70.500;  132.000;  124.000
458.101;  -84.200;  -89.000;   40.000
458.221;   37.400;  336.000;  402.000
458.342;  -12.600;   -4.000;  -37.000
458.462;   89.000;  617.000;  352.000
458.582;  -22.400; -302.000; -294.000
458.703;   98.400;  303.000;  154.000
458.823;   29.600;   22.000;  163.000
458.943;   67.600;  341.000;  467.000
459.063;   19.500; 1124.000;  192.000
459.183;  -15.800;  328.000;  313.000
459.304;   70.100;  315.000;  517.000
459.424;  -80.200; -246.000;  -89.000
459.544;  781.100;  388.000;  764.000
459.664; 1786.100;  499.000;  506.000
459.784;  635.900; 1004.000; 1175.000
459.904;  188.400;  867.000;  744.000
460.024;  179.900;  867.000;  684.000
460.144;   43.700;  449.000;  554.000
460.264;   56.900;  515.000;  327.000
460.385; -132.900; -145.000; -119.000
460.505;  136.000;  905.000;  858.000
460.625; -144.700;  -17.000;  -68.000
460.745;    0.100;  396.000;  541.000
460.864;   -9.100;  153.000;  469.000
460.984;  101.300;  499.000;  573.000
461.104;  326.500; 1656.000; 1775.000
461.224;  107.200;  657.000;  650.000
461.344;  -18.700;  431.000;  360.000
461.464;   -0.200;  258.000;  513.000
461.584;   40.100;  283.000;  466.000
461.704;  -65.500;   58.000;  108.000
461.824;  -65.900;  238.000;  259.000
461.943;  -16.100;  191.000;  130.000
462.063;  -83.600;    2.000;  324.000
462.183;  168.900;  639.000;  717.000
462.303;  279.700; 1678.000; 1230.000
462.422;  113.900;  781.000;  840.000
462.542;  -31.400;  271.000;  391.000
462.662;  127.600;  353.000;  380.000
462.782;  544.700;  833.000;  572.000
462.901; 1011.300;  545.000;  717.000
463.021;  571.100; 1702.000; 1638.000
463.141;   98.300;  337.000;  770.000
463.260;   -5.500;  614.000;  474.000
463.380;   45.800;  902.000;  884.000
463.499;  -62.000;  342.000;  332.000
463.619;    9.200;  581.000;  559.000
463.738;  298.100; 1644.000;  903.000
463.858;  120.900;  657.000;  811.000
463.978;   -5.100;  542.000;  396.000
464.097;  168.300;  921.000; 1114.000
464.217;  314.600; 1196.000; 1143.000
464.336;  272.600; 1068.000; 1130.000
464.455;  -47.200;  328.000;  659.000
464.575;   86.600;  597.000;  602.000
464.694;  374.200; 1204.000; 1179.000
464.814;  330.600; 1190.000; 1138.000
464.933;  168.100; 1095.000; 1027.000
465.052;  277.100; 1412.000; 1054.000
465.172;  202.600;  922.000;  799.000
465.291;  343.900; 1376.000; 1320.000
465.410;  106.300;  462.000;  735.000
465.530;  261.300; 1355.000; 1310.000
465.649;  184.200; 1209.000; 1273.000
465.768;  371.200; 1673.000; 1508.000
465.888;  161.900;  941.000; 1174.000
466.007;  253.500; 1335.000; 1440.000
466.126;   61.400;  721.000;  641.000
466.245;  162.300; 1176.000; 1187.000
466.364;   99.200;  950.000; 1060.000
466.484;  176.100; 1024.000; 1213.000
466.603;  147.800; 1101.000; 1222.000
466.722;  294.400; 1490.000; 1769.000
466.841;  192.800; 1151.000; 1401.000
466.960;  117.900; 1069.000;  972.000
467.079;  344.000; 1971.000; 1786.000
467.198;  165.800; 1238.000; 1181.000
467.317;  248.900; 1768.000; 1162.000
467.436;  215.600; 1709.000; 1261.000
467.555;  327.600; 1796.000; 1746.000
467.674;  202.500; 1227.000; 1329.000
467.793;  150.500; 1376.000; 1374.000
467.912;  277.000; 1658.000; 1539.000
468.031;  369.500; 2038.000; 1930.000
468.150;  388.700; 1842.000; 1837.000
468.269;  423.400; 2313.000; 2090.000
468.388;  463.900; 2168.000; 2339.000
468.507;  602.100; 2884.000; 2903.000
468.626;  653.300; 2555.000; 2541.000
468.744;  381.700; 2018.000; 2174.000
468.863;  469.800; 2312.000; 2523.000
468.982;  257.800; 1503.000; 1555.000
469.101;  499.500; 2788.000; 2692.000
469.220;  380.800; 2333.000; 2176.000
469.338;  595.200; 2935.000; 3051.000
469.457;  468.600; 2719.000; 2545.000
469.576;  738.900; 3953.000; 3784.000
469.695;  519.300; 2877.000; 3066.000
469.813; 1002.600; 4148.000; 4192.000
469.932;  865.300; 4255.000; 4485.000
470.051;  906.000; 4075.000; 4161.000
470.169; 1889.100; 4470.000; 4338.000
470.288; 3066.200; 4700.000; 4809.000
470.406; 1721.000; 5059.000; 5194.000
470.525; 1349.200; 6101.000; 5787.000
470.644; 1378.900; 6847.000; 6794.000
470.762; 1736.400; 8397.000; 7873.000
470.881; 1873.500; 8651.000; 8464.000
470.999; 2187.600; 9685.000; 9151.000
471.118; 2349.300;11174.000;10711.000

