
Integration time [ms]: 100.000
Averaging Nr. [scans]: 40
Smoothing Nr. [pixels]: 0
Data measured with spectrometer [name]: 2101012U2
Wave   ;Sample   ;Dark     ;Reference
[nm]   ;[counts] ;[counts] ;[counts] 

197.733;   38.900;  516.000;  404.000
197.879;  -86.275; -610.000; -634.000
198.025;  -46.975; -475.000; -420.000
198.171;  -57.675; -602.000; -612.000
198.317;  -29.775; -401.000; -316.000
198.463;  -54.875; -655.000; -404.000
198.609;   13.775;  181.000; -137.000
198.755;  -77.450; -644.000; -410.000
198.901;  -71.200; -505.000; -424.000
199.047;  -59.650; -615.000; -488.000
199.193;  -44.675; -230.000; -468.000
199.339;  -48.325; -222.000; -369.000
199.485;   28.850;  330.000;  271.000
199.631;   16.250;  227.000;  310.000
199.777;  -49.825; -466.000; -398.000
199.923;  -63.250; -610.000; -424.000
200.069;    6.250; -141.000;  -58.000
200.215;   56.475;  128.000;  453.000
200.361;   28.025;  243.000;  477.000
200.507;  -67.750; -600.000; -373.000
200.653;  -28.700; -371.000; -194.000
200.798;  -30.925; -215.000; -125.000
200.944;   -5.925; -146.000;  -41.000
201.090;   31.650;   61.000;  222.000
201.236;   -3.575; -116.000; -158.000
201.382;  123.950;  874.000;  903.000
201.528;   -8.225;  -58.000;  -48.000
201.674;  -57.125; -386.000; -293.000
201.819;  -56.975; -540.000; -439.000
201.965;  -76.950; -699.000; -447.000
202.111;  -28.100; -273.000; -226.000
202.257;  -36.300; -250.000; -238.000
202.402;    3.100;   13.000;  -36.000
202.548;  -13.800; -169.000; -116.000
202.694;   79.875;  410.000; -183.000
202.840;  -68.800; -603.000; -531.000
202.985;  -68.175; -681.000; -639.000
203.131; -102.925; -832.000; -666.000
203.277;  -23.825; -199.000; -262.000
203.423;  -47.425; -434.000; -520.000
203.568;  -31.800; -462.000; -237.000
203.714;  -44.625; -535.000; -542.000
203.860;  -81.200; -682.000; -641.000
204.005;   12.925;  112.000;  167.000
204.151;   75.250;  561.000;  556.000
204.296;  -44.625; -354.000; -221.000
204.442;  -63.375; -600.000; -547.000
204.588;  -71.150; -592.000; -579.000
204.733;   12.050;  178.000;  168.000
204.879; -122.925;-1018.000; -822.000
205.025;   -1.000;  -99.000;  126.000
205.170;    8.600;  -17.000;   94.000
205.316;   72.250;  438.000;  661.000
205.461;  -81.850; -698.000; -554.000
205.607;   81.425;  609.000;  665.000
205.752;  -78.125; -626.000; -551.000
205.898;  -61.900; -501.000; -391.000
206.043;  -76.275; -578.000; -506.000
206.189;  -36.200; -243.000; -285.000
206.334;   86.625;  554.000;  606.000
206.480;   78.850;  409.000;  239.000
206.625;  -79.025; -529.000; -552.000
206.771;  -48.650; -451.000; -373.000
206.916;  -21.525; -210.000; -537.000
207.062;  -77.100; -545.000; -591.000
207.207;  -47.250; -546.000; -443.000
207.353;   55.050;  185.000;  460.000
207.498;   24.500;  196.000;   85.000
207.643;  -55.825; -501.000; -370.000
207.789; -111.675;-1069.000; -910.000
207.934;  -99.200; -665.000; -713.000
208.080;  -12.625; -154.000;   66.000
208.225;  -16.525;  -22.000;  -57.000
208.370;  -75.225; -727.000; -619.000
208.516;  -88.450; -741.000; -487.000
208.661;  -35.475; -127.000;  -69.000
208.806;  -28.550; -165.000; -171.000
208.952; -113.050;-1044.000; -731.000
209.097;   75.675;  378.000;  349.000
209.242;  -32.275; -307.000; -382.000
209.387;   72.650;  392.000;  350.000
209.533;  -41.000; -321.000; -350.000
209.678;   73.750;  472.000;  543.000
209.823;  -34.600; -408.000; -310.000
209.969;  -86.550; -860.000; -757.000
210.114; -100.350; -907.000; -719.000
210.259; -110.050; -939.000; -889.000
210.404;  -20.325; -171.000;  103.000
210.549;    6.700;  108.000;    3.000
210.695;   -7.825;   -3.000;  -95.000
210.840;   22.400;   94.000;   67.000
210.985;  -66.550; -484.000; -303.000
211.130;   59.625;  268.000;  406.000
211.275;   20.925;  207.000;  199.000
211.420;  -53.175; -300.000; -289.000
211.566;  -66.200; -536.000; -489.000
211.711;   11.800;  218.000;  157.000
211.856;  -61.675; -545.000; -519.000
212.001;   -2.350;  151.000;   44.000
212.146;   29.375;  153.000;   49.000
212.291;  -30.225; -210.000; -186.000
212.436;  -26.550; -280.000;   -6.000
212.581;  -81.025; -685.000; -653.000
212.726;  -74.050; -487.000; -538.000
212.871;  -48.350; -552.000; -217.000
213.016; -149.925;-1172.000;-1029.000
213.161;   49.475;  406.000;  291.000
213.306;  -68.575; -435.000; -577.000
213.451;  -89.675; -778.000; -689.000
213.596;  -47.800; -455.000; -347.000
213.741;  -43.075; -448.000; -538.000
213.886;  -75.600; -498.000; -517.000
214.031;  -27.600; -294.000; -124.000
214.176;  -54.175; -408.000; -341.000
214.321;  -28.775; -296.000; -157.000
214.466;  -10.950; -163.000;  -43.000
214.611;  -14.750;  -61.000;  -10.000
214.756; -112.100; -948.000; -858.000
214.901;  -27.800; -388.000; -226.000
215.046; -110.775; -797.000; -825.000
215.191;    2.025;  128.000;   35.000
215.336;  -22.350; -157.000;  -19.000
215.480;  -63.375; -684.000; -505.000
215.625;  -17.475; -175.000;  -19.000
215.770;  -75.975; -757.000; -662.000
215.915;   -5.800;   -5.000;  -97.000
216.060;    0.725; -113.000;  -21.000
216.205;  -98.175; -731.000; -779.000
216.349;  -81.900; -470.000; -533.000
216.494; -128.200; -939.000; -867.000
216.639; -114.875; -823.000; -888.000
216.784;  -88.450; -577.000; -525.000
216.929;   44.875;  392.000;  281.000
217.073;   -7.100; -244.000;  -31.000
217.218;    3.175;   78.000;  -47.000
217.363;  -92.575; -656.000; -618.000
217.507;  -76.800; -623.000; -588.000
217.652; -111.375; -845.000; -874.000
217.797;  -83.250; -708.000; -659.000
217.942;  -93.800; -856.000; -720.000
218.086;   55.775;  608.000;  539.000
218.231;  -33.500; -174.000;  -26.000
218.376;  -30.200; -337.000; -229.000
218.520;   -5.875;  -41.000;   96.000
218.665;  -30.975; -338.000; -204.000
218.810;  -44.825; -275.000; -233.000
218.954;   15.050;  201.000;   35.000
219.099; -114.750; -713.000; -963.000
219.243;  -73.125; -589.000; -554.000
219.388;  -37.025; -264.000; -136.000
219.532;  -12.725; -116.000; -116.000
219.677;  -78.350; -564.000; -521.000
219.822;    3.375;   33.000;   89.000
219.966;    3.125;   17.000;  -99.000
220.111;  -43.350; -328.000;  -40.000
220.255;  -93.950; -797.000; -750.000
220.400;  -10.850; -180.000; -146.000
220.544;  -62.575; -516.000; -450.000
220.689;  -60.375; -422.000; -451.000
220.833;  -30.525; -123.000;  -58.000
220.978;  -48.650; -393.000; -563.000
221.122;   19.275;  319.000;  307.000
221.267; -113.475; -906.000; -837.000
221.411;  -72.525; -478.000; -394.000
221.555;   -6.625; -104.000;  -23.000
221.700;  -54.725; -329.000; -222.000
221.844;   26.150;  255.000;  272.000
221.989;  -59.400; -328.000; -311.000
222.133;  -32.750; -289.000; -307.000
222.277;    5.500;    5.000;   78.000
222.422;   17.825;  227.000;  113.000
222.566;  -54.500; -381.000; -214.000
222.711;  -57.950; -414.000; -479.000
222.855;  -80.950; -643.000; -586.000
222.999;  -94.825; -642.000; -717.000
223.144;  -25.875; -195.000; -194.000
223.288;   50.075;  423.000;  251.000
223.432;   33.950;  184.000;  230.000
223.576;   -8.700;  152.000;  -21.000
223.721;   25.950;  364.000;  273.000
223.865;  -59.350; -472.000; -475.000
224.009;  220.500; 1673.000; 1631.000
224.153;  -82.800; -660.000; -671.000
224.298;  -82.975; -531.000; -489.000
224.442;  -27.725;  -74.000;  -33.000
224.586;  -18.500; -169.000; -106.000
224.730; -105.675; -858.000; -670.000
224.875; -107.975; -739.000; -688.000
225.019;   13.250;  102.000;  188.000
225.163;   54.600;  208.000;  341.000
225.307;    6.150;   97.000;  -91.000
225.451;   44.275;  360.000;  481.000
225.595;   30.900;  264.000;  176.000
225.739;  -27.825; -170.000;  -94.000
225.884;  -14.275;   86.000;    5.000
226.028;  -90.600; -760.000; -626.000
226.172;  -26.600; -260.000; -273.000
226.316; -111.600; -941.000; -902.000
226.460;  -69.450; -645.000; -493.000
226.604;  -53.850; -406.000; -400.000
226.748; -103.800; -836.000; -733.000
226.892;  -33.050; -227.000; -181.000
227.036;  -48.625; -537.000; -447.000
227.180;  -53.475; -551.000; -375.000
227.324;  -68.725; -561.000; -580.000
227.468;  -98.950; -819.000; -717.000
227.612;    1.000;  242.000;  -28.000
227.756;  -93.625; -845.000; -698.000
227.900;   38.775;  342.000;  441.000
228.044;  -54.425; -509.000; -290.000
228.188;   52.425;  448.000;  568.000
228.332;  -96.050; -546.000; -472.000
228.476;  -20.950; -223.000; -149.000
228.620;  -23.550; -210.000; -150.000
228.764;   53.325;  431.000;  349.000
228.908;  -19.050; -155.000;   30.000
229.052;  -66.075; -615.000; -528.000
229.195;  -27.275; -172.000;   13.000
229.339;  -35.300; -235.000; -305.000
229.483;  -36.500;    5.000; -162.000
229.627;  -14.575; -156.000;  139.000
229.771;  -45.575; -218.000; -294.000
229.915;    5.575;  230.000;   79.000
230.059;  -88.925; -648.000; -663.000
230.202;  -40.800; -370.000; -317.000
230.346;  -14.550; -107.000;  107.000
230.490;  -67.200; -489.000; -521.000
230.634; -115.250; -736.000; -553.000
230.777;   68.600;  478.000;  509.000
230.921;  -60.425; -450.000; -359.000
231.065;  -53.950; -246.000; -286.000
231.209;   30.050;  261.000;  265.000
231.352;    1.825;   54.000;   40.000
231.496;   20.950;  568.000;  188.000
231.640;  -81.850; -693.000; -621.000
231.783;   55.250;  546.000;  525.000
231.927;  -41.550; -294.000; -365.000
232.071; -120.275; -962.000; -736.000
232.214; -114.500; -980.000; -764.000
232.358; -100.825; -683.000; -599.000
232.502;    7.875;  -19.000;    7.000
232.645; -128.750;-1090.000; -927.000
232.789;  -26.125; -257.000; -218.000
232.933;  -41.800; -407.000; -224.000
233.076; -124.100;-1038.000; -897.000
233.220; -106.375; -752.000; -777.000
233.363;  -75.000; -669.000; -477.000
233.507;   53.950;  371.000;  129.000
233.650;  -99.550; -764.000; -834.000
233.794;   50.725;  438.000;  461.000
233.938;  -65.875; -530.000; -362.000
234.081;  -22.350;  -93.000;   31.000
234.225;  -64.675; -631.000; -539.000
234.368; -100.325; -773.000; -723.000
234.512;  -41.025; -385.000; -299.000
234.655;  -82.075; -582.000; -555.000
234.798;  -67.025; -493.000; -466.000
234.942; -127.150; -884.000;-1002.000
235.085;  -71.175; -651.000; -443.000
235.229;  -68.150; -405.000; -410.000
235.372;  -51.825; -247.000; -191.000
235.516;  -72.350; -397.000; -321.000
235.659;   19.125;   92.000;  121.000
235.802;   -8.375;  -38.000;  -22.000
235.946;   16.175;  335.000;  215.000
236.089;   19.150;  126.000;  250.000
236.233;   46.875;  275.000;  298.000
236.376;  -51.375; -235.000; -378.000
236.519;  -60.925; -297.000; -319.000
236.663;  -10.775; -215.000; -117.000
236.806; -138.200;-1029.000; -999.000
236.949;   44.900;  543.000;  431.000
237.092;   62.750;  412.000;  391.000
237.236;  -78.575; -589.000; -502.000
237.379;   59.175;  352.000;  428.000
237.522; -117.725; -879.000; -768.000
237.666;  -20.300; -271.000;   18.000
237.809; -117.275; -851.000; -823.000
237.952;   24.025;  469.000;  271.000
238.095;  -66.100; -447.000; -442.000
238.238;   77.475;  688.000;  700.000
238.382;   -3.650;  166.000;  103.000
238.525;  -69.400; -598.000; -511.000
238.668; -119.050;-1060.000; -985.000
238.811;  -78.000; -638.000; -643.000
238.954;  -50.725; -483.000; -334.000
239.097;   74.000;  617.000;  664.000
239.241;   17.300;  394.000;  326.000
239.384;  -22.575; -254.000; -214.000
239.527;  -49.975; -424.000; -224.000
239.670; -144.250; -994.000;-1091.000
239.813; -102.425; -696.000; -658.000
239.956;   70.950;  579.000;  473.000
240.099; -129.100; -778.000; -725.000
240.242;   55.750;  428.000;  432.000
240.385;   35.800;  466.000;  450.000
240.528;  -85.200; -706.000; -473.000
240.671;    4.600;  189.000;  134.000
240.814;  -56.500; -441.000; -158.000
240.957; -109.025; -767.000; -578.000
241.100;  -89.475; -779.000; -755.000
241.243; -135.975;-1234.000; -893.000
241.386;  -66.975; -508.000; -379.000
241.529;  -90.850; -735.000; -547.000
241.672;  -66.425; -566.000; -495.000
241.815; -122.100; -832.000; -808.000
241.958;  -31.725; -125.000; -182.000
242.101;  -82.150; -545.000; -390.000
242.244;  -37.775; -270.000; -325.000
242.387;  -42.925; -304.000; -246.000
242.530;   48.325;  470.000;  134.000
242.673;  -42.250; -381.000; -309.000
242.815; -126.225; -925.000; -899.000
242.958;  -64.375; -482.000; -381.000
243.101;    3.750;  132.000;  187.000
243.244;  -75.775; -564.000; -521.000
243.387;  -49.750; -313.000; -316.000
243.530;  -98.975; -657.000; -674.000
243.672;  -16.175;   43.000;  -92.000
243.815;  -52.525; -355.000; -283.000
243.958;   -8.525;   98.000;  -26.000
244.101;   -4.150;   59.000;  -16.000
244.243;  -24.600;  -47.000;  101.000
244.386; -111.250; -761.000; -630.000
244.529;  -24.825; -132.000; -139.000
244.672; -159.000;-1154.000; -951.000
244.814; -100.575; -621.000; -794.000
244.957;  -66.400; -380.000; -304.000
245.100;  -78.700; -489.000; -489.000
245.242;  -62.300; -387.000; -374.000
245.385;  -11.200;  -59.000;  -39.000
245.528; -114.775; -871.000; -705.000
245.670;   78.200;  612.000;  634.000
245.813;  -89.450; -599.000; -547.000
245.956;  -36.325; -324.000; -275.000
246.098;  -77.875; -508.000; -650.000
246.241;  -12.225;  194.000;   48.000
246.383;  -25.275; -119.000;  -73.000
246.526;  -73.000; -454.000; -525.000
246.669; -124.200; -889.000; -780.000
246.811;   13.325;  172.000;   -1.000
246.954;  -68.000; -512.000; -426.000
247.096;  -27.325;  -84.000;   -6.000
247.239;  -66.250; -482.000; -445.000
247.381;  -77.850; -647.000; -488.000
247.524;   84.550;  645.000;  679.000
247.666;  -21.400;   58.000;   11.000
247.809; -109.275; -887.000; -691.000
247.951;   -4.350;  -75.000;  138.000
248.094;   18.400;  432.000;  308.000
248.236; -148.225;-1262.000;-1238.000
248.378;  -22.800; -356.000;  -81.000
248.521;  -30.375; -334.000; -337.000
248.663;  -39.500; -236.000; -267.000
248.806;  -48.825; -300.000; -266.000
248.948; -103.525; -886.000; -763.000
249.090;  -64.225; -428.000; -398.000
249.233;  -57.000; -344.000; -381.000
249.375;  -71.600; -474.000; -451.000
249.518;  -24.875;  -83.000; -133.000
249.660;  -11.600; -103.000;    3.000
249.802; -156.950;-1303.000;-1189.000
249.945;  -83.575; -612.000; -540.000
250.087; -120.225; -834.000; -768.000
250.229;  -62.550; -362.000; -480.000
250.371;  -72.850; -494.000; -439.000
250.514;  -51.975; -310.000; -244.000
250.656;   -7.650;   69.000;  102.000
250.798; -122.325; -849.000; -800.000
250.940;  -66.950; -322.000; -322.000
251.083;  -47.125; -335.000; -111.000
251.225;   38.875;  338.000;  310.000
251.367;  -47.875; -274.000; -373.000
251.509;  -35.175; -265.000; -210.000
251.651; -106.050; -731.000; -671.000
251.794;   37.950;  538.000;  632.000
251.936; -111.300; -821.000; -747.000
252.078;  -73.875; -540.000; -461.000
252.220;  -59.350; -645.000; -477.000
252.362;   47.850;  344.000;  462.000
252.504;  -84.800; -677.000; -584.000
252.646; -108.125; -875.000; -722.000
252.788;  -19.225;   14.000; -128.000
252.931;  -54.875; -257.000; -253.000
253.073;  -57.025; -376.000; -317.000
253.215;   -0.800;  141.000;  122.000
253.357;  -25.375;   82.000; -153.000
253.499;  -51.300; -374.000; -234.000
253.641;  -91.475; -749.000; -594.000
253.783;  -90.075; -609.000; -527.000
253.925;  -88.050; -586.000; -591.000
254.067; -106.150; -744.000; -667.000
254.209;  -32.400; -391.000; -259.000
254.351; -134.275; -865.000; -883.000
254.493;  -72.200; -441.000; -417.000
254.635; -133.625; -936.000; -818.000
254.777;  -80.250; -752.000; -687.000
254.918;  -69.250; -512.000; -430.000
255.060;  -69.750; -551.000; -395.000
255.202;  -58.600; -473.000; -261.000
255.344;  -84.675; -658.000; -455.000
255.486;  -73.225; -471.000; -406.000
255.628; -116.050; -780.000; -781.000
255.770;  -87.900; -676.000; -536.000
255.912;  -69.300; -559.000; -468.000
256.053;  -93.700; -730.000; -508.000
256.195;  144.125; 1008.000;  903.000
256.337;  -95.150; -861.000; -595.000
256.479;   57.375;  532.000;  416.000
256.621;  -52.100; -394.000; -212.000
256.762;  -87.750; -789.000; -742.000
256.904;   43.225;  485.000;  487.000
257.046;  -54.425; -381.000; -271.000
257.188;  -40.100; -351.000; -264.000
257.329;  -76.100; -525.000; -464.000
257.471; -115.650; -939.000; -807.000
257.613;  -69.525; -584.000; -498.000
257.755; -145.550;-1073.000; -982.000
257.896;   23.550;  286.000;  392.000
258.038;  -69.725; -403.000; -352.000
258.180;  -62.650; -354.000; -279.000
258.321;  -85.625; -581.000; -457.000
258.463;  -14.550;  -71.000;  133.000
258.605;  -98.000; -562.000; -570.000
258.746; -110.875; -886.000; -772.000
258.888; -139.700;-1026.000;-1020.000
259.029;   11.600;  121.000;   -8.000
259.171;  -84.575; -614.000; -550.000
259.313;  -10.050;  -49.000;  -47.000
259.454;  -66.175; -536.000; -414.000
259.596;  -58.750; -483.000; -390.000
259.737;  -64.900; -590.000; -474.000
259.879;   31.475;  217.000;  311.000
260.020;   71.125;  901.000;  636.000
260.162;  -38.700; -146.000; -253.000
260.303; -110.425; -768.000; -687.000
260.445;  -73.000; -609.000; -613.000
260.586;   26.200;  392.000;  157.000
260.728;  -68.450; -360.000; -248.000
260.869;  -85.475; -350.000; -343.000
261.011;   61.975;  706.000;  537.000
261.152;  -68.375; -479.000; -319.000
261.293;  -90.375; -576.000; -595.000
261.435;  -44.200; -219.000; -184.000
261.576;  -45.800; -455.000; -325.000
261.718;   46.025;  420.000;  470.000
261.859; -122.225; -940.000; -949.000
262.000; -131.225; -951.000;-1016.000
262.142;  -39.225;  -52.000;  -60.000
262.283; -109.575; -808.000; -691.000
262.424;  -96.325; -666.000; -625.000
262.566; -149.350;-1161.000; -983.000
262.707; -113.100; -840.000; -830.000
262.848; -120.325; -769.000; -726.000
262.990;  -57.375; -362.000; -345.000
263.131;   71.950;  650.000;  681.000
263.272;  -16.875;  -61.000;  -41.000
263.413;  -97.925; -589.000; -561.000
263.555;  -74.300; -669.000; -143.000
263.696;  -92.225; -550.000; -641.000
263.837;  -60.000; -449.000; -551.000
263.978;  -12.350;   -5.000;  -77.000
264.119;  -52.050; -283.000; -264.000
264.261; -106.400; -847.000; -630.000
264.402;   -9.625;   33.000;   40.000
264.543;  -78.450; -509.000; -524.000
264.684;  -14.350;   61.000;  -50.000
264.825;  -68.775; -816.000; -538.000
264.966;  -15.050;  -84.000;  -67.000
265.107; -114.950; -646.000; -670.000
265.248; -111.625; -825.000; -812.000
265.390;    0.775;  152.000;   -9.000
265.531;  -30.475; -238.000; -107.000
265.672;  -78.950; -557.000; -630.000
265.813;   53.650;  563.000;  439.000
265.954; -137.125; -959.000; -940.000
266.095;  -21.250; -372.000; -322.000
266.236;  -88.125; -686.000; -548.000
266.377;  -51.825; -243.000; -297.000
266.518;  -72.725; -619.000; -547.000
266.659;   23.875;  170.000;  268.000
266.800;   -7.525;   83.000;   85.000
266.941;  -87.200; -487.000; -478.000
267.082;   -1.425;  354.000;   99.000
267.223;  -51.950; -344.000; -273.000
267.364; -120.275; -892.000; -686.000
267.504;  -17.850;    3.000;  135.000
267.645;   -2.075;  160.000;   67.000
267.786;  -44.825; -147.000;  -86.000
267.927;  -55.475; -473.000; -379.000
268.068;  -38.925; -186.000;  -61.000
268.209;  -57.425; -175.000; -413.000
268.350;  -70.975; -388.000; -532.000
268.490;  -91.650; -648.000; -521.000
268.631;   21.750;  127.000;  225.000
268.772; -112.400; -874.000; -647.000
268.913;  -60.850; -328.000; -476.000
269.054;  -34.325; -117.000;   12.000
269.194;  -49.275; -418.000; -402.000
269.335; -161.450;-1137.000;-1074.000
269.476;  -20.775;   33.000;  -35.000
269.617;  -57.800; -347.000; -392.000
269.757;  -83.475; -713.000; -646.000
269.898; -105.525; -856.000; -613.000
270.039;  -70.350; -415.000; -405.000
270.180; -123.275; -952.000; -816.000
270.320;  -31.800; -190.000; -250.000
270.461;  -40.800; -277.000; -249.000
270.602;  -21.650; -186.000; -156.000
270.742; -135.600; -868.000; -943.000
270.883;  -70.425; -442.000; -390.000
271.023;  -53.300; -358.000; -357.000
271.164;  -82.975; -607.000; -528.000
271.305;  -89.975; -666.000; -654.000
271.445;  -88.925; -722.000; -683.000
271.586;  -68.300; -462.000; -283.000
271.726;  -62.550; -397.000; -322.000
271.867;  -59.100; -594.000; -534.000
272.008;   46.575; -473.000; -285.000
272.148;   95.000;  462.000;  468.000
272.289;   -5.350; -113.000; -181.000
272.429;   -2.275;   19.000;  185.000
272.570;  -92.775; -633.000; -737.000
272.710; -113.950; -825.000; -775.000
272.851;  -27.600;  113.000; -130.000
272.991; -165.375;-1173.000;-1077.000
273.131;  -67.375; -419.000; -459.000
273.272; -108.575; -683.000; -723.000
273.412;   -7.350; -143.000;  -31.000
273.553;  -67.925; -488.000; -507.000
273.693;  109.800;  913.000;  858.000
273.834; -114.725; -894.000; -692.000
273.974;  -93.750; -664.000; -615.000
274.114; -104.575; -772.000; -560.000
274.255;   37.200;  414.000;  373.000
274.395;  -41.975; -180.000; -125.000
274.535;   22.350;  199.000;  350.000
274.676;   19.700;  225.000;   94.000
274.816;  -24.550;  110.000;   34.000
274.956;  -94.700; -624.000; -690.000
275.097; -109.600;-1014.000; -922.000
275.237; -119.175; -913.000; -803.000
275.377; -106.075; -778.000; -689.000
275.517; -142.825; -878.000; -937.000
275.658;  -76.050; -590.000; -555.000
275.798;  -78.475; -606.000; -413.000
275.938;   17.650;  215.000;  323.000
276.078;  -78.575; -626.000; -395.000
276.218;   -2.300;   99.000;  104.000
276.359; -134.350;-1026.000;-1024.000
276.499;  -77.400; -605.000; -446.000
276.639;  -47.675; -305.000; -151.000
276.779;  -68.450; -475.000; -357.000
276.919; -115.650; -783.000; -624.000
277.059;  -35.150; -261.000; -212.000
277.199;  -47.100; -357.000; -259.000
277.340;   36.850;  287.000;  175.000
277.480; -107.350; -840.000; -693.000
277.620;   13.250;  192.000;   16.000
277.760; -203.725;-1533.000;-1294.000
277.900;   -3.200;  113.000;   33.000
278.040;   -0.775;  137.000;  159.000
278.180;   20.725;  270.000;  170.000
278.320;  -15.000;   21.000;   56.000
278.460;  -77.250; -443.000; -469.000
278.600;  -86.350; -708.000; -598.000
278.740;   28.350;  448.000;  224.000
278.880; -108.225; -768.000; -791.000
279.020;  -46.350; -194.000; -144.000
279.160;  -85.750; -672.000; -595.000
279.300; -115.650; -926.000; -873.000
279.440;  -96.475; -709.000; -622.000
279.579;  -77.900;-1014.000; -929.000
279.719;  -67.400; -410.000; -394.000
279.859;   26.425;   -4.000;   41.000
279.999;  -15.275; -208.000;  101.000
280.139;  -57.050; -435.000; -387.000
280.279;  -92.775; -708.000; -745.000
280.419;  -34.575; -229.000; -147.000
280.559;  -38.875; -259.000; -180.000
280.698; -100.525; -790.000; -639.000
280.838; -128.600; -778.000; -800.000
280.978;  -99.175; -846.000; -790.000
281.118; -122.050; -811.000; -704.000
281.257;   -3.725;   24.000;    6.000
281.397; -145.825;-1094.000; -960.000
281.537; -106.950; -599.000; -712.000
281.677;  -26.750; -150.000; -101.000
281.816;  -96.675; -700.000; -630.000
281.956;  -38.700; -193.000; -257.000
282.096;  -54.175; -539.000; -396.000
282.235;  -99.075; -672.000; -638.000
282.375;  -28.450; -243.000;  -98.000
282.515; -102.900; -715.000; -707.000
282.654;   -1.025;   29.000;  106.000
282.794;   11.625;  388.000;  244.000
282.934;  -65.175; -530.000; -491.000
283.073; -122.800;-1030.000; -857.000
283.213;  -60.775; -460.000; -467.000
283.353;  -49.075; -408.000; -349.000
283.492;  -41.175; -264.000; -296.000
283.632;  -46.300; -254.000; -168.000
283.771;  -96.725; -859.000; -730.000
283.911;  -68.100; -369.000; -260.000
284.050; -112.625; -794.000; -748.000
284.190; -155.050;-1229.000;-1096.000
284.329; -156.250;-1055.000; -964.000
284.469;  -81.725; -516.000; -591.000
284.608;  -66.975; -559.000; -598.000
284.748;  -73.250; -614.000; -570.000
284.887;  -23.075;  -87.000;  -20.000
285.027; -126.225; -844.000; -892.000
285.166;  -49.350; -192.000; -249.000
285.306;  -22.825; -116.000;  -33.000
285.445;  -44.775; -229.000; -343.000
285.584;  -97.600; -630.000; -494.000
285.724;  -58.825; -282.000; -322.000
285.863; -102.550; -857.000; -507.000
286.002;  -72.050; -366.000; -276.000
286.142; -102.850; -715.000; -622.000
286.281;  -84.825; -525.000; -493.000
286.420;  -90.425; -554.000; -417.000
286.560;   86.650;  653.000;  623.000
286.699; -144.700; -958.000; -912.000
286.838;  -84.575; -590.000; -591.000
286.978;  -81.450; -533.000; -537.000
287.117; -142.800;-1085.000; -950.000
287.256;  -50.100; -228.000; -211.000
287.395;  -70.425; -197.000; -378.000
287.535;  -58.925; -370.000; -298.000
287.674;  -80.750; -509.000; -484.000
287.813;   51.825;  661.000;  533.000
287.952; -135.375;-1010.000; -871.000
288.091; -143.725;-1049.000; -915.000
288.231;    2.675;   13.000;   15.000
288.370; -172.925;-1217.000;-1200.000
288.509;  -97.375; -728.000; -645.000
288.648;  -89.575; -770.000; -548.000
288.787;  -50.925; -243.000;  -87.000
288.926;  -64.300; -454.000; -475.000
289.065;  105.725;  859.000;  672.000
289.204;  -54.250; -377.000; -217.000
289.344;  -88.400; -791.000; -690.000
289.483;   16.150;  416.000;  304.000
289.622;  -28.075; -291.000; -149.000
289.761;  -32.300; -309.000; -166.000
289.900; -112.575; -785.000; -626.000
290.039;  -21.075;  -12.000;  -95.000
290.178;  -42.625; -274.000; -180.000
290.317;  -90.850; -618.000; -479.000
290.456;  -64.700; -463.000; -451.000
290.595; -128.450; -961.000; -833.000
290.734; -140.325; -904.000; -891.000
290.873;  -67.425; -456.000; -420.000
291.011; -122.875; -833.000; -843.000
291.150; -114.400; -770.000; -682.000
291.289;  -41.025; -343.000; -110.000
291.428; -103.125; -599.000; -480.000
291.567;  -56.625; -370.000; -442.000
291.706;  -16.225;  109.000;  154.000
291.845;  -91.275; -597.000; -505.000
291.984; -169.050;-1234.000;-1061.000
292.122;   58.125;  602.000;  582.000
292.261;   41.100;  620.000;  463.000
292.400;  -18.675; -144.000;  211.000
292.539; -115.350; -959.000; -813.000
292.678;  -42.350; -325.000; -300.000
292.816; -156.875;-1136.000; -965.000
292.955; -105.650; -844.000; -684.000
293.094;  -36.225; -173.000; -337.000
293.233;  -67.800; -556.000; -400.000
293.371;  -42.700; -225.000;  -84.000
293.510; -104.650; -866.000; -780.000
293.649; -141.900; -959.000; -924.000
293.787; -120.900;-1083.000;-1012.000
293.926;  -16.950; -113.000;  -32.000
294.065;  -66.300; -379.000; -290.000
294.203;   46.300;  298.000;  406.000
294.342;   21.325;   74.000;  156.000
294.481; 5927.975;51180.000; -836.000
294.619;  -28.300; -425.000; -582.000
294.758; -150.775;-1230.000;-1137.000
294.896;   19.225; -125.000;    5.000
295.035; -138.200;-1040.000;-1006.000
295.174; -133.825;-1082.000; -954.000
295.312;  -45.550; -323.000; -203.000
295.451;  -55.450; -307.000; -428.000
295.589;  -84.850; -389.000; -518.000
295.728;   -1.175; -292.000; -165.000
295.866;   -6.175;  -36.000;  -51.000
296.005;  -59.875; -584.000; -341.000
296.143;  -86.800; -558.000; -596.000
296.282; -113.650; -957.000; -881.000
296.420;  -93.175; -657.000; -557.000
296.559; -100.450; -892.000; -633.000
296.697;  -71.525; -847.000; -665.000
296.835;  -79.075;-1141.000;-1002.000
296.974;   13.525;  -23.000;   39.000
297.112;  -55.675; -443.000; -504.000
297.251;  -93.775; -815.000; -755.000
297.389;  -16.250; -576.000; -438.000
297.527;   -0.100; -145.000;  -83.000
297.666;  -74.775; -486.000; -438.000
297.804;  -58.175; -404.000; -264.000
297.942;  -15.925; -136.000; -161.000
298.081;  -13.475; -183.000;   63.000
298.219;    4.125;  -17.000;  -19.000
298.357;    0.500; -144.000;  -71.000
298.495;  -66.475; -810.000; -812.000
298.634;   19.850;  245.000;  219.000
298.772;  -35.500; -220.000; -338.000
298.910;  -66.600; -309.000; -182.000
299.048;  -21.150; -130.000; -153.000
299.187;  -42.000; -350.000; -250.000
299.325;  -18.250;   52.000;  122.000
299.463;  -18.475; -389.000; -299.000
299.601;  -17.325; -327.000; -271.000
299.739; -132.250; -908.000; -883.000
299.877;  -94.275; -791.000; -703.000
300.016; -100.300;-1095.000; -935.000
300.154;   32.475;  -19.000; -161.000
300.292;  -28.425; -428.000; -348.000
300.430;  -22.350; -408.000; -291.000
300.568; -131.500; -940.000; -874.000
300.706;  -70.625; -366.000; -469.000
300.844; -127.300;-1108.000; -979.000
300.982;   56.100;  246.000;  282.000
301.120; -131.725; -965.000; -866.000
301.258;  -86.575; -812.000; -705.000
301.396;   -7.350;  104.000;  -41.000
301.534;  -26.375; -218.000; -293.000
301.672;  -83.950; -664.000; -521.000
301.810;  -65.225; -613.000; -545.000
301.948;   16.650;   53.000;  149.000
302.086;  235.175; -250.000;  -32.000
302.224;  261.675; -610.000; -585.000
302.362;  -54.675; -558.000; -622.000
302.500;  -86.750; -923.000; -893.000
302.638;   29.450;  128.000;  245.000
302.776;  -32.825; -352.000; -408.000
302.913;   20.275;  447.000;  236.000
303.051;  -37.800;  -86.000;  -23.000
303.189;   -4.750;   90.000;  118.000
303.327;  -53.275; -341.000; -256.000
303.465;  -97.375; -832.000; -588.000
303.603;  -93.450; -805.000; -604.000
303.740;   46.275;  417.000;  241.000
303.878;  -79.375; -800.000; -759.000
304.016; -115.975; -915.000; -790.000
304.154; -153.525;-1123.000;-1152.000
304.291;  -68.900; -505.000; -554.000
304.429;   -0.825;  102.000;   74.000
304.567; -143.275; -908.000; -893.000
304.705;  -71.000; -408.000; -515.000
304.842;  -23.300; -616.000; -540.000
304.980;   12.400;  215.000;   35.000
305.118;  -37.150; -367.000; -365.000
305.255; -121.875; -945.000; -927.000
305.393;   10.550;  178.000;  239.000
305.531; -135.300;-1173.000; -956.000
305.668;  -96.800; -663.000; -582.000
305.806;    1.475; -358.000; -439.000
305.943;  -10.450; -629.000; -637.000
306.081;  -27.125; -378.000; -267.000
306.219; -112.500; -863.000; -748.000
306.356;    5.375;  158.000;   27.000
306.494;  106.450;  981.000;  761.000
306.631;  -11.225;  -11.000;  -55.000
306.769;  -40.175; -613.000; -485.000
306.906;  -37.925; -284.000; -258.000
307.044;  -57.700; -473.000; -488.000
307.181;  -74.125; -410.000; -332.000
307.319;    9.000;  112.000;   87.000
307.456; -168.575;-1191.000;-1153.000
307.594; -125.925; -980.000; -727.000
307.731;  -35.175; -371.000; -164.000
307.868;  -15.550;  -15.000;   20.000
308.006; -127.100; -961.000; -847.000
308.143;  -75.525; -618.000; -330.000
308.281;   40.300;  -37.000; -254.000
308.418;  -63.875; -748.000; -640.000
308.555;  -74.125; -400.000; -250.000
308.693;  -78.350; -577.000; -573.000
308.830;  -93.750; -712.000; -657.000
308.967;  -19.525; -215.000;  -95.000
309.105;  -29.650; -507.000; -396.000
309.242;   -3.600; -468.000; -367.000
309.379;   57.550; -577.000; -655.000
309.517; -106.400; -936.000; -948.000
309.654; -101.500; -910.000; -734.000
309.791;  -82.125; -662.000; -580.000
309.928; -115.650; -977.000; -914.000
310.065;  120.800;  819.000;  697.000
310.203;  -82.075; -825.000; -850.000
310.340;  -48.700; -465.000; -321.000
310.477;  -85.750; -412.000; -516.000
310.614;  -52.375; -383.000; -473.000
310.751;  -70.150; -427.000; -518.000
310.889;  -31.350;    1.000;   11.000
311.026; -151.250;-1161.000; -939.000
311.163;  -43.225; -386.000; -380.000
311.300;  -84.425; -512.000; -479.000
311.437;  -69.750; -658.000; -619.000
311.574; -152.925;-1226.000; -985.000
311.711;  -65.375; -595.000; -433.000
311.848;  -44.100; -380.000; -388.000
311.985;   -2.875;  270.000;   93.000
312.122; -116.125; -932.000; -762.000
312.259; -124.975; -941.000; -994.000
312.396;  -74.450; -508.000; -551.000
312.533;  -81.325; -812.000; -790.000
312.670; -132.425;-1070.000; -898.000
312.807;  -51.200; -352.000; -367.000
312.944;  -66.175; -513.000; -611.000
313.081;  -22.075; -150.000; -415.000
313.218;  -94.775;-1111.000; -867.000
313.355;   -0.225; -531.000; -449.000
313.492;  -19.425; -455.000; -292.000
313.629;  118.325;  815.000;  735.000
313.766; -156.625;-1176.000;-1008.000
313.902;  -29.325; -186.000;   21.000
314.039;  -47.200; -372.000; -289.000
314.176;   26.450;  286.000;  192.000
314.313;  -66.900; -569.000; -473.000
314.450;  -90.275; -788.000; -684.000
314.587;  -64.225; -468.000; -480.000
314.723;   13.075;  -78.000;  130.000
314.860;   30.925;  318.000;  332.000
314.997;   31.075;  223.000;  142.000
315.134;  -31.125; -385.000; -368.000
315.270;  -35.900; -480.000; -496.000
315.407; -100.650;-1094.000; -967.000
315.544;  -47.225; -657.000; -538.000
315.681;  -54.775; -681.000; -565.000
315.817;   30.325; -133.000; -176.000
315.954;   41.925; -613.000; -392.000
316.091; -125.175;-1045.000;-1023.000
316.227;  -27.800;  -71.000; -179.000
316.364;  -15.475;   23.000;    6.000
316.500;  -46.625; -113.000; -300.000
316.637;  -56.025; -181.000; -302.000
316.774;  -88.975; -625.000; -358.000
316.910;  -97.125; -598.000; -629.000
317.047;  -77.850; -487.000; -351.000
317.183;  -62.300; -435.000; -566.000
317.320;   18.700; -367.000; -321.000
317.456;  -58.150; -733.000; -805.000
317.593;  -95.350; -598.000; -641.000
317.729;   -8.200;  168.000;  -67.000
317.866; -198.175;-1434.000;-1285.000
318.002;  -98.575; -708.000; -948.000
318.139; -121.025; -883.000; -867.000
318.275; -119.950;-1003.000; -738.000
318.412;  -79.550; -517.000; -336.000
318.548;  -84.475; -751.000; -720.000
318.685; -116.900; -985.000; -888.000
318.821;  -95.100; -762.000; -735.000
318.957;  -33.875;   34.000;  -23.000
319.094;   27.625;  297.000;  154.000
319.230;  -85.850; -756.000; -742.000
319.367;  -11.625; -471.000; -520.000
319.503;  -14.825; -538.000; -436.000
319.639; -105.300; -877.000; -793.000
319.775; -103.475; -750.000; -685.000
319.912;  -64.475; -424.000; -519.000
320.048; -109.200;-1184.000;-1184.000
320.184;   84.900;   59.000;   70.000
320.321;  -60.750; -497.000; -467.000
320.457;   58.925;  475.000;  662.000
320.593;  -65.925; -375.000; -382.000
320.729; -110.875; -732.000; -734.000
320.866;  -90.000; -577.000; -635.000
321.002;  -99.750; -759.000; -809.000
321.138;  -44.000; -135.000; -211.000
321.274;   10.650; -148.000; -115.000
321.410;  -72.400; -585.000; -353.000
321.546; -103.175;-1011.000; -911.000
321.683;   15.675;  400.000;  185.000
321.819;  -30.575;  -48.000; -117.000
321.955; -123.925; -743.000; -722.000
322.091;  -76.800; -585.000; -540.000
322.227;  -40.875; -382.000; -202.000
322.363;  -54.425; -320.000; -215.000
322.499;  -59.125; -343.000; -331.000
322.635;   98.675;  636.000;  443.000
322.771;  -25.075; -139.000;   12.000
322.907;   30.025;  129.000;  327.000
323.043;  -40.075; -115.000; -206.000
323.179;  -59.750; -394.000; -363.000
323.315;  -41.400; -401.000; -371.000
323.451;   11.700; -328.000; -236.000
323.587;   40.400;  -60.000;  -77.000
323.723;  -45.650; -682.000; -601.000
323.859;  -30.100; -258.000;  -76.000
323.995;  -52.800; -467.000; -409.000
324.131; -141.100; -967.000; -892.000
324.267;  -49.275; -254.000; -276.000
324.402; -142.075; -960.000; -983.000
324.538;  -42.100; -279.000; -104.000
324.674;   -4.550;  164.000;   77.000
324.810;   51.400;  226.000;  308.000
324.946;  -45.575; -810.000; -658.000
325.082;  -73.100; -568.000; -475.000
325.217;  -23.425;  -62.000;   16.000
325.353; -115.825; -764.000; -659.000
325.489;  -88.950; -540.000; -506.000
325.625;  -83.025; -579.000; -525.000
325.760;   68.425;  517.000;  376.000
325.896;   -6.675; -515.000; -702.000
326.032;  -55.425; -403.000; -352.000
326.168;  -64.450; -462.000; -369.000
326.303;  -67.200; -352.000; -461.000
326.439;  -25.700; -336.000; -276.000
326.575;  -15.275; -190.000;  -29.000
326.710;  -30.425; -156.000;  -30.000
326.846;  -14.875;  146.000;  103.000
326.982;  -97.875; -530.000; -548.000
327.117;  -78.125; -481.000; -442.000
327.253;  -81.550; -745.000; -742.000
327.388; -165.000;-1137.000;-1153.000
327.524;  -86.225; -811.000; -578.000
327.659;  -32.600;  -58.000;  -22.000
327.795;  -23.350;   69.000;   45.000
327.931;  -76.650; -723.000; -499.000
328.066;  -41.325; -417.000; -276.000
328.202;  -34.750;   12.000; -129.000
328.337;   85.525;  957.000;  713.000
328.473;   16.625;  -12.000;  -74.000
328.608;  -38.325; -256.000; -267.000
328.743; -106.575; -799.000; -664.000
328.879;    8.200;  214.000;  114.000
329.014;  -34.525; -102.000; -122.000
329.150;  -90.400; -358.000; -483.000
329.285;  -91.200; -465.000; -466.000
329.421;  -60.200; -548.000; -246.000
329.556;  -17.200;  -36.000;   85.000
329.691; -109.650; -633.000; -615.000
329.827;  -87.950; -626.000; -480.000
329.962;  -47.575;  131.000; -301.000
330.097;  -73.375; -673.000; -585.000
330.233;  -52.750; -410.000; -223.000
330.368; -135.150; -839.000; -628.000
330.503;  -18.175;    3.000;   98.000
330.638;  -29.975;  -93.000; -125.000
330.774;  -98.625; -609.000; -530.000
330.909;  -50.250; -434.000; -244.000
331.044; -105.200; -714.000; -708.000
331.179; -161.575;-1217.000;-1109.000
331.315;  -18.100;   77.000;   20.000
331.450;    7.525;  157.000;  285.000
331.585;  -94.450; -805.000; -706.000
331.720;  -80.775; -510.000; -460.000
331.855;    3.250;  -35.000; -102.000
331.990;  400.575;   62.000;  138.000
332.126;  207.150; -110.000;   71.000
332.261;   -3.325; -379.000; -265.000
332.396;    9.700; -135.000; -242.000
332.531;  -57.475;-1074.000;-1031.000
332.666;   89.925; -519.000; -363.000
332.801;  -94.175; -726.000; -807.000
332.936;  -31.850; -192.000; -122.000
333.071; -143.500; -870.000; -817.000
333.206;    7.375;  307.000;  379.000
333.341;   20.400;  344.000;  418.000
333.476;  -93.275; -627.000; -623.000
333.611;  -46.050; -251.000; -173.000
333.746;  -44.450; -381.000; -464.000
333.881; -135.000; -973.000; -935.000
334.016; -126.000; -936.000; -917.000
334.151; -130.675; -746.000; -702.000
334.286;    6.875;  152.000;  186.000
334.421;   -8.950; -125.000; -178.000
334.556;  -76.250; -611.000; -567.000
334.690;  -82.900; -631.000; -577.000
334.825;   49.350;  381.000;   83.000
334.960;  -54.050; -285.000; -413.000
335.095;    5.050;  135.000;  -91.000
335.230;  -86.800; -722.000; -738.000
335.365; -115.150;-1084.000; -990.000
335.499; -124.200;-1108.000;-1037.000
335.634;   17.625;    9.000;  534.000
335.769;  -89.800; -755.000; -720.000
335.904;  -45.250; -603.000; -561.000
336.038;  -32.700; -735.000; -657.000
336.173;  -97.925;-1206.000;-1194.000
336.308;   22.475; -116.000; -189.000
336.443;   54.250; -544.000; -634.000
336.577;  -41.150; -936.000; -787.000
336.712;   81.375;   -4.000;  -12.000
336.847;  -14.050; -724.000; -607.000
336.981;   78.625; -272.000; -208.000
337.116;  346.450;  615.000;  501.000
337.250;  160.300; -434.000; -421.000
337.385;  448.325; -297.000; -208.000
337.520;  214.500; -632.000; -603.000
337.654;  -29.200; -215.000; -126.000
337.789; -142.375; -989.000; -933.000
337.923;  -44.675; -104.000; -205.000
338.058; -106.725; -673.000; -738.000
338.192;  -60.725; -611.000; -488.000
338.327;  -19.475;  -18.000; -155.000
338.461;  -69.875; -299.000; -469.000
338.596;  -88.500; -780.000; -638.000
338.730; -102.525; -767.000; -803.000
338.865;  137.675;  -46.000; -140.000
338.999;    5.450; -846.000; -702.000
339.134;   -3.000; -634.000; -536.000
339.268;   26.750; -741.000; -603.000
339.403;  542.375; -740.000; -775.000
339.537;  262.000; -894.000; -820.000
339.671;  -97.775; -829.000; -813.000
339.806;  -38.675; -556.000; -512.000
339.940;   34.900; -261.000; -235.000
340.074; -108.550; -685.000; -510.000
340.209;  -51.175; -351.000; -230.000
340.343;  -98.475; -517.000; -573.000
340.477;  109.575;  998.000; 1036.000
340.612;   -5.025;-1033.000; -900.000
340.746;  213.475; -199.000; -243.000
340.880; -111.300; -924.000; -785.000
341.014;  -29.800;  -45.000; -154.000
341.149; -119.575; -756.000; -718.000
341.283; -123.275; -839.000; -754.000
341.417; -137.175;-1124.000; -938.000
341.551;  -34.700; -768.000; -708.000
341.685;  -64.125; -633.000; -611.000
341.820;  -58.175; -562.000; -493.000
341.954;  -57.775; -218.000; -349.000
342.088; -159.900;-1102.000;-1019.000
342.222;   37.300;  565.000;  618.000
342.356;  -81.000; -395.000; -335.000
342.490; -110.875; -880.000; -841.000
342.624;  -54.050; -339.000; -242.000
342.758;  -43.225; -364.000; -312.000
342.892; -102.575; -710.000; -585.000
343.026;  -60.600;  -58.000; -116.000
343.160;  -75.175; -426.000; -376.000
343.294;  -93.300; -474.000; -337.000
343.428;  -82.300; -488.000; -448.000
343.562;  -28.175; -172.000;  -23.000
343.696;  -58.975; -385.000; -314.000
343.830;  -57.400; -362.000; -356.000
343.964;  -30.500; -231.000; -168.000
344.098;  341.625;  199.000;   70.000
344.232;  296.050; -266.000; -127.000
344.366;   71.750; -567.000; -453.000
344.500;  -45.650; -665.000; -744.000
344.634;  -32.975; -324.000; -164.000
344.768;  -59.275; -531.000; -341.000
344.902;  -20.500;  278.000;  256.000
345.035;  -83.550; -556.000; -496.000
345.169; -138.000; -933.000; -656.000
345.303;  -60.850; -308.000; -482.000
345.437; -105.100; -826.000; -717.000
345.571;  -79.075; -675.000; -594.000
345.704;  -72.950; -309.000; -532.000
345.838;  -26.925; -331.000; -284.000
345.972;  -69.625; -543.000; -495.000
346.106;  235.975; -179.000; -190.000
346.239;  462.600; -312.000; -243.000
346.373;  -12.575; -343.000; -302.000
346.507; -163.425; -950.000; -962.000
346.640;   16.600;  -30.000;   13.000
346.774;  -93.075; -650.000; -797.000
346.908;  -45.700; -138.000;  -11.000
347.041; -114.425; -646.000; -593.000
347.175;   -4.475;  259.000;   27.000
347.309; -110.675; -698.000; -628.000
347.442; -119.350; -883.000; -732.000
347.576;  140.950;  670.000;  668.000
347.709;   35.250; -123.000;  -52.000
347.843; -139.125; -933.000; -825.000
347.976;   25.600;  235.000;  294.000
348.110; -176.350;-1268.000;-1186.000
348.243; -107.125; -679.000; -772.000
348.377;    1.975;  -26.000;   60.000
348.510;   40.750;  403.000;  540.000
348.644;  -65.175;  -37.000; -159.000
348.777;  -14.000;  180.000;  191.000
348.911;  -57.825; -142.000; -112.000
349.044;   73.350;  471.000;  448.000
349.178;  -25.650;-1069.000;-1006.000
349.311;   81.125;  141.000;  255.000
349.444;   42.575; -927.000; -813.000
349.578;  -30.525; -347.000; -200.000
349.711; -139.375; -959.000; -862.000
349.845;  -68.100; -661.000; -591.000
349.978; -159.600;-1224.000;-1137.000
350.111;  -97.125; -546.000; -612.000
350.244;  -98.550; -596.000; -700.000
350.378;  -65.800; -392.000; -393.000
350.511;  -76.250; -393.000; -426.000
350.644; -103.950; -808.000; -806.000
350.778;    1.900;  168.000;  104.000
350.911;  -20.325;  134.000;  140.000
351.044;  -94.125; -685.000; -615.000
351.177;  -64.075; -321.000; -281.000
351.310;  -37.750;    3.000; -131.000
351.444; -119.575; -888.000; -788.000
351.577;   48.425;  140.000;   90.000
351.710;   58.100;  593.000;  417.000
351.843;  -56.900; -165.000;  -77.000
351.976;  -11.000;  149.000;  -79.000
352.109;  -97.625; -621.000; -612.000
352.242;  -75.075; -464.000; -419.000
352.376;  -91.550; -580.000; -636.000
352.509;   25.000; -437.000; -356.000
352.642;  -79.925; -654.000; -604.000
352.775;   -1.100; -141.000;  -98.000
352.908; -122.850; -933.000; -904.000
353.041; -123.475; -814.000; -824.000
353.174;  -52.525; -551.000; -424.000
353.307; -100.625; -753.000; -764.000
353.440;   54.050;  541.000;  453.000
353.573; -100.425; -957.000;-1008.000
353.706;  -44.425; -384.000; -558.000
353.839;  -29.600; -264.000; -220.000
353.971;  -94.400; -657.000; -512.000
354.104; -111.100; -896.000; -835.000
354.237;  -72.500; -627.000; -662.000
354.370; -105.325; -846.000; -879.000
354.503; -182.525;-1231.000;-1308.000
354.636;  -30.525; -529.000; -348.000
354.769; -124.400; -937.000; -860.000
354.902;  -34.250; -230.000; -139.000
355.034;  -26.600; -164.000; -220.000
355.167;   -2.050; -262.000; -162.000
355.300;  -79.475;-1061.000; -880.000
355.433; 1456.700;  -71.000;  -14.000
355.565; 2240.825; -402.000; -384.000
355.698;  579.575; -356.000; -296.000
355.831;  -14.075; -882.000; -801.000
355.964;   33.225; -285.000; -170.000
356.096;  -76.200; -856.000; -843.000
356.229;   -7.850; -523.000; -530.000
356.362;  513.350; -373.000; -266.000
356.494;  919.125; -229.000; -162.000
356.627;  339.125;  269.000;  377.000
356.760;  886.675;  120.000;   53.000
356.892; 1500.600; -286.000; -601.000
357.025;  359.350;  403.000;  389.000
357.157;  260.175; -167.000; -179.000
357.290; 1181.300; -856.000; -713.000
357.423;  361.400; -667.000; -556.000
357.555;  120.800; -217.000; -228.000
357.688;  139.800; -483.000; -364.000
357.820;  212.900; -870.000; -877.000
357.953; 1774.250; -563.000; -589.000
358.085;  265.175; -632.000; -612.000
358.218;  173.250;-1131.000; -932.000
358.350;   24.425;  -58.000;  312.000
358.483; -164.600;-1300.000;-1187.000
358.615; -130.475;-1182.000;-1078.000
358.747; -151.550;-1187.000;-1058.000
358.880;  -49.475; -810.000; -744.000
359.012;  -32.900; -376.000; -202.000
359.145;  -75.100; -480.000; -511.000
359.277;  -47.300; -962.000; -913.000
359.409; 1476.600;  536.000;  231.000
359.542;  335.100; -738.000; -688.000
359.674;   16.250;   46.000;   13.000
359.806;  -75.150; -565.000; -438.000
359.939;  -49.500; -617.000; -516.000
360.071;   24.275; -583.000; -579.000
360.203;  -29.425; -411.000; -364.000
360.335;   24.675;  164.000;  -16.000
360.468;   96.050; -249.000; -307.000
360.600; 1454.775; -547.000; -454.000
360.732; 4160.125; -546.000; -423.000
360.864;  637.825;-1216.000;-1044.000
360.996;   73.000; -516.000; -554.000
361.129;  -47.825; -389.000; -598.000
361.261;   -7.900;  110.000; -113.000
361.393;  -55.350; -252.000; -214.000
361.525;   -9.250;   94.000;  244.000
361.657; -114.700; -821.000; -703.000
361.789;  -22.350; -139.000; -155.000
361.921;  -48.300; -642.000; -593.000
362.053;  107.275;  524.000;  541.000
362.185;   -0.450;  288.000;   72.000
362.318; -113.125; -709.000; -705.000
362.450;   41.275;  294.000;  444.000
362.582;  -81.275; -913.000; -870.000
362.714;  -66.175; -353.000; -332.000
362.846;  -95.675; -606.000; -490.000
362.978; -145.100; -941.000; -811.000
363.109;  -22.150; -161.000; -260.000
363.241;  155.750; -739.000; -749.000
363.373;  629.100; -649.000; -564.000
363.505; 1025.225; -186.000;  -91.000
363.637;  239.125; -787.000; -601.000
363.769; -132.150;-1067.000;-1080.000
363.901;  -85.550; -596.000; -654.000
364.033; -146.425;-1103.000;-1062.000
364.165;  -43.500; -283.000; -283.000
364.296;   77.325; -316.000; -177.000
364.428;  184.100;-1344.000;-1220.000
364.560;  -63.125; -679.000; -661.000
364.692;  -81.075; -738.000; -835.000
364.824;    1.875; -588.000; -456.000
364.955;  489.600; -402.000; -564.000
365.087; 1648.825;-1097.000; -852.000
365.219;   99.550; -686.000; -816.000
365.351;  -63.125; -526.000; -572.000
365.482;   16.500;  300.000;  240.000
365.614;  -61.075; -402.000; -314.000
365.746; -109.125; -729.000; -752.000
365.877; -100.600; -706.000; -672.000
366.009;  407.550;  -35.000;  -62.000
366.141;  -31.900;-1249.000;-1134.000
366.272; -114.975; -803.000; -719.000
366.404; -125.450;-1005.000; -874.000
366.535;  -23.900; -139.000;  -12.000
366.667; -116.225; -644.000; -649.000
366.799;   15.450;  353.000;  203.000
366.930; -132.975; -862.000; -996.000
367.062;  196.125; -639.000; -613.000
367.193;  335.150; -872.000; -842.000
367.325;  -58.300; -580.000; -684.000
367.456;    9.200; -246.000;   31.000
367.588;  259.475; -371.000; -318.000
367.719;   33.500;  -44.000;  -45.000
367.851;  -47.750; -222.000; -241.000
367.982; -115.725; -875.000; -732.000
368.113;  -22.850; -475.000; -358.000
368.245; -166.150; -960.000; -841.000
368.376;  -43.750; -254.000; -302.000
368.508;  -60.350; -188.000; -263.000
368.639; -164.075;-1166.000;-1034.000
368.770;  -86.775; -670.000; -589.000
368.902; -115.950; -836.000; -926.000
369.033; -126.650; -906.000; -855.000
369.164;  -40.750; -720.000; -653.000
369.296; -113.475; -452.000; -601.000
369.427;  -32.075; -209.000; -144.000
369.558;  -75.575; -593.000; -377.000
369.689;  -86.225; -721.000; -569.000
369.821; -146.050; -951.000; -845.000
369.952;  -37.425;   42.000; -108.000
370.083;  -68.475; -229.000; -108.000
370.214; -119.700; -735.000; -650.000
370.345;  -21.550;   65.000;   81.000
370.477; -125.350; -810.000; -790.000
370.608;   37.075; -328.000; -264.000
370.739; -130.925;-1233.000;-1292.000
370.870; -113.825;-1102.000; -923.000
371.001;  -18.775; -378.000; -467.000
371.132; -105.625; -754.000; -735.000
371.263;  -39.100;  -42.000; -148.000
371.394; -151.025; -841.000; -748.000
371.525;    2.500;  345.000;  225.000
371.657; -124.250; -808.000; -670.000
371.788;   26.575;  103.000;  199.000
371.919;   24.050; -384.000; -304.000
372.050; 1479.450;  -91.000; -156.000
372.181;  454.000; -188.000; -294.000
372.311;  100.000;   42.000; -127.000
372.442;  -37.850; -457.000; -451.000
372.573;  -54.025; -444.000; -340.000
372.704; -146.600;-1008.000; -980.000
372.835;  -29.975; -228.000; -289.000
372.966;  -96.375; -646.000; -554.000
373.097; -103.025; -575.000; -711.000
373.228;  -85.800; -717.000; -542.000
373.359;  -31.200; -824.000; -536.000
373.490;  197.650; -881.000; -727.000
373.620;  309.300;-1001.000; -803.000
373.751;  627.950; -332.000; -396.000
373.882;  261.625; -663.000; -733.000
374.013;  -16.525; -449.000; -262.000
374.143;  -76.500; -581.000; -659.000
374.274; -124.575; -987.000; -908.000
374.405;   67.750; -388.000; -276.000
374.536;  117.875; -526.000; -387.000
374.666;  335.125; -759.000; -807.000
374.797;   23.875; -817.000; -868.000
374.928;  229.325; -710.000; -560.000
375.058;  252.200; -535.000; -500.000
375.189;   18.925;  -59.000;  -93.000
375.320; -135.775; -928.000;-1034.000
375.450;  -54.350; -625.000; -616.000
375.581;  -46.975; -526.000; -436.000
375.712;  -42.450; -574.000; -250.000
375.842;   20.725; -438.000; -415.000
375.973;  -12.250; -554.000; -513.000
376.103; -107.450; -665.000; -648.000
376.234;  -92.400; -531.000; -552.000
376.364; -131.050; -944.000; -867.000
376.495;  136.925;  925.000;  529.000
376.625;  -73.525; -472.000; -485.000
376.756;  -64.650; -709.000; -678.000
376.886; -149.250;-1178.000;-1026.000
377.017;  130.725;-1048.000;-1061.000
377.147;  644.675; -786.000; -782.000
377.278;   63.200;  174.000;  228.000
377.408; -129.800; -801.000; -815.000
377.538; -106.275; -707.000; -693.000
377.669;  -80.050; -537.000; -613.000
377.799; -107.975; -645.000; -635.000
377.929;  -94.800; -610.000; -428.000
378.060; -138.075; -781.000; -847.000
378.190;  -37.425; -726.000; -531.000
378.320;  -43.275; -401.000; -406.000
378.451;  -34.875; -131.000;  -22.000
378.581;  -36.000;  -67.000; -110.000
378.711;   87.300; 1035.000;  866.000
378.841;  -78.150; -533.000; -675.000
378.972; -124.175; -871.000; -751.000
379.102;  -60.600; -652.000; -579.000
379.232;  -49.875; -126.000;  -73.000
379.362; -135.450;-1001.000; -885.000
379.492;  -58.850; -373.000; -424.000
379.623;   23.275;    0.000;  111.000
379.753; -125.850;-1107.000; -974.000
379.883;   70.125;   59.000;  156.000
380.013;  -88.950;-1081.000;-1017.000
380.143; -139.575;-1097.000;-1056.000
380.273; -108.650; -985.000; -861.000
380.403;   -1.825; -344.000; -257.000
380.533;  -40.175; -651.000; -664.000
380.663;    7.050;  173.000;  128.000
380.793; -153.400;-1027.000;-1074.000
380.923;  -48.700; -103.000;  -34.000
381.053; -107.125; -613.000; -623.000
381.183;  -50.300; -106.000; -248.000
381.313;  -67.525; -656.000; -470.000
381.443;  -54.850; -692.000; -473.000
381.573;  -20.350; -402.000; -409.000
381.703;  -77.000;-1249.000;-1095.000
381.833; -194.600;-1454.000;-1336.000
381.963;   16.975; -134.000;  -87.000
382.093;  464.550; -925.000; -909.000
382.223;   91.950; -713.000; -602.000
382.353;  -97.725; -801.000; -608.000
382.482;   16.525;-1091.000; -964.000
382.612;  210.775; -872.000; -644.000
382.742;   85.200; -695.000; -622.000
382.872;  -13.300; -565.000; -551.000
383.002;    9.650;  347.000; -132.000
383.131;  -35.900; -226.000; -160.000
383.261;  -65.700; -706.000; -768.000
383.391;  298.075; -552.000; -377.000
383.521; 4959.925;  451.000;  263.000
383.650; 1461.600; -947.000; -904.000
383.780;   35.350; -783.000; -656.000
383.910;   77.400;  880.000;  802.000
384.039;  -98.875; -794.000; -656.000
384.169;  -78.600;-1205.000;-1017.000
384.299;  -95.850; -650.000; -662.000
384.428; -124.075; -764.000; -680.000
384.558;  -74.400; -308.000; -275.000
384.687;  -72.675; -414.000; -334.000
384.817;  -23.900;   75.000;   -2.000
384.947;  -50.475; -234.000; -141.000
385.076;  152.675;  982.000;  912.000
385.206;   46.475;  369.000;  480.000
385.335;  -70.150; -549.000; -417.000
385.465; -119.600; -655.000; -663.000
385.594;   -3.600;  -53.000;  -44.000
385.724;   49.700; -868.000; -838.000
385.853;   -3.250; -296.000; -270.000
385.982;  425.425; -743.000; -787.000
386.112;  770.475;-1052.000; -871.000
386.241;    6.300; -307.000; -312.000
386.371;  -23.450; -174.000;  -87.000
386.500;  -68.475; -825.000; -789.000
386.629;  -16.450; -874.000; -817.000
386.759;   76.950;  -43.000;   68.000
386.888;  -37.800; -170.000; -250.000
387.017; -118.325; -648.000; -620.000
387.147; -107.975; -771.000; -798.000
387.276;  -56.475; -410.000; -397.000
387.405;  -67.475; -398.000; -342.000
387.535;  -72.450; -452.000; -361.000
387.664;  -65.150; -692.000; -620.000
387.793;  -24.250; -198.000; -113.000
387.922;  158.575;  255.000;  200.000
388.052;  -64.750; -576.000; -423.000
388.181;  -76.650; -342.000; -472.000
388.310;  -95.250; -889.000; -710.000
388.439; -123.400; -749.000; -742.000
388.568;   50.225;  365.000;  244.000
388.697;  308.725; -756.000; -653.000
388.826;    5.950; -768.000; -666.000
388.956;  -49.950; -285.000; -307.000
389.085;  -57.675; -347.000; -287.000
389.214; -139.050; -842.000; -872.000
389.343;  -79.925; -645.000; -413.000
389.472;  531.425;  126.000;  149.000
389.601;  616.575;   91.000;    0.000
389.730;  -26.800; -568.000; -687.000
389.859;   15.700;  226.000;   46.000
389.988;   37.350; -423.000; -408.000
390.117;   37.800; -168.000; -146.000
390.246;  -62.925; -331.000; -320.000
390.375;  -61.550; -673.000; -626.000
390.504;  -95.100; -703.000; -621.000
390.633; -128.700; -672.000; -726.000
390.761; -105.250; -732.000; -645.000
390.890;  -35.875;   -4.000; -130.000
391.019;  -65.125; -421.000; -441.000
391.148; -153.800; -826.000; -855.000
391.277;  -98.425; -576.000; -493.000
391.406; -123.200; -821.000; -805.000
391.534;   -7.900;  574.000; -301.000
391.663; -111.975; -583.000; -645.000
391.792; -114.850; -673.000; -701.000
391.921;  -17.825;   -3.000;   15.000
392.050;   -4.725; -287.000; -228.000
392.178; -134.200;-1206.000;-1061.000
392.307;  -26.625; -758.000; -712.000
392.436;  -47.000; -427.000; -641.000
392.564;   -4.000;  166.000;   -6.000
392.693; -117.450; -860.000; -682.000
392.822;   14.650; -529.000; -534.000
392.950;  -37.825; -880.000; -714.000
393.079;   72.150; -188.000; -328.000
393.208;  -33.975; -488.000; -511.000
393.336;  -41.425; -170.000; -145.000
393.465;  -68.450; -317.000; -199.000
393.593;  -31.125;   62.000;   79.000
393.722; -160.050;-1121.000; -916.000
393.850;  -32.850; -188.000;  -61.000
393.979; -159.075; -926.000; -805.000
394.107;  -81.775; -517.000; -537.000
394.236;  -61.300; -570.000; -507.000
394.364;  104.075;  383.000;  206.000
394.493;   89.925; -911.000; -767.000
394.621;   -8.225; -955.000; -916.000
394.750; 1136.050; -873.000; -923.000
394.878; 4414.925; -247.000; -149.000
395.007; 6480.925; -721.000; -807.000
395.135;  576.525; -790.000; -721.000
395.263;  -50.250;-1038.000;-1040.000
395.392;   -0.375;  -25.000; -107.000
395.520; -127.550; -818.000; -679.000
395.648; -131.175; -865.000; -915.000
395.777;  -89.800; -366.000; -405.000
395.905;  -87.475; -449.000; -564.000
396.033;   -7.200;  217.000;  172.000
396.162;  148.525; -399.000; -453.000
396.290;  175.775;  -17.000;   -2.000
396.418;  -54.275; -555.000; -514.000
396.546;  -85.550; -571.000; -466.000
396.674; -134.625; -850.000; -878.000
396.803;  -23.875;  -72.000;  -23.000
396.931;  -39.350; -179.000; -199.000
397.059; -126.875;-1026.000; -989.000
397.187; -150.175;-1026.000; -975.000
397.315; -144.275; -884.000; -649.000
397.443; -119.150; -592.000; -443.000
397.572; -109.200; -578.000; -424.000
397.700;  -86.625; -607.000; -614.000
397.828;  -37.375;  120.000;  -90.000
397.956;  -45.800; -508.000; -478.000
398.084;  -40.950; -767.000; -626.000
398.212;  -11.975;  137.000;  124.000
398.340;  -40.450;  -56.000;  159.000
398.468;  -59.700; -390.000; -169.000
398.596; -160.550; -993.000; -953.000
398.724; -124.350; -762.000; -767.000
398.852; -170.950;-1024.000; -976.000
398.980;  -80.200; -560.000; -560.000
399.108; -107.925; -982.000; -735.000
399.236;  -23.050;   13.000;    8.000
399.363;   -3.900;  222.000;  196.000
399.491;  -76.175; -404.000; -398.000
399.619; -134.275; -829.000; -800.000
399.747; -117.875; -859.000; -771.000
399.875;   25.175;  220.000;  234.000
400.003;  -75.475; -359.000; -284.000
400.130; -105.900; -421.000; -341.000
400.258;  -55.900;  -83.000;   38.000
400.386;  -72.100; -352.000; -168.000
400.514; -101.675; -526.000; -587.000
400.641; -148.300; -928.000; -802.000
400.769; -151.925; -979.000; -888.000
400.897; -114.200; -838.000; -793.000
401.025;  -59.875; -166.000; -152.000
401.152;  -12.075;  220.000;   38.000
401.280;  -88.225; -430.000; -429.000
401.408; -129.950; -712.000; -576.000
401.535; -127.675; -735.000; -758.000
401.663; -190.875;-1134.000;-1054.000
401.790; -110.425; -514.000; -525.000
401.918;   31.850;  436.000;  405.000
402.046;  -31.575;  134.000;  122.000
402.173;  -49.725;  -18.000;    7.000
402.301;  -98.275; -519.000; -397.000
402.428;   17.900;  528.000;  383.000
402.556; -151.600;-1188.000; -913.000
402.683;  -51.575;  -20.000;   -1.000
402.811;  -44.725;  -37.000; -206.000
402.938;  -31.400;   20.000;   27.000
403.066;   12.650; -574.000; -558.000
403.193;  116.850;  299.000;  239.000
403.321;   63.050; -396.000; -574.000
403.448;  122.775;   83.000;   27.000
403.575;   28.200;  -90.000;  -46.000
403.703;  -91.750; -732.000; -557.000
403.830;  -66.350; -531.000; -496.000
403.957; -125.125;-1117.000;-1023.000
404.085;   17.500;  -61.000; -172.000
404.212;   99.600;  -50.000;   63.000
404.339;  418.125; -566.000; -306.000
404.467; 8897.775; -612.000; -524.000
404.594; 5456.150; -287.000; -227.000
404.721;  968.100; -869.000; -764.000
404.848;   97.825; -113.000; -202.000
404.976; -104.575; -856.000; -783.000
405.103;  -20.050;  -14.000;  -82.000
405.230;   -8.350;  190.000;  226.000
405.357;   36.950;  117.000;   44.000
405.484;  402.375;  -49.000;    5.000
405.612;  104.300; -548.000; -563.000
405.739;  -54.575; -488.000; -243.000
405.866;   63.850;  669.000;  385.000
405.993;  -64.200; -398.000; -102.000
406.120; -149.425; -801.000; -887.000
406.247;  -95.200; -323.000; -342.000
406.374;  113.625;  540.000;  629.000
406.501;  -71.175; -632.000; -702.000
406.628; -108.200; -621.000; -589.000
406.755; -129.450; -803.000; -620.000
406.882;  -74.225; -228.000; -277.000
407.009; -122.275; -719.000; -628.000
407.136;  -47.725; -480.000; -401.000
407.263;  -65.900; -939.000; -829.000
407.390;  -96.825; -692.000; -614.000
407.517; -196.000;-1139.000;-1187.000
407.644;  -71.075; -332.000; -256.000
407.771;  -87.950; -249.000; -287.000
407.898;  -19.425;  168.000;  328.000
408.025;  -90.950; -421.000; -313.000
408.151;  -26.600;   82.000;  153.000
408.278;  -81.500; -267.000; -216.000
408.405; -145.025; -931.000; -899.000
408.532; -108.100; -549.000; -542.000
408.659; -122.950; -677.000; -648.000
408.785; -199.725;-1298.000;-1170.000
408.912;  -83.025; -412.000; -296.000
409.039; -128.025; -610.000; -686.000
409.166; -113.700; -591.000; -555.000
409.292; -109.625; -571.000; -534.000
409.419; -121.625; -665.000; -649.000
409.546;  -83.800; -431.000; -192.000
409.672; -113.075; -713.000; -545.000
409.799;  -47.000;  -36.000;   34.000
409.926;  -54.750; -180.000; -179.000
410.052; -184.950;-1127.000;-1091.000
410.179;  -87.075; -368.000; -392.000
410.305; -101.300; -375.000; -493.000
410.432;  -42.750; -220.000; -333.000
410.558;  -86.550; -305.000; -380.000
410.685; -109.700; -688.000; -431.000
410.812; -115.700; -409.000; -588.000
410.938; -151.575; -964.000; -808.000
411.065; -116.450; -671.000; -645.000
411.191;  -51.200; -189.000; -174.000
411.317; -128.575; -823.000; -742.000
411.444;  -72.625; -317.000; -246.000
411.570;  -95.125; -339.000; -294.000
411.697; -127.450; -758.000; -752.000
411.823; -178.950; -989.000; -999.000
411.949;  -40.700;  -56.000;   17.000
412.076; -121.075; -539.000; -519.000
412.202; -136.975; -758.000; -757.000
412.329; -129.975; -798.000; -752.000
412.455; -130.525; -821.000; -657.000
412.581;  -37.250;  -15.000;  172.000
412.707; -111.225; -540.000; -457.000
412.834;   -4.050;  156.000;  219.000
412.960; -120.450; -785.000; -784.000
413.086; -113.425; -743.000; -701.000
413.212;   93.325;  604.000;  578.000
413.339; -104.900; -685.000; -701.000
413.465;  -61.025; -364.000; -310.000
413.591; -119.275; -757.000; -474.000
413.717;  -69.100; -358.000; -366.000
413.843; -132.075; -839.000; -861.000
413.969;  -68.225;  -47.000; -292.000
414.096; -107.025; -679.000; -679.000
414.222;  -23.950;  -33.000;   85.000
414.348;  -77.450; -652.000; -385.000
414.474;   -8.050;   38.000;  -52.000
414.600;  -17.550; -126.000; -144.000
414.726;  -19.850;  -96.000;  -55.000
414.852;  -50.000; -365.000; -342.000
414.978;   15.650;  104.000;  -18.000
415.104;   55.600;   38.000;   80.000
415.230;   26.175; -329.000; -330.000
415.356;   74.750; -409.000; -514.000
415.482;  221.375;   13.000;  -35.000
415.608;  396.300; -247.000; -323.000
415.734; 1328.775;   67.000;   38.000
415.860;27674.725; -875.000; -767.000
415.986;22628.900; -685.000; -607.000
416.111; 2099.975; -798.000; -652.000
416.237;  439.725; -424.000; -571.000
416.363; 1638.475; -765.000; -733.000
416.489; 6679.925; -324.000; -251.000
416.615;  922.025; -707.000; -742.000
416.741;   42.025; -677.000; -784.000
416.866;  -63.750; -673.000; -736.000
416.992; -109.450; -801.000; -818.000
417.118;  -37.600;  -41.000;  -80.000
417.244;  -84.150; -798.000; -531.000
417.369;  -86.525; -801.000; -612.000
417.495;  -18.575; -325.000; -254.000
417.621;  -89.025;-1015.000; -803.000
417.746;   12.075; -579.000; -572.000
417.872;   69.675; -254.000; -144.000
417.998;  117.000; -515.000; -530.000
418.123; 1534.925;-1073.000; -845.000
418.249; 8533.400; -512.000; -601.000
418.374; 1433.550; -916.000; -824.000
418.500;  227.700; -383.000; -482.000
418.626;  154.075;   70.000;  -59.000
418.751;  143.225; -549.000; -448.000
418.877;  307.975; -637.000; -643.000
419.002; 2552.675; -688.000; -560.000
419.128;19396.000; -930.000; -721.000
419.253; 5435.575; -967.000; -837.000
419.379;  740.575; -391.000; -338.000
419.504;  572.875;  325.000;  415.000
419.629;  812.800; -393.000; -212.000
419.755; 5304.600; -317.000; -254.000
419.880;34465.750;  -98.000;   67.000
420.006;17307.425; -280.000; -221.000
420.131;43359.400; -662.000; -775.000
420.256; 6922.150; -315.000; -316.000
420.382;  958.750; -665.000; -687.000
420.507;  167.025; -649.000; -778.000
420.632;   42.075; -337.000; -339.000
420.758;   53.250; -251.000; -425.000
420.883; -100.925; -876.000; -672.000
421.008; -114.950; -775.000; -619.000
421.133;  -99.875; -509.000; -467.000
421.259;  -61.550; -325.000; -259.000
421.384; -130.700; -834.000; -693.000
421.509; -115.450;-1052.000; -862.000
421.634;  230.750; -936.000; -820.000
421.759;  120.025; -359.000; -327.000
421.885; -102.200; -717.000; -656.000
422.010;  -97.375; -673.000; -542.000
422.135; -145.375; -695.000; -727.000
422.260;    6.450;  340.000;  280.000
422.385;  -63.750;   12.000;  -98.000
422.510;   -7.600;  151.000;  -26.000
422.635;  -16.750;  -87.000;  -43.000
422.760;  -19.150; -766.000; -791.000
422.885;    3.675;  -57.000;  -80.000
423.010;  -43.175; -112.000; -169.000
423.135; -100.500; -481.000; -561.000
423.260;  -43.200; -150.000; -245.000
423.385;   15.100;  476.000;  222.000
423.510;  -10.875;   71.000;  -22.000
423.635;    6.275;  133.000;   45.000
423.760;   39.250;  383.000;  328.000
423.885;   29.800;  336.000;  391.000
424.010;  -14.050;  -68.000;  -13.000
424.135;  -21.975;    5.000;  -33.000
424.259;  -76.200; -654.000; -457.000
424.384;  -61.075; -279.000; -272.000
424.509;  -33.950; -260.000; -186.000
424.634;  -91.075; -761.000; -623.000
424.759;  -31.000; -688.000; -544.000
424.883;   -2.525; -506.000; -527.000
425.008;  181.725; -502.000; -410.000
425.133; 2867.100; -679.000; -653.000
425.258; 1523.100; -517.000; -381.000
425.382;  559.125; -867.000; -774.000
425.507; 1304.575; -487.000; -543.000
425.632;  397.550; -802.000; -663.000
425.756;  683.700; -256.000; -146.000
425.881; 9964.425; -831.000; -857.000
426.006;30422.150; -604.000; -355.000
426.130; 5028.050; -696.000; -508.000
426.255;  676.200; -611.000; -491.000
426.379;  266.500; -189.000; -577.000
426.504;  497.225;  660.000;  544.000
426.629; 5711.550; -519.000; -466.000
426.753; 4404.500;   64.000;  -46.000
426.878;  516.900; -252.000; -288.000
427.002;  286.075; -651.000; -668.000
427.127; 2074.950;  -35.000; -158.000
427.251;17197.350;  372.000;  401.000
427.375; 5556.400; -191.000; -173.000
427.500; 1444.500; -616.000; -610.000
427.624;  453.300; -234.000; -400.000
427.749;   80.525; -216.000; -225.000
427.873;  -40.075; -499.000; -412.000
427.997;  -53.150; -222.000; -230.000
428.122;   46.675;  795.000;  703.000
428.246;   36.450;  433.000;  434.000
428.371; -148.875; -869.000; -773.000
428.495; -129.750; -624.000; -646.000
428.619;  -62.675; -186.000; -117.000
428.743;    6.125;   65.000;  132.000
428.868;  -71.075; -732.000; -643.000
428.992;  578.650; -219.000; -326.000
429.116;  221.725; -329.000; -357.000
429.240;  105.800;  419.000;  426.000
429.365;  -57.225; -454.000; -574.000
429.489;  -58.425; -638.000; -647.000
429.613;   32.250; -236.000; -177.000
429.737;   66.350; -563.000; -432.000
429.861;  366.575; -247.000; -133.000
429.985; 7863.175; -425.000; -305.000
430.109;10009.900; -770.000; -908.000
430.234; 1219.475;   76.000;  -50.000
430.358;  146.575; -250.000; -160.000
430.482;  -44.300; -672.000; -564.000
430.606;  -80.150; -655.000; -375.000
430.730;  -70.775; -437.000; -388.000
430.854;  -84.425; -909.000; -835.000
430.978; -102.150; -795.000; -764.000
431.102;  -98.100; -499.000; -422.000
431.226; -131.500; -874.000; -815.000
431.350;   22.150;  345.000;  422.000
431.474;  -96.475; -661.000; -373.000
431.597; -154.300;-1060.000; -848.000
431.721;  -91.700; -276.000; -267.000
431.845; -123.275; -704.000; -472.000
431.969;  -78.500; -304.000; -349.000
432.093; -106.000; -395.000; -317.000
432.217;  -26.075;   32.000;   82.000
432.341;  -94.775; -523.000; -518.000
432.464;  -19.650;   96.000;   40.000
432.588;  -20.325; -401.000; -329.000
432.712;   10.800;  -52.000;  -52.000
432.836;   55.625;  213.000;  263.000
432.959;    9.725; -372.000; -311.000
433.083;  147.025;   11.000;    2.000
433.207;  557.375;  285.000;  930.000
433.330; 7590.250; -391.000; -200.000
433.454;10494.725; -654.000; -638.000
433.578; 5789.200;  583.000;  278.000
433.701; 1226.725; -623.000; -675.000
433.825;  146.300; -292.000; -299.000
433.949;   46.800;   28.000;  -72.000
434.072;  -17.225; -410.000; -323.000
434.196;  -15.750; -309.000; -117.000
434.319; 3531.225;25482.000;25124.000
434.443;  857.725; -656.000; -603.000
434.566; 4076.975;  281.000;   62.000
434.690;  854.775; -637.000; -383.000
434.813;  118.225; -251.000; -173.000
434.937;  -54.175; -569.000; -696.000
435.060;  -86.600; -423.000; -332.000
435.184;    3.125; -492.000; -217.000
435.307;   -2.125;  159.000;  102.000
435.431;  -48.850;  -40.000;   24.000
435.554;  -89.950; -399.000; -240.000
435.677;  -83.775; -350.000; -258.000
435.801;  -68.750;  -25.000;   49.000
435.924;  -57.325;    1.000;  -67.000
436.048; -161.450;-1019.000; -732.000
436.171;  -85.575; -240.000;  -66.000
436.294;  -20.600; -248.000; -229.000
436.417;  213.750; -963.000; -849.000
436.541;  -37.700; -814.000; -840.000
436.664;  -55.275; -242.000; -316.000
436.787;  -46.625;   13.000;  113.000
436.910; -128.075; -792.000; -422.000
437.034;  -17.450;  142.000;  143.000
437.157;  -12.525;  -11.000;    0.000
437.280;  -93.550; -392.000; -292.000
437.403; -152.025; -982.000; -869.000
437.526;   26.875; -903.000; -865.000
437.649;  593.175; -505.000; -332.000
437.772;   13.900; -692.000; -540.000
437.896;   58.875;  700.000;  544.000
438.019; -115.275; -758.000; -503.000
438.142; -108.775; -596.000; -506.000
438.265; -127.550; -639.000; -670.000
438.388;   23.075; -520.000; -410.000
438.511;  -66.725; -597.000; -394.000
438.634;  -82.300; -247.000; -125.000
438.757; -151.000; -693.000; -619.000
438.880;  -57.400;  -34.000;  -57.000
439.003;  -94.500; -417.000; -437.000
439.126;  -85.925; -287.000; -167.000
439.248;  -59.050;  -98.000; -139.000
439.371;  -52.350;    9.000;  -53.000
439.494;   11.450;  510.000;  439.000
439.617;  -57.100;   65.000;  -88.000
439.740; -182.850; -968.000; -816.000
439.863; -146.025; -755.000; -595.000
439.986; -114.800; -476.000; -431.000
440.108;  -53.200; -161.000; -112.000
440.231; -173.075; -950.000; -836.000
440.354;  -61.150;  -64.000; -150.000
440.477; -101.950; -566.000; -542.000
440.599;  -80.325; -200.000; -225.000
440.722; -139.625; -709.000; -586.000
440.845;   44.250;  751.000;  928.000
440.968; -110.900; -415.000; -311.000
441.090;  -77.525; -199.000;  -33.000
441.213; -164.025;-1021.000; -825.000
441.336;  -58.825; -159.000;   -5.000
441.458; -117.800; -549.000; -396.000
441.581; -135.450; -628.000; -629.000
441.703;  -79.075; -152.000;   13.000
441.826; -119.000; -557.000; -400.000
441.948;  -59.975;   56.000;   51.000
442.071;   12.825;  555.000;  424.000
442.193; -140.650; -531.000; -485.000
442.316;  -23.225;  152.000;   97.000
442.438;   65.425; -233.000;  -10.000
442.561;   47.850;  272.000;  262.000
442.683;   82.925; -809.000; -522.000
442.806;  296.225;   -8.000;   74.000
442.928;  -89.575; -859.000; -604.000
443.051;  -96.925; -577.000; -373.000
443.173; -101.875; -341.000; -339.000
443.295; -116.275; -263.000; -371.000
443.418;  -84.550; -321.000;  -29.000
443.540;  -47.225; -106.000;   -4.000
443.662; -136.350; -563.000; -465.000
443.785;  -34.025;  335.000;  199.000
443.907; -106.800; -362.000; -208.000
444.029; -136.650; -767.000; -494.000
444.152; -148.900; -644.000; -554.000
444.274;  -60.350;  -18.000;  -24.000
444.396; -130.675; -461.000; -221.000
444.518; -140.725; -691.000; -454.000
444.640; -111.600; -268.000; -111.000
444.763;  -37.125;  388.000;  249.000
444.885; -125.975; -432.000; -392.000
445.007;  -48.975;   35.000;   86.000
445.129; -131.375; -610.000; -515.000
445.251; -119.075; -372.000; -439.000
445.373; -146.775; -537.000; -386.000
445.495;  -16.725;  242.000;  350.000
445.617;   41.600;  853.000;  753.000
445.739;  -94.925; -215.000;  -97.000
445.861;  -64.025; -245.000; -112.000
445.984;  -79.125; -267.000; -101.000
446.105;  -22.950; -418.000; -251.000
446.227;  140.725; -176.000;  -19.000
446.349;  -75.850; -358.000; -249.000
446.471; -120.450; -615.000; -448.000
446.593;  -96.500; -316.000;   19.000
446.715;  -44.475;  -67.000;   41.000
446.837;   38.550;  697.000;  832.000
446.959; -115.075; -457.000; -478.000
447.081; -139.350; -628.000; -518.000
447.203;   32.900;  862.000;  834.000
447.325; -100.075; -270.000;   42.000
447.446;  -22.825;  286.000;  530.000
447.568; -152.325; -921.000; -803.000
447.690;  -85.250; -236.000; -245.000
447.812; -153.775; -798.000; -519.000
447.933;  -44.975;  155.000;  127.000
448.055;  -64.525; -306.000; -261.000
448.177;   22.575;   31.000;   79.000
448.299;  -94.850; -935.000; -727.000
448.420;  -19.325;  -25.000;  159.000
448.542;  -51.225;   -3.000;   33.000
448.664;  -44.500;  109.000;  322.000
448.785;  -55.050;  265.000;   83.000
448.907; -105.925; -614.000; -353.000
449.028; -123.050; -771.000; -471.000
449.150;    9.825;  492.000;  589.000
449.272; -186.950;-1044.000; -913.000
449.393;   17.850;  612.000;  694.000
449.515; -147.875; -634.000; -581.000
449.636;  -66.500; -264.000; -155.000
449.758;   41.100;  763.000;  622.000
449.879;  -92.825; -498.000; -396.000
450.001;  -83.375; -149.000;  -49.000
450.122;  -54.400;  -95.000;  162.000
450.244;  -20.050;   37.000;  364.000
450.365;  -89.900; -495.000; -301.000
450.486;   -6.925;   80.000;  268.000
450.608;   29.875;  393.000;  326.000
450.729;  106.400;  578.000;  645.000
450.850;   90.625; -574.000; -466.000
450.972; 1182.700; -552.000; -389.000
451.093; 7856.375;  190.000;  588.000
451.214; 4045.525; -516.000; -337.000
451.336;  673.625;  773.000;  579.000
451.457;  100.700;  264.000;  393.000
451.578;  -40.825; -118.000;  -74.000
451.699; -109.125; -546.000; -540.000
451.821;  -63.100; -284.000;  -50.000
451.942;    1.950;  278.000;  285.000
452.063;   49.475;  228.000;  419.000
452.184;  785.175;  -54.000;  -49.000
452.305; 1703.875;  103.000;  170.000
452.427;  327.675; -549.000; -301.000
452.548;    2.175;   23.000;   79.000
452.669;  -81.250; -257.000;  -89.000
452.790;  -71.575;    3.000;  -18.000
452.911;  -28.150;  195.000;  259.000
453.032;  -77.000; -289.000;  -60.000
453.153;  -74.300;  -29.000;   81.000
453.274;   30.050;  737.000;  868.000
453.395;  -70.575;  -51.000;  175.000
453.516;   85.725; 1317.000; 1388.000
453.637;  -91.050; -205.000; -150.000
453.758;  -75.700;   15.000;   69.000
453.879; -128.875; -462.000; -250.000
454.000;   58.100; 1086.000;  948.000
454.121; -132.750; -554.000; -326.000
454.242; -122.125; -599.000; -383.000
454.362;  -62.475;  -99.000;  114.000
454.483;  -23.375; -309.000; -229.000
454.604;   53.700;  512.000;  580.000
454.725; -132.075; -627.000; -555.000
454.846; -116.500; -474.000; -406.000
454.967;  -38.800;  230.000;  539.000
455.087;  -42.475;  179.000;  153.000
455.208;    1.325;  554.000;  856.000
455.329;  -81.100;  -22.000;   82.000
455.450;   52.725;  473.000;  633.000
455.570;  -70.800; -234.000; -211.000
455.691;  -54.575;  201.000;  407.000
455.812; -116.000; -270.000;  -92.000
455.932;  -72.325;  107.000;  -97.000
456.053;  -88.100;   36.000;   24.000
456.173; -112.600; -433.000; -355.000
456.294; -138.525; -476.000; -303.000
456.415;  -73.450;  -73.000;   70.000
456.535;  -37.275;  297.000;  273.000
456.656;  -56.525;  132.000;  240.000
456.776;  -90.375;    3.000;  298.000
456.897;  -15.575;  308.000;  513.000
457.017;  -71.900; -153.000;   -3.000
457.138; -126.950; -402.000; -249.000
457.258;  -60.150;  263.000;  224.000
457.379;  -19.825;  509.000;  521.000
457.499;  -32.650;  443.000;  432.000
457.620; -121.025; -407.000; -231.000
457.740; -103.725; -132.000;  -11.000
457.860;  -65.300;   87.000;   44.000
457.981;  -37.575;  132.000;  124.000
458.101;  -79.425;  -89.000;   40.000
458.221;  -14.950;  336.000;  402.000
458.342;  -66.000;   -4.000;  -37.000
458.462;   44.850;  617.000;  352.000
458.582;    0.850; -302.000; -294.000
458.703;   58.700;  303.000;  154.000
458.823;   -2.675;   22.000;  163.000
458.943;   51.625;  341.000;  467.000
459.063;    3.725; 1124.000;  192.000
459.183;  -24.600;  328.000;  313.000
459.304;    2.225;  315.000;  517.000
459.424;  -44.400; -246.000;  -89.000
459.544;  458.675;  388.000;  764.000
459.664; 1295.950;  499.000;  506.000
459.784;  521.650; 1004.000; 1175.000
459.904;   64.600;  867.000;  744.000
460.024;   37.350;  867.000;  684.000
460.144;  -25.525;  449.000;  554.000
460.264;  -19.500;  515.000;  327.000
460.385; -108.475; -145.000; -119.000
460.505;   21.025;  905.000;  858.000
460.625; -107.675;  -17.000;  -68.000
460.745;  -33.725;  396.000;  541.000
460.864;  -53.425;  153.000;  469.000
460.984;   15.800;  499.000;  573.000
461.104;  144.350; 1656.000; 1775.000
461.224;    8.675;  657.000;  650.000
461.344;  -52.175;  431.000;  360.000
461.464;  -52.050;  258.000;  513.000
461.584;  -30.250;  283.000;  466.000
461.704;  -78.550;   58.000;  108.000
461.824;  -64.850;  238.000;  259.000
461.943;  -51.325;  191.000;  130.000
462.063;  -96.250;    2.000;  324.000
462.183;    3.850;  639.000;  717.000
462.303;   78.200; 1678.000; 1230.000
462.422;   19.975;  781.000;  840.000
462.542;  -56.200;  271.000;  391.000
462.662;   35.475;  353.000;  380.000
462.782;  332.100;  833.000;  572.000
462.901;  726.775;  545.000;  717.000
463.021;  400.600; 1702.000; 1638.000
463.141;   -2.475;  337.000;  770.000
463.260;  -17.850;  614.000;  474.000
463.380;   12.075;  902.000;  884.000
463.499;  -33.875;  342.000;  332.000
463.619;  -46.500;  581.000;  559.000
463.738;  105.600; 1644.000;  903.000
463.858;   -1.125;  657.000;  811.000
463.978;  -47.250;  542.000;  396.000
464.097;   43.525;  921.000; 1114.000
464.217;  150.650; 1196.000; 1143.000
464.336;  134.600; 1068.000; 1130.000
464.455;  -25.625;  328.000;  659.000
464.575;    0.050;  597.000;  602.000
464.694;  130.175; 1204.000; 1179.000
464.814;  147.225; 1190.000; 1138.000
464.933;   79.000; 1095.000; 1027.000
465.052;   83.300; 1412.000; 1054.000
465.172;   71.125;  922.000;  799.000
465.291;  107.350; 1376.000; 1320.000
465.410;   -2.300;  462.000;  735.000
465.530;   72.750; 1355.000; 1310.000
465.649;   44.400; 1209.000; 1273.000
465.768;  142.200; 1673.000; 1508.000
465.888;   64.700;  941.000; 1174.000
466.007;   95.800; 1335.000; 1440.000
466.126;  -14.125;  721.000;  641.000
466.245;   36.925; 1176.000; 1187.000
466.364;    1.550;  950.000; 1060.000
466.484;   38.675; 1024.000; 1213.000
466.603;   19.975; 1101.000; 1222.000
466.722;  102.150; 1490.000; 1769.000
466.841;   56.500; 1151.000; 1401.000
466.960;   30.875; 1069.000;  972.000
467.079;  114.075; 1971.000; 1786.000
467.198;   57.525; 1238.000; 1181.000
467.317;   85.250; 1768.000; 1162.000
467.436;   55.975; 1709.000; 1261.000
467.555;  129.125; 1796.000; 1746.000
467.674;   59.600; 1227.000; 1329.000
467.793;   33.325; 1376.000; 1374.000
467.912;   73.775; 1658.000; 1539.000
468.031;  125.325; 2038.000; 1930.000
468.150;  118.300; 1842.000; 1837.000
468.269;  177.875; 2313.000; 2090.000
468.388;  169.275; 2168.000; 2339.000
468.507;  253.725; 2884.000; 2903.000
468.626;  263.425; 2555.000; 2541.000
468.744;  131.700; 2018.000; 2174.000
468.863;  186.500; 2312.000; 2523.000
468.982;   90.625; 1503.000; 1555.000
469.101;  209.925; 2788.000; 2692.000
469.220;  154.625; 2333.000; 2176.000
469.338;  248.875; 2935.000; 3051.000
469.457;  195.300; 2719.000; 2545.000
469.576;  335.225; 3953.000; 3784.000
469.695;  230.700; 2877.000; 3066.000
469.813;  410.950; 4148.000; 4192.000
469.932;  399.000; 4255.000; 4485.000
470.051;  448.375; 4075.000; 4161.000
470.169; 1033.575; 4470.000; 4338.000
470.288; 2001.525; 4700.000; 4809.000
470.406; 1182.725; 5059.000; 5194.000
470.525;  662.075; 6101.000; 5787.000
470.644;  664.700; 6847.000; 6794.000
470.762;  787.250; 8397.000; 7873.000
470.881;  915.675; 8651.000; 8464.000
470.999; 1072.625; 9685.000; 9151.000
471.118; 1115.600;11174.000;10711.000

