
Integration time [ms]: 100.000
Averaging Nr. [scans]: 40
Smoothing Nr. [pixels]: 0
Data measured with spectrometer [name]: 2101012U2
Wave   ;Sample   ;Dark     ;Reference
[nm]   ;[counts] ;[counts] ;[counts] 

197.733;   62.825;  516.000;  404.000
197.879;  -81.450; -610.000; -634.000
198.025;  -44.850; -475.000; -420.000
198.171;  -80.075; -602.000; -612.000
198.317;  -41.375; -401.000; -316.000
198.463;  -58.650; -655.000; -404.000
198.609;   20.850;  181.000; -137.000
198.755;  -96.250; -644.000; -410.000
198.901;  -69.925; -505.000; -424.000
199.047;  -62.375; -615.000; -488.000
199.193;  -41.150; -230.000; -468.000
199.339;  -53.075; -222.000; -369.000
199.485;   36.175;  330.000;  271.000
199.631;   13.075;  227.000;  310.000
199.777;  -45.025; -466.000; -398.000
199.923;  -76.200; -610.000; -424.000
200.069;   -0.150; -141.000;  -58.000
200.215;   57.800;  128.000;  453.000
200.361;   37.925;  243.000;  477.000
200.507;  -81.075; -600.000; -373.000
200.653;  -34.425; -371.000; -194.000
200.798;  -40.350; -215.000; -125.000
200.944;   -7.075; -146.000;  -41.000
201.090;   37.550;   61.000;  222.000
201.236;   -7.500; -116.000; -158.000
201.382;  131.675;  874.000;  903.000
201.528;    3.900;  -58.000;  -48.000
201.674;  -50.825; -386.000; -293.000
201.819;  -68.950; -540.000; -439.000
201.965;  -74.150; -699.000; -447.000
202.111;  -30.850; -273.000; -226.000
202.257;  -47.150; -250.000; -238.000
202.402;    2.325;   13.000;  -36.000
202.548;  -41.725; -169.000; -116.000
202.694;   95.975;  410.000; -183.000
202.840;  -74.750; -603.000; -531.000
202.985;  -80.125; -681.000; -639.000
203.131; -113.350; -832.000; -666.000
203.277;  -22.100; -199.000; -262.000
203.423;  -58.850; -434.000; -520.000
203.568;  -50.650; -462.000; -237.000
203.714;  -64.650; -535.000; -542.000
203.860;  -86.550; -682.000; -641.000
204.005;   16.050;  112.000;  167.000
204.151;   80.475;  561.000;  556.000
204.296;  -47.100; -354.000; -221.000
204.442;  -78.875; -600.000; -547.000
204.588;  -73.575; -592.000; -579.000
204.733;   27.775;  178.000;  168.000
204.879; -145.800;-1018.000; -822.000
205.025;    0.750;  -99.000;  126.000
205.170;   -0.825;  -17.000;   94.000
205.316;   95.050;  438.000;  661.000
205.461;  -92.575; -698.000; -554.000
205.607;   88.250;  609.000;  665.000
205.752;  -82.000; -626.000; -551.000
205.898;  -66.950; -501.000; -391.000
206.043;  -65.250; -578.000; -506.000
206.189;  -34.175; -243.000; -285.000
206.334;   76.950;  554.000;  606.000
206.480;   72.975;  409.000;  239.000
206.625;  -79.850; -529.000; -552.000
206.771;  -56.725; -451.000; -373.000
206.916;  -24.375; -210.000; -537.000
207.062;  -79.325; -545.000; -591.000
207.207;  -64.225; -546.000; -443.000
207.353;   36.850;  185.000;  460.000
207.498;   23.925;  196.000;   85.000
207.643;  -65.100; -501.000; -370.000
207.789; -137.975;-1069.000; -910.000
207.934; -109.450; -665.000; -713.000
208.080;  -31.000; -154.000;   66.000
208.225;  -12.750;  -22.000;  -57.000
208.370;  -91.875; -727.000; -619.000
208.516;  -81.225; -741.000; -487.000
208.661;  -25.650; -127.000;  -69.000
208.806;  -17.850; -165.000; -171.000
208.952; -126.825;-1044.000; -731.000
209.097;   67.500;  378.000;  349.000
209.242;  -49.525; -307.000; -382.000
209.387;   62.250;  392.000;  350.000
209.533;  -43.125; -321.000; -350.000
209.678;   76.800;  472.000;  543.000
209.823;  -59.050; -408.000; -310.000
209.969; -109.100; -860.000; -757.000
210.114; -104.975; -907.000; -719.000
210.259; -124.950; -939.000; -889.000
210.404;  -24.775; -171.000;  103.000
210.549;    1.450;  108.000;    3.000
210.695;  -26.575;   -3.000;  -95.000
210.840;   27.450;   94.000;   67.000
210.985;  -53.600; -484.000; -303.000
211.130;   63.250;  268.000;  406.000
211.275;   13.525;  207.000;  199.000
211.420;  -57.700; -300.000; -289.000
211.566;  -68.050; -536.000; -489.000
211.711;   18.950;  218.000;  157.000
211.856;  -59.175; -545.000; -519.000
212.001;    7.000;  151.000;   44.000
212.146;   24.625;  153.000;   49.000
212.291;  -18.875; -210.000; -186.000
212.436;  -27.900; -280.000;   -6.000
212.581;  -82.550; -685.000; -653.000
212.726;  -79.600; -487.000; -538.000
212.871;  -47.600; -552.000; -217.000
213.016; -153.525;-1172.000;-1029.000
213.161;   60.150;  406.000;  291.000
213.306;  -82.800; -435.000; -577.000
213.451; -102.475; -778.000; -689.000
213.596;  -41.000; -455.000; -347.000
213.741;  -58.150; -448.000; -538.000
213.886;  -79.650; -498.000; -517.000
214.031;  -38.150; -294.000; -124.000
214.176;  -54.025; -408.000; -341.000
214.321;  -14.800; -296.000; -157.000
214.466;  -31.850; -163.000;  -43.000
214.611;  -18.775;  -61.000;  -10.000
214.756; -116.575; -948.000; -858.000
214.901;  -25.800; -388.000; -226.000
215.046; -121.750; -797.000; -825.000
215.191;   21.175;  128.000;   35.000
215.336;  -11.700; -157.000;  -19.000
215.480;  -79.275; -684.000; -505.000
215.625;   -9.375; -175.000;  -19.000
215.770;  -85.700; -757.000; -662.000
215.915;  -24.950;   -5.000;  -97.000
216.060;    3.725; -113.000;  -21.000
216.205; -118.700; -731.000; -779.000
216.349;  -78.175; -470.000; -533.000
216.494; -132.425; -939.000; -867.000
216.639; -124.325; -823.000; -888.000
216.784;  -93.025; -577.000; -525.000
216.929;   56.925;  392.000;  281.000
217.073;  -23.800; -244.000;  -31.000
217.218;   -1.725;   78.000;  -47.000
217.363; -102.450; -656.000; -618.000
217.507;  -77.225; -623.000; -588.000
217.652; -123.225; -845.000; -874.000
217.797;  -95.975; -708.000; -659.000
217.942; -112.600; -856.000; -720.000
218.086;   72.875;  608.000;  539.000
218.231;  -14.800; -174.000;  -26.000
218.376;  -44.525; -337.000; -229.000
218.520;   -1.425;  -41.000;   96.000
218.665;  -44.600; -338.000; -204.000
218.810;  -29.775; -275.000; -233.000
218.954;   21.175;  201.000;   35.000
219.099; -116.400; -713.000; -963.000
219.243;  -77.975; -589.000; -554.000
219.388;  -33.825; -264.000; -136.000
219.532;  -17.200; -116.000; -116.000
219.677;  -75.125; -564.000; -521.000
219.822;   -2.450;   33.000;   89.000
219.966;  -12.625;   17.000;  -99.000
220.111;  -33.375; -328.000;  -40.000
220.255;  -92.650; -797.000; -750.000
220.400;  -20.725; -180.000; -146.000
220.544;  -65.950; -516.000; -450.000
220.689;  -47.050; -422.000; -451.000
220.833;  -27.225; -123.000;  -58.000
220.978;  -43.800; -393.000; -563.000
221.122;   24.050;  319.000;  307.000
221.267; -119.275; -906.000; -837.000
221.411;  -74.900; -478.000; -394.000
221.555;  -12.650; -104.000;  -23.000
221.700;  -52.975; -329.000; -222.000
221.844;   23.575;  255.000;  272.000
221.989;  -65.875; -328.000; -311.000
222.133;  -33.875; -289.000; -307.000
222.277;   -4.125;    5.000;   78.000
222.422;   14.275;  227.000;  113.000
222.566;  -32.675; -381.000; -214.000
222.711;  -73.875; -414.000; -479.000
222.855;  -74.925; -643.000; -586.000
222.999;  -83.800; -642.000; -717.000
223.144;  -30.700; -195.000; -194.000
223.288;   57.475;  423.000;  251.000
223.432;   38.325;  184.000;  230.000
223.576;   24.375;  152.000;  -21.000
223.721;   34.000;  364.000;  273.000
223.865;  -57.575; -472.000; -475.000
224.009;  258.225; 1673.000; 1631.000
224.153;  -80.925; -660.000; -671.000
224.298;  -70.875; -531.000; -489.000
224.442;   -9.625;  -74.000;  -33.000
224.586;  -21.425; -169.000; -106.000
224.730; -104.275; -858.000; -670.000
224.875; -127.725; -739.000; -688.000
225.019;    7.600;  102.000;  188.000
225.163;   50.550;  208.000;  341.000
225.307;    3.775;   97.000;  -91.000
225.451;   45.375;  360.000;  481.000
225.595;   18.625;  264.000;  176.000
225.739;  -18.175; -170.000;  -94.000
225.884;   -5.575;   86.000;    5.000
226.028;  -89.275; -760.000; -626.000
226.172;  -37.200; -260.000; -273.000
226.316; -124.400; -941.000; -902.000
226.460;  -63.225; -645.000; -493.000
226.604;  -55.150; -406.000; -400.000
226.748; -107.400; -836.000; -733.000
226.892;  -38.400; -227.000; -181.000
227.036;  -60.075; -537.000; -447.000
227.180;  -76.125; -551.000; -375.000
227.324;  -67.000; -561.000; -580.000
227.468; -114.375; -819.000; -717.000
227.612;    3.825;  242.000;  -28.000
227.756; -112.725; -845.000; -698.000
227.900;   48.125;  342.000;  441.000
228.044;  -60.825; -509.000; -290.000
228.188;   49.800;  448.000;  568.000
228.332;  -86.800; -546.000; -472.000
228.476;  -34.775; -223.000; -149.000
228.620;  -33.100; -210.000; -150.000
228.764;   67.200;  431.000;  349.000
228.908;  -17.325; -155.000;   30.000
229.052;  -61.025; -615.000; -528.000
229.195;   -4.975; -172.000;   13.000
229.339;  -32.200; -235.000; -305.000
229.483;  -22.950;    5.000; -162.000
229.627;  -11.325; -156.000;  139.000
229.771;  -51.825; -218.000; -294.000
229.915;    2.975;  230.000;   79.000
230.059; -105.200; -648.000; -663.000
230.202;  -49.800; -370.000; -317.000
230.346;  -13.250; -107.000;  107.000
230.490;  -71.575; -489.000; -521.000
230.634; -115.975; -736.000; -553.000
230.777;   71.375;  478.000;  509.000
230.921;  -46.250; -450.000; -359.000
231.065;  -38.375; -246.000; -286.000
231.209;   33.325;  261.000;  265.000
231.352;   19.800;   54.000;   40.000
231.496;   28.500;  568.000;  188.000
231.640;  -94.025; -693.000; -621.000
231.783;   51.975;  546.000;  525.000
231.927;  -50.975; -294.000; -365.000
232.071; -138.175; -962.000; -736.000
232.214; -115.450; -980.000; -764.000
232.358; -119.000; -683.000; -599.000
232.502;   -2.000;  -19.000;    7.000
232.645; -144.900;-1090.000; -927.000
232.789;  -26.375; -257.000; -218.000
232.933;  -44.500; -407.000; -224.000
233.076; -132.950;-1038.000; -897.000
233.220; -112.450; -752.000; -777.000
233.363;  -82.600; -669.000; -477.000
233.507;   59.200;  371.000;  129.000
233.650; -103.100; -764.000; -834.000
233.794;   34.950;  438.000;  461.000
233.938;  -67.300; -530.000; -362.000
234.081;  -21.650;  -93.000;   31.000
234.225;  -76.625; -631.000; -539.000
234.368; -115.025; -773.000; -723.000
234.512;  -46.825; -385.000; -299.000
234.655;  -91.850; -582.000; -555.000
234.798;  -78.375; -493.000; -466.000
234.942; -139.000; -884.000;-1002.000
235.085;  -76.100; -651.000; -443.000
235.229;  -79.375; -405.000; -410.000
235.372;  -43.050; -247.000; -191.000
235.516;  -61.550; -397.000; -321.000
235.659;   26.300;   92.000;  121.000
235.802;   -3.725;  -38.000;  -22.000
235.946;   19.250;  335.000;  215.000
236.089;   33.075;  126.000;  250.000
236.233;   43.775;  275.000;  298.000
236.376;  -52.000; -235.000; -378.000
236.519;  -44.675; -297.000; -319.000
236.663;  -23.625; -215.000; -117.000
236.806; -139.375;-1029.000; -999.000
236.949;   47.675;  543.000;  431.000
237.092;   50.475;  412.000;  391.000
237.236;  -96.475; -589.000; -502.000
237.379;   68.400;  352.000;  428.000
237.522; -133.600; -879.000; -768.000
237.666;  -14.500; -271.000;   18.000
237.809; -133.400; -851.000; -823.000
237.952;   39.425;  469.000;  271.000
238.095;  -81.800; -447.000; -442.000
238.238;   95.275;  688.000;  700.000
238.382;   -2.775;  166.000;  103.000
238.525;  -61.225; -598.000; -511.000
238.668; -138.975;-1060.000; -985.000
238.811;  -89.500; -638.000; -643.000
238.954;  -55.250; -483.000; -334.000
239.097;  105.075;  617.000;  664.000
239.241;   25.300;  394.000;  326.000
239.384;  -37.175; -254.000; -214.000
239.527;  -60.175; -424.000; -224.000
239.670; -145.475; -994.000;-1091.000
239.813; -109.825; -696.000; -658.000
239.956;   71.650;  579.000;  473.000
240.099; -131.075; -778.000; -725.000
240.242;   64.575;  428.000;  432.000
240.385;   36.625;  466.000;  450.000
240.528;  -81.100; -706.000; -473.000
240.671;   15.000;  189.000;  134.000
240.814;  -52.150; -441.000; -158.000
240.957; -104.875; -767.000; -578.000
241.100; -105.200; -779.000; -755.000
241.243; -148.975;-1234.000; -893.000
241.386;  -79.500; -508.000; -379.000
241.529;  -82.075; -735.000; -547.000
241.672;  -72.350; -566.000; -495.000
241.815; -120.825; -832.000; -808.000
241.958;  -37.350; -125.000; -182.000
242.101;  -77.950; -545.000; -390.000
242.244;  -49.825; -270.000; -325.000
242.387;  -44.875; -304.000; -246.000
242.530;   52.550;  470.000;  134.000
242.673;  -43.775; -381.000; -309.000
242.815; -124.050; -925.000; -899.000
242.958;  -70.025; -482.000; -381.000
243.101;   26.300;  132.000;  187.000
243.244;  -81.675; -564.000; -521.000
243.387;  -52.575; -313.000; -316.000
243.530;  -92.150; -657.000; -674.000
243.672;   -9.750;   43.000;  -92.000
243.815;  -52.150; -355.000; -283.000
243.958;   -4.550;   98.000;  -26.000
244.101;    1.900;   59.000;  -16.000
244.243;  -25.675;  -47.000;  101.000
244.386; -103.500; -761.000; -630.000
244.529;  -34.650; -132.000; -139.000
244.672; -161.500;-1154.000; -951.000
244.814;  -99.150; -621.000; -794.000
244.957;  -62.450; -380.000; -304.000
245.100;  -79.200; -489.000; -489.000
245.242;  -53.425; -387.000; -374.000
245.385;  -28.275;  -59.000;  -39.000
245.528; -126.950; -871.000; -705.000
245.670;   90.425;  612.000;  634.000
245.813;  -90.875; -599.000; -547.000
245.956;  -41.550; -324.000; -275.000
246.098;  -79.050; -508.000; -650.000
246.241;    4.800;  194.000;   48.000
246.383;  -14.900; -119.000;  -73.000
246.526;  -83.325; -454.000; -525.000
246.669; -114.875; -889.000; -780.000
246.811;   13.150;  172.000;   -1.000
246.954;  -65.600; -512.000; -426.000
247.096;  -23.825;  -84.000;   -6.000
247.239;  -79.775; -482.000; -445.000
247.381;  -74.400; -647.000; -488.000
247.524;   78.675;  645.000;  679.000
247.666;  -10.375;   58.000;   11.000
247.809; -116.500; -887.000; -691.000
247.951;  -13.525;  -75.000;  138.000
248.094;   25.625;  432.000;  308.000
248.236; -161.675;-1262.000;-1238.000
248.378;    4.200; -356.000;  -81.000
248.521;  -20.700; -334.000; -337.000
248.663;  -48.425; -236.000; -267.000
248.806;  -35.525; -300.000; -266.000
248.948;  -92.025; -886.000; -763.000
249.090;  -54.675; -428.000; -398.000
249.233;  -55.850; -344.000; -381.000
249.375;  -78.600; -474.000; -451.000
249.518;  -21.725;  -83.000; -133.000
249.660;  -23.300; -103.000;    3.000
249.802; -188.900;-1303.000;-1189.000
249.945;  -88.575; -612.000; -540.000
250.087; -116.350; -834.000; -768.000
250.229;  -61.125; -362.000; -480.000
250.371;  -82.000; -494.000; -439.000
250.514;  -53.925; -310.000; -244.000
250.656;  -72.125;   69.000;  102.000
250.798; -139.375; -849.000; -800.000
250.940;  -53.075; -322.000; -322.000
251.083;  -35.975; -335.000; -111.000
251.225;   53.525;  338.000;  310.000
251.367;  -50.850; -274.000; -373.000
251.509;  -28.950; -265.000; -210.000
251.651;  -95.350; -731.000; -671.000
251.794;   57.425;  538.000;  632.000
251.936; -120.550; -821.000; -747.000
252.078;  -88.600; -540.000; -461.000
252.220;  -86.025; -645.000; -477.000
252.362;   72.100;  344.000;  462.000
252.504;  -82.500; -677.000; -584.000
252.646; -126.825; -875.000; -722.000
252.788;  -16.725;   14.000; -128.000
252.931;  -56.625; -257.000; -253.000
253.073;  -55.825; -376.000; -317.000
253.215;   -5.725;  141.000;  122.000
253.357;  -20.350;   82.000; -153.000
253.499;  -56.700; -374.000; -234.000
253.641;  -99.650; -749.000; -594.000
253.783;  -98.375; -609.000; -527.000
253.925; -103.850; -586.000; -591.000
254.067; -122.325; -744.000; -667.000
254.209;  -35.625; -391.000; -259.000
254.351; -142.775; -865.000; -883.000
254.493;  -71.300; -441.000; -417.000
254.635; -144.450; -936.000; -818.000
254.777;  -92.150; -752.000; -687.000
254.918;  -84.850; -512.000; -430.000
255.060;  -73.125; -551.000; -395.000
255.202;  -55.475; -473.000; -261.000
255.344;  -75.875; -658.000; -455.000
255.486;  -76.075; -471.000; -406.000
255.628; -112.475; -780.000; -781.000
255.770;  -93.875; -676.000; -536.000
255.912;  -73.500; -559.000; -468.000
256.053;  -93.300; -730.000; -508.000
256.195;  158.625; 1008.000;  903.000
256.337; -109.075; -861.000; -595.000
256.479;   46.550;  532.000;  416.000
256.621;  -66.450; -394.000; -212.000
256.762;  -97.950; -789.000; -742.000
256.904;   47.700;  485.000;  487.000
257.046;  -47.925; -381.000; -271.000
257.188;  -56.300; -351.000; -264.000
257.329;  -75.775; -525.000; -464.000
257.471; -113.500; -939.000; -807.000
257.613;  -73.150; -584.000; -498.000
257.755; -156.700;-1073.000; -982.000
257.896;   30.950;  286.000;  392.000
258.038;  -75.425; -403.000; -352.000
258.180;  -49.400; -354.000; -279.000
258.321;  -94.600; -581.000; -457.000
258.463;  -17.400;  -71.000;  133.000
258.605; -107.975; -562.000; -570.000
258.746; -100.925; -886.000; -772.000
258.888; -153.625;-1026.000;-1020.000
259.029;   23.000;  121.000;   -8.000
259.171; -104.750; -614.000; -550.000
259.313;  -14.775;  -49.000;  -47.000
259.454;  -77.450; -536.000; -414.000
259.596;  -62.125; -483.000; -390.000
259.737;  -87.850; -590.000; -474.000
259.879;   36.500;  217.000;  311.000
260.020;   79.975;  901.000;  636.000
260.162;  -44.500; -146.000; -253.000
260.303; -118.225; -768.000; -687.000
260.445; -102.050; -609.000; -613.000
260.586;   20.400;  392.000;  157.000
260.728;  -52.075; -360.000; -248.000
260.869; -123.650; -350.000; -343.000
261.011;   66.825;  706.000;  537.000
261.152;  -66.150; -479.000; -319.000
261.293;  -85.575; -576.000; -595.000
261.435;  -40.925; -219.000; -184.000
261.576;  -56.800; -455.000; -325.000
261.718;   65.650;  420.000;  470.000
261.859; -132.200; -940.000; -949.000
262.000; -146.550; -951.000;-1016.000
262.142;  -29.950;  -52.000;  -60.000
262.283; -122.950; -808.000; -691.000
262.424;  -93.225; -666.000; -625.000
262.566; -166.125;-1161.000; -983.000
262.707; -119.450; -840.000; -830.000
262.848; -133.700; -769.000; -726.000
262.990;  -59.625; -362.000; -345.000
263.131;   84.275;  650.000;  681.000
263.272;  -10.475;  -61.000;  -41.000
263.413; -103.950; -589.000; -561.000
263.555;  -78.150; -669.000; -143.000
263.696;  -83.625; -550.000; -641.000
263.837;  -64.675; -449.000; -551.000
263.978;    2.625;   -5.000;  -77.000
264.119;  -50.500; -283.000; -264.000
264.261; -120.800; -847.000; -630.000
264.402;    0.100;   33.000;   40.000
264.543;  -87.325; -509.000; -524.000
264.684;  -18.825;   61.000;  -50.000
264.825;  -90.850; -816.000; -538.000
264.966;  -12.650;  -84.000;  -67.000
265.107; -106.975; -646.000; -670.000
265.248; -118.675; -825.000; -812.000
265.390;   -5.825;  152.000;   -9.000
265.531;  -29.250; -238.000; -107.000
265.672;  -97.050; -557.000; -630.000
265.813;   60.075;  563.000;  439.000
265.954; -142.500; -959.000; -940.000
266.095;   -8.975; -372.000; -322.000
266.236; -107.700; -686.000; -548.000
266.377;  -58.600; -243.000; -297.000
266.518;  -79.300; -619.000; -547.000
266.659;   17.050;  170.000;  268.000
266.800;   -9.975;   83.000;   85.000
266.941;  -79.650; -487.000; -478.000
267.082;   28.150;  354.000;   99.000
267.223;  -52.250; -344.000; -273.000
267.364; -106.800; -892.000; -686.000
267.504;  -11.050;    3.000;  135.000
267.645;   -6.050;  160.000;   67.000
267.786;  -35.950; -147.000;  -86.000
267.927;  -79.875; -473.000; -379.000
268.068;  -27.900; -186.000;  -61.000
268.209;  -54.975; -175.000; -413.000
268.350;  -62.900; -388.000; -532.000
268.490;  -91.650; -648.000; -521.000
268.631;   14.150;  127.000;  225.000
268.772; -120.150; -874.000; -647.000
268.913;  -70.075; -328.000; -476.000
269.054;  -14.725; -117.000;   12.000
269.194;  -49.650; -418.000; -402.000
269.335; -158.650;-1137.000;-1074.000
269.476;  -15.975;   33.000;  -35.000
269.617;  -57.150; -347.000; -392.000
269.757; -104.825; -713.000; -646.000
269.898; -109.150; -856.000; -613.000
270.039;  -68.025; -415.000; -405.000
270.180; -136.225; -952.000; -816.000
270.320;  -39.200; -190.000; -250.000
270.461;  -46.925; -277.000; -249.000
270.602;  -10.975; -186.000; -156.000
270.742; -127.175; -868.000; -943.000
270.883;  -75.075; -442.000; -390.000
271.023;  -67.650; -358.000; -357.000
271.164;  -76.725; -607.000; -528.000
271.305; -102.200; -666.000; -654.000
271.445;  -90.000; -722.000; -683.000
271.586;  -73.075; -462.000; -283.000
271.726;  -53.150; -397.000; -322.000
271.867;  -79.675; -594.000; -534.000
272.008;  151.750; -473.000; -285.000
272.148;  131.200;  462.000;  468.000
272.289;  -11.975; -113.000; -181.000
272.429;   21.850;   19.000;  185.000
272.570; -103.425; -633.000; -737.000
272.710; -107.925; -825.000; -775.000
272.851;  -30.750;  113.000; -130.000
272.991; -168.950;-1173.000;-1077.000
273.131;  -76.250; -419.000; -459.000
273.272; -108.725; -683.000; -723.000
273.412;   -9.525; -143.000;  -31.000
273.553;  -54.625; -488.000; -507.000
273.693;  127.575;  913.000;  858.000
273.834; -108.750; -894.000; -692.000
273.974;  -93.325; -664.000; -615.000
274.114; -117.600; -772.000; -560.000
274.255;   56.775;  414.000;  373.000
274.395;   -2.750; -180.000; -125.000
274.535;   30.825;  199.000;  350.000
274.676;   22.525;  225.000;   94.000
274.816;   -0.775;  110.000;   34.000
274.956;  -90.050; -624.000; -690.000
275.097;  -78.650;-1014.000; -922.000
275.237; -113.425; -913.000; -803.000
275.377; -108.075; -778.000; -689.000
275.517; -163.575; -878.000; -937.000
275.658;  -77.300; -590.000; -555.000
275.798;  -73.925; -606.000; -413.000
275.938;   20.175;  215.000;  323.000
276.078; -111.800; -626.000; -395.000
276.218;   -0.650;   99.000;  104.000
276.359; -131.200;-1026.000;-1024.000
276.499;  -86.250; -605.000; -446.000
276.639;  -42.750; -305.000; -151.000
276.779;  -54.975; -475.000; -357.000
276.919; -113.450; -783.000; -624.000
277.059;  -35.625; -261.000; -212.000
277.199;  -53.650; -357.000; -259.000
277.340;   42.400;  287.000;  175.000
277.480; -111.800; -840.000; -693.000
277.620;   16.550;  192.000;   16.000
277.760; -214.975;-1533.000;-1294.000
277.900;   13.650;  113.000;   33.000
278.040;    3.650;  137.000;  159.000
278.180;   28.900;  270.000;  170.000
278.320;  -11.225;   21.000;   56.000
278.460;  -78.700; -443.000; -469.000
278.600;  -97.550; -708.000; -598.000
278.740;   49.450;  448.000;  224.000
278.880;  -78.375; -768.000; -791.000
279.020;  -16.075; -194.000; -144.000
279.160;  -98.975; -672.000; -595.000
279.300; -126.400; -926.000; -873.000
279.440;  -92.300; -709.000; -622.000
279.579;  -37.225;-1014.000; -929.000
279.719;  -53.775; -410.000; -394.000
279.859;   48.350;   -4.000;   41.000
279.999;   16.825; -208.000;  101.000
280.139;  -27.750; -435.000; -387.000
280.279;  -86.950; -708.000; -745.000
280.419;  -22.075; -229.000; -147.000
280.559;  -35.500; -259.000; -180.000
280.698;  -90.775; -790.000; -639.000
280.838; -114.900; -778.000; -800.000
280.978; -105.725; -846.000; -790.000
281.118; -114.525; -811.000; -704.000
281.257;   -2.000;   24.000;    6.000
281.397; -143.550;-1094.000; -960.000
281.537;  -93.675; -599.000; -712.000
281.677;  -31.675; -150.000; -101.000
281.816; -110.300; -700.000; -630.000
281.956;  -39.950; -193.000; -257.000
282.096;  -69.800; -539.000; -396.000
282.235; -104.500; -672.000; -638.000
282.375;  -38.350; -243.000;  -98.000
282.515; -119.850; -715.000; -707.000
282.654;   14.425;   29.000;  106.000
282.794;    8.600;  388.000;  244.000
282.934;  -63.675; -530.000; -491.000
283.073; -150.625;-1030.000; -857.000
283.213;  -51.000; -460.000; -467.000
283.353;  -42.375; -408.000; -349.000
283.492;  -30.825; -264.000; -296.000
283.632;  -48.875; -254.000; -168.000
283.771; -110.700; -859.000; -730.000
283.911;  -61.750; -369.000; -260.000
284.050; -118.800; -794.000; -748.000
284.190; -167.875;-1229.000;-1096.000
284.329; -153.375;-1055.000; -964.000
284.469;  -77.100; -516.000; -591.000
284.608;  -75.975; -559.000; -598.000
284.748;  -89.450; -614.000; -570.000
284.887;  -11.125;  -87.000;  -20.000
285.027; -125.000; -844.000; -892.000
285.166;  -38.300; -192.000; -249.000
285.306;  -12.275; -116.000;  -33.000
285.445;  -51.275; -229.000; -343.000
285.584; -102.775; -630.000; -494.000
285.724;  -51.250; -282.000; -322.000
285.863; -129.725; -857.000; -507.000
286.002;  -68.400; -366.000; -276.000
286.142; -105.625; -715.000; -622.000
286.281;  -84.975; -525.000; -493.000
286.420;  -79.575; -554.000; -417.000
286.560;   83.975;  653.000;  623.000
286.699; -147.200; -958.000; -912.000
286.838;  -89.500; -590.000; -591.000
286.978; -100.600; -533.000; -537.000
287.117; -144.500;-1085.000; -950.000
287.256;  -38.650; -228.000; -211.000
287.395;  -67.550; -197.000; -378.000
287.535;  -54.125; -370.000; -298.000
287.674;  -93.825; -509.000; -484.000
287.813;   48.600;  661.000;  533.000
287.952; -142.250;-1010.000; -871.000
288.091; -164.850;-1049.000; -915.000
288.231;   -5.525;   13.000;   15.000
288.370; -176.475;-1217.000;-1200.000
288.509;  -97.650; -728.000; -645.000
288.648;  -84.950; -770.000; -548.000
288.787;  -51.100; -243.000;  -87.000
288.926;  -65.825; -454.000; -475.000
289.065;  100.150;  859.000;  672.000
289.204;  -47.300; -377.000; -217.000
289.344; -104.375; -791.000; -690.000
289.483;    3.800;  416.000;  304.000
289.622;  -38.075; -291.000; -149.000
289.761;  -14.000; -309.000; -166.000
289.900; -126.300; -785.000; -626.000
290.039;  -14.450;  -12.000;  -95.000
290.178;  -49.925; -274.000; -180.000
290.317;  -86.225; -618.000; -479.000
290.456;  -77.575; -463.000; -451.000
290.595; -148.200; -961.000; -833.000
290.734; -150.350; -904.000; -891.000
290.873;  -82.175; -456.000; -420.000
291.011; -117.650; -833.000; -843.000
291.150; -110.950; -770.000; -682.000
291.289;  -38.350; -343.000; -110.000
291.428;  -94.800; -599.000; -480.000
291.567;  -57.925; -370.000; -442.000
291.706;   -4.800;  109.000;  154.000
291.845;  -89.800; -597.000; -505.000
291.984; -173.700;-1234.000;-1061.000
292.122;   52.875;  602.000;  582.000
292.261;   45.575;  620.000;  463.000
292.400;    0.275; -144.000;  211.000
292.539; -138.025; -959.000; -813.000
292.678;  -59.900; -325.000; -300.000
292.816; -167.750;-1136.000; -965.000
292.955; -108.275; -844.000; -684.000
293.094;  -35.650; -173.000; -337.000
293.233;  -60.000; -556.000; -400.000
293.371;  -47.800; -225.000;  -84.000
293.510; -124.100; -866.000; -780.000
293.649; -149.600; -959.000; -924.000
293.787;  -86.250;-1083.000;-1012.000
293.926;  -10.675; -113.000;  -32.000
294.065;  -53.675; -379.000; -290.000
294.203;   26.025;  298.000;  406.000
294.342;    7.100;   74.000;  156.000
294.481; 6011.375;51180.000; -836.000
294.619;  -31.850; -425.000; -582.000
294.758; -159.075;-1230.000;-1137.000
294.896;   50.275; -125.000;    5.000
295.035; -120.100;-1040.000;-1006.000
295.174; -133.650;-1082.000; -954.000
295.312;  -66.250; -323.000; -203.000
295.451;  -33.550; -307.000; -428.000
295.589;  -86.025; -389.000; -518.000
295.728;    1.950; -292.000; -165.000
295.866;    6.400;  -36.000;  -51.000
296.005;  -75.925; -584.000; -341.000
296.143;  -77.925; -558.000; -596.000
296.282; -111.975; -957.000; -881.000
296.420; -107.000; -657.000; -557.000
296.559;  -90.625; -892.000; -633.000
296.697;   -5.775; -847.000; -665.000
296.835;    8.575;-1141.000;-1002.000
296.974;   22.950;  -23.000;   39.000
297.112;  -19.400; -443.000; -504.000
297.251;  -88.600; -815.000; -755.000
297.389;   56.250; -576.000; -438.000
297.527;   24.725; -145.000;  -83.000
297.666;  -60.050; -486.000; -438.000
297.804;  -68.700; -404.000; -264.000
297.942;  -13.775; -136.000; -161.000
298.081;  -20.025; -183.000;   63.000
298.219;   49.450;  -17.000;  -19.000
298.357;   31.150; -144.000;  -71.000
298.495;    8.625; -810.000; -812.000
298.634;   55.150;  245.000;  219.000
298.772;   15.825; -220.000; -338.000
298.910;  -39.375; -309.000; -182.000
299.048;  -21.775; -130.000; -153.000
299.187;  -44.850; -350.000; -250.000
299.325;    8.350;   52.000;  122.000
299.463;   28.000; -389.000; -299.000
299.601;   78.575; -327.000; -271.000
299.739; -108.725; -908.000; -883.000
299.877;  -92.800; -791.000; -703.000
300.016;  -69.750;-1095.000; -935.000
300.154;  127.250;  -19.000; -161.000
300.292;   12.450; -428.000; -348.000
300.430;   -8.675; -408.000; -291.000
300.568; -115.700; -940.000; -874.000
300.706;  -65.775; -366.000; -469.000
300.844; -109.825;-1108.000; -979.000
300.982;  108.625;  246.000;  282.000
301.120; -116.150; -965.000; -866.000
301.258;  -93.725; -812.000; -705.000
301.396;   19.000;  104.000;  -41.000
301.534;   41.875; -218.000; -293.000
301.672;  -32.525; -664.000; -521.000
301.810;  -12.650; -613.000; -545.000
301.948;   87.025;   53.000;  149.000
302.086;  502.200; -250.000;  -32.000
302.224;  778.050; -610.000; -585.000
302.362;    0.550; -558.000; -622.000
302.500;  -68.900; -923.000; -893.000
302.638;   85.950;  128.000;  245.000
302.776;  -14.000; -352.000; -408.000
302.913;   43.625;  447.000;  236.000
303.051;  -15.800;  -86.000;  -23.000
303.189;   26.650;   90.000;  118.000
303.327;  -47.275; -341.000; -256.000
303.465; -102.200; -832.000; -588.000
303.603;  -98.625; -805.000; -604.000
303.740;   97.000;  417.000;  241.000
303.878;  -11.375; -800.000; -759.000
304.016; -106.700; -915.000; -790.000
304.154; -128.650;-1123.000;-1152.000
304.291;  -61.425; -505.000; -554.000
304.429;    9.800;  102.000;   74.000
304.567; -141.550; -908.000; -893.000
304.705;  -53.375; -408.000; -515.000
304.842;   57.525; -616.000; -540.000
304.980;   41.875;  215.000;   35.000
305.118;   11.100; -367.000; -365.000
305.255;  -95.325; -945.000; -927.000
305.393;   40.300;  178.000;  239.000
305.531; -130.075;-1173.000; -956.000
305.668;  -84.025; -663.000; -582.000
305.806;   70.925; -358.000; -439.000
305.943;   67.800; -629.000; -637.000
306.081;   31.125; -378.000; -267.000
306.219; -119.875; -863.000; -748.000
306.356;   -0.825;  158.000;   27.000
306.494;  113.675;  981.000;  761.000
306.631;  -10.200;  -11.000;  -55.000
306.769;  -24.800; -613.000; -485.000
306.906;  -39.400; -284.000; -258.000
307.044;  -78.900; -473.000; -488.000
307.181;  -65.725; -410.000; -332.000
307.319;    3.475;  112.000;   87.000
307.456; -190.825;-1191.000;-1153.000
307.594; -104.675; -980.000; -727.000
307.731;  -22.975; -371.000; -164.000
307.868;   -4.350;  -15.000;   20.000
308.006; -141.900; -961.000; -847.000
308.143;  -87.300; -618.000; -330.000
308.281;  101.875;  -37.000; -254.000
308.418;  -39.750; -748.000; -640.000
308.555;  -78.250; -400.000; -250.000
308.693;  -91.075; -577.000; -573.000
308.830; -118.150; -712.000; -657.000
308.967;  -17.100; -215.000;  -95.000
309.105;  -56.525; -507.000; -396.000
309.242;   10.425; -468.000; -367.000
309.379;  180.200; -577.000; -655.000
309.517;  -85.225; -936.000; -948.000
309.654; -135.400; -910.000; -734.000
309.791;  -77.950; -662.000; -580.000
309.928; -121.100; -977.000; -914.000
310.065;  156.975;  819.000;  697.000
310.203;  -34.550; -825.000; -850.000
310.340;  -30.700; -465.000; -321.000
310.477;  -83.550; -412.000; -516.000
310.614;  -83.025; -383.000; -473.000
310.751;  -96.325; -427.000; -518.000
310.889;  -25.650;    1.000;   11.000
311.026; -166.300;-1161.000; -939.000
311.163;  -54.650; -386.000; -380.000
311.300;  -82.950; -512.000; -479.000
311.437;  -93.025; -658.000; -619.000
311.574; -156.075;-1226.000; -985.000
311.711;  -78.625; -595.000; -433.000
311.848;  -55.225; -380.000; -388.000
311.985;    6.425;  270.000;   93.000
312.122; -131.725; -932.000; -762.000
312.259; -133.850; -941.000; -994.000
312.396;  -83.925; -508.000; -551.000
312.533; -100.225; -812.000; -790.000
312.670; -129.050;-1070.000; -898.000
312.807;  -45.175; -352.000; -367.000
312.944;  -79.350; -513.000; -611.000
313.081;  -31.150; -150.000; -415.000
313.218; -122.875;-1111.000; -867.000
313.355;  -30.225; -531.000; -449.000
313.492;   -8.600; -455.000; -292.000
313.629;  120.700;  815.000;  735.000
313.766; -181.300;-1176.000;-1008.000
313.902;  -11.325; -186.000;   21.000
314.039;  -61.900; -372.000; -289.000
314.176;   24.650;  286.000;  192.000
314.313;  -94.075; -569.000; -473.000
314.450;  -91.800; -788.000; -684.000
314.587;  -66.200; -468.000; -480.000
314.723;   -9.750;  -78.000;  130.000
314.860;   25.875;  318.000;  332.000
314.997;   12.625;  223.000;  142.000
315.134;  -52.525; -385.000; -368.000
315.270;  -52.450; -480.000; -496.000
315.407; -150.275;-1094.000; -967.000
315.544;  -48.325; -657.000; -538.000
315.681;  -68.725; -681.000; -565.000
315.817;    7.275; -133.000; -176.000
315.954;   -4.750; -613.000; -392.000
316.091; -135.375;-1045.000;-1023.000
316.227;  -24.275;  -71.000; -179.000
316.364;  -17.250;   23.000;    6.000
316.500;  -46.825; -113.000; -300.000
316.637;  -47.850; -181.000; -302.000
316.774;  -99.150; -625.000; -358.000
316.910;  -95.000; -598.000; -629.000
317.047;  -83.625; -487.000; -351.000
317.183;  -58.975; -435.000; -566.000
317.320;  -19.025; -367.000; -321.000
317.456;  -75.425; -733.000; -805.000
317.593; -104.725; -598.000; -641.000
317.729;   -1.600;  168.000;  -67.000
317.866; -202.450;-1434.000;-1285.000
318.002; -108.900; -708.000; -948.000
318.139; -103.750; -883.000; -867.000
318.275; -125.050;-1003.000; -738.000
318.412;  -69.425; -517.000; -336.000
318.548;  -68.925; -751.000; -720.000
318.685; -111.850; -985.000; -888.000
318.821; -115.975; -762.000; -735.000
318.957;  -21.300;   34.000;  -23.000
319.094;   36.475;  297.000;  154.000
319.230;  -96.825; -756.000; -742.000
319.367;   78.375; -471.000; -520.000
319.503;   41.275; -538.000; -436.000
319.639; -104.300; -877.000; -793.000
319.775;  -75.175; -750.000; -685.000
319.912;  -60.600; -424.000; -519.000
320.048;  -95.250;-1184.000;-1184.000
320.184;   70.650;   59.000;   70.000
320.321;  -67.800; -497.000; -467.000
320.457;   55.325;  475.000;  662.000
320.593;  -85.025; -375.000; -382.000
320.729; -113.800; -732.000; -734.000
320.866;  -72.900; -577.000; -635.000
321.002;  -98.000; -759.000; -809.000
321.138;  -26.375; -135.000; -211.000
321.274;   55.975; -148.000; -115.000
321.410;  -44.050; -585.000; -353.000
321.546;  -58.800;-1011.000; -911.000
321.683;   47.425;  400.000;  185.000
321.819;  -11.725;  -48.000; -117.000
321.955; -131.050; -743.000; -722.000
322.091;  -65.400; -585.000; -540.000
322.227;  -39.575; -382.000; -202.000
322.363;  -42.200; -320.000; -215.000
322.499;  -54.025; -343.000; -331.000
322.635;  123.050;  636.000;  443.000
322.771;   11.525; -139.000;   12.000
322.907;   79.950;  129.000;  327.000
323.043;  -22.975; -115.000; -206.000
323.179;  -50.850; -394.000; -363.000
323.315;  -18.525; -401.000; -371.000
323.451;   48.400; -328.000; -236.000
323.587;   51.450;  -60.000;  -77.000
323.723;  -11.725; -682.000; -601.000
323.859;  -13.500; -258.000;  -76.000
323.995;  -44.500; -467.000; -409.000
324.131; -123.400; -967.000; -892.000
324.267;  -48.250; -254.000; -276.000
324.402; -148.825; -960.000; -983.000
324.538;  -25.300; -279.000; -104.000
324.674;    8.025;  164.000;   77.000
324.810;   91.850;  226.000;  308.000
324.946;  -11.175; -810.000; -658.000
325.082;  -75.150; -568.000; -475.000
325.217;  -11.975;  -62.000;   16.000
325.353; -113.125; -764.000; -659.000
325.489;  -91.050; -540.000; -506.000
325.625;  -68.550; -579.000; -525.000
325.760;   60.800;  517.000;  376.000
325.896;  -23.050; -515.000; -702.000
326.032;  -61.450; -403.000; -352.000
326.168;  -60.100; -462.000; -369.000
326.303;  -62.300; -352.000; -461.000
326.439;  -28.800; -336.000; -276.000
326.575;  -10.575; -190.000;  -29.000
326.710;  -29.675; -156.000;  -30.000
326.846;  -14.225;  146.000;  103.000
326.982;  -95.075; -530.000; -548.000
327.117;  -92.200; -481.000; -442.000
327.253;  -95.675; -745.000; -742.000
327.388; -167.500;-1137.000;-1153.000
327.524;  -74.475; -811.000; -578.000
327.659;  -39.450;  -58.000;  -22.000
327.795;  -20.600;   69.000;   45.000
327.931; -102.800; -723.000; -499.000
328.066;  -56.400; -417.000; -276.000
328.202;  -31.950;   12.000; -129.000
328.337;   75.225;  957.000;  713.000
328.473;   38.625;  -12.000;  -74.000
328.608;  -38.300; -256.000; -267.000
328.743;  -98.300; -799.000; -664.000
328.879;   13.675;  214.000;  114.000
329.014;  -46.825; -102.000; -122.000
329.150;  -86.575; -358.000; -483.000
329.285;  -88.025; -465.000; -466.000
329.421;  -63.425; -548.000; -246.000
329.556;  -33.200;  -36.000;   85.000
329.691; -105.700; -633.000; -615.000
329.827; -101.300; -626.000; -480.000
329.962;  -45.125;  131.000; -301.000
330.097;  -96.750; -673.000; -585.000
330.233;  -66.725; -410.000; -223.000
330.368; -140.600; -839.000; -628.000
330.503;  -30.000;    3.000;   98.000
330.638;   -0.750;  -93.000; -125.000
330.774;  -81.425; -609.000; -530.000
330.909;  -42.750; -434.000; -244.000
331.044; -113.825; -714.000; -708.000
331.179; -185.725;-1217.000;-1109.000
331.315;  -15.450;   77.000;   20.000
331.450;    2.550;  157.000;  285.000
331.585;  -92.825; -805.000; -706.000
331.720;  -85.100; -510.000; -460.000
331.855;  -23.925;  -35.000; -102.000
331.990;  255.150;   62.000;  138.000
332.126;  137.850; -110.000;   71.000
332.261;  -30.825; -379.000; -265.000
332.396;  -20.225; -135.000; -242.000
332.531; -123.800;-1074.000;-1031.000
332.666;   30.850; -519.000; -363.000
332.801; -117.300; -726.000; -807.000
332.936;  -26.400; -192.000; -122.000
333.071; -137.825; -870.000; -817.000
333.206;   -3.500;  307.000;  379.000
333.341;   22.750;  344.000;  418.000
333.476; -105.675; -627.000; -623.000
333.611;  -36.400; -251.000; -173.000
333.746;  -54.000; -381.000; -464.000
333.881; -127.875; -973.000; -935.000
334.016; -148.200; -936.000; -917.000
334.151; -136.175; -746.000; -702.000
334.286;   16.575;  152.000;  186.000
334.421;  -38.700; -125.000; -178.000
334.556;  -97.125; -611.000; -567.000
334.690;  -89.725; -631.000; -577.000
334.825;   45.750;  381.000;   83.000
334.960;  -66.500; -285.000; -413.000
335.095;  -12.375;  135.000;  -91.000
335.230; -111.775; -722.000; -738.000
335.365; -154.700;-1084.000; -990.000
335.499; -144.975;-1108.000;-1037.000
335.634;    3.750;    9.000;  534.000
335.769; -113.200; -755.000; -720.000
335.904;  -77.625; -603.000; -561.000
336.038;  -82.150; -735.000; -657.000
336.173; -140.125;-1206.000;-1194.000
336.308;  -14.325; -116.000; -189.000
336.443;  -30.575; -544.000; -634.000
336.577; -104.275; -936.000; -787.000
336.712;   34.475;   -4.000;  -12.000
336.847;  -45.425; -724.000; -607.000
336.981;   28.525; -272.000; -208.000
337.116;  233.950;  615.000;  501.000
337.250;   92.575; -434.000; -421.000
337.385;  269.325; -297.000; -208.000
337.520;   89.675; -632.000; -603.000
337.654;  -50.475; -215.000; -126.000
337.789; -137.875; -989.000; -933.000
337.923;  -50.300; -104.000; -205.000
338.058;  -92.025; -673.000; -738.000
338.192;  -49.650; -611.000; -488.000
338.327;  -13.125;  -18.000; -155.000
338.461;  -77.025; -299.000; -469.000
338.596; -110.150; -780.000; -638.000
338.730; -106.225; -767.000; -803.000
338.865;   87.225;  -46.000; -140.000
338.999;  -50.125; -846.000; -702.000
339.134;  -37.500; -634.000; -536.000
339.268;   14.775; -741.000; -603.000
339.403;  361.500; -740.000; -775.000
339.537;  128.575; -894.000; -820.000
339.671; -117.875; -829.000; -813.000
339.806;  -75.475; -556.000; -512.000
339.940;   12.125; -261.000; -235.000
340.074; -111.300; -685.000; -510.000
340.209;  -54.375; -351.000; -230.000
340.343;  -92.825; -517.000; -573.000
340.477;  142.150;  998.000; 1036.000
340.612;  -62.325;-1033.000; -900.000
340.746;  128.775; -199.000; -243.000
340.880;  -87.300; -924.000; -785.000
341.014;  -37.175;  -45.000; -154.000
341.149; -129.200; -756.000; -718.000
341.283; -121.500; -839.000; -754.000
341.417; -126.225;-1124.000; -938.000
341.551;   77.375; -768.000; -708.000
341.685;  -46.175; -633.000; -611.000
341.820;  -57.175; -562.000; -493.000
341.954;  -58.150; -218.000; -349.000
342.088; -162.200;-1102.000;-1019.000
342.222;   39.675;  565.000;  618.000
342.356;  -74.750; -395.000; -335.000
342.490; -103.400; -880.000; -841.000
342.624;  -48.875; -339.000; -242.000
342.758;  -23.450; -364.000; -312.000
342.892;  -74.875; -710.000; -585.000
343.026;  -53.050;  -58.000; -116.000
343.160;  -85.525; -426.000; -376.000
343.294;  -83.975; -474.000; -337.000
343.428;  -43.275; -488.000; -448.000
343.562;  -24.425; -172.000;  -23.000
343.696;  -31.925; -385.000; -314.000
343.830;  -34.825; -362.000; -356.000
343.964;  -13.975; -231.000; -168.000
344.098;  738.550;  199.000;   70.000
344.232;  616.925; -266.000; -127.000
344.366;   61.475; -567.000; -453.000
344.500;   24.900; -665.000; -744.000
344.634;   14.150; -324.000; -164.000
344.768;  -49.525; -531.000; -341.000
344.902;    0.950;  278.000;  256.000
345.035;  -76.650; -556.000; -496.000
345.169; -146.675; -933.000; -656.000
345.303;  -63.525; -308.000; -482.000
345.437;  -92.625; -826.000; -717.000
345.571;  -87.175; -675.000; -594.000
345.704;  -68.325; -309.000; -532.000
345.838;  -22.700; -331.000; -284.000
345.972;  -65.550; -543.000; -495.000
346.106;  166.300; -179.000; -190.000
346.239;  388.925; -312.000; -243.000
346.373;   -3.850; -343.000; -302.000
346.507; -146.375; -950.000; -962.000
346.640;   96.925;  -30.000;   13.000
346.774;  -74.925; -650.000; -797.000
346.908;  -25.625; -138.000;  -11.000
347.041;  -92.850; -646.000; -593.000
347.175;    0.725;  259.000;   27.000
347.309; -100.225; -698.000; -628.000
347.442; -120.475; -883.000; -732.000
347.576;  232.850;  670.000;  668.000
347.709;  135.125; -123.000;  -52.000
347.843;  -99.725; -933.000; -825.000
347.976;   31.825;  235.000;  294.000
348.110; -185.025;-1268.000;-1186.000
348.243; -112.450; -679.000; -772.000
348.377;   -3.900;  -26.000;   60.000
348.510;   28.925;  403.000;  540.000
348.644;  -45.225;  -37.000; -159.000
348.777;  -31.450;  180.000;  191.000
348.911;  -59.700; -142.000; -112.000
349.044;  135.700;  471.000;  448.000
349.178;   99.850;-1069.000;-1006.000
349.311;   90.875;  141.000;  255.000
349.444;  -19.250; -927.000; -813.000
349.578;  -38.075; -347.000; -200.000
349.711; -119.250; -959.000; -862.000
349.845;  -40.325; -661.000; -591.000
349.978; -160.050;-1224.000;-1137.000
350.111;  -98.325; -546.000; -612.000
350.244;  -81.425; -596.000; -700.000
350.378;  -21.350; -392.000; -393.000
350.511;  -64.450; -393.000; -426.000
350.644; -115.775; -808.000; -806.000
350.778;   -1.575;  168.000;  104.000
350.911;  -14.950;  134.000;  140.000
351.044;  -98.775; -685.000; -615.000
351.177;  -46.350; -321.000; -281.000
351.310;  -30.200;    3.000; -131.000
351.444; -100.425; -888.000; -788.000
351.577;   96.500;  140.000;   90.000
351.710;   83.125;  593.000;  417.000
351.843;  -51.350; -165.000;  -77.000
351.976;  -14.800;  149.000;  -79.000
352.109; -108.775; -621.000; -612.000
352.242;  -40.850; -464.000; -419.000
352.376;  -80.175; -580.000; -636.000
352.509;  128.800; -437.000; -356.000
352.642;  -28.150; -654.000; -604.000
352.775;   37.400; -141.000;  -98.000
352.908; -127.150; -933.000; -904.000
353.041; -115.450; -814.000; -824.000
353.174;  -63.625; -551.000; -424.000
353.307;  -91.875; -753.000; -764.000
353.440;   51.950;  541.000;  453.000
353.573; -127.125; -957.000;-1008.000
353.706;  -73.650; -384.000; -558.000
353.839;  -52.125; -264.000; -220.000
353.971;  -97.625; -657.000; -512.000
354.104;  -94.650; -896.000; -835.000
354.237;  -60.775; -627.000; -662.000
354.370; -109.075; -846.000; -879.000
354.503; -176.425;-1231.000;-1308.000
354.636;  -70.400; -529.000; -348.000
354.769; -131.400; -937.000; -860.000
354.902;  -21.825; -230.000; -139.000
355.034;  -39.775; -164.000; -220.000
355.167;  -38.775; -262.000; -162.000
355.300; -110.500;-1061.000; -880.000
355.433;  960.100;  -71.000;  -14.000
355.565; 1542.525; -402.000; -384.000
355.698;  378.250; -356.000; -296.000
355.831;   -8.525; -882.000; -801.000
355.964;   41.775; -285.000; -170.000
356.096; -102.300; -856.000; -843.000
356.229;  -10.900; -523.000; -530.000
356.362;  319.425; -373.000; -266.000
356.494;  614.775; -229.000; -162.000
356.627;  401.650;  269.000;  377.000
356.760;  653.350;  120.000;   53.000
356.892;  986.475; -286.000; -601.000
357.025;  558.325;  403.000;  389.000
357.157;  490.375; -167.000; -179.000
357.290;  717.875; -856.000; -713.000
357.423;  197.750; -667.000; -556.000
357.555;   80.900; -217.000; -228.000
357.688;   82.200; -483.000; -364.000
357.820;  363.425; -870.000; -877.000
357.953; 3288.900; -563.000; -589.000
358.085;  668.450; -632.000; -612.000
358.218;  847.900;-1131.000; -932.000
358.350;  143.800;  -58.000;  312.000
358.483; -149.425;-1300.000;-1187.000
358.615;  -52.675;-1182.000;-1078.000
358.747;  -98.000;-1187.000;-1058.000
358.880;  -12.725; -810.000; -744.000
359.012;  -13.825; -376.000; -202.000
359.145;  -42.600; -480.000; -511.000
359.277;   21.225; -962.000; -913.000
359.409; 2668.500;  536.000;  231.000
359.542;  649.975; -738.000; -688.000
359.674;   57.450;   46.000;   13.000
359.806;  -63.125; -565.000; -438.000
359.939;  -43.850; -617.000; -516.000
360.071;  -26.650; -583.000; -579.000
360.203;  -23.525; -411.000; -364.000
360.335;   38.600;  164.000;  -16.000
360.468;  157.600; -249.000; -307.000
360.600; 2184.450; -547.000; -454.000
360.732; 2950.050; -546.000; -423.000
360.864;  401.625;-1216.000;-1044.000
360.996;  203.725; -516.000; -554.000
361.129;   14.950; -389.000; -598.000
361.261;   10.425;  110.000; -113.000
361.393;  -36.100; -252.000; -214.000
361.525;    9.450;   94.000;  244.000
361.657;  -75.625; -821.000; -703.000
361.789;   -0.425; -139.000; -155.000
361.921;  132.325; -642.000; -593.000
362.053;  204.625;  524.000;  541.000
362.185;   37.075;  288.000;   72.000
362.318;  -95.550; -709.000; -705.000
362.450;   90.550;  294.000;  444.000
362.582;   26.350; -913.000; -870.000
362.714;  -54.650; -353.000; -332.000
362.846; -105.000; -606.000; -490.000
362.978; -158.825; -941.000; -811.000
363.109;   13.475; -161.000; -260.000
363.241;  328.675; -739.000; -749.000
363.373;  431.525; -649.000; -564.000
363.505;  669.000; -186.000;  -91.000
363.637;  150.925; -787.000; -601.000
363.769; -148.000;-1067.000;-1080.000
363.901;  -75.600; -596.000; -654.000
364.033; -143.275;-1103.000;-1062.000
364.165;  -19.175; -283.000; -283.000
364.296;   53.950; -316.000; -177.000
364.428;   59.875;-1344.000;-1220.000
364.560;  -86.675; -679.000; -661.000
364.692;  -91.150; -738.000; -835.000
364.824;  163.500; -588.000; -456.000
364.955;  407.625; -402.000; -564.000
365.087; 1023.375;-1097.000; -852.000
365.219;   16.900; -686.000; -816.000
365.351;  -78.850; -526.000; -572.000
365.482;   29.850;  300.000;  240.000
365.614;  -66.975; -402.000; -314.000
365.746; -105.025; -729.000; -752.000
365.877; -114.450; -706.000; -672.000
366.009;  260.500;  -35.000;  -62.000
366.141;  -91.250;-1249.000;-1134.000
366.272; -117.575; -803.000; -719.000
366.404; -127.450;-1005.000; -874.000
366.535;  -17.125; -139.000;  -12.000
366.667; -104.350; -644.000; -649.000
366.799;   29.675;  353.000;  203.000
366.930; -134.025; -862.000; -996.000
367.062;  103.750; -639.000; -613.000
367.193;  158.925; -872.000; -842.000
367.325;  -61.375; -580.000; -684.000
367.456;   15.825; -246.000;   31.000
367.588;  156.325; -371.000; -318.000
367.719;   21.800;  -44.000;  -45.000
367.851;  -38.375; -222.000; -241.000
367.982;  -74.550; -875.000; -732.000
368.113;   66.875; -475.000; -358.000
368.245; -138.200; -960.000; -841.000
368.376;  -39.400; -254.000; -302.000
368.508;  -41.200; -188.000; -263.000
368.639; -142.300;-1166.000;-1034.000
368.770;  -45.725; -670.000; -589.000
368.902;  -90.550; -836.000; -926.000
369.033; -124.350; -906.000; -855.000
369.164;  -69.600; -720.000; -653.000
369.296; -116.925; -452.000; -601.000
369.427;  -29.650; -209.000; -144.000
369.558;  -62.650; -593.000; -377.000
369.689;  -97.000; -721.000; -569.000
369.821; -141.775; -951.000; -845.000
369.952;  -27.675;   42.000; -108.000
370.083;  -67.425; -229.000; -108.000
370.214; -104.075; -735.000; -650.000
370.345;  -19.950;   65.000;   81.000
370.477;  -96.875; -810.000; -790.000
370.608;  166.550; -328.000; -264.000
370.739;  -84.225;-1233.000;-1292.000
370.870;  -67.350;-1102.000; -923.000
371.001;   63.900; -378.000; -467.000
371.132;  -96.600; -754.000; -735.000
371.263;  -28.875;  -42.000; -148.000
371.394; -136.900; -841.000; -748.000
371.525;   16.925;  345.000;  225.000
371.657; -102.200; -808.000; -670.000
371.788;   48.425;  103.000;  199.000
371.919;  115.375; -384.000; -304.000
372.050; 3111.750;  -91.000; -156.000
372.181;  890.000; -188.000; -294.000
372.311;  288.225;   42.000; -127.000
372.442;    4.725; -457.000; -451.000
372.573;  -33.450; -444.000; -340.000
372.704; -128.350;-1008.000; -980.000
372.835;   50.900; -228.000; -289.000
372.966;  -78.050; -646.000; -554.000
373.097;  -85.825; -575.000; -711.000
373.228;  -68.750; -717.000; -542.000
373.359;   73.575; -824.000; -536.000
373.490;  728.950; -881.000; -727.000
373.620;  905.600;-1001.000; -803.000
373.751; 1469.700; -332.000; -396.000
373.882;  634.325; -663.000; -733.000
374.013;   22.550; -449.000; -262.000
374.143;  -64.500; -581.000; -659.000
374.274; -123.575; -987.000; -908.000
374.405;  138.550; -388.000; -276.000
374.536;  339.250; -526.000; -387.000
374.666;  882.650; -759.000; -807.000
374.797;  140.525; -817.000; -868.000
374.928;  686.075; -710.000; -560.000
375.058;  690.200; -535.000; -500.000
375.189;   47.475;  -59.000;  -93.000
375.320; -125.950; -928.000;-1034.000
375.450;  -60.425; -625.000; -616.000
375.581;  -62.400; -526.000; -436.000
375.712;  -46.700; -574.000; -250.000
375.842;  221.725; -438.000; -415.000
375.973;  133.800; -554.000; -513.000
376.103;  -70.775; -665.000; -648.000
376.234;  -83.250; -531.000; -552.000
376.364;  -65.950; -944.000; -867.000
376.495;  265.425;  925.000;  529.000
376.625;  -36.750; -472.000; -485.000
376.756;   18.650; -709.000; -678.000
376.886; -103.475;-1178.000;-1026.000
377.017;   51.425;-1048.000;-1061.000
377.147;  352.525; -786.000; -782.000
377.278;   51.625;  174.000;  228.000
377.408; -142.575; -801.000; -815.000
377.538; -107.950; -707.000; -693.000
377.669;  -86.650; -537.000; -613.000
377.799; -116.150; -645.000; -635.000
377.929;  -85.525; -610.000; -428.000
378.060; -139.675; -781.000; -847.000
378.190;  -58.950; -726.000; -531.000
378.320;  -54.550; -401.000; -406.000
378.451;  -20.150; -131.000;  -22.000
378.581;  -40.125;  -67.000; -110.000
378.711;  130.625; 1035.000;  866.000
378.841;  -46.925; -533.000; -675.000
378.972;  -98.700; -871.000; -751.000
379.102;  -38.750; -652.000; -579.000
379.232;  -35.075; -126.000;  -73.000
379.362; -132.025;-1001.000; -885.000
379.492;  -27.725; -373.000; -424.000
379.623;   64.225;    0.000;  111.000
379.753; -108.575;-1107.000; -974.000
379.883;  159.600;   59.000;  156.000
380.013;  -29.050;-1081.000;-1017.000
380.143; -129.425;-1097.000;-1056.000
380.273; -117.225; -985.000; -861.000
380.403;   -8.900; -344.000; -257.000
380.533;  -40.000; -651.000; -664.000
380.663;   44.850;  173.000;  128.000
380.793; -124.300;-1027.000;-1074.000
380.923;  -33.700; -103.000;  -34.000
381.053; -119.625; -613.000; -623.000
381.183;  -39.450; -106.000; -248.000
381.313;   -3.750; -656.000; -470.000
381.443;    0.150; -692.000; -473.000
381.573;  129.700; -402.000; -409.000
381.703;  154.950;-1249.000;-1095.000
381.833; -156.850;-1454.000;-1336.000
381.963;   68.200; -134.000;  -87.000
382.093; 1184.325; -925.000; -909.000
382.223;  337.750; -713.000; -602.000
382.353;  -54.600; -801.000; -608.000
382.482;  276.725;-1091.000; -964.000
382.612;  611.025; -872.000; -644.000
382.742;  332.050; -695.000; -622.000
382.872;  187.450; -565.000; -551.000
383.002;   49.475;  347.000; -132.000
383.131;  -23.200; -226.000; -160.000
383.261;  -53.825; -706.000; -768.000
383.391;  274.550; -552.000; -377.000
383.521; 3393.700;  451.000;  263.000
383.650;  796.375; -947.000; -904.000
383.780;  -17.575; -783.000; -656.000
383.910;   92.650;  880.000;  802.000
384.039;  -10.825; -794.000; -656.000
384.169;  108.175;-1205.000;-1017.000
384.299;  -53.750; -650.000; -662.000
384.428; -106.425; -764.000; -680.000
384.558;  -52.425; -308.000; -275.000
384.687;  -60.325; -414.000; -334.000
384.817;   -5.575;   75.000;   -2.000
384.947;  -17.050; -234.000; -141.000
385.076;  245.175;  982.000;  912.000
385.206;   74.425;  369.000;  480.000
385.335;  -54.775; -549.000; -417.000
385.465; -105.600; -655.000; -663.000
385.594;   94.425;  -53.000;  -44.000
385.724;  300.450; -868.000; -838.000
385.853;   61.575; -296.000; -270.000
385.982; 1133.025; -743.000; -787.000
386.112; 1748.700;-1052.000; -871.000
386.241;  111.350; -307.000; -312.000
386.371;   -4.725; -174.000;  -87.000
386.500;  -26.925; -825.000; -789.000
386.629;   -0.900; -874.000; -817.000
386.759;   51.825;  -43.000;   68.000
386.888;  -14.675; -170.000; -250.000
387.017;  -95.475; -648.000; -620.000
387.147;  -98.875; -771.000; -798.000
387.276;  -13.425; -410.000; -397.000
387.405;  -20.675; -398.000; -342.000
387.535;  -60.500; -452.000; -361.000
387.664;  -90.375; -692.000; -620.000
387.793;   28.600; -198.000; -113.000
387.922;  407.725;  255.000;  200.000
388.052;   -9.125; -576.000; -423.000
388.181;  -18.950; -342.000; -472.000
388.310;  -42.900; -889.000; -710.000
388.439;  -78.075; -749.000; -742.000
388.568;  155.600;  365.000;  244.000
388.697;  828.450; -756.000; -653.000
388.826;  142.075; -768.000; -666.000
388.956;   22.275; -285.000; -307.000
389.085;  -42.750; -347.000; -287.000
389.214; -114.375; -842.000; -872.000
389.343;  -85.250; -645.000; -413.000
389.472;  402.925;  126.000;  149.000
389.601;  488.725;   91.000;    0.000
389.730;  -17.275; -568.000; -687.000
389.859;   57.850;  226.000;   46.000
389.988;  133.875; -423.000; -408.000
390.117;   90.625; -168.000; -146.000
390.246;  -35.775; -331.000; -320.000
390.375;   50.750; -673.000; -626.000
390.504;  -80.475; -703.000; -621.000
390.633; -115.850; -672.000; -726.000
390.761;  -88.800; -732.000; -645.000
390.890;  -11.775;   -4.000; -130.000
391.019;  -44.775; -421.000; -441.000
391.148; -134.500; -826.000; -855.000
391.277;  -74.125; -576.000; -493.000
391.406; -122.925; -821.000; -805.000
391.534;    5.525;  574.000; -301.000
391.663;  -91.575; -583.000; -645.000
391.792; -107.050; -673.000; -701.000
391.921;   58.925;   -3.000;   15.000
392.050;  119.225; -287.000; -228.000
392.178;  -95.850;-1206.000;-1061.000
392.307;   88.250; -758.000; -712.000
392.436;   40.425; -427.000; -641.000
392.564;   11.700;  166.000;   -6.000
392.693; -108.850; -860.000; -682.000
392.822;  143.475; -529.000; -534.000
392.950;   24.375; -880.000; -714.000
393.079;  230.900; -188.000; -328.000
393.208;    9.000; -488.000; -511.000
393.336;  -29.225; -170.000; -145.000
393.465;  -50.600; -317.000; -199.000
393.593;  -10.575;   62.000;   79.000
393.722; -155.375;-1121.000; -916.000
393.850;  -28.650; -188.000;  -61.000
393.979; -165.175; -926.000; -805.000
394.107;  -72.925; -517.000; -537.000
394.236;  -48.775; -570.000; -507.000
394.364;  158.450;  383.000;  206.000
394.493;  204.275; -911.000; -767.000
394.621;  -30.850; -955.000; -916.000
394.750;  734.775; -873.000; -923.000
394.878; 3047.475; -247.000; -149.000
395.007; 4144.525; -721.000; -807.000
395.135;  290.350; -790.000; -721.000
395.263;  -98.075;-1038.000;-1040.000
395.392;  -14.625;  -25.000; -107.000
395.520; -153.175; -818.000; -679.000
395.648; -107.175; -865.000; -915.000
395.777;  -40.150; -366.000; -405.000
395.905;  -67.675; -449.000; -564.000
396.033;   -1.000;  217.000;  172.000
396.162;  363.075; -399.000; -453.000
396.290;  315.975;  -17.000;   -2.000
396.418;   44.700; -555.000; -514.000
396.546;  -93.425; -571.000; -466.000
396.674; -113.025; -850.000; -878.000
396.803;  -17.025;  -72.000;  -23.000
396.931;   45.475; -179.000; -199.000
397.059;  -21.450;-1026.000; -989.000
397.187; -127.400;-1026.000; -975.000
397.315; -148.275; -884.000; -649.000
397.443; -105.400; -592.000; -443.000
397.572; -102.950; -578.000; -424.000
397.700;  -34.725; -607.000; -614.000
397.828;   -2.800;  120.000;  -90.000
397.956;  -46.050; -508.000; -478.000
398.084;  -66.175; -767.000; -626.000
398.212;   10.625;  137.000;  124.000
398.340;   -4.750;  -56.000;  159.000
398.468;    4.875; -390.000; -169.000
398.596; -153.850; -993.000; -953.000
398.724; -137.475; -762.000; -767.000
398.852; -185.350;-1024.000; -976.000
398.980;  -84.000; -560.000; -560.000
399.108;  -93.225; -982.000; -735.000
399.236;   -1.375;   13.000;    8.000
399.363;  -10.275;  222.000;  196.000
399.491;  -91.325; -404.000; -398.000
399.619; -131.000; -829.000; -800.000
399.747; -117.475; -859.000; -771.000
399.875;   56.500;  220.000;  234.000
400.003;  -66.050; -359.000; -284.000
400.130; -106.225; -421.000; -341.000
400.258;  -29.475;  -83.000;   38.000
400.386;  -74.075; -352.000; -168.000
400.514;  -74.875; -526.000; -587.000
400.641; -113.275; -928.000; -802.000
400.769; -151.375; -979.000; -888.000
400.897; -136.825; -838.000; -793.000
401.025;  -32.450; -166.000; -152.000
401.152;  -13.125;  220.000;   38.000
401.280;  -97.825; -430.000; -429.000
401.408; -129.200; -712.000; -576.000
401.535; -122.350; -735.000; -758.000
401.663; -197.450;-1134.000;-1054.000
401.790;  -87.975; -514.000; -525.000
401.918;   35.825;  436.000;  405.000
402.046;  -28.250;  134.000;  122.000
402.173;  -52.700;  -18.000;    7.000
402.301;  -82.775; -519.000; -397.000
402.428;   39.100;  528.000;  383.000
402.556; -155.925;-1188.000; -913.000
402.683;  -50.050;  -20.000;   -1.000
402.811;  -36.925;  -37.000; -206.000
402.938;  -30.775;   20.000;   27.000
403.066;  152.550; -574.000; -558.000
403.193;  271.350;  299.000;  239.000
403.321;  198.325; -396.000; -574.000
403.448;  261.925;   83.000;   27.000
403.575;  108.775;  -90.000;  -46.000
403.703; -115.425; -732.000; -557.000
403.830;  -75.900; -531.000; -496.000
403.957; -146.025;-1117.000;-1023.000
404.085;    1.925;  -61.000; -172.000
404.212;   88.875;  -50.000;   63.000
404.339;  276.800; -566.000; -306.000
404.467; 6097.050; -612.000; -524.000
404.594; 3719.500; -287.000; -227.000
404.721;  793.700; -869.000; -764.000
404.848;   52.825; -113.000; -202.000
404.976; -112.450; -856.000; -783.000
405.103;  -28.425;  -14.000;  -82.000
405.230;   -7.825;  190.000;  226.000
405.357;   15.150;  117.000;   44.000
405.484;  281.150;  -49.000;    5.000
405.612;   28.650; -548.000; -563.000
405.739;  -62.775; -488.000; -243.000
405.866;   75.925;  669.000;  385.000
405.993;  -60.500; -398.000; -102.000
406.120; -149.175; -801.000; -887.000
406.247;  -71.200; -323.000; -342.000
406.374;  346.850;  540.000;  629.000
406.501;   30.925; -632.000; -702.000
406.628;  -98.800; -621.000; -589.000
406.755; -109.575; -803.000; -620.000
406.882;  -51.425; -228.000; -277.000
407.009; -114.850; -719.000; -628.000
407.136;    7.050; -480.000; -401.000
407.263;   46.300; -939.000; -829.000
407.390;  -98.400; -692.000; -614.000
407.517; -188.675;-1139.000;-1187.000
407.644;  -66.700; -332.000; -256.000
407.771;  -93.425; -249.000; -287.000
407.898;  -11.900;  168.000;  328.000
408.025;  -89.025; -421.000; -313.000
408.151;  -20.425;   82.000;  153.000
408.278;  -79.400; -267.000; -216.000
408.405; -139.700; -931.000; -899.000
408.532;  -83.900; -549.000; -542.000
408.659; -126.350; -677.000; -648.000
408.785; -205.325;-1298.000;-1170.000
408.912;  -83.325; -412.000; -296.000
409.039; -128.500; -610.000; -686.000
409.166; -112.425; -591.000; -555.000
409.292; -110.125; -571.000; -534.000
409.419; -122.625; -665.000; -649.000
409.546; -104.300; -431.000; -192.000
409.672; -124.925; -713.000; -545.000
409.799;  -41.675;  -36.000;   34.000
409.926;  -53.300; -180.000; -179.000
410.052; -177.100;-1127.000;-1091.000
410.179;  -74.975; -368.000; -392.000
410.305; -107.900; -375.000; -493.000
410.432;  -59.625; -220.000; -333.000
410.558; -110.700; -305.000; -380.000
410.685; -113.250; -688.000; -431.000
410.812; -121.850; -409.000; -588.000
410.938; -164.725; -964.000; -808.000
411.065; -115.275; -671.000; -645.000
411.191;  -31.900; -189.000; -174.000
411.317; -117.100; -823.000; -742.000
411.444;  -62.475; -317.000; -246.000
411.570;  -97.850; -339.000; -294.000
411.697; -141.850; -758.000; -752.000
411.823; -180.875; -989.000; -999.000
411.949;  -56.325;  -56.000;   17.000
412.076; -123.125; -539.000; -519.000
412.202; -127.000; -758.000; -757.000
412.329; -156.050; -798.000; -752.000
412.455; -139.475; -821.000; -657.000
412.581;  -38.175;  -15.000;  172.000
412.707;  -81.175; -540.000; -457.000
412.834;   -3.900;  156.000;  219.000
412.960;  -97.775; -785.000; -784.000
413.086; -116.625; -743.000; -701.000
413.212;  109.150;  604.000;  578.000
413.339;  -92.450; -685.000; -701.000
413.465;  -30.525; -364.000; -310.000
413.591; -112.250; -757.000; -474.000
413.717;  -73.900; -358.000; -366.000
413.843; -146.550; -839.000; -861.000
413.969;  -63.925;  -47.000; -292.000
414.096; -114.450; -679.000; -679.000
414.222;  -16.975;  -33.000;   85.000
414.348;  -68.725; -652.000; -385.000
414.474;   53.225;   38.000;  -52.000
414.600;  -41.825; -126.000; -144.000
414.726;  -11.450;  -96.000;  -55.000
414.852;  -75.100; -365.000; -342.000
414.978;   27.150;  104.000;  -18.000
415.104;   26.900;   38.000;   80.000
415.230;    2.025; -329.000; -330.000
415.356;   36.050; -409.000; -514.000
415.482;  176.400;   13.000;  -35.000
415.608;  259.700; -247.000; -323.000
415.734;  980.225;   67.000;   38.000
415.860;20581.975; -875.000; -767.000
415.986;14562.475; -685.000; -607.000
416.111; 1258.850; -798.000; -652.000
416.237;  260.075; -424.000; -571.000
416.363; 1191.325; -765.000; -733.000
416.489; 4324.325; -324.000; -251.000
416.615;  437.150; -707.000; -742.000
416.741;  -23.100; -677.000; -784.000
416.866; -102.175; -673.000; -736.000
416.992; -124.850; -801.000; -818.000
417.118;  -43.075;  -41.000;  -80.000
417.244;  -90.500; -798.000; -531.000
417.369;  -91.975; -801.000; -612.000
417.495;  -22.900; -325.000; -254.000
417.621;  -98.650;-1015.000; -803.000
417.746;   -4.950; -579.000; -572.000
417.872;   53.775; -254.000; -144.000
417.998;   47.500; -515.000; -530.000
418.123; 1120.525;-1073.000; -845.000
418.249; 5632.125; -512.000; -601.000
418.374;  739.200; -916.000; -824.000
418.500;  104.850; -383.000; -482.000
418.626;  100.950;   70.000;  -59.000
418.751;   98.300; -549.000; -448.000
418.877;  187.600; -637.000; -643.000
419.002; 1893.175; -688.000; -560.000
419.128;13065.225; -930.000; -721.000
419.253; 3132.400; -967.000; -837.000
419.379;  411.600; -391.000; -338.000
419.504;  399.500;  325.000;  415.000
419.629;  544.275; -393.000; -212.000
419.755; 3843.625; -317.000; -254.000
419.880;22475.800;  -98.000;   67.000
420.006;12050.100; -280.000; -221.000
420.131;30432.250; -662.000; -775.000
420.256; 4270.600; -315.000; -316.000
420.382;  560.325; -665.000; -687.000
420.507;   53.450; -649.000; -778.000
420.632;   95.450; -337.000; -339.000
420.758;  168.275; -251.000; -425.000
420.883;  -97.200; -876.000; -672.000
421.008; -127.025; -775.000; -619.000
421.133;  -85.625; -509.000; -467.000
421.259;  -53.900; -325.000; -259.000
421.384; -120.450; -834.000; -693.000
421.509;  -74.225;-1052.000; -862.000
421.634;  852.725; -936.000; -820.000
421.759;  353.800; -359.000; -327.000
421.885;  -80.400; -717.000; -656.000
422.010; -113.575; -673.000; -542.000
422.135; -156.500; -695.000; -727.000
422.260;   31.300;  340.000;  280.000
422.385;  -42.950;   12.000;  -98.000
422.510;    7.650;  151.000;  -26.000
422.635;  -15.425;  -87.000;  -43.000
422.760;   62.700; -766.000; -791.000
422.885;   47.000;  -57.000;  -80.000
423.010;  -49.025; -112.000; -169.000
423.135; -113.950; -481.000; -561.000
423.260;  -40.575; -150.000; -245.000
423.385;   54.075;  476.000;  222.000
423.510;   22.825;   71.000;  -22.000
423.635;   47.875;  133.000;   45.000
423.760;   51.200;  383.000;  328.000
423.885;   38.075;  336.000;  391.000
424.010;    5.775;  -68.000;  -13.000
424.135;  -51.750;    5.000;  -33.000
424.259;  -97.075; -654.000; -457.000
424.384;  -70.850; -279.000; -272.000
424.509;  -46.975; -260.000; -186.000
424.634; -112.350; -761.000; -623.000
424.759;  -40.425; -688.000; -544.000
424.883;  -17.725; -506.000; -527.000
425.008;  145.175; -502.000; -410.000
425.133; 2043.050; -679.000; -653.000
425.258;  944.175; -517.000; -381.000
425.382;  887.450; -867.000; -774.000
425.507; 2248.825; -487.000; -543.000
425.632;  377.975; -802.000; -663.000
425.756;  493.375; -256.000; -146.000
425.881; 7174.875; -831.000; -857.000
426.006;19096.550; -604.000; -355.000
426.130; 2851.725; -696.000; -508.000
426.255;  358.250; -611.000; -491.000
426.379;  163.075; -189.000; -577.000
426.504;  383.900;  660.000;  544.000
426.629; 4129.675; -519.000; -466.000
426.753; 2778.825;   64.000;  -46.000
426.878;  320.025; -252.000; -288.000
427.002;  126.725; -651.000; -668.000
427.127; 1632.800;  -35.000; -158.000
427.251;11961.100;  372.000;  401.000
427.375; 3274.050; -191.000; -173.000
427.500; 2017.450; -616.000; -610.000
427.624;  649.625; -234.000; -400.000
427.749;   59.000; -216.000; -225.000
427.873;  -67.600; -499.000; -412.000
427.997;  -54.825; -222.000; -230.000
428.122;   64.550;  795.000;  703.000
428.246;   64.350;  433.000;  434.000
428.371; -151.375; -869.000; -773.000
428.495; -120.900; -624.000; -646.000
428.619;  -45.925; -186.000; -117.000
428.743;    7.300;   65.000;  132.000
428.868;  -19.575; -732.000; -643.000
428.992; 1181.350; -219.000; -326.000
429.116;  440.450; -329.000; -357.000
429.240;  200.000;  419.000;  426.000
429.365;  -43.150; -454.000; -574.000
429.489;  -56.925; -638.000; -647.000
429.613;    7.700; -236.000; -177.000
429.737;   25.925; -563.000; -432.000
429.861;  251.800; -247.000; -133.000
429.985; 5816.100; -425.000; -305.000
430.109; 6272.500; -770.000; -908.000
430.234;  694.675;   76.000;  -50.000
430.358;   63.200; -250.000; -160.000
430.482;  -78.375; -672.000; -564.000
430.606;  -79.125; -655.000; -375.000
430.730;  -11.925; -437.000; -388.000
430.854;   35.275; -909.000; -835.000
430.978;  -89.625; -795.000; -764.000
431.102; -108.725; -499.000; -422.000
431.226; -143.075; -874.000; -815.000
431.350;   12.500;  345.000;  422.000
431.474;  -83.150; -661.000; -373.000
431.597; -171.350;-1060.000; -848.000
431.721;  -90.400; -276.000; -267.000
431.845; -142.225; -704.000; -472.000
431.969;  -96.850; -304.000; -349.000
432.093;  -97.825; -395.000; -317.000
432.217;  -35.400;   32.000;   82.000
432.341; -102.325; -523.000; -518.000
432.464;  -12.050;   96.000;   40.000
432.588;  120.900; -401.000; -329.000
432.712;   68.925;  -52.000;  -52.000
432.836;   38.350;  213.000;  263.000
432.959;  -35.000; -372.000; -311.000
433.083;   89.725;   11.000;    2.000
433.207;  373.700;  285.000;  930.000
433.330; 5356.925; -391.000; -200.000
433.454; 6487.850; -654.000; -638.000
433.578; 3707.125;  583.000;  278.000
433.701;  652.525; -623.000; -675.000
433.825;  113.025; -292.000; -299.000
433.949;  101.125;   28.000;  -72.000
434.072;   -2.000; -410.000; -323.000
434.196;  -23.300; -309.000; -117.000
434.319; 3775.500;25482.000;25124.000
434.443;  699.325; -656.000; -603.000
434.566; 2735.200;  281.000;   62.000
434.690;  433.825; -637.000; -383.000
434.813;   43.850; -251.000; -173.000
434.937;  -90.300; -569.000; -696.000
435.060;  -72.600; -423.000; -332.000
435.184;  176.650; -492.000; -217.000
435.307;   91.375;  159.000;  102.000
435.431;  -30.125;  -40.000;   24.000
435.554;  -84.275; -399.000; -240.000
435.677;  -99.125; -350.000; -258.000
435.801;  -52.325;  -25.000;   49.000
435.924;  -34.975;    1.000;  -67.000
436.048; -148.400;-1019.000; -732.000
436.171;  -66.400; -240.000;  -66.000
436.294;  -32.150; -248.000; -229.000
436.417;  102.575; -963.000; -849.000
436.541;  -93.300; -814.000; -840.000
436.664;  -60.575; -242.000; -316.000
436.787;  -45.300;   13.000;  113.000
436.910; -133.350; -792.000; -422.000
437.034;   -7.100;  142.000;  143.000
437.157;   26.350;  -11.000;    0.000
437.280;  -75.575; -392.000; -292.000
437.403; -121.950; -982.000; -869.000
437.526;  398.200; -903.000; -865.000
437.649; 1624.725; -505.000; -332.000
437.772;  192.750; -692.000; -540.000
437.896;   85.075;  700.000;  544.000
438.019; -117.750; -758.000; -503.000
438.142; -113.250; -596.000; -506.000
438.265;  -53.000; -639.000; -670.000
438.388;  394.825; -520.000; -410.000
438.511;   27.725; -597.000; -394.000
438.634;  -63.975; -247.000; -125.000
438.757; -137.350; -693.000; -619.000
438.880;  -51.000;  -34.000;  -57.000
439.003;  -90.350; -417.000; -437.000
439.126;  -77.200; -287.000; -167.000
439.248;  -73.525;  -98.000; -139.000
439.371;  -40.350;    9.000;  -53.000
439.494;   19.450;  510.000;  439.000
439.617;  -59.325;   65.000;  -88.000
439.740; -181.550; -968.000; -816.000
439.863; -143.425; -755.000; -595.000
439.986; -128.100; -476.000; -431.000
440.108;  -60.675; -161.000; -112.000
440.231; -167.825; -950.000; -836.000
440.354;  -59.825;  -64.000; -150.000
440.477;  -13.575; -566.000; -542.000
440.599;  -36.250; -200.000; -225.000
440.722; -119.000; -709.000; -586.000
440.845;   61.575;  751.000;  928.000
440.968; -125.350; -415.000; -311.000
441.090;  -77.350; -199.000;  -33.000
441.213; -185.250;-1021.000; -825.000
441.336;  -41.600; -159.000;   -5.000
441.458; -100.150; -549.000; -396.000
441.581; -124.800; -628.000; -629.000
441.703;  -75.800; -152.000;   13.000
441.826; -123.875; -557.000; -400.000
441.948;  -55.100;   56.000;   51.000
442.071;   23.025;  555.000;  424.000
442.193; -124.375; -531.000; -485.000
442.316;   16.525;  152.000;   97.000
442.438;   34.925; -233.000;  -10.000
442.561;   49.450;  272.000;  262.000
442.683;  361.350; -809.000; -522.000
442.806;  838.050;   -8.000;   74.000
442.928;  -33.525; -859.000; -604.000
443.051;  -95.550; -577.000; -373.000
443.173; -104.775; -341.000; -339.000
443.295; -103.950; -263.000; -371.000
443.418;  -86.900; -321.000;  -29.000
443.540;  -29.675; -106.000;   -4.000
443.662; -130.925; -563.000; -465.000
443.785;  -16.975;  335.000;  199.000
443.907; -107.550; -362.000; -208.000
444.029; -136.825; -767.000; -494.000
444.152; -151.775; -644.000; -554.000
444.274;  -44.025;  -18.000;  -24.000
444.396; -130.875; -461.000; -221.000
444.518; -130.050; -691.000; -454.000
444.640; -117.175; -268.000; -111.000
444.763;  -30.750;  388.000;  249.000
444.885; -132.275; -432.000; -392.000
445.007;  -42.800;   35.000;   86.000
445.129; -118.025; -610.000; -515.000
445.251; -115.750; -372.000; -439.000
445.373; -139.500; -537.000; -386.000
445.495;   -0.550;  242.000;  350.000
445.617;   34.500;  853.000;  753.000
445.739;  -75.675; -215.000;  -97.000
445.861;  -49.150; -245.000; -112.000
445.984;  -52.400; -267.000; -101.000
446.105;  130.825; -418.000; -251.000
446.227;  447.925; -176.000;  -19.000
446.349;  -33.700; -358.000; -249.000
446.471; -117.600; -615.000; -448.000
446.593;  -77.850; -316.000;   19.000
446.715;  -22.275;  -67.000;   41.000
446.837;   45.375;  697.000;  832.000
446.959; -117.300; -457.000; -478.000
447.081; -154.875; -628.000; -518.000
447.203;   34.800;  862.000;  834.000
447.325; -107.375; -270.000;   42.000
447.446;   -4.600;  286.000;  530.000
447.568; -160.900; -921.000; -803.000
447.690;  -92.650; -236.000; -245.000
447.812; -162.250; -798.000; -519.000
447.933;  -41.050;  155.000;  127.000
448.055;  -68.925; -306.000; -261.000
448.177;  111.950;   31.000;   79.000
448.299;   -2.775; -935.000; -727.000
448.420;   -2.400;  -25.000;  159.000
448.542;  -60.825;   -3.000;   33.000
448.664;  -29.675;  109.000;  322.000
448.785;  -48.425;  265.000;   83.000
448.907; -100.050; -614.000; -353.000
449.028;  -52.925; -771.000; -471.000
449.150;   44.900;  492.000;  589.000
449.272; -195.950;-1044.000; -913.000
449.393;   27.950;  612.000;  694.000
449.515; -151.600; -634.000; -581.000
449.636;  -76.925; -264.000; -155.000
449.758;   66.625;  763.000;  622.000
449.879; -104.450; -498.000; -396.000
450.001;  -89.300; -149.000;  -49.000
450.122;  -53.300;  -95.000;  162.000
450.244;  -16.925;   37.000;  364.000
450.365; -103.050; -495.000; -301.000
450.486;  -30.925;   80.000;  268.000
450.608;   11.775;  393.000;  326.000
450.729;   65.450;  578.000;  645.000
450.850;   -5.575; -574.000; -466.000
450.972;  825.350; -552.000; -389.000
451.093; 5259.900;  190.000;  588.000
451.214; 2215.550; -516.000; -337.000
451.336;  396.375;  773.000;  579.000
451.457;   62.300;  264.000;  393.000
451.578;  -50.050; -118.000;  -74.000
451.699; -128.525; -546.000; -540.000
451.821;  -74.500; -284.000;  -50.000
451.942;  -15.025;  278.000;  285.000
452.063;   24.550;  228.000;  419.000
452.184;  589.825;  -54.000;  -49.000
452.305; 1138.400;  103.000;  170.000
452.427;  117.550; -549.000; -301.000
452.548;  -29.675;   23.000;   79.000
452.669;  -58.000; -257.000;  -89.000
452.790;  -69.050;    3.000;  -18.000
452.911;  -17.550;  195.000;  259.000
453.032;  -80.175; -289.000;  -60.000
453.153;  -54.800;  -29.000;   81.000
453.274;   53.875;  737.000;  868.000
453.395;  -65.025;  -51.000;  175.000
453.516;  113.725; 1317.000; 1388.000
453.637;  -94.050; -205.000; -150.000
453.758;  -59.175;   15.000;   69.000
453.879; -127.150; -462.000; -250.000
454.000;   71.400; 1086.000;  948.000
454.121; -123.525; -554.000; -326.000
454.242; -131.975; -599.000; -383.000
454.362;  -52.425;  -99.000;  114.000
454.483;  -40.275; -309.000; -229.000
454.604;   42.350;  512.000;  580.000
454.725; -147.950; -627.000; -555.000
454.846; -130.750; -474.000; -406.000
454.967;  -33.050;  230.000;  539.000
455.087;  -55.275;  179.000;  153.000
455.208;    9.875;  554.000;  856.000
455.329;  -67.575;  -22.000;   82.000
455.450;   41.475;  473.000;  633.000
455.570;  -94.100; -234.000; -211.000
455.691;  -52.750;  201.000;  407.000
455.812; -123.075; -270.000;  -92.000
455.932;  -67.400;  107.000;  -97.000
456.053;  -88.425;   36.000;   24.000
456.173; -122.200; -433.000; -355.000
456.294; -128.900; -476.000; -303.000
456.415;  -83.475;  -73.000;   70.000
456.535;  -46.250;  297.000;  273.000
456.656;  -49.475;  132.000;  240.000
456.776;  -78.475;    3.000;  298.000
456.897;  -15.700;  308.000;  513.000
457.017;  -81.850; -153.000;   -3.000
457.138; -121.075; -402.000; -249.000
457.258;  -45.950;  263.000;  224.000
457.379;  -22.100;  509.000;  521.000
457.499;  -39.400;  443.000;  432.000
457.620; -120.375; -407.000; -231.000
457.740; -100.850; -132.000;  -11.000
457.860;  -64.500;   87.000;   44.000
457.981;  -68.050;  132.000;  124.000
458.101;  -83.625;  -89.000;   40.000
458.221;  -23.700;  336.000;  402.000
458.342;  -73.100;   -4.000;  -37.000
458.462;   19.825;  617.000;  352.000
458.582;  -29.325; -302.000; -294.000
458.703;   -6.000;  303.000;  154.000
458.823;  -45.650;   22.000;  163.000
458.943;   20.775;  341.000;  467.000
459.063;  -28.025; 1124.000;  192.000
459.183;  -42.175;  328.000;  313.000
459.304;    4.150;  315.000;  517.000
459.424;  -71.225; -246.000;  -89.000
459.544;  328.875;  388.000;  764.000
459.664;  864.100;  499.000;  506.000
459.784;  308.775; 1004.000; 1175.000
459.904;   51.225;  867.000;  744.000
460.024;   53.675;  867.000;  684.000
460.144;   -1.900;  449.000;  554.000
460.264;  -19.500;  515.000;  327.000
460.385;  -99.225; -145.000; -119.000
460.505;   35.775;  905.000;  858.000
460.625;  -99.700;  -17.000;  -68.000
460.745;  -37.750;  396.000;  541.000
460.864;  -51.975;  153.000;  469.000
460.984;  -12.525;  499.000;  573.000
461.104;  146.475; 1656.000; 1775.000
461.224;   19.550;  657.000;  650.000
461.344;  -39.925;  431.000;  360.000
461.464;  -47.050;  258.000;  513.000
461.584;  -28.025;  283.000;  466.000
461.704;  -57.850;   58.000;  108.000
461.824;  -67.950;  238.000;  259.000
461.943;  -45.950;  191.000;  130.000
462.063;  -69.475;    2.000;  324.000
462.183;   24.225;  639.000;  717.000
462.303;   90.325; 1678.000; 1230.000
462.422;   25.325;  781.000;  840.000
462.542;  -45.825;  271.000;  391.000
462.662;   25.550;  353.000;  380.000
462.782;  251.050;  833.000;  572.000
462.901;  506.950;  545.000;  717.000
463.021;  292.125; 1702.000; 1638.000
463.141;  -14.850;  337.000;  770.000
463.260;  -20.475;  614.000;  474.000
463.380;    0.050;  902.000;  884.000
463.499;  -42.175;  342.000;  332.000
463.619;  -31.700;  581.000;  559.000
463.738;  107.600; 1644.000;  903.000
463.858;    8.200;  657.000;  811.000
463.978;  -39.025;  542.000;  396.000
464.097;   45.600;  921.000; 1114.000
464.217;  112.200; 1196.000; 1143.000
464.336;  113.400; 1068.000; 1130.000
464.455;  -40.625;  328.000;  659.000
464.575;   28.400;  597.000;  602.000
464.694;  157.800; 1204.000; 1179.000
464.814;  111.650; 1190.000; 1138.000
464.933;   61.500; 1095.000; 1027.000
465.052;   82.925; 1412.000; 1054.000
465.172;   73.925;  922.000;  799.000
465.291;  115.850; 1376.000; 1320.000
465.410;    6.850;  462.000;  735.000
465.530;   83.000; 1355.000; 1310.000
465.649;   50.100; 1209.000; 1273.000
465.768;  135.525; 1673.000; 1508.000
465.888;   47.950;  941.000; 1174.000
466.007;   88.550; 1335.000; 1440.000
466.126;    5.300;  721.000;  641.000
466.245;   33.500; 1176.000; 1187.000
466.364;   13.725;  950.000; 1060.000
466.484;   42.000; 1024.000; 1213.000
466.603;   35.250; 1101.000; 1222.000
466.722;  101.575; 1490.000; 1769.000
466.841;   57.625; 1151.000; 1401.000
466.960;   32.000; 1069.000;  972.000
467.079;  124.400; 1971.000; 1786.000
467.198;   47.325; 1238.000; 1181.000
467.317;   65.575; 1768.000; 1162.000
467.436;   68.350; 1709.000; 1261.000
467.555;  119.275; 1796.000; 1746.000
467.674;   62.100; 1227.000; 1329.000
467.793;   32.650; 1376.000; 1374.000
467.912;   74.825; 1658.000; 1539.000
468.031;  130.650; 2038.000; 1930.000
468.150;  136.000; 1842.000; 1837.000
468.269;  191.825; 2313.000; 2090.000
468.388;  174.650; 2168.000; 2339.000
468.507;  234.425; 2884.000; 2903.000
468.626;  234.425; 2555.000; 2541.000
468.744;  135.800; 2018.000; 2174.000
468.863;  199.025; 2312.000; 2523.000
468.982;   76.750; 1503.000; 1555.000
469.101;  216.175; 2788.000; 2692.000
469.220;  146.725; 2333.000; 2176.000
469.338;  245.175; 2935.000; 3051.000
469.457;  194.550; 2719.000; 2545.000
469.576;  326.575; 3953.000; 3784.000
469.695;  241.450; 2877.000; 3066.000
469.813;  415.475; 4148.000; 4192.000
469.932;  386.750; 4255.000; 4485.000
470.051;  434.175; 4075.000; 4161.000
470.169;  891.675; 4470.000; 4338.000
470.288; 1496.350; 4700.000; 4809.000
470.406;  894.525; 5059.000; 5194.000
470.525;  641.275; 6101.000; 5787.000
470.644;  651.125; 6847.000; 6794.000
470.762;  867.375; 8397.000; 7873.000
470.881;  901.425; 8651.000; 8464.000
470.999; 1035.325; 9685.000; 9151.000
471.118; 1098.950;11174.000;10711.000

