
Integration time [ms]: 100.000
Averaging Nr. [scans]: 40
Smoothing Nr. [pixels]: 0
Data measured with spectrometer [name]: 2101012U2
Wave   ;Sample   ;Dark     ;Reference
[nm]   ;[counts] ;[counts] ;[counts] 

197.733;   63.025;  516.000;  404.000
197.879;  -80.775; -610.000; -634.000
198.025;  -38.300; -475.000; -420.000
198.171;  -77.475; -602.000; -612.000
198.317;  -30.825; -401.000; -316.000
198.463;  -58.325; -655.000; -404.000
198.609;   16.450;  181.000; -137.000
198.755;  -78.525; -644.000; -410.000
198.901;  -70.850; -505.000; -424.000
199.047;  -60.575; -615.000; -488.000
199.193;  -42.050; -230.000; -468.000
199.339;  -43.575; -222.000; -369.000
199.485;   25.825;  330.000;  271.000
199.631;   18.275;  227.000;  310.000
199.777;  -48.275; -466.000; -398.000
199.923;  -70.925; -610.000; -424.000
200.069;    1.400; -141.000;  -58.000
200.215;   63.825;  128.000;  453.000
200.361;   40.025;  243.000;  477.000
200.507;  -49.875; -600.000; -373.000
200.653;  -11.125; -371.000; -194.000
200.798;  -36.575; -215.000; -125.000
200.944;   -5.450; -146.000;  -41.000
201.090;   24.425;   61.000;  222.000
201.236;   -1.350; -116.000; -158.000
201.382;  103.025;  874.000;  903.000
201.528;   -0.200;  -58.000;  -48.000
201.674;  -32.050; -386.000; -293.000
201.819;  -62.725; -540.000; -439.000
201.965;  -85.275; -699.000; -447.000
202.111;  -18.525; -273.000; -226.000
202.257;  -29.350; -250.000; -238.000
202.402;    6.275;   13.000;  -36.000
202.548;  -29.550; -169.000; -116.000
202.694;   82.200;  410.000; -183.000
202.840;  -86.450; -603.000; -531.000
202.985;  -78.850; -681.000; -639.000
203.131; -103.275; -832.000; -666.000
203.277;  -26.675; -199.000; -262.000
203.423;  -49.375; -434.000; -520.000
203.568;  -42.150; -462.000; -237.000
203.714;  -61.800; -535.000; -542.000
203.860;  -67.950; -682.000; -641.000
204.005;   14.575;  112.000;  167.000
204.151;   71.675;  561.000;  556.000
204.296;  -43.525; -354.000; -221.000
204.442;  -68.775; -600.000; -547.000
204.588;  -80.800; -592.000; -579.000
204.733;   12.825;  178.000;  168.000
204.879; -121.825;-1018.000; -822.000
205.025;    9.400;  -99.000;  126.000
205.170;  -15.800;  -17.000;   94.000
205.316;   65.525;  438.000;  661.000
205.461;  -85.650; -698.000; -554.000
205.607;   82.950;  609.000;  665.000
205.752;  -88.150; -626.000; -551.000
205.898;  -55.900; -501.000; -391.000
206.043;  -74.250; -578.000; -506.000
206.189;  -45.700; -243.000; -285.000
206.334;   70.450;  554.000;  606.000
206.480;   76.325;  409.000;  239.000
206.625;  -81.950; -529.000; -552.000
206.771;  -42.325; -451.000; -373.000
206.916;  -31.500; -210.000; -537.000
207.062;  -70.575; -545.000; -591.000
207.207;  -52.600; -546.000; -443.000
207.353;   48.675;  185.000;  460.000
207.498;    7.300;  196.000;   85.000
207.643;  -60.800; -501.000; -370.000
207.789; -122.550;-1069.000; -910.000
207.934;  -85.250; -665.000; -713.000
208.080;  -23.175; -154.000;   66.000
208.225;   -5.750;  -22.000;  -57.000
208.370;  -77.000; -727.000; -619.000
208.516;  -75.150; -741.000; -487.000
208.661;  -31.575; -127.000;  -69.000
208.806;  -30.050; -165.000; -171.000
208.952; -136.900;-1044.000; -731.000
209.097;   67.750;  378.000;  349.000
209.242;  -39.675; -307.000; -382.000
209.387;   53.150;  392.000;  350.000
209.533;  -56.175; -321.000; -350.000
209.678;   74.525;  472.000;  543.000
209.823;  -67.075; -408.000; -310.000
209.969;  -90.325; -860.000; -757.000
210.114; -108.250; -907.000; -719.000
210.259; -112.425; -939.000; -889.000
210.404;  -16.000; -171.000;  103.000
210.549;    8.075;  108.000;    3.000
210.695;  -20.150;   -3.000;  -95.000
210.840;   28.300;   94.000;   67.000
210.985;  -50.300; -484.000; -303.000
211.130;   62.650;  268.000;  406.000
211.275;   10.300;  207.000;  199.000
211.420;  -51.300; -300.000; -289.000
211.566;  -70.675; -536.000; -489.000
211.711;   38.125;  218.000;  157.000
211.856;  -63.050; -545.000; -519.000
212.001;   -6.700;  151.000;   44.000
212.146;   29.425;  153.000;   49.000
212.291;  -21.425; -210.000; -186.000
212.436;  -13.650; -280.000;   -6.000
212.581;  -81.300; -685.000; -653.000
212.726;  -96.100; -487.000; -538.000
212.871;  -49.850; -552.000; -217.000
213.016; -158.450;-1172.000;-1029.000
213.161;   67.900;  406.000;  291.000
213.306;  -83.550; -435.000; -577.000
213.451;  -96.650; -778.000; -689.000
213.596;  -45.550; -455.000; -347.000
213.741;  -54.575; -448.000; -538.000
213.886;  -63.850; -498.000; -517.000
214.031;  -24.600; -294.000; -124.000
214.176;  -64.350; -408.000; -341.000
214.321;  -15.350; -296.000; -157.000
214.466;  -29.875; -163.000;  -43.000
214.611;  -19.550;  -61.000;  -10.000
214.756; -125.400; -948.000; -858.000
214.901;  -32.875; -388.000; -226.000
215.046; -130.825; -797.000; -825.000
215.191;   10.025;  128.000;   35.000
215.336;   -0.725; -157.000;  -19.000
215.480;  -72.025; -684.000; -505.000
215.625;  -23.775; -175.000;  -19.000
215.770;  -69.875; -757.000; -662.000
215.915;  -11.800;   -5.000;  -97.000
216.060;    0.400; -113.000;  -21.000
216.205; -111.675; -731.000; -779.000
216.349;  -68.600; -470.000; -533.000
216.494; -125.875; -939.000; -867.000
216.639; -111.300; -823.000; -888.000
216.784;  -87.025; -577.000; -525.000
216.929;   51.925;  392.000;  281.000
217.073;  -18.975; -244.000;  -31.000
217.218;   13.250;   78.000;  -47.000
217.363;  -92.650; -656.000; -618.000
217.507;  -87.600; -623.000; -588.000
217.652; -117.850; -845.000; -874.000
217.797;  -84.250; -708.000; -659.000
217.942; -105.225; -856.000; -720.000
218.086;   64.750;  608.000;  539.000
218.231;  -16.700; -174.000;  -26.000
218.376;  -26.875; -337.000; -229.000
218.520;   -1.375;  -41.000;   96.000
218.665;  -38.750; -338.000; -204.000
218.810;  -42.425; -275.000; -233.000
218.954;   19.050;  201.000;   35.000
219.099; -102.250; -713.000; -963.000
219.243;  -66.625; -589.000; -554.000
219.388;  -46.275; -264.000; -136.000
219.532;  -24.850; -116.000; -116.000
219.677;  -80.550; -564.000; -521.000
219.822;    0.425;   33.000;   89.000
219.966;    7.000;   17.000;  -99.000
220.111;  -34.450; -328.000;  -40.000
220.255;  -89.850; -797.000; -750.000
220.400;  -29.075; -180.000; -146.000
220.544;  -67.200; -516.000; -450.000
220.689;  -57.925; -422.000; -451.000
220.833;  -25.475; -123.000;  -58.000
220.978;  -42.000; -393.000; -563.000
221.122;   12.850;  319.000;  307.000
221.267; -114.600; -906.000; -837.000
221.411;  -65.275; -478.000; -394.000
221.555;   -1.200; -104.000;  -23.000
221.700;  -50.400; -329.000; -222.000
221.844;   27.900;  255.000;  272.000
221.989;  -42.875; -328.000; -311.000
222.133;  -27.275; -289.000; -307.000
222.277;    0.075;    5.000;   78.000
222.422;   20.350;  227.000;  113.000
222.566;  -30.150; -381.000; -214.000
222.711;  -61.500; -414.000; -479.000
222.855;  -90.100; -643.000; -586.000
222.999;  -89.600; -642.000; -717.000
223.144;  -25.675; -195.000; -194.000
223.288;   46.050;  423.000;  251.000
223.432;   18.700;  184.000;  230.000
223.576;   27.425;  152.000;  -21.000
223.721;   29.325;  364.000;  273.000
223.865;  -61.475; -472.000; -475.000
224.009;  254.775; 1673.000; 1631.000
224.153;  -90.200; -660.000; -671.000
224.298;  -79.000; -531.000; -489.000
224.442;  -18.775;  -74.000;  -33.000
224.586;  -11.250; -169.000; -106.000
224.730;  -93.550; -858.000; -670.000
224.875; -106.075; -739.000; -688.000
225.019;   10.675;  102.000;  188.000
225.163;   48.250;  208.000;  341.000
225.307;   11.375;   97.000;  -91.000
225.451;   45.900;  360.000;  481.000
225.595;   19.125;  264.000;  176.000
225.739;  -21.450; -170.000;  -94.000
225.884;   13.125;   86.000;    5.000
226.028; -107.575; -760.000; -626.000
226.172;  -40.600; -260.000; -273.000
226.316; -109.800; -941.000; -902.000
226.460;  -65.300; -645.000; -493.000
226.604;  -49.575; -406.000; -400.000
226.748; -101.600; -836.000; -733.000
226.892;  -29.900; -227.000; -181.000
227.036;  -40.475; -537.000; -447.000
227.180;  -57.425; -551.000; -375.000
227.324;  -56.425; -561.000; -580.000
227.468; -105.600; -819.000; -717.000
227.612;   15.750;  242.000;  -28.000
227.756;  -97.025; -845.000; -698.000
227.900;   42.300;  342.000;  441.000
228.044;  -65.575; -509.000; -290.000
228.188;   58.475;  448.000;  568.000
228.332;  -84.575; -546.000; -472.000
228.476;  -27.300; -223.000; -149.000
228.620;  -39.800; -210.000; -150.000
228.764;   58.625;  431.000;  349.000
228.908;  -31.100; -155.000;   30.000
229.052;  -58.925; -615.000; -528.000
229.195;  -26.425; -172.000;   13.000
229.339;  -32.500; -235.000; -305.000
229.483;  -38.650;    5.000; -162.000
229.627;   -6.825; -156.000;  139.000
229.771;  -63.700; -218.000; -294.000
229.915;   12.800;  230.000;   79.000
230.059;  -92.425; -648.000; -663.000
230.202;  -40.350; -370.000; -317.000
230.346;  -17.700; -107.000;  107.000
230.490;  -66.225; -489.000; -521.000
230.634; -108.750; -736.000; -553.000
230.777;   86.075;  478.000;  509.000
230.921;  -59.475; -450.000; -359.000
231.065;  -37.900; -246.000; -286.000
231.209;   19.800;  261.000;  265.000
231.352;   18.550;   54.000;   40.000
231.496;   10.350;  568.000;  188.000
231.640;  -77.225; -693.000; -621.000
231.783;   65.800;  546.000;  525.000
231.927;  -43.300; -294.000; -365.000
232.071; -134.575; -962.000; -736.000
232.214; -115.575; -980.000; -764.000
232.358;  -95.425; -683.000; -599.000
232.502;    3.700;  -19.000;    7.000
232.645; -129.200;-1090.000; -927.000
232.789;  -29.200; -257.000; -218.000
232.933;  -46.475; -407.000; -224.000
233.076; -127.900;-1038.000; -897.000
233.220; -106.275; -752.000; -777.000
233.363;  -72.100; -669.000; -477.000
233.507;   41.775;  371.000;  129.000
233.650; -100.550; -764.000; -834.000
233.794;   45.625;  438.000;  461.000
233.938;  -60.775; -530.000; -362.000
234.081;  -18.675;  -93.000;   31.000
234.225;  -63.450; -631.000; -539.000
234.368; -120.400; -773.000; -723.000
234.512;  -48.775; -385.000; -299.000
234.655;  -86.025; -582.000; -555.000
234.798;  -63.675; -493.000; -466.000
234.942; -131.775; -884.000;-1002.000
235.085;  -73.950; -651.000; -443.000
235.229;  -86.225; -405.000; -410.000
235.372;  -44.325; -247.000; -191.000
235.516;  -65.950; -397.000; -321.000
235.659;   18.575;   92.000;  121.000
235.802;  -16.550;  -38.000;  -22.000
235.946;   16.875;  335.000;  215.000
236.089;   16.900;  126.000;  250.000
236.233;   45.100;  275.000;  298.000
236.376;  -44.950; -235.000; -378.000
236.519;  -40.675; -297.000; -319.000
236.663;  -20.500; -215.000; -117.000
236.806; -135.575;-1029.000; -999.000
236.949;   43.450;  543.000;  431.000
237.092;   54.650;  412.000;  391.000
237.236;  -82.450; -589.000; -502.000
237.379;   45.825;  352.000;  428.000
237.522; -111.850; -879.000; -768.000
237.666;  -19.050; -271.000;   18.000
237.809; -124.550; -851.000; -823.000
237.952;   26.875;  469.000;  271.000
238.095;  -76.425; -447.000; -442.000
238.238;   72.775;  688.000;  700.000
238.382;   -3.625;  166.000;  103.000
238.525;  -56.550; -598.000; -511.000
238.668; -134.425;-1060.000; -985.000
238.811;  -68.700; -638.000; -643.000
238.954;  -67.000; -483.000; -334.000
239.097;   95.225;  617.000;  664.000
239.241;   15.800;  394.000;  326.000
239.384;  -23.850; -254.000; -214.000
239.527;  -62.400; -424.000; -224.000
239.670; -145.975; -994.000;-1091.000
239.813; -118.425; -696.000; -658.000
239.956;   62.925;  579.000;  473.000
240.099; -108.550; -778.000; -725.000
240.242;   60.150;  428.000;  432.000
240.385;   34.600;  466.000;  450.000
240.528;  -77.725; -706.000; -473.000
240.671;   17.975;  189.000;  134.000
240.814;  -46.850; -441.000; -158.000
240.957; -106.600; -767.000; -578.000
241.100; -101.325; -779.000; -755.000
241.243; -143.350;-1234.000; -893.000
241.386;  -71.425; -508.000; -379.000
241.529;  -89.025; -735.000; -547.000
241.672;  -61.075; -566.000; -495.000
241.815; -125.125; -832.000; -808.000
241.958;  -39.975; -125.000; -182.000
242.101;  -81.125; -545.000; -390.000
242.244;  -30.900; -270.000; -325.000
242.387;  -46.675; -304.000; -246.000
242.530;   52.750;  470.000;  134.000
242.673;  -58.350; -381.000; -309.000
242.815; -116.275; -925.000; -899.000
242.958;  -73.750; -482.000; -381.000
243.101;   10.975;  132.000;  187.000
243.244;  -91.650; -564.000; -521.000
243.387;  -50.025; -313.000; -316.000
243.530;  -87.500; -657.000; -674.000
243.672;   -0.475;   43.000;  -92.000
243.815;  -60.650; -355.000; -283.000
243.958;   -3.550;   98.000;  -26.000
244.101;   -0.300;   59.000;  -16.000
244.243;   -9.900;  -47.000;  101.000
244.386; -109.075; -761.000; -630.000
244.529;  -22.875; -132.000; -139.000
244.672; -146.475;-1154.000; -951.000
244.814;  -98.675; -621.000; -794.000
244.957;  -57.075; -380.000; -304.000
245.100;  -86.000; -489.000; -489.000
245.242;  -55.925; -387.000; -374.000
245.385;  -19.575;  -59.000;  -39.000
245.528; -115.675; -871.000; -705.000
245.670;   85.425;  612.000;  634.000
245.813;  -94.375; -599.000; -547.000
245.956;  -32.050; -324.000; -275.000
246.098;  -68.325; -508.000; -650.000
246.241;    4.225;  194.000;   48.000
246.383;  -29.400; -119.000;  -73.000
246.526;  -69.625; -454.000; -525.000
246.669; -125.800; -889.000; -780.000
246.811;   15.125;  172.000;   -1.000
246.954;  -69.400; -512.000; -426.000
247.096;  -28.650;  -84.000;   -6.000
247.239;  -60.250; -482.000; -445.000
247.381;  -69.950; -647.000; -488.000
247.524;   67.350;  645.000;  679.000
247.666;  -15.275;   58.000;   11.000
247.809; -125.550; -887.000; -691.000
247.951;   -8.000;  -75.000;  138.000
248.094;   17.575;  432.000;  308.000
248.236; -157.225;-1262.000;-1238.000
248.378;   -8.025; -356.000;  -81.000
248.521;  -27.150; -334.000; -337.000
248.663;  -33.300; -236.000; -267.000
248.806;  -12.200; -300.000; -266.000
248.948; -100.325; -886.000; -763.000
249.090;  -31.275; -428.000; -398.000
249.233;  -44.825; -344.000; -381.000
249.375;  -59.900; -474.000; -451.000
249.518;  -28.875;  -83.000; -133.000
249.660;  -17.350; -103.000;    3.000
249.802; -159.800;-1303.000;-1189.000
249.945;  -68.875; -612.000; -540.000
250.087; -123.550; -834.000; -768.000
250.229;  -47.850; -362.000; -480.000
250.371;  -85.000; -494.000; -439.000
250.514;  -40.450; -310.000; -244.000
250.656;  -53.025;   69.000;  102.000
250.798; -121.175; -849.000; -800.000
250.940;  -56.975; -322.000; -322.000
251.083;  -25.000; -335.000; -111.000
251.225;   61.475;  338.000;  310.000
251.367;  -52.125; -274.000; -373.000
251.509;  -44.200; -265.000; -210.000
251.651;  -97.425; -731.000; -671.000
251.794;   47.450;  538.000;  632.000
251.936; -106.925; -821.000; -747.000
252.078;  -79.450; -540.000; -461.000
252.220;  -66.875; -645.000; -477.000
252.362;   91.150;  344.000;  462.000
252.504;  -66.625; -677.000; -584.000
252.646; -116.475; -875.000; -722.000
252.788;   -5.375;   14.000; -128.000
252.931;  -19.625; -257.000; -253.000
253.073;  -39.800; -376.000; -317.000
253.215;  -14.425;  141.000;  122.000
253.357;  -11.750;   82.000; -153.000
253.499;  -50.900; -374.000; -234.000
253.641;  -82.700; -749.000; -594.000
253.783;  -82.300; -609.000; -527.000
253.925;  -97.975; -586.000; -591.000
254.067; -108.600; -744.000; -667.000
254.209;  -29.425; -391.000; -259.000
254.351; -136.625; -865.000; -883.000
254.493;  -54.900; -441.000; -417.000
254.635; -129.275; -936.000; -818.000
254.777;  -93.300; -752.000; -687.000
254.918;  -68.250; -512.000; -430.000
255.060;  -46.875; -551.000; -395.000
255.202;  -74.350; -473.000; -261.000
255.344;  -73.275; -658.000; -455.000
255.486;  -72.950; -471.000; -406.000
255.628; -104.675; -780.000; -781.000
255.770;  -94.725; -676.000; -536.000
255.912;  -68.975; -559.000; -468.000
256.053;  -98.325; -730.000; -508.000
256.195;  147.275; 1008.000;  903.000
256.337;  -93.375; -861.000; -595.000
256.479;   47.875;  532.000;  416.000
256.621;  -54.225; -394.000; -212.000
256.762;  -96.475; -789.000; -742.000
256.904;   32.675;  485.000;  487.000
257.046;  -37.325; -381.000; -271.000
257.188;  -49.425; -351.000; -264.000
257.329;  -80.175; -525.000; -464.000
257.471; -113.275; -939.000; -807.000
257.613;  -57.250; -584.000; -498.000
257.755; -140.275;-1073.000; -982.000
257.896;   25.025;  286.000;  392.000
258.038;  -79.925; -403.000; -352.000
258.180;  -51.550; -354.000; -279.000
258.321;  -87.975; -581.000; -457.000
258.463;   -4.775;  -71.000;  133.000
258.605;  -97.750; -562.000; -570.000
258.746;  -99.575; -886.000; -772.000
258.888; -149.125;-1026.000;-1020.000
259.029;    4.675;  121.000;   -8.000
259.171;  -79.625; -614.000; -550.000
259.313;    3.900;  -49.000;  -47.000
259.454;  -70.625; -536.000; -414.000
259.596;  -65.850; -483.000; -390.000
259.737;  -77.375; -590.000; -474.000
259.879;   33.650;  217.000;  311.000
260.020;   97.725;  901.000;  636.000
260.162;  -37.500; -146.000; -253.000
260.303; -132.275; -768.000; -687.000
260.445;  -77.250; -609.000; -613.000
260.586;   23.025;  392.000;  157.000
260.728;  -44.425; -360.000; -248.000
260.869;  -66.275; -350.000; -343.000
261.011;   64.800;  706.000;  537.000
261.152;  -69.500; -479.000; -319.000
261.293;  -67.725; -576.000; -595.000
261.435;  -31.625; -219.000; -184.000
261.576;  -50.400; -455.000; -325.000
261.718;   43.925;  420.000;  470.000
261.859; -113.200; -940.000; -949.000
262.000; -134.675; -951.000;-1016.000
262.142;  -30.925;  -52.000;  -60.000
262.283; -125.425; -808.000; -691.000
262.424;  -92.275; -666.000; -625.000
262.566; -144.425;-1161.000; -983.000
262.707; -108.875; -840.000; -830.000
262.848; -126.350; -769.000; -726.000
262.990;  -46.225; -362.000; -345.000
263.131;   78.750;  650.000;  681.000
263.272;  -20.975;  -61.000;  -41.000
263.413;  -94.550; -589.000; -561.000
263.555;  -70.875; -669.000; -143.000
263.696;  -83.450; -550.000; -641.000
263.837;  -60.800; -449.000; -551.000
263.978;   -7.050;   -5.000;  -77.000
264.119;  -44.725; -283.000; -264.000
264.261; -118.350; -847.000; -630.000
264.402;   -6.200;   33.000;   40.000
264.543;  -86.950; -509.000; -524.000
264.684;  -18.900;   61.000;  -50.000
264.825;  -87.375; -816.000; -538.000
264.966;  -11.175;  -84.000;  -67.000
265.107; -117.600; -646.000; -670.000
265.248; -110.150; -825.000; -812.000
265.390;   -8.050;  152.000;   -9.000
265.531;  -28.450; -238.000; -107.000
265.672;  -86.825; -557.000; -630.000
265.813;   65.350;  563.000;  439.000
265.954; -140.600; -959.000; -940.000
266.095;   -3.700; -372.000; -322.000
266.236;  -89.600; -686.000; -548.000
266.377;  -36.225; -243.000; -297.000
266.518;  -72.100; -619.000; -547.000
266.659;   27.625;  170.000;  268.000
266.800;    7.850;   83.000;   85.000
266.941;  -75.400; -487.000; -478.000
267.082;    7.350;  354.000;   99.000
267.223;  -60.225; -344.000; -273.000
267.364; -116.575; -892.000; -686.000
267.504;  -23.450;    3.000;  135.000
267.645;  -10.850;  160.000;   67.000
267.786;  -38.900; -147.000;  -86.000
267.927;  -61.350; -473.000; -379.000
268.068;   -6.725; -186.000;  -61.000
268.209;  -49.875; -175.000; -413.000
268.350;  -67.625; -388.000; -532.000
268.490;  -86.050; -648.000; -521.000
268.631;   29.100;  127.000;  225.000
268.772; -109.850; -874.000; -647.000
268.913;  -46.450; -328.000; -476.000
269.054;  -14.675; -117.000;   12.000
269.194;  -64.525; -418.000; -402.000
269.335; -170.425;-1137.000;-1074.000
269.476;  -13.175;   33.000;  -35.000
269.617;  -50.175; -347.000; -392.000
269.757;  -83.975; -713.000; -646.000
269.898; -105.700; -856.000; -613.000
270.039;  -52.900; -415.000; -405.000
270.180; -135.900; -952.000; -816.000
270.320;  -22.475; -190.000; -250.000
270.461;  -46.600; -277.000; -249.000
270.602;  -13.150; -186.000; -156.000
270.742; -121.600; -868.000; -943.000
270.883;  -56.075; -442.000; -390.000
271.023;  -61.075; -358.000; -357.000
271.164;  -81.525; -607.000; -528.000
271.305; -108.000; -666.000; -654.000
271.445; -101.925; -722.000; -683.000
271.586;  -61.650; -462.000; -283.000
271.726;  -45.975; -397.000; -322.000
271.867;  -56.200; -594.000; -534.000
272.008;  206.900; -473.000; -285.000
272.148;  133.500;  462.000;  468.000
272.289;   10.075; -113.000; -181.000
272.429;   29.650;   19.000;  185.000
272.570;  -87.900; -633.000; -737.000
272.710;  -93.375; -825.000; -775.000
272.851;  -22.600;  113.000; -130.000
272.991; -159.650;-1173.000;-1077.000
273.131;  -59.075; -419.000; -459.000
273.272;  -97.650; -683.000; -723.000
273.412;   -0.675; -143.000;  -31.000
273.553;  -52.375; -488.000; -507.000
273.693;  133.800;  913.000;  858.000
273.834;  -81.450; -894.000; -692.000
273.974;  -64.825; -664.000; -615.000
274.114; -102.650; -772.000; -560.000
274.255;   93.025;  414.000;  373.000
274.395;    7.150; -180.000; -125.000
274.535;   48.350;  199.000;  350.000
274.676;   22.550;  225.000;   94.000
274.816;    9.925;  110.000;   34.000
274.956;  -83.850; -624.000; -690.000
275.097;  -58.100;-1014.000; -922.000
275.237; -111.250; -913.000; -803.000
275.377; -103.075; -778.000; -689.000
275.517; -146.625; -878.000; -937.000
275.658;  -61.950; -590.000; -555.000
275.798;  -70.025; -606.000; -413.000
275.938;   29.200;  215.000;  323.000
276.078;  -84.225; -626.000; -395.000
276.218;   15.400;   99.000;  104.000
276.359; -131.925;-1026.000;-1024.000
276.499;  -68.275; -605.000; -446.000
276.639;  -22.875; -305.000; -151.000
276.779;  -47.500; -475.000; -357.000
276.919; -103.750; -783.000; -624.000
277.059;  -19.600; -261.000; -212.000
277.199;  -25.725; -357.000; -259.000
277.340;   40.675;  287.000;  175.000
277.480; -119.850; -840.000; -693.000
277.620;   25.250;  192.000;   16.000
277.760; -192.000;-1533.000;-1294.000
277.900;   13.675;  113.000;   33.000
278.040;   19.925;  137.000;  159.000
278.180;   40.900;  270.000;  170.000
278.320;   -3.350;   21.000;   56.000
278.460;  -55.625; -443.000; -469.000
278.600;  -97.000; -708.000; -598.000
278.740;   66.500;  448.000;  224.000
278.880;  -38.625; -768.000; -791.000
279.020;   -8.175; -194.000; -144.000
279.160;  -89.850; -672.000; -595.000
279.300; -109.225; -926.000; -873.000
279.440;  -89.250; -709.000; -622.000
279.579;    1.800;-1014.000; -929.000
279.719;  -41.750; -410.000; -394.000
279.859;   79.525;   -4.000;   41.000
279.999;   22.200; -208.000;  101.000
280.139;   -8.425; -435.000; -387.000
280.279;  -62.600; -708.000; -745.000
280.419;  -22.525; -229.000; -147.000
280.559;  -34.725; -259.000; -180.000
280.698;  -78.775; -790.000; -639.000
280.838;  -80.200; -778.000; -800.000
280.978;  -86.975; -846.000; -790.000
281.118; -114.700; -811.000; -704.000
281.257;    0.950;   24.000;    6.000
281.397;  -95.850;-1094.000; -960.000
281.537;  -87.550; -599.000; -712.000
281.677;  -13.025; -150.000; -101.000
281.816;  -91.000; -700.000; -630.000
281.956;  -36.025; -193.000; -257.000
282.096;  -62.175; -539.000; -396.000
282.235; -102.425; -672.000; -638.000
282.375;  -25.400; -243.000;  -98.000
282.515;  -99.850; -715.000; -707.000
282.654;   17.400;   29.000;  106.000
282.794;   24.350;  388.000;  244.000
282.934;  -45.075; -530.000; -491.000
283.073; -136.475;-1030.000; -857.000
283.213;  -49.475; -460.000; -467.000
283.353;  -22.250; -408.000; -349.000
283.492;  -31.675; -264.000; -296.000
283.632;  -41.025; -254.000; -168.000
283.771; -101.275; -859.000; -730.000
283.911;  -48.900; -369.000; -260.000
284.050; -112.300; -794.000; -748.000
284.190; -153.000;-1229.000;-1096.000
284.329; -136.300;-1055.000; -964.000
284.469;  -54.100; -516.000; -591.000
284.608;  -58.150; -559.000; -598.000
284.748;  -96.300; -614.000; -570.000
284.887;   -5.650;  -87.000;  -20.000
285.027; -125.500; -844.000; -892.000
285.166;  -29.750; -192.000; -249.000
285.306;   28.450; -116.000;  -33.000
285.445;  -36.275; -229.000; -343.000
285.584;  -84.000; -630.000; -494.000
285.724;  -39.625; -282.000; -322.000
285.863; -103.825; -857.000; -507.000
286.002;  -48.775; -366.000; -276.000
286.142; -110.150; -715.000; -622.000
286.281;  -71.425; -525.000; -493.000
286.420;  -87.300; -554.000; -417.000
286.560;   84.850;  653.000;  623.000
286.699; -133.425; -958.000; -912.000
286.838;  -74.675; -590.000; -591.000
286.978;  -82.950; -533.000; -537.000
287.117; -112.075;-1085.000; -950.000
287.256;  -27.850; -228.000; -211.000
287.395;  -38.300; -197.000; -378.000
287.535;  -36.625; -370.000; -298.000
287.674;  -80.000; -509.000; -484.000
287.813;   42.775;  661.000;  533.000
287.952; -119.600;-1010.000; -871.000
288.091; -138.525;-1049.000; -915.000
288.231;   17.900;   13.000;   15.000
288.370; -169.725;-1217.000;-1200.000
288.509;  -91.075; -728.000; -645.000
288.648;  -89.425; -770.000; -548.000
288.787;  -39.775; -243.000;  -87.000
288.926;  -58.125; -454.000; -475.000
289.065;  109.525;  859.000;  672.000
289.204;  -48.200; -377.000; -217.000
289.344;  -83.800; -791.000; -690.000
289.483;   22.650;  416.000;  304.000
289.622;  -14.650; -291.000; -149.000
289.761;  -23.925; -309.000; -166.000
289.900; -101.325; -785.000; -626.000
290.039;  -19.025;  -12.000;  -95.000
290.178;  -42.850; -274.000; -180.000
290.317;  -81.300; -618.000; -479.000
290.456;  -69.350; -463.000; -451.000
290.595; -127.675; -961.000; -833.000
290.734; -134.950; -904.000; -891.000
290.873;  -67.900; -456.000; -420.000
291.011; -106.675; -833.000; -843.000
291.150; -101.550; -770.000; -682.000
291.289;  -12.375; -343.000; -110.000
291.428;  -99.150; -599.000; -480.000
291.567;  -52.850; -370.000; -442.000
291.706;    5.400;  109.000;  154.000
291.845;  -97.350; -597.000; -505.000
291.984; -166.925;-1234.000;-1061.000
292.122;   79.550;  602.000;  582.000
292.261;   35.200;  620.000;  463.000
292.400;    8.675; -144.000;  211.000
292.539; -123.950; -959.000; -813.000
292.678;  -22.250; -325.000; -300.000
292.816; -153.550;-1136.000; -965.000
292.955;  -92.725; -844.000; -684.000
293.094;  -21.850; -173.000; -337.000
293.233;  -44.625; -556.000; -400.000
293.371;  -40.400; -225.000;  -84.000
293.510; -105.725; -866.000; -780.000
293.649; -129.750; -959.000; -924.000
293.787;  -44.850;-1083.000;-1012.000
293.926;  -11.325; -113.000;  -32.000
294.065;  -50.550; -379.000; -290.000
294.203;   44.175;  298.000;  406.000
294.342;   21.825;   74.000;  156.000
294.481; 5908.550;51180.000; -836.000
294.619;  -12.000; -425.000; -582.000
294.758; -141.650;-1230.000;-1137.000
294.896;   81.650; -125.000;    5.000
295.035; -128.250;-1040.000;-1006.000
295.174; -118.050;-1082.000; -954.000
295.312;  -37.825; -323.000; -203.000
295.451;  -12.750; -307.000; -428.000
295.589;  -53.275; -389.000; -518.000
295.728;   18.650; -292.000; -165.000
295.866;    9.900;  -36.000;  -51.000
296.005;  -64.875; -584.000; -341.000
296.143;  -57.725; -558.000; -596.000
296.282;  -99.625; -957.000; -881.000
296.420;  -94.850; -657.000; -557.000
296.559;  -69.375; -892.000; -633.000
296.697;   47.900; -847.000; -665.000
296.835;  106.750;-1141.000;-1002.000
296.974;   62.375;  -23.000;   39.000
297.112;   25.900; -443.000; -504.000
297.251;  -70.500; -815.000; -755.000
297.389;  114.000; -576.000; -438.000
297.527;   52.975; -145.000;  -83.000
297.666;  -43.075; -486.000; -438.000
297.804;  -48.250; -404.000; -264.000
297.942;  -11.500; -136.000; -161.000
298.081;   -0.675; -183.000;   63.000
298.219;   74.350;  -17.000;  -19.000
298.357;   75.000; -144.000;  -71.000
298.495;   70.350; -810.000; -812.000
298.634;   83.700;  245.000;  219.000
298.772;   79.925; -220.000; -338.000
298.910;  -28.225; -309.000; -182.000
299.048;  -18.750; -130.000; -153.000
299.187;  -32.650; -350.000; -250.000
299.325;   27.175;   52.000;  122.000
299.463;   69.350; -389.000; -299.000
299.601;  127.800; -327.000; -271.000
299.739;  -97.750; -908.000; -883.000
299.877;  -69.200; -791.000; -703.000
300.016;  -32.075;-1095.000; -935.000
300.154;  193.500;  -19.000; -161.000
300.292;   65.075; -428.000; -348.000
300.430;   37.825; -408.000; -291.000
300.568;  -92.300; -940.000; -874.000
300.706;  -43.675; -366.000; -469.000
300.844;  -55.225;-1108.000; -979.000
300.982;  110.875;  246.000;  282.000
301.120; -108.375; -965.000; -866.000
301.258;  -57.700; -812.000; -705.000
301.396;   38.025;  104.000;  -41.000
301.534;  112.275; -218.000; -293.000
301.672;   10.725; -664.000; -521.000
301.810;   61.125; -613.000; -545.000
301.948;  129.800;   53.000;  149.000
302.086;  737.400; -250.000;  -32.000
302.224; 1075.800; -610.000; -585.000
302.362;   66.350; -558.000; -622.000
302.500;    3.075; -923.000; -893.000
302.638;  127.250;  128.000;  245.000
302.776;    7.500; -352.000; -408.000
302.913;   51.200;  447.000;  236.000
303.051;    5.550;  -86.000;  -23.000
303.189;   53.300;   90.000;  118.000
303.327;  -31.150; -341.000; -256.000
303.465;  -60.700; -832.000; -588.000
303.603;  -93.225; -805.000; -604.000
303.740;   94.500;  417.000;  241.000
303.878;   46.575; -800.000; -759.000
304.016;  -76.325; -915.000; -790.000
304.154; -112.525;-1123.000;-1152.000
304.291;  -16.375; -505.000; -554.000
304.429;    5.275;  102.000;   74.000
304.567; -115.250; -908.000; -893.000
304.705;  -37.700; -408.000; -515.000
304.842;  123.300; -616.000; -540.000
304.980;   59.100;  215.000;   35.000
305.118;   57.575; -367.000; -365.000
305.255;  -60.900; -945.000; -927.000
305.393;   54.700;  178.000;  239.000
305.531;  -95.750;-1173.000; -956.000
305.668;  -58.800; -663.000; -582.000
305.806;  132.125; -358.000; -439.000
305.943;  139.375; -629.000; -637.000
306.081;   52.075; -378.000; -267.000
306.219; -102.000; -863.000; -748.000
306.356;   -6.425;  158.000;   27.000
306.494;  113.800;  981.000;  761.000
306.631;   -8.950;  -11.000;  -55.000
306.769;   16.250; -613.000; -485.000
306.906;   -5.300; -284.000; -258.000
307.044;  -64.550; -473.000; -488.000
307.181;  -61.950; -410.000; -332.000
307.319;   -0.550;  112.000;   87.000
307.456; -160.975;-1191.000;-1153.000
307.594;  -93.475; -980.000; -727.000
307.731;   -9.000; -371.000; -164.000
307.868;    6.275;  -15.000;   20.000
308.006; -123.975; -961.000; -847.000
308.143;  -47.475; -618.000; -330.000
308.281;  215.875;  -37.000; -254.000
308.418;   15.950; -748.000; -640.000
308.555;  -58.350; -400.000; -250.000
308.693;  -67.750; -577.000; -573.000
308.830; -106.850; -712.000; -657.000
308.967;  -22.425; -215.000;  -95.000
309.105;  -45.350; -507.000; -396.000
309.242;   65.525; -468.000; -367.000
309.379;  403.825; -577.000; -655.000
309.517;  -39.275; -936.000; -948.000
309.654; -110.425; -910.000; -734.000
309.791;  -69.975; -662.000; -580.000
309.928; -103.075; -977.000; -914.000
310.065;  192.700;  819.000;  697.000
310.203;   36.625; -825.000; -850.000
310.340;  -14.350; -465.000; -321.000
310.477;  -66.700; -412.000; -516.000
310.614;  -65.175; -383.000; -473.000
310.751;  -79.075; -427.000; -518.000
310.889;   -7.850;    1.000;   11.000
311.026; -156.875;-1161.000; -939.000
311.163;  -44.825; -386.000; -380.000
311.300;  -63.125; -512.000; -479.000
311.437;  -73.725; -658.000; -619.000
311.574; -155.950;-1226.000; -985.000
311.711;  -65.775; -595.000; -433.000
311.848;  -27.425; -380.000; -388.000
311.985;    0.125;  270.000;   93.000
312.122; -113.325; -932.000; -762.000
312.259; -105.425; -941.000; -994.000
312.396;  -75.425; -508.000; -551.000
312.533;  -93.025; -812.000; -790.000
312.670; -124.125;-1070.000; -898.000
312.807;  -27.550; -352.000; -367.000
312.944;  -86.175; -513.000; -611.000
313.081;  -39.225; -150.000; -415.000
313.218; -112.925;-1111.000; -867.000
313.355;   25.225; -531.000; -449.000
313.492;   12.975; -455.000; -292.000
313.629;  130.050;  815.000;  735.000
313.766; -148.500;-1176.000;-1008.000
313.902;  -26.950; -186.000;   21.000
314.039;  -45.075; -372.000; -289.000
314.176;   28.450;  286.000;  192.000
314.313;  -79.050; -569.000; -473.000
314.450;  -71.400; -788.000; -684.000
314.587;  -49.050; -468.000; -480.000
314.723;    2.850;  -78.000;  130.000
314.860;   30.325;  318.000;  332.000
314.997;   22.925;  223.000;  142.000
315.134;  -36.375; -385.000; -368.000
315.270;  -22.800; -480.000; -496.000
315.407; -121.525;-1094.000; -967.000
315.544;  -49.000; -657.000; -538.000
315.681;  -67.975; -681.000; -565.000
315.817;   45.725; -133.000; -176.000
315.954;   20.875; -613.000; -392.000
316.091; -118.300;-1045.000;-1023.000
316.227;  -10.250;  -71.000; -179.000
316.364;    8.400;   23.000;    6.000
316.500;  -38.875; -113.000; -300.000
316.637;  -53.875; -181.000; -302.000
316.774; -101.950; -625.000; -358.000
316.910;  -85.775; -598.000; -629.000
317.047;  -44.450; -487.000; -351.000
317.183;  -48.450; -435.000; -566.000
317.320;  -17.625; -367.000; -321.000
317.456;  -70.875; -733.000; -805.000
317.593;  -84.775; -598.000; -641.000
317.729;    0.500;  168.000;  -67.000
317.866; -196.200;-1434.000;-1285.000
318.002;  -85.925; -708.000; -948.000
318.139;  -94.850; -883.000; -867.000
318.275; -109.175;-1003.000; -738.000
318.412;  -71.375; -517.000; -336.000
318.548;    1.725; -751.000; -720.000
318.685;  -86.850; -985.000; -888.000
318.821;  -90.100; -762.000; -735.000
318.957;  -27.250;   34.000;  -23.000
319.094;   42.575;  297.000;  154.000
319.230;  -70.600; -756.000; -742.000
319.367;  168.725; -471.000; -520.000
319.503;   69.350; -538.000; -436.000
319.639;  -86.625; -877.000; -793.000
319.775;  -59.675; -750.000; -685.000
319.912;  -49.700; -424.000; -519.000
320.048;  -62.600;-1184.000;-1184.000
320.184;   76.700;   59.000;   70.000
320.321;  -64.925; -497.000; -467.000
320.457;   46.975;  475.000;  662.000
320.593;  -62.250; -375.000; -382.000
320.729;  -97.725; -732.000; -734.000
320.866;  -75.600; -577.000; -635.000
321.002;  -69.350; -759.000; -809.000
321.138;   -7.975; -135.000; -211.000
321.274;   84.275; -148.000; -115.000
321.410;  -19.625; -585.000; -353.000
321.546;  -12.625;-1011.000; -911.000
321.683;   67.550;  400.000;  185.000
321.819;   16.825;  -48.000; -117.000
321.955; -104.000; -743.000; -722.000
322.091;  -43.125; -585.000; -540.000
322.227;   -2.325; -382.000; -202.000
322.363;   -0.125; -320.000; -215.000
322.499;  -38.950; -343.000; -331.000
322.635;  173.375;  636.000;  443.000
322.771;   36.125; -139.000;   12.000
322.907;   87.650;  129.000;  327.000
323.043;  -17.250; -115.000; -206.000
323.179;  -40.425; -394.000; -363.000
323.315;   43.050; -401.000; -371.000
323.451;  125.625; -328.000; -236.000
323.587;   61.825;  -60.000;  -77.000
323.723;   32.900; -682.000; -601.000
323.859;  -17.850; -258.000;  -76.000
323.995;  -17.150; -467.000; -409.000
324.131; -108.425; -967.000; -892.000
324.267;  -49.875; -254.000; -276.000
324.402; -117.750; -960.000; -983.000
324.538;  -13.200; -279.000; -104.000
324.674;   16.650;  164.000;   77.000
324.810;  151.950;  226.000;  308.000
324.946;    5.900; -810.000; -658.000
325.082;  -55.275; -568.000; -475.000
325.217;  -13.825;  -62.000;   16.000
325.353; -112.625; -764.000; -659.000
325.489;  -87.000; -540.000; -506.000
325.625;  -65.500; -579.000; -525.000
325.760;   62.225;  517.000;  376.000
325.896;  -24.000; -515.000; -702.000
326.032;  -56.650; -403.000; -352.000
326.168;  -52.800; -462.000; -369.000
326.303;  -50.425; -352.000; -461.000
326.439;  -15.375; -336.000; -276.000
326.575;   -0.325; -190.000;  -29.000
326.710;   -7.350; -156.000;  -30.000
326.846;  -13.800;  146.000;  103.000
326.982;  -86.025; -530.000; -548.000
327.117;  -75.650; -481.000; -442.000
327.253;  -90.875; -745.000; -742.000
327.388; -160.525;-1137.000;-1153.000
327.524;  -37.475; -811.000; -578.000
327.659;  -24.000;  -58.000;  -22.000
327.795;   -8.600;   69.000;   45.000
327.931;  -80.975; -723.000; -499.000
328.066;  -26.025; -417.000; -276.000
328.202;   -2.850;   12.000; -129.000
328.337;   99.075;  957.000;  713.000
328.473;   31.750;  -12.000;  -74.000
328.608;  -21.275; -256.000; -267.000
328.743;  -73.675; -799.000; -664.000
328.879;   22.200;  214.000;  114.000
329.014;  -47.625; -102.000; -122.000
329.150;  -84.775; -358.000; -483.000
329.285;  -64.000; -465.000; -466.000
329.421;  -45.075; -548.000; -246.000
329.556;  -34.550;  -36.000;   85.000
329.691;  -86.375; -633.000; -615.000
329.827;  -74.250; -626.000; -480.000
329.962;  -40.400;  131.000; -301.000
330.097;  -93.075; -673.000; -585.000
330.233;  -60.225; -410.000; -223.000
330.368; -126.275; -839.000; -628.000
330.503;  -11.325;    3.000;   98.000
330.638;    7.350;  -93.000; -125.000
330.774;  -41.725; -609.000; -530.000
330.909;  -50.275; -434.000; -244.000
331.044;  -85.375; -714.000; -708.000
331.179; -170.525;-1217.000;-1109.000
331.315;    8.500;   77.000;   20.000
331.450;    9.950;  157.000;  285.000
331.585;  -88.425; -805.000; -706.000
331.720;  -76.175; -510.000; -460.000
331.855;  -17.150;  -35.000; -102.000
331.990;  235.925;   62.000;  138.000
332.126;  120.050; -110.000;   71.000
332.261;  -28.275; -379.000; -265.000
332.396;   -6.000; -135.000; -242.000
332.531;  -99.000;-1074.000;-1031.000
332.666;   31.225; -519.000; -363.000
332.801; -102.700; -726.000; -807.000
332.936;  -24.750; -192.000; -122.000
333.071; -137.275; -870.000; -817.000
333.206;   23.875;  307.000;  379.000
333.341;   31.000;  344.000;  418.000
333.476;  -75.100; -627.000; -623.000
333.611;  -35.250; -251.000; -173.000
333.746;  -49.750; -381.000; -464.000
333.881; -120.125; -973.000; -935.000
334.016; -125.925; -936.000; -917.000
334.151; -115.625; -746.000; -702.000
334.286;   33.025;  152.000;  186.000
334.421;  -22.650; -125.000; -178.000
334.556;  -69.750; -611.000; -567.000
334.690;  -82.750; -631.000; -577.000
334.825;   52.550;  381.000;   83.000
334.960;  -54.525; -285.000; -413.000
335.095;   22.375;  135.000;  -91.000
335.230;  -91.950; -722.000; -738.000
335.365; -137.675;-1084.000; -990.000
335.499; -136.125;-1108.000;-1037.000
335.634;   19.200;    9.000;  534.000
335.769;  -87.325; -755.000; -720.000
335.904;  -47.850; -603.000; -561.000
336.038;  -50.625; -735.000; -657.000
336.173; -108.975;-1206.000;-1194.000
336.308;   -4.175; -116.000; -189.000
336.443;   21.025; -544.000; -634.000
336.577;  -64.100; -936.000; -787.000
336.712;   75.850;   -4.000;  -12.000
336.847;  -29.050; -724.000; -607.000
336.981;   78.525; -272.000; -208.000
337.116;  317.700;  615.000;  501.000
337.250;  179.200; -434.000; -421.000
337.385;  236.350; -297.000; -208.000
337.520;   73.725; -632.000; -603.000
337.654;  -49.450; -215.000; -126.000
337.789; -123.450; -989.000; -933.000
337.923;  -25.900; -104.000; -205.000
338.058;  -80.475; -673.000; -738.000
338.192;  -31.575; -611.000; -488.000
338.327;    6.050;  -18.000; -155.000
338.461;  -66.775; -299.000; -469.000
338.596;  -94.000; -780.000; -638.000
338.730; -102.725; -767.000; -803.000
338.865;   89.775;  -46.000; -140.000
338.999;  -65.100; -846.000; -702.000
339.134;  -18.750; -634.000; -536.000
339.268;   10.850; -741.000; -603.000
339.403;  363.100; -740.000; -775.000
339.537;  100.400; -894.000; -820.000
339.671; -108.225; -829.000; -813.000
339.806;  -66.800; -556.000; -512.000
339.940;   14.575; -261.000; -235.000
340.074; -102.725; -685.000; -510.000
340.209;  -43.350; -351.000; -230.000
340.343;  -97.900; -517.000; -573.000
340.477;  144.975;  998.000; 1036.000
340.612;  -55.825;-1033.000; -900.000
340.746;  132.350; -199.000; -243.000
340.880;  -48.200; -924.000; -785.000
341.014;  -22.475;  -45.000; -154.000
341.149; -118.400; -756.000; -718.000
341.283;  -89.900; -839.000; -754.000
341.417;  -72.975;-1124.000; -938.000
341.551;  172.325; -768.000; -708.000
341.685;  -26.700; -633.000; -611.000
341.820;  -55.200; -562.000; -493.000
341.954;  -38.225; -218.000; -349.000
342.088; -150.725;-1102.000;-1019.000
342.222;   50.250;  565.000;  618.000
342.356;  -47.050; -395.000; -335.000
342.490;  -80.625; -880.000; -841.000
342.624;  -50.975; -339.000; -242.000
342.758;    7.525; -364.000; -312.000
342.892;  -62.025; -710.000; -585.000
343.026;  -46.975;  -58.000; -116.000
343.160;  -68.600; -426.000; -376.000
343.294;  -69.150; -474.000; -337.000
343.428;    2.050; -488.000; -448.000
343.562;    5.450; -172.000;  -23.000
343.696;  -24.150; -385.000; -314.000
343.830;  -10.500; -362.000; -356.000
343.964;   25.350; -231.000; -168.000
344.098; 1061.475;  199.000;   70.000
344.232;  894.600; -266.000; -127.000
344.366;   96.975; -567.000; -453.000
344.500;   96.475; -665.000; -744.000
344.634;   54.875; -324.000; -164.000
344.768;    1.975; -531.000; -341.000
344.902;   19.475;  278.000;  256.000
345.035;  -78.825; -556.000; -496.000
345.169; -131.075; -933.000; -656.000
345.303;  -21.925; -308.000; -482.000
345.437;  -68.975; -826.000; -717.000
345.571;  -70.825; -675.000; -594.000
345.704;  -65.300; -309.000; -532.000
345.838;  -14.000; -331.000; -284.000
345.972;  -15.975; -543.000; -495.000
346.106;  163.975; -179.000; -190.000
346.239;  436.250; -312.000; -243.000
346.373;    8.725; -343.000; -302.000
346.507; -146.875; -950.000; -962.000
346.640;  172.450;  -30.000;   13.000
346.774;  -23.775; -650.000; -797.000
346.908;   -5.050; -138.000;  -11.000
347.041;  -80.450; -646.000; -593.000
347.175;    8.950;  259.000;   27.000
347.309;  -65.450; -698.000; -628.000
347.442;  -89.700; -883.000; -732.000
347.576;  304.400;  670.000;  668.000
347.709;  238.250; -123.000;  -52.000
347.843;  -66.975; -933.000; -825.000
347.976;   27.200;  235.000;  294.000
348.110; -180.075;-1268.000;-1186.000
348.243; -103.400; -679.000; -772.000
348.377;   -5.725;  -26.000;   60.000
348.510;   61.750;  403.000;  540.000
348.644;  -29.600;  -37.000; -159.000
348.777;    1.175;  180.000;  191.000
348.911;  -49.975; -142.000; -112.000
349.044;  171.125;  471.000;  448.000
349.178;  191.575;-1069.000;-1006.000
349.311;  131.400;  141.000;  255.000
349.444;  -13.625; -927.000; -813.000
349.578;  -12.850; -347.000; -200.000
349.711;  -91.075; -959.000; -862.000
349.845;    2.075; -661.000; -591.000
349.978; -142.375;-1224.000;-1137.000
350.111;  -71.625; -546.000; -612.000
350.244;  -58.775; -596.000; -700.000
350.378;   30.600; -392.000; -393.000
350.511;  -61.475; -393.000; -426.000
350.644;  -98.450; -808.000; -806.000
350.778;    9.300;  168.000;  104.000
350.911;   -3.200;  134.000;  140.000
351.044;  -88.600; -685.000; -615.000
351.177;  -22.025; -321.000; -281.000
351.310;   -7.200;    3.000; -131.000
351.444;  -64.225; -888.000; -788.000
351.577;  129.025;  140.000;   90.000
351.710;   90.650;  593.000;  417.000
351.843;  -37.750; -165.000;  -77.000
351.976;  -10.675;  149.000;  -79.000
352.109;  -85.975; -621.000; -612.000
352.242;  -25.325; -464.000; -419.000
352.376;  -46.325; -580.000; -636.000
352.509;  224.725; -437.000; -356.000
352.642;   30.250; -654.000; -604.000
352.775;   93.000; -141.000;  -98.000
352.908; -115.500; -933.000; -904.000
353.041; -114.950; -814.000; -824.000
353.174;  -55.475; -551.000; -424.000
353.307;  -83.025; -753.000; -764.000
353.440;   64.375;  541.000;  453.000
353.573; -107.075; -957.000;-1008.000
353.706;  -13.575; -384.000; -558.000
353.839;   -7.325; -264.000; -220.000
353.971;  -78.425; -657.000; -512.000
354.104;  -80.425; -896.000; -835.000
354.237;  -25.425; -627.000; -662.000
354.370;  -76.475; -846.000; -879.000
354.503; -174.925;-1231.000;-1308.000
354.636;  -30.250; -529.000; -348.000
354.769; -138.200; -937.000; -860.000
354.902;   -5.350; -230.000; -139.000
355.034;  -21.850; -164.000; -220.000
355.167;   -9.875; -262.000; -162.000
355.300;  -80.375;-1061.000; -880.000
355.433;  966.950;  -71.000;  -14.000
355.565; 1443.150; -402.000; -384.000
355.698;  375.675; -356.000; -296.000
355.831;    5.950; -882.000; -801.000
355.964;  117.650; -285.000; -170.000
356.096;  -78.900; -856.000; -843.000
356.229;   16.075; -523.000; -530.000
356.362;  281.700; -373.000; -266.000
356.494;  579.450; -229.000; -162.000
356.627;  537.775;  269.000;  377.000
356.760;  656.250;  120.000;   53.000
356.892;  918.825; -286.000; -601.000
357.025;  745.050;  403.000;  389.000
357.157;  720.975; -167.000; -179.000
357.290;  645.800; -856.000; -713.000
357.423;  193.025; -667.000; -556.000
357.555;  130.225; -217.000; -228.000
357.688;  150.450; -483.000; -364.000
357.820;  532.675; -870.000; -877.000
357.953; 4129.425; -563.000; -589.000
358.085;  964.575; -632.000; -612.000
358.218; 1418.400;-1131.000; -932.000
358.350;  272.800;  -58.000;  312.000
358.483; -102.250;-1300.000;-1187.000
358.615;   21.200;-1182.000;-1078.000
358.747;  -31.525;-1187.000;-1058.000
358.880;   41.200; -810.000; -744.000
359.012;  -11.150; -376.000; -202.000
359.145;  -23.275; -480.000; -511.000
359.277;  101.425; -962.000; -913.000
359.409; 3372.550;  536.000;  231.000
359.542;  922.575; -738.000; -688.000
359.674;   98.550;   46.000;   13.000
359.806;  -51.750; -565.000; -438.000
359.939;  -39.025; -617.000; -516.000
360.071;   -9.450; -583.000; -579.000
360.203;  -10.925; -411.000; -364.000
360.335;   59.800;  164.000;  -16.000
360.468;  212.350; -249.000; -307.000
360.600; 2725.425; -547.000; -454.000
360.732; 2736.700; -546.000; -423.000
360.864;  413.525;-1216.000;-1044.000
360.996;  347.775; -516.000; -554.000
361.129;   60.350; -389.000; -598.000
361.261;   31.075;  110.000; -113.000
361.393;  -21.850; -252.000; -214.000
361.525;   38.300;   94.000;  244.000
361.657;  -31.500; -821.000; -703.000
361.789;   29.300; -139.000; -155.000
361.921;  279.675; -642.000; -593.000
362.053;  307.600;  524.000;  541.000
362.185;   55.550;  288.000;   72.000
362.318;  -62.200; -709.000; -705.000
362.450;  131.875;  294.000;  444.000
362.582;  171.925; -913.000; -870.000
362.714;  -34.975; -353.000; -332.000
362.846;  -84.500; -606.000; -490.000
362.978; -140.875; -941.000; -811.000
363.109;   71.225; -161.000; -260.000
363.241;  525.200; -739.000; -749.000
363.373;  425.150; -649.000; -564.000
363.505;  631.525; -186.000;  -91.000
363.637;  163.550; -787.000; -601.000
363.769; -108.650;-1067.000;-1080.000
363.901;  -49.950; -596.000; -654.000
364.033; -110.825;-1103.000;-1062.000
364.165;    9.900; -283.000; -283.000
364.296;   79.500; -316.000; -177.000
364.428;   70.750;-1344.000;-1220.000
364.560;  -67.450; -679.000; -661.000
364.692;  -49.700; -738.000; -835.000
364.824;  329.850; -588.000; -456.000
364.955;  459.650; -402.000; -564.000
365.087;  840.775;-1097.000; -852.000
365.219;   36.825; -686.000; -816.000
365.351;  -80.200; -526.000; -572.000
365.482;   68.625;  300.000;  240.000
365.614;  -48.800; -402.000; -314.000
365.746;  -84.825; -729.000; -752.000
365.877;  -93.325; -706.000; -672.000
366.009;  239.400;  -35.000;  -62.000
366.141;  -80.275;-1249.000;-1134.000
366.272; -105.175; -803.000; -719.000
366.404; -105.475;-1005.000; -874.000
366.535;   -2.900; -139.000;  -12.000
366.667;  -91.375; -644.000; -649.000
366.799;   46.675;  353.000;  203.000
366.930; -105.800; -862.000; -996.000
367.062;  121.050; -639.000; -613.000
367.193;  139.525; -872.000; -842.000
367.325;  -46.025; -580.000; -684.000
367.456;   66.175; -246.000;   31.000
367.588;  150.850; -371.000; -318.000
367.719;   28.675;  -44.000;  -45.000
367.851;  -10.350; -222.000; -241.000
367.982;  -25.200; -875.000; -732.000
368.113;  114.225; -475.000; -358.000
368.245; -109.225; -960.000; -841.000
368.376;  -23.750; -254.000; -302.000
368.508;  -34.400; -188.000; -263.000
368.639; -126.225;-1166.000;-1034.000
368.770;   -7.275; -670.000; -589.000
368.902;  -39.850; -836.000; -926.000
369.033; -102.975; -906.000; -855.000
369.164;  -48.650; -720.000; -653.000
369.296; -105.100; -452.000; -601.000
369.427;   12.225; -209.000; -144.000
369.558;  -35.075; -593.000; -377.000
369.689;  -88.100; -721.000; -569.000
369.821; -129.425; -951.000; -845.000
369.952;  -15.925;   42.000; -108.000
370.083;  -49.325; -229.000; -108.000
370.214;  -85.575; -735.000; -650.000
370.345;  -13.800;   65.000;   81.000
370.477;  -60.325; -810.000; -790.000
370.608;  267.275; -328.000; -264.000
370.739;    0.875;-1233.000;-1292.000
370.870;   -7.075;-1102.000; -923.000
371.001;  120.800; -378.000; -467.000
371.132;  -69.150; -754.000; -735.000
371.263;  -18.550;  -42.000; -148.000
371.394; -121.850; -841.000; -748.000
371.525;   30.500;  345.000;  225.000
371.657;  -76.450; -808.000; -670.000
371.788;   86.250;  103.000;  199.000
371.919;  207.125; -384.000; -304.000
372.050; 4067.025;  -91.000; -156.000
372.181; 1287.675; -188.000; -294.000
372.311;  424.350;   42.000; -127.000
372.442;   65.400; -457.000; -451.000
372.573;    0.500; -444.000; -340.000
372.704; -127.025;-1008.000; -980.000
372.835;   97.250; -228.000; -289.000
372.966;  -50.200; -646.000; -554.000
373.097;  -54.850; -575.000; -711.000
373.228;  -13.850; -717.000; -542.000
373.359;  177.600; -824.000; -536.000
373.490; 1079.825; -881.000; -727.000
373.620; 1404.125;-1001.000; -803.000
373.751; 2064.775; -332.000; -396.000
373.882;  986.025; -663.000; -733.000
374.013;   87.850; -449.000; -262.000
374.143;  -21.125; -581.000; -659.000
374.274;  -93.025; -987.000; -908.000
374.405;  211.450; -388.000; -276.000
374.536;  541.575; -526.000; -387.000
374.666; 1332.150; -759.000; -807.000
374.797;  289.950; -817.000; -868.000
374.928; 1027.525; -710.000; -560.000
375.058; 1091.000; -535.000; -500.000
375.189;  100.075;  -59.000;  -93.000
375.320;  -85.900; -928.000;-1034.000
375.450;  -27.675; -625.000; -616.000
375.581;  -53.200; -526.000; -436.000
375.712;  -28.150; -574.000; -250.000
375.842;  365.775; -438.000; -415.000
375.973;  289.725; -554.000; -513.000
376.103;  -24.275; -665.000; -648.000
376.234;  -72.550; -531.000; -552.000
376.364;  -27.700; -944.000; -867.000
376.495;  367.475;  925.000;  529.000
376.625;   20.050; -472.000; -485.000
376.756;   99.850; -709.000; -678.000
376.886;  -45.750;-1178.000;-1026.000
377.017;   43.600;-1048.000;-1061.000
377.147;  332.575; -786.000; -782.000
377.278;   65.000;  174.000;  228.000
377.408; -119.925; -801.000; -815.000
377.538; -103.975; -707.000; -693.000
377.669;  -65.725; -537.000; -613.000
377.799;  -86.600; -645.000; -635.000
377.929;  -44.325; -610.000; -428.000
378.060; -129.425; -781.000; -847.000
378.190;  -70.900; -726.000; -531.000
378.320;  -49.275; -401.000; -406.000
378.451;   -8.050; -131.000;  -22.000
378.581;   -7.950;  -67.000; -110.000
378.711;  150.525; 1035.000;  866.000
378.841;   -0.175; -533.000; -675.000
378.972;  -64.200; -871.000; -751.000
379.102;   22.775; -652.000; -579.000
379.232;  -20.750; -126.000;  -73.000
379.362;  -98.900;-1001.000; -885.000
379.492;   26.275; -373.000; -424.000
379.623;  122.600;    0.000;  111.000
379.753;  -90.250;-1107.000; -974.000
379.883;  230.550;   59.000;  156.000
380.013;   33.950;-1081.000;-1017.000
380.143;  -83.200;-1097.000;-1056.000
380.273;  -95.950; -985.000; -861.000
380.403;    1.000; -344.000; -257.000
380.533;  -24.200; -651.000; -664.000
380.663;   91.175;  173.000;  128.000
380.793;  -78.525;-1027.000;-1074.000
380.923;  -13.750; -103.000;  -34.000
381.053;  -82.875; -613.000; -623.000
381.183;  -13.100; -106.000; -248.000
381.313;   65.900; -656.000; -470.000
381.443;   72.650; -692.000; -473.000
381.573;  256.475; -402.000; -409.000
381.703;  392.275;-1249.000;-1095.000
381.833; -102.575;-1454.000;-1336.000
381.963;  129.350; -134.000;  -87.000
382.093; 1574.900; -925.000; -909.000
382.223;  553.700; -713.000; -602.000
382.353;   18.375; -801.000; -608.000
382.482;  474.250;-1091.000; -964.000
382.612;  899.875; -872.000; -644.000
382.742;  524.375; -695.000; -622.000
382.872;  350.775; -565.000; -551.000
383.002;   77.650;  347.000; -132.000
383.131;  -14.775; -226.000; -160.000
383.261;  -31.750; -706.000; -768.000
383.391;  311.475; -552.000; -377.000
383.521; 2988.425;  451.000;  263.000
383.650;  758.150; -947.000; -904.000
383.780;  -22.900; -783.000; -656.000
383.910;  110.925;  880.000;  802.000
384.039;   66.175; -794.000; -656.000
384.169;  284.775;-1205.000;-1017.000
384.299;   -1.275; -650.000; -662.000
384.428;  -76.550; -764.000; -680.000
384.558;  -39.675; -308.000; -275.000
384.687;  -23.150; -414.000; -334.000
384.817;   28.275;   75.000;   -2.000
384.947;   35.050; -234.000; -141.000
385.076;  322.275;  982.000;  912.000
385.206;  108.000;  369.000;  480.000
385.335;  -24.100; -549.000; -417.000
385.465;  -78.450; -655.000; -663.000
385.594;  157.050;  -53.000;  -44.000
385.724;  527.000; -868.000; -838.000
385.853;  168.275; -296.000; -270.000
385.982; 1557.425; -743.000; -787.000
386.112; 2556.725;-1052.000; -871.000
386.241;  206.750; -307.000; -312.000
386.371;   26.200; -174.000;  -87.000
386.500;   11.475; -825.000; -789.000
386.629;   46.425; -874.000; -817.000
386.759;   63.225;  -43.000;   68.000
386.888;    7.625; -170.000; -250.000
387.017;  -59.000; -648.000; -620.000
387.147;  -70.600; -771.000; -798.000
387.276;   21.300; -410.000; -397.000
387.405;   23.000; -398.000; -342.000
387.535;  -25.650; -452.000; -361.000
387.664;  -49.325; -692.000; -620.000
387.793;   74.050; -198.000; -113.000
387.922;  628.575;  255.000;  200.000
388.052;   52.950; -576.000; -423.000
388.181;   45.950; -342.000; -472.000
388.310;   35.700; -889.000; -710.000
388.439;  -13.650; -749.000; -742.000
388.568;  208.325;  365.000;  244.000
388.697; 1234.175; -756.000; -653.000
388.826;  280.100; -768.000; -666.000
388.956;   86.025; -285.000; -307.000
389.085;  -25.200; -347.000; -287.000
389.214;  -94.425; -842.000; -872.000
389.343;  -57.025; -645.000; -413.000
389.472;  386.525;  126.000;  149.000
389.601;  525.850;   91.000;    0.000
389.730;   46.800; -568.000; -687.000
389.859;   64.050;  226.000;   46.000
389.988;  222.425; -423.000; -408.000
390.117;  185.350; -168.000; -146.000
390.246;   14.650; -331.000; -320.000
390.375;  152.425; -673.000; -626.000
390.504;  -46.925; -703.000; -621.000
390.633;  -86.775; -672.000; -726.000
390.761;  -53.625; -732.000; -645.000
390.890;   21.050;   -4.000; -130.000
391.019;   -8.550; -421.000; -441.000
391.148; -118.100; -826.000; -855.000
391.277;  -66.300; -576.000; -493.000
391.406;  -62.100; -821.000; -805.000
391.534;   20.725;  574.000; -301.000
391.663;  -65.525; -583.000; -645.000
391.792;  -73.950; -673.000; -701.000
391.921;  109.300;   -3.000;   15.000
392.050;  233.275; -287.000; -228.000
392.178;  -16.125;-1206.000;-1061.000
392.307;  176.275; -758.000; -712.000
392.436;  114.150; -427.000; -641.000
392.564;   16.175;  166.000;   -6.000
392.693;  -81.100; -860.000; -682.000
392.822;  249.525; -529.000; -534.000
392.950;  138.425; -880.000; -714.000
393.079;  396.500; -188.000; -328.000
393.208;   51.225; -488.000; -511.000
393.336;   -0.175; -170.000; -145.000
393.465;  -45.850; -317.000; -199.000
393.593;   12.550;   62.000;   79.000
393.722; -154.650;-1121.000; -916.000
393.850;  -24.675; -188.000;  -61.000
393.979; -161.150; -926.000; -805.000
394.107;  -53.050; -517.000; -537.000
394.236;  -23.025; -570.000; -507.000
394.364;  238.625;  383.000;  206.000
394.493;  478.150; -911.000; -767.000
394.621;   10.450; -955.000; -916.000
394.750;  677.100; -873.000; -923.000
394.878; 2815.000; -247.000; -149.000
395.007; 4016.300; -721.000; -807.000
395.135;  325.525; -790.000; -721.000
395.263;  -77.700;-1038.000;-1040.000
395.392;    2.400;  -25.000; -107.000
395.520; -127.250; -818.000; -679.000
395.648;  -70.325; -865.000; -915.000
395.777;   -7.075; -366.000; -405.000
395.905;  -36.650; -449.000; -564.000
396.033;    8.675;  217.000;  172.000
396.162;  736.100; -399.000; -453.000
396.290;  679.625;  -17.000;   -2.000
396.418;  144.775; -555.000; -514.000
396.546;  -62.100; -571.000; -466.000
396.674;  -81.375; -850.000; -878.000
396.803;   17.925;  -72.000;  -23.000
396.931;  116.550; -179.000; -199.000
397.059;  106.775;-1026.000; -989.000
397.187;  -95.425;-1026.000; -975.000
397.315; -120.075; -884.000; -649.000
397.443;  -85.225; -592.000; -443.000
397.572;  -94.600; -578.000; -424.000
397.700;    8.550; -607.000; -614.000
397.828;   24.125;  120.000;  -90.000
397.956;  -54.375; -508.000; -478.000
398.084;  -49.475; -767.000; -626.000
398.212;   46.500;  137.000;  124.000
398.340;   12.550;  -56.000;  159.000
398.468;   46.825; -390.000; -169.000
398.596; -125.750; -993.000; -953.000
398.724; -120.900; -762.000; -767.000
398.852; -152.025;-1024.000; -976.000
398.980;  -58.175; -560.000; -560.000
399.108;  -33.300; -982.000; -735.000
399.236;   43.150;   13.000;    8.000
399.363;    1.675;  222.000;  196.000
399.491;  -67.600; -404.000; -398.000
399.619; -112.975; -829.000; -800.000
399.747;  -85.950; -859.000; -771.000
399.875;   94.325;  220.000;  234.000
400.003;  -46.500; -359.000; -284.000
400.130;  -84.600; -421.000; -341.000
400.258;  -25.100;  -83.000;   38.000
400.386;  -70.350; -352.000; -168.000
400.514;  -29.925; -526.000; -587.000
400.641;  -78.125; -928.000; -802.000
400.769; -117.125; -979.000; -888.000
400.897;  -89.500; -838.000; -793.000
401.025;  -13.125; -166.000; -152.000
401.152;  -11.200;  220.000;   38.000
401.280;  -68.850; -430.000; -429.000
401.408; -121.875; -712.000; -576.000
401.535;  -89.550; -735.000; -758.000
401.663; -200.025;-1134.000;-1054.000
401.790;  -89.825; -514.000; -525.000
401.918;   37.975;  436.000;  405.000
402.046;  -13.975;  134.000;  122.000
402.173;  -39.025;  -18.000;    7.000
402.301;  -57.400; -519.000; -397.000
402.428;   31.550;  528.000;  383.000
402.556; -126.225;-1188.000; -913.000
402.683;  -40.600;  -20.000;   -1.000
402.811;  -28.625;  -37.000; -206.000
402.938;   -7.125;   20.000;   27.000
403.066;  211.075; -574.000; -558.000
403.193;  380.725;  299.000;  239.000
403.321;  293.675; -396.000; -574.000
403.448;  373.150;   83.000;   27.000
403.575;  162.725;  -90.000;  -46.000
403.703;  -79.300; -732.000; -557.000
403.830;  -69.500; -531.000; -496.000
403.957; -126.000;-1117.000;-1023.000
404.085;   15.400;  -61.000; -172.000
404.212;  109.975;  -50.000;   63.000
404.339;  251.250; -566.000; -306.000
404.467; 5420.200; -612.000; -524.000
404.594; 4010.350; -287.000; -227.000
404.721; 1060.150; -869.000; -764.000
404.848;  103.550; -113.000; -202.000
404.976; -103.925; -856.000; -783.000
405.103;  -15.025;  -14.000;  -82.000
405.230;  -18.900;  190.000;  226.000
405.357;   19.550;  117.000;   44.000
405.484;  258.825;  -49.000;    5.000
405.612;   63.625; -548.000; -563.000
405.739;  -59.325; -488.000; -243.000
405.866;   92.775;  669.000;  385.000
405.993;  -43.025; -398.000; -102.000
406.120; -118.200; -801.000; -887.000
406.247;  -49.150; -323.000; -342.000
406.374;  487.900;  540.000;  629.000
406.501;  177.300; -632.000; -702.000
406.628;  -66.800; -621.000; -589.000
406.755;  -76.100; -803.000; -620.000
406.882;  -30.950; -228.000; -277.000
407.009;  -91.000; -719.000; -628.000
407.136;   73.550; -480.000; -401.000
407.263;  216.075; -939.000; -829.000
407.390;  -64.025; -692.000; -614.000
407.517; -158.525;-1139.000;-1187.000
407.644;  -65.500; -332.000; -256.000
407.771;  -68.250; -249.000; -287.000
407.898;    7.925;  168.000;  328.000
408.025;  -58.625; -421.000; -313.000
408.151;   -7.525;   82.000;  153.000
408.278;  -69.875; -267.000; -216.000
408.405; -104.025; -931.000; -899.000
408.532;  -79.500; -549.000; -542.000
408.659; -105.350; -677.000; -648.000
408.785; -191.025;-1298.000;-1170.000
408.912;  -62.525; -412.000; -296.000
409.039; -122.250; -610.000; -686.000
409.166;  -91.725; -591.000; -555.000
409.292; -110.625; -571.000; -534.000
409.419; -118.950; -665.000; -649.000
409.546;  -88.025; -431.000; -192.000
409.672; -101.400; -713.000; -545.000
409.799;  -32.625;  -36.000;   34.000
409.926;  -47.550; -180.000; -179.000
410.052; -163.350;-1127.000;-1091.000
410.179;  -57.675; -368.000; -392.000
410.305;  -88.650; -375.000; -493.000
410.432;  -40.925; -220.000; -333.000
410.558;  -96.950; -305.000; -380.000
410.685; -112.800; -688.000; -431.000
410.812;  -94.950; -409.000; -588.000
410.938; -123.425; -964.000; -808.000
411.065; -103.725; -671.000; -645.000
411.191;  -11.750; -189.000; -174.000
411.317; -105.450; -823.000; -742.000
411.444;  -61.275; -317.000; -246.000
411.570;  -79.875; -339.000; -294.000
411.697; -124.375; -758.000; -752.000
411.823; -166.825; -989.000; -999.000
411.949;  -29.350;  -56.000;   17.000
412.076; -109.575; -539.000; -519.000
412.202;  -96.650; -758.000; -757.000
412.329; -113.575; -798.000; -752.000
412.455; -113.875; -821.000; -657.000
412.581;  -38.150;  -15.000;  172.000
412.707;  -54.125; -540.000; -457.000
412.834;   19.725;  156.000;  219.000
412.960;  -64.900; -785.000; -784.000
413.086; -100.275; -743.000; -701.000
413.212;  152.925;  604.000;  578.000
413.339;  -29.550; -685.000; -701.000
413.465;    7.750; -364.000; -310.000
413.591;  -97.350; -757.000; -474.000
413.717;  -45.225; -358.000; -366.000
413.843; -137.800; -839.000; -861.000
413.969;  -57.750;  -47.000; -292.000
414.096; -100.700; -679.000; -679.000
414.222;  -15.050;  -33.000;   85.000
414.348;  -19.300; -652.000; -385.000
414.474;  120.725;   38.000;  -52.000
414.600;  -11.025; -126.000; -144.000
414.726;  -20.075;  -96.000;  -55.000
414.852;  -47.975; -365.000; -342.000
414.978;   28.075;  104.000;  -18.000
415.104;   50.950;   38.000;   80.000
415.230;   35.200; -329.000; -330.000
415.356;   57.475; -409.000; -514.000
415.482;  196.550;   13.000;  -35.000
415.608;  278.225; -247.000; -323.000
415.734;  934.300;   67.000;   38.000
415.860;19069.775; -875.000; -767.000
415.986;15238.650; -685.000; -607.000
416.111; 1368.225; -798.000; -652.000
416.237;  280.625; -424.000; -571.000
416.363; 1014.300; -765.000; -733.000
416.489; 4121.625; -324.000; -251.000
416.615;  494.475; -707.000; -742.000
416.741;  -21.950; -677.000; -784.000
416.866;  -82.900; -673.000; -736.000
416.992; -111.650; -801.000; -818.000
417.118;  -24.075;  -41.000;  -80.000
417.244;  -58.875; -798.000; -531.000
417.369;  -75.700; -801.000; -612.000
417.495;    1.475; -325.000; -254.000
417.621;  -70.175;-1015.000; -803.000
417.746;   15.600; -579.000; -572.000
417.872;   55.950; -254.000; -144.000
417.998;   56.025; -515.000; -530.000
418.123;  943.275;-1073.000; -845.000
418.249; 5308.450; -512.000; -601.000
418.374;  832.100; -916.000; -824.000
418.500;  121.025; -383.000; -482.000
418.626;  101.300;   70.000;  -59.000
418.751;  123.425; -549.000; -448.000
418.877;  194.150; -637.000; -643.000
419.002; 1630.250; -688.000; -560.000
419.128;12230.425; -930.000; -721.000
419.253; 3316.500; -967.000; -837.000
419.379;  429.025; -391.000; -338.000
419.504;  376.650;  325.000;  415.000
419.629;  497.300; -393.000; -212.000
419.755; 3126.575; -317.000; -254.000
419.880;20131.850;  -98.000;   67.000
420.006;11063.975; -280.000; -221.000
420.131;29326.475; -662.000; -775.000
420.256; 4701.800; -315.000; -316.000
420.382;  623.625; -665.000; -687.000
420.507;   82.400; -649.000; -778.000
420.632;  161.400; -337.000; -339.000
420.758;  299.450; -251.000; -425.000
420.883;  -71.750; -876.000; -672.000
421.008;  -97.500; -775.000; -619.000
421.133;  -66.250; -509.000; -467.000
421.259;  -32.900; -325.000; -259.000
421.384; -114.225; -834.000; -693.000
421.509;  -29.225;-1052.000; -862.000
421.634; 1344.550; -936.000; -820.000
421.759;  663.100; -359.000; -327.000
421.885;  -26.725; -717.000; -656.000
422.010;  -71.550; -673.000; -542.000
422.135; -144.750; -695.000; -727.000
422.260;   22.825;  340.000;  280.000
422.385;  -50.375;   12.000;  -98.000
422.510;    7.000;  151.000;  -26.000
422.635;   20.225;  -87.000;  -43.000
422.760;  123.125; -766.000; -791.000
422.885;   69.675;  -57.000;  -80.000
423.010;  -45.000; -112.000; -169.000
423.135; -102.075; -481.000; -561.000
423.260;   -3.025; -150.000; -245.000
423.385;   71.675;  476.000;  222.000
423.510;   30.825;   71.000;  -22.000
423.635;   98.075;  133.000;   45.000
423.760;   67.150;  383.000;  328.000
423.885;   48.925;  336.000;  391.000
424.010;   15.850;  -68.000;  -13.000
424.135;  -28.150;    5.000;  -33.000
424.259;  -85.875; -654.000; -457.000
424.384;  -64.025; -279.000; -272.000
424.509;  -13.575; -260.000; -186.000
424.634;  -91.625; -761.000; -623.000
424.759;  -21.100; -688.000; -544.000
424.883;  -13.475; -506.000; -527.000
425.008;  147.200; -502.000; -410.000
425.133; 1925.850; -679.000; -653.000
425.258; 1030.200; -517.000; -381.000
425.382; 1084.725; -867.000; -774.000
425.507; 3031.350; -487.000; -543.000
425.632;  530.250; -802.000; -663.000
425.756;  432.025; -256.000; -146.000
425.881; 5690.775; -831.000; -857.000
426.006;16961.950; -604.000; -355.000
426.130; 2947.500; -696.000; -508.000
426.255;  380.950; -611.000; -491.000
426.379;  166.625; -189.000; -577.000
426.504;  345.325;  660.000;  544.000
426.629; 3858.675; -519.000; -466.000
426.753; 2985.325;   64.000;  -46.000
426.878;  344.075; -252.000; -288.000
427.002;  194.950; -651.000; -668.000
427.127; 1477.450;  -35.000; -158.000
427.251;10918.525;  372.000;  401.000
427.375; 3502.475; -191.000; -173.000
427.500; 2526.025; -616.000; -610.000
427.624;  967.525; -234.000; -400.000
427.749;  127.125; -216.000; -225.000
427.873;  -13.025; -499.000; -412.000
427.997;  -29.075; -222.000; -230.000
428.122;   72.800;  795.000;  703.000
428.246;   77.750;  433.000;  434.000
428.371; -119.025; -869.000; -773.000
428.495;  -93.650; -624.000; -646.000
428.619;  -28.350; -186.000; -117.000
428.743;   23.200;   65.000;  132.000
428.868;   22.800; -732.000; -643.000
428.992; 1575.225; -219.000; -326.000
429.116;  714.200; -329.000; -357.000
429.240;  324.175;  419.000;  426.000
429.365;   -6.450; -454.000; -574.000
429.489;  -33.250; -638.000; -647.000
429.613;    4.925; -236.000; -177.000
429.737;   37.475; -563.000; -432.000
429.861;  276.100; -247.000; -133.000
429.985; 5159.550; -425.000; -305.000
430.109; 6342.700; -770.000; -908.000
430.234;  762.525;   76.000;  -50.000
430.358;   82.875; -250.000; -160.000
430.482;  -62.800; -672.000; -564.000
430.606;  -53.225; -655.000; -375.000
430.730;   53.250; -437.000; -388.000
430.854;  187.100; -909.000; -835.000
430.978;  -45.625; -795.000; -764.000
431.102;  -98.575; -499.000; -422.000
431.226;  -98.100; -874.000; -815.000
431.350;   30.975;  345.000;  422.000
431.474;  -69.125; -661.000; -373.000
431.597; -148.175;-1060.000; -848.000
431.721;  -75.275; -276.000; -267.000
431.845; -137.175; -704.000; -472.000
431.969;  -93.275; -304.000; -349.000
432.093;  -97.700; -395.000; -317.000
432.217;  -14.450;   32.000;   82.000
432.341;  -89.125; -523.000; -518.000
432.464;   13.375;   96.000;   40.000
432.588;  239.725; -401.000; -329.000
432.712;  151.625;  -52.000;  -52.000
432.836;   41.200;  213.000;  263.000
432.959;  -15.025; -372.000; -311.000
433.083;   78.800;   11.000;    2.000
433.207;  357.500;  285.000;  930.000
433.330; 4657.225; -391.000; -200.000
433.454; 6319.825; -654.000; -638.000
433.578; 3574.825;  583.000;  278.000
433.701;  749.800; -623.000; -675.000
433.825;  189.300; -292.000; -299.000
433.949;  210.250;   28.000;  -72.000
434.072;   93.325; -410.000; -323.000
434.196;   -5.150; -309.000; -117.000
434.319; 3592.600;25482.000;25124.000
434.443;  694.350; -656.000; -603.000
434.566; 2626.075;  281.000;   62.000
434.690;  517.350; -637.000; -383.000
434.813;   48.450; -251.000; -173.000
434.937;  -54.125; -569.000; -696.000
435.060;  -24.575; -423.000; -332.000
435.184;  363.725; -492.000; -217.000
435.307;  224.100;  159.000;  102.000
435.431;   -6.750;  -40.000;   24.000
435.554;  -70.000; -399.000; -240.000
435.677;  -86.900; -350.000; -258.000
435.801;  -42.550;  -25.000;   49.000
435.924;   -6.500;    1.000;  -67.000
436.048;  -96.225;-1019.000; -732.000
436.171;  -53.875; -240.000;  -66.000
436.294;  -47.100; -248.000; -229.000
436.417;   97.375; -963.000; -849.000
436.541;  -80.550; -814.000; -840.000
436.664;  -47.575; -242.000; -316.000
436.787;  -35.500;   13.000;  113.000
436.910; -107.000; -792.000; -422.000
437.034;   15.575;  142.000;  143.000
437.157;   62.925;  -11.000;    0.000
437.280;  -37.800; -392.000; -292.000
437.403;  -67.300; -982.000; -869.000
437.526;  690.125; -903.000; -865.000
437.649; 2752.950; -505.000; -332.000
437.772;  500.000; -692.000; -540.000
437.896;  128.975;  700.000;  544.000
438.019;  -97.100; -758.000; -503.000
438.142;  -84.225; -596.000; -506.000
438.265;  -11.400; -639.000; -670.000
438.388;  697.800; -520.000; -410.000
438.511;  170.325; -597.000; -394.000
438.634;  -42.050; -247.000; -125.000
438.757; -117.200; -693.000; -619.000
438.880;  -29.325;  -34.000;  -57.000
439.003;  -74.675; -417.000; -437.000
439.126;  -63.550; -287.000; -167.000
439.248;  -62.850;  -98.000; -139.000
439.371;  -52.075;    9.000;  -53.000
439.494;   10.800;  510.000;  439.000
439.617;  -49.300;   65.000;  -88.000
439.740; -165.925; -968.000; -816.000
439.863; -129.775; -755.000; -595.000
439.986; -115.725; -476.000; -431.000
440.108;  -49.775; -161.000; -112.000
440.231; -159.775; -950.000; -836.000
440.354;  -31.450;  -64.000; -150.000
440.477;   64.925; -566.000; -542.000
440.599;   26.850; -200.000; -225.000
440.722; -113.275; -709.000; -586.000
440.845;   59.825;  751.000;  928.000
440.968; -106.550; -415.000; -311.000
441.090;  -64.650; -199.000;  -33.000
441.213; -162.375;-1021.000; -825.000
441.336;  -50.500; -159.000;   -5.000
441.458;  -63.675; -549.000; -396.000
441.581;  -66.100; -628.000; -629.000
441.703;  -83.200; -152.000;   13.000
441.826; -105.300; -557.000; -400.000
441.948;  -58.200;   56.000;   51.000
442.071;   23.000;  555.000;  424.000
442.193; -118.775; -531.000; -485.000
442.316;   30.250;  152.000;   97.000
442.438;   37.575; -233.000;  -10.000
442.561;   67.525;  272.000;  262.000
442.683;  594.550; -809.000; -522.000
442.806; 1439.750;   -8.000;   74.000
442.928;   77.825; -859.000; -604.000
443.051;  -51.575; -577.000; -373.000
443.173;  -82.875; -341.000; -339.000
443.295;  -89.475; -263.000; -371.000
443.418;  -76.150; -321.000;  -29.000
443.540;  -11.400; -106.000;   -4.000
443.662; -109.625; -563.000; -465.000
443.785;   -8.725;  335.000;  199.000
443.907; -102.225; -362.000; -208.000
444.029; -128.550; -767.000; -494.000
444.152; -141.900; -644.000; -554.000
444.274;  -11.275;  -18.000;  -24.000
444.396; -109.225; -461.000; -221.000
444.518; -129.925; -691.000; -454.000
444.640; -105.475; -268.000; -111.000
444.763;  -22.200;  388.000;  249.000
444.885; -105.700; -432.000; -392.000
445.007;  -33.150;   35.000;   86.000
445.129; -114.000; -610.000; -515.000
445.251; -104.900; -372.000; -439.000
445.373; -132.825; -537.000; -386.000
445.495;    4.475;  242.000;  350.000
445.617;   55.775;  853.000;  753.000
445.739;  -64.875; -215.000;  -97.000
445.861;  -22.450; -245.000; -112.000
445.984;  -25.400; -267.000; -101.000
446.105;  217.550; -418.000; -251.000
446.227;  732.375; -176.000;  -19.000
446.349;   51.825; -358.000; -249.000
446.471;  -90.725; -615.000; -448.000
446.593;  -57.150; -316.000;   19.000
446.715;    1.575;  -67.000;   41.000
446.837;   52.850;  697.000;  832.000
446.959;  -84.500; -457.000; -478.000
447.081; -118.550; -628.000; -518.000
447.203;   41.975;  862.000;  834.000
447.325;  -95.275; -270.000;   42.000
447.446;   -9.925;  286.000;  530.000
447.568; -153.300; -921.000; -803.000
447.690;  -88.925; -236.000; -245.000
447.812; -155.725; -798.000; -519.000
447.933;  -34.950;  155.000;  127.000
448.055;  -73.000; -306.000; -261.000
448.177;  164.025;   31.000;   79.000
448.299;  138.700; -935.000; -727.000
448.420;   30.950;  -25.000;  159.000
448.542;  -54.550;   -3.000;   33.000
448.664;  -14.125;  109.000;  322.000
448.785;  -33.950;  265.000;   83.000
448.907;  -84.225; -614.000; -353.000
449.028;  -18.450; -771.000; -471.000
449.150;   64.375;  492.000;  589.000
449.272; -175.200;-1044.000; -913.000
449.393;   18.250;  612.000;  694.000
449.515; -152.200; -634.000; -581.000
449.636;  -51.350; -264.000; -155.000
449.758;   74.550;  763.000;  622.000
449.879;  -88.025; -498.000; -396.000
450.001;  -79.650; -149.000;  -49.000
450.122;  -40.025;  -95.000;  162.000
450.244;  -35.350;   37.000;  364.000
450.365;  -91.100; -495.000; -301.000
450.486;  -44.375;   80.000;  268.000
450.608;   14.550;  393.000;  326.000
450.729;   50.500;  578.000;  645.000
450.850;    2.900; -574.000; -466.000
450.972;  645.525; -552.000; -389.000
451.093; 4563.500;  190.000;  588.000
451.214; 2237.550; -516.000; -337.000
451.336;  401.875;  773.000;  579.000
451.457;   55.575;  264.000;  393.000
451.578;  -23.225; -118.000;  -74.000
451.699; -120.950; -546.000; -540.000
451.821;  -74.875; -284.000;  -50.000
451.942;   -4.550;  278.000;  285.000
452.063;   36.650;  228.000;  419.000
452.184;  514.250;  -54.000;  -49.000
452.305; 1099.250;  103.000;  170.000
452.427;  128.525; -549.000; -301.000
452.548;   -5.625;   23.000;   79.000
452.669;  -45.175; -257.000;  -89.000
452.790;  -34.125;    3.000;  -18.000
452.911;   -7.100;  195.000;  259.000
453.032;  -62.650; -289.000;  -60.000
453.153;  -42.925;  -29.000;   81.000
453.274;   82.350;  737.000;  868.000
453.395;  -53.375;  -51.000;  175.000
453.516;   19.625; 1317.000; 1388.000
453.637;  -56.400; -205.000; -150.000
453.758;  -39.850;   15.000;   69.000
453.879; -109.875; -462.000; -250.000
454.000;   73.850; 1086.000;  948.000
454.121; -109.800; -554.000; -326.000
454.242; -107.275; -599.000; -383.000
454.362;  -59.750;  -99.000;  114.000
454.483;  -35.950; -309.000; -229.000
454.604;   56.850;  512.000;  580.000
454.725; -109.100; -627.000; -555.000
454.846; -136.100; -474.000; -406.000
454.967;  -36.850;  230.000;  539.000
455.087;  -52.150;  179.000;  153.000
455.208;   13.875;  554.000;  856.000
455.329;  -78.850;  -22.000;   82.000
455.450;   43.500;  473.000;  633.000
455.570;  -82.100; -234.000; -211.000
455.691;  -43.475;  201.000;  407.000
455.812; -102.525; -270.000;  -92.000
455.932;  -65.650;  107.000;  -97.000
456.053;  -85.850;   36.000;   24.000
456.173; -105.400; -433.000; -355.000
456.294; -123.875; -476.000; -303.000
456.415;  -62.975;  -73.000;   70.000
456.535;  -45.875;  297.000;  273.000
456.656;  -51.450;  132.000;  240.000
456.776;  -73.375;    3.000;  298.000
456.897;   -0.950;  308.000;  513.000
457.017;  -84.525; -153.000;   -3.000
457.138; -102.200; -402.000; -249.000
457.258;  -35.350;  263.000;  224.000
457.379;  -16.900;  509.000;  521.000
457.499;  -29.025;  443.000;  432.000
457.620; -120.050; -407.000; -231.000
457.740;  -98.525; -132.000;  -11.000
457.860;  -60.225;   87.000;   44.000
457.981;  -48.525;  132.000;  124.000
458.101;  -69.400;  -89.000;   40.000
458.221;  -15.800;  336.000;  402.000
458.342;  -61.325;   -4.000;  -37.000
458.462;   32.750;  617.000;  352.000
458.582;  -47.600; -302.000; -294.000
458.703;   -1.500;  303.000;  154.000
458.823;  -24.475;   22.000;  163.000
458.943;   20.750;  341.000;  467.000
459.063;   -7.825; 1124.000;  192.000
459.183;  -17.250;  328.000;  313.000
459.304;   12.625;  315.000;  517.000
459.424;  -60.775; -246.000;  -89.000
459.544;  289.225;  388.000;  764.000
459.664;  794.150;  499.000;  506.000
459.784;  324.225; 1004.000; 1175.000
459.904;   50.925;  867.000;  744.000
460.024;   60.775;  867.000;  684.000
460.144;   24.300;  449.000;  554.000
460.264;   -9.050;  515.000;  327.000
460.385;  -86.400; -145.000; -119.000
460.505;   26.700;  905.000;  858.000
460.625; -112.050;  -17.000;  -68.000
460.745;  -15.575;  396.000;  541.000
460.864;  -57.450;  153.000;  469.000
460.984;   21.450;  499.000;  573.000
461.104;  133.275; 1656.000; 1775.000
461.224;   29.850;  657.000;  650.000
461.344;  -32.400;  431.000;  360.000
461.464;  -41.925;  258.000;  513.000
461.584;   -9.375;  283.000;  466.000
461.704;  -37.975;   58.000;  108.000
461.824;  -49.650;  238.000;  259.000
461.943;  -31.125;  191.000;  130.000
462.063;  -75.225;    2.000;  324.000
462.183;   44.275;  639.000;  717.000
462.303;   95.250; 1678.000; 1230.000
462.422;   26.600;  781.000;  840.000
462.542;  -33.875;  271.000;  391.000
462.662;   46.825;  353.000;  380.000
462.782;  223.300;  833.000;  572.000
462.901;  467.275;  545.000;  717.000
463.021;  280.750; 1702.000; 1638.000
463.141;  -14.450;  337.000;  770.000
463.260;  -12.275;  614.000;  474.000
463.380;    7.425;  902.000;  884.000
463.499;  -29.525;  342.000;  332.000
463.619;  -37.000;  581.000;  559.000
463.738;  107.675; 1644.000;  903.000
463.858;   13.950;  657.000;  811.000
463.978;  -34.925;  542.000;  396.000
464.097;   23.100;  921.000; 1114.000
464.217;   94.800; 1196.000; 1143.000
464.336;  111.975; 1068.000; 1130.000
464.455;  -28.050;  328.000;  659.000
464.575;   53.350;  597.000;  602.000
464.694;  175.225; 1204.000; 1179.000
464.814;  121.275; 1190.000; 1138.000
464.933;   82.550; 1095.000; 1027.000
465.052;   88.275; 1412.000; 1054.000
465.172;   72.675;  922.000;  799.000
465.291;  138.625; 1376.000; 1320.000
465.410;    9.725;  462.000;  735.000
465.530;   91.000; 1355.000; 1310.000
465.649;   74.250; 1209.000; 1273.000
465.768;  145.450; 1673.000; 1508.000
465.888;   30.875;  941.000; 1174.000
466.007;   98.725; 1335.000; 1440.000
466.126;   -8.900;  721.000;  641.000
466.245;   39.375; 1176.000; 1187.000
466.364;   19.975;  950.000; 1060.000
466.484;   46.725; 1024.000; 1213.000
466.603;   40.600; 1101.000; 1222.000
466.722;  105.775; 1490.000; 1769.000
466.841;   75.025; 1151.000; 1401.000
466.960;   33.650; 1069.000;  972.000
467.079;  126.475; 1971.000; 1786.000
467.198;   50.000; 1238.000; 1181.000
467.317;   77.625; 1768.000; 1162.000
467.436;   74.075; 1709.000; 1261.000
467.555;  119.175; 1796.000; 1746.000
467.674;   62.000; 1227.000; 1329.000
467.793;   41.625; 1376.000; 1374.000
467.912;   91.875; 1658.000; 1539.000
468.031;  141.125; 2038.000; 1930.000
468.150;  152.625; 1842.000; 1837.000
468.269;  183.150; 2313.000; 2090.000
468.388;  191.775; 2168.000; 2339.000
468.507;  237.000; 2884.000; 2903.000
468.626;  268.025; 2555.000; 2541.000
468.744;  135.425; 2018.000; 2174.000
468.863;  190.300; 2312.000; 2523.000
468.982;  107.775; 1503.000; 1555.000
469.101;  234.975; 2788.000; 2692.000
469.220;  142.100; 2333.000; 2176.000
469.338;  240.650; 2935.000; 3051.000
469.457;  174.775; 2719.000; 2545.000
469.576;  319.900; 3953.000; 3784.000
469.695;  244.425; 2877.000; 3066.000
469.813;  432.675; 4148.000; 4192.000
469.932;  410.200; 4255.000; 4485.000
470.051;  422.600; 4075.000; 4161.000
470.169;  812.050; 4470.000; 4338.000
470.288; 1456.775; 4700.000; 4809.000
470.406;  889.525; 5059.000; 5194.000
470.525;  640.450; 6101.000; 5787.000
470.644;  614.250; 6847.000; 6794.000
470.762;  807.400; 8397.000; 7873.000
470.881;  909.700; 8651.000; 8464.000
470.999; 1031.900; 9685.000; 9151.000
471.118; 1105.950;11174.000;10711.000

