
Integration time [ms]: 100.000
Averaging Nr. [scans]: 40
Smoothing Nr. [pixels]: 0
Data measured with spectrometer [name]: 2101012U2
Wave   ;Sample   ;Dark     ;Reference
[nm]   ;[counts] ;[counts] ;[counts] 

197.733;   45.400;  516.000;  404.000
197.879;  -80.825; -610.000; -634.000
198.025;  -45.350; -475.000; -420.000
198.171;  -74.725; -602.000; -612.000
198.317;  -39.100; -401.000; -316.000
198.463;  -63.325; -655.000; -404.000
198.609;   36.800;  181.000; -137.000
198.755;  -62.275; -644.000; -410.000
198.901;  -61.575; -505.000; -424.000
199.047;  -74.650; -615.000; -488.000
199.193;  -51.975; -230.000; -468.000
199.339;  -42.625; -222.000; -369.000
199.485;   33.675;  330.000;  271.000
199.631;   23.550;  227.000;  310.000
199.777;  -44.500; -466.000; -398.000
199.923;  -64.650; -610.000; -424.000
200.069;  -11.325; -141.000;  -58.000
200.215;   65.775;  128.000;  453.000
200.361;   37.600;  243.000;  477.000
200.507;  -43.475; -600.000; -373.000
200.653;  -30.525; -371.000; -194.000
200.798;  -31.375; -215.000; -125.000
200.944;   -9.950; -146.000;  -41.000
201.090;   39.725;   61.000;  222.000
201.236;   -2.150; -116.000; -158.000
201.382;  135.675;  874.000;  903.000
201.528;    4.200;  -58.000;  -48.000
201.674;  -30.975; -386.000; -293.000
201.819;  -59.400; -540.000; -439.000
201.965;  -85.225; -699.000; -447.000
202.111;  -20.675; -273.000; -226.000
202.257;  -45.050; -250.000; -238.000
202.402;    8.075;   13.000;  -36.000
202.548;  -33.500; -169.000; -116.000
202.694;   73.300;  410.000; -183.000
202.840;  -65.825; -603.000; -531.000
202.985;  -63.200; -681.000; -639.000
203.131; -100.775; -832.000; -666.000
203.277;  -25.250; -199.000; -262.000
203.423;  -59.775; -434.000; -520.000
203.568;  -39.025; -462.000; -237.000
203.714;  -57.000; -535.000; -542.000
203.860;  -71.875; -682.000; -641.000
204.005;   16.275;  112.000;  167.000
204.151;   61.400;  561.000;  556.000
204.296;  -45.550; -354.000; -221.000
204.442;  -73.600; -600.000; -547.000
204.588;  -84.275; -592.000; -579.000
204.733;   18.900;  178.000;  168.000
204.879; -126.275;-1018.000; -822.000
205.025;   14.350;  -99.000;  126.000
205.170;   -1.525;  -17.000;   94.000
205.316;   76.475;  438.000;  661.000
205.461;  -78.300; -698.000; -554.000
205.607;   83.425;  609.000;  665.000
205.752;  -70.525; -626.000; -551.000
205.898;  -55.775; -501.000; -391.000
206.043;  -61.550; -578.000; -506.000
206.189;  -48.925; -243.000; -285.000
206.334;   65.275;  554.000;  606.000
206.480;   78.450;  409.000;  239.000
206.625;  -93.625; -529.000; -552.000
206.771;  -44.375; -451.000; -373.000
206.916;  -44.600; -210.000; -537.000
207.062;  -77.525; -545.000; -591.000
207.207;  -66.700; -546.000; -443.000
207.353;   44.325;  185.000;  460.000
207.498;   17.375;  196.000;   85.000
207.643;  -55.700; -501.000; -370.000
207.789; -136.425;-1069.000; -910.000
207.934;  -87.425; -665.000; -713.000
208.080;  -13.125; -154.000;   66.000
208.225;  -10.150;  -22.000;  -57.000
208.370;  -86.925; -727.000; -619.000
208.516;  -85.775; -741.000; -487.000
208.661;  -38.400; -127.000;  -69.000
208.806;  -11.325; -165.000; -171.000
208.952; -117.500;-1044.000; -731.000
209.097;   77.100;  378.000;  349.000
209.242;  -42.075; -307.000; -382.000
209.387;   49.025;  392.000;  350.000
209.533;  -48.000; -321.000; -350.000
209.678;   80.075;  472.000;  543.000
209.823;  -57.150; -408.000; -310.000
209.969; -112.275; -860.000; -757.000
210.114;  -98.850; -907.000; -719.000
210.259; -110.875; -939.000; -889.000
210.404;  -16.075; -171.000;  103.000
210.549;    5.950;  108.000;    3.000
210.695;  -21.600;   -3.000;  -95.000
210.840;   30.325;   94.000;   67.000
210.985;  -50.650; -484.000; -303.000
211.130;   73.675;  268.000;  406.000
211.275;   12.725;  207.000;  199.000
211.420;  -45.600; -300.000; -289.000
211.566;  -68.050; -536.000; -489.000
211.711;   23.275;  218.000;  157.000
211.856;  -67.550; -545.000; -519.000
212.001;    1.975;  151.000;   44.000
212.146;   14.525;  153.000;   49.000
212.291;  -12.025; -210.000; -186.000
212.436;  -35.650; -280.000;   -6.000
212.581;  -85.900; -685.000; -653.000
212.726;  -80.450; -487.000; -538.000
212.871;  -47.425; -552.000; -217.000
213.016; -149.525;-1172.000;-1029.000
213.161;   65.100;  406.000;  291.000
213.306;  -81.125; -435.000; -577.000
213.451;  -95.500; -778.000; -689.000
213.596;  -47.250; -455.000; -347.000
213.741;  -52.975; -448.000; -538.000
213.886;  -67.375; -498.000; -517.000
214.031;  -28.175; -294.000; -124.000
214.176;  -49.600; -408.000; -341.000
214.321;  -19.800; -296.000; -157.000
214.466;  -16.500; -163.000;  -43.000
214.611;   -6.475;  -61.000;  -10.000
214.756; -127.425; -948.000; -858.000
214.901;   -2.425; -388.000; -226.000
215.046; -119.750; -797.000; -825.000
215.191;    9.000;  128.000;   35.000
215.336;  -15.300; -157.000;  -19.000
215.480;  -64.650; -684.000; -505.000
215.625;  -31.225; -175.000;  -19.000
215.770;  -91.050; -757.000; -662.000
215.915;   -6.775;   -5.000;  -97.000
216.060;  -11.100; -113.000;  -21.000
216.205; -107.875; -731.000; -779.000
216.349;  -91.925; -470.000; -533.000
216.494; -125.300; -939.000; -867.000
216.639; -115.150; -823.000; -888.000
216.784;  -81.700; -577.000; -525.000
216.929;   49.775;  392.000;  281.000
217.073;  -13.075; -244.000;  -31.000
217.218;   10.350;   78.000;  -47.000
217.363;  -79.025; -656.000; -618.000
217.507;  -92.400; -623.000; -588.000
217.652; -140.725; -845.000; -874.000
217.797;  -82.450; -708.000; -659.000
217.942; -116.775; -856.000; -720.000
218.086;   64.950;  608.000;  539.000
218.231;   -5.075; -174.000;  -26.000
218.376;  -39.950; -337.000; -229.000
218.520;   19.525;  -41.000;   96.000
218.665;  -25.525; -338.000; -204.000
218.810;  -40.925; -275.000; -233.000
218.954;   33.425;  201.000;   35.000
219.099; -108.775; -713.000; -963.000
219.243;  -75.100; -589.000; -554.000
219.388;  -26.975; -264.000; -136.000
219.532;   -7.325; -116.000; -116.000
219.677;  -81.500; -564.000; -521.000
219.822;    2.150;   33.000;   89.000
219.966;    3.475;   17.000;  -99.000
220.111;  -33.550; -328.000;  -40.000
220.255;  -92.175; -797.000; -750.000
220.400;  -21.525; -180.000; -146.000
220.544;  -63.350; -516.000; -450.000
220.689;  -56.050; -422.000; -451.000
220.833;  -21.975; -123.000;  -58.000
220.978;  -51.000; -393.000; -563.000
221.122;   21.525;  319.000;  307.000
221.267; -109.900; -906.000; -837.000
221.411;  -64.725; -478.000; -394.000
221.555;  -11.700; -104.000;  -23.000
221.700;  -55.175; -329.000; -222.000
221.844;   39.675;  255.000;  272.000
221.989;  -50.925; -328.000; -311.000
222.133;  -43.575; -289.000; -307.000
222.277;  -13.600;    5.000;   78.000
222.422;   20.050;  227.000;  113.000
222.566;  -36.300; -381.000; -214.000
222.711;  -71.625; -414.000; -479.000
222.855;  -85.400; -643.000; -586.000
222.999;  -79.700; -642.000; -717.000
223.144;  -35.250; -195.000; -194.000
223.288;   53.625;  423.000;  251.000
223.432;   25.275;  184.000;  230.000
223.576;   25.825;  152.000;  -21.000
223.721;   35.100;  364.000;  273.000
223.865;  -58.300; -472.000; -475.000
224.009;  217.250; 1673.000; 1631.000
224.153;  -78.625; -660.000; -671.000
224.298;  -69.025; -531.000; -489.000
224.442;   -6.450;  -74.000;  -33.000
224.586;   -9.775; -169.000; -106.000
224.730;  -96.950; -858.000; -670.000
224.875; -105.925; -739.000; -688.000
225.019;   21.025;  102.000;  188.000
225.163;   53.725;  208.000;  341.000
225.307;   11.125;   97.000;  -91.000
225.451;   50.475;  360.000;  481.000
225.595;   28.100;  264.000;  176.000
225.739;  -17.525; -170.000;  -94.000
225.884;   -6.950;   86.000;    5.000
226.028;  -97.450; -760.000; -626.000
226.172;  -34.175; -260.000; -273.000
226.316; -117.525; -941.000; -902.000
226.460;  -64.050; -645.000; -493.000
226.604;  -35.825; -406.000; -400.000
226.748; -107.500; -836.000; -733.000
226.892;  -33.325; -227.000; -181.000
227.036;  -47.500; -537.000; -447.000
227.180;  -59.925; -551.000; -375.000
227.324;  -77.350; -561.000; -580.000
227.468; -116.425; -819.000; -717.000
227.612;   29.075;  242.000;  -28.000
227.756;  -92.400; -845.000; -698.000
227.900;   56.900;  342.000;  441.000
228.044;  -59.675; -509.000; -290.000
228.188;   53.975;  448.000;  568.000
228.332;  -85.775; -546.000; -472.000
228.476;  -28.075; -223.000; -149.000
228.620;  -28.600; -210.000; -150.000
228.764;   59.200;  431.000;  349.000
228.908;  -28.450; -155.000;   30.000
229.052;  -63.550; -615.000; -528.000
229.195;  -13.150; -172.000;   13.000
229.339;  -41.875; -235.000; -305.000
229.483;  -32.575;    5.000; -162.000
229.627;  -11.425; -156.000;  139.000
229.771;  -53.250; -218.000; -294.000
229.915;   20.450;  230.000;   79.000
230.059; -100.175; -648.000; -663.000
230.202;  -38.250; -370.000; -317.000
230.346;   -1.375; -107.000;  107.000
230.490;  -70.100; -489.000; -521.000
230.634; -108.925; -736.000; -553.000
230.777;   70.725;  478.000;  509.000
230.921;  -60.150; -450.000; -359.000
231.065;  -44.350; -246.000; -286.000
231.209;   23.500;  261.000;  265.000
231.352;   18.000;   54.000;   40.000
231.496;   22.375;  568.000;  188.000
231.640;  -79.375; -693.000; -621.000
231.783;   62.275;  546.000;  525.000
231.927;  -60.350; -294.000; -365.000
232.071; -113.325; -962.000; -736.000
232.214; -109.575; -980.000; -764.000
232.358;  -95.200; -683.000; -599.000
232.502;    1.650;  -19.000;    7.000
232.645; -138.825;-1090.000; -927.000
232.789;  -14.950; -257.000; -218.000
232.933;  -46.075; -407.000; -224.000
233.076; -122.500;-1038.000; -897.000
233.220;  -97.200; -752.000; -777.000
233.363;  -75.425; -669.000; -477.000
233.507;   55.225;  371.000;  129.000
233.650;  -93.750; -764.000; -834.000
233.794;   39.625;  438.000;  461.000
233.938;  -59.025; -530.000; -362.000
234.081;  -30.050;  -93.000;   31.000
234.225;  -67.300; -631.000; -539.000
234.368; -119.025; -773.000; -723.000
234.512;  -39.825; -385.000; -299.000
234.655;  -83.575; -582.000; -555.000
234.798;  -68.150; -493.000; -466.000
234.942; -135.875; -884.000;-1002.000
235.085;  -84.900; -651.000; -443.000
235.229;  -79.400; -405.000; -410.000
235.372;  -54.725; -247.000; -191.000
235.516;  -65.900; -397.000; -321.000
235.659;    8.250;   92.000;  121.000
235.802;  -25.800;  -38.000;  -22.000
235.946;   29.375;  335.000;  215.000
236.089;    7.775;  126.000;  250.000
236.233;   42.150;  275.000;  298.000
236.376;  -42.350; -235.000; -378.000
236.519;  -50.675; -297.000; -319.000
236.663;  -13.875; -215.000; -117.000
236.806; -142.025;-1029.000; -999.000
236.949;   61.100;  543.000;  431.000
237.092;   66.475;  412.000;  391.000
237.236;  -79.250; -589.000; -502.000
237.379;   65.550;  352.000;  428.000
237.522; -119.450; -879.000; -768.000
237.666;  -11.100; -271.000;   18.000
237.809; -129.625; -851.000; -823.000
237.952;   32.750;  469.000;  271.000
238.095;  -68.200; -447.000; -442.000
238.238;   78.300;  688.000;  700.000
238.382;  -10.800;  166.000;  103.000
238.525;  -55.675; -598.000; -511.000
238.668; -122.800;-1060.000; -985.000
238.811;  -86.675; -638.000; -643.000
238.954;  -69.975; -483.000; -334.000
239.097;   77.500;  617.000;  664.000
239.241;   16.975;  394.000;  326.000
239.384;  -25.975; -254.000; -214.000
239.527;  -57.775; -424.000; -224.000
239.670; -142.175; -994.000;-1091.000
239.813;  -95.575; -696.000; -658.000
239.956;   78.050;  579.000;  473.000
240.099; -111.475; -778.000; -725.000
240.242;   50.625;  428.000;  432.000
240.385;   41.175;  466.000;  450.000
240.528;  -76.675; -706.000; -473.000
240.671;   22.775;  189.000;  134.000
240.814;  -30.525; -441.000; -158.000
240.957;  -99.725; -767.000; -578.000
241.100;  -85.375; -779.000; -755.000
241.243; -133.550;-1234.000; -893.000
241.386;  -65.650; -508.000; -379.000
241.529;  -84.700; -735.000; -547.000
241.672;  -57.350; -566.000; -495.000
241.815; -114.550; -832.000; -808.000
241.958;  -25.400; -125.000; -182.000
242.101;  -78.750; -545.000; -390.000
242.244;  -39.525; -270.000; -325.000
242.387;  -28.050; -304.000; -246.000
242.530;   51.425;  470.000;  134.000
242.673;  -48.325; -381.000; -309.000
242.815; -114.625; -925.000; -899.000
242.958;  -60.200; -482.000; -381.000
243.101;   15.950;  132.000;  187.000
243.244;  -85.850; -564.000; -521.000
243.387;  -40.575; -313.000; -316.000
243.530;  -92.625; -657.000; -674.000
243.672;  -16.175;   43.000;  -92.000
243.815;  -62.050; -355.000; -283.000
243.958;  -14.975;   98.000;  -26.000
244.101;   -1.300;   59.000;  -16.000
244.243;   -6.975;  -47.000;  101.000
244.386; -105.325; -761.000; -630.000
244.529;  -22.800; -132.000; -139.000
244.672; -155.325;-1154.000; -951.000
244.814;  -89.275; -621.000; -794.000
244.957;  -63.400; -380.000; -304.000
245.100;  -84.975; -489.000; -489.000
245.242;  -52.050; -387.000; -374.000
245.385;   -7.100;  -59.000;  -39.000
245.528; -125.100; -871.000; -705.000
245.670;   77.550;  612.000;  634.000
245.813;  -90.100; -599.000; -547.000
245.956;  -35.100; -324.000; -275.000
246.098;  -68.825; -508.000; -650.000
246.241;    0.450;  194.000;   48.000
246.383;  -21.825; -119.000;  -73.000
246.526;  -75.400; -454.000; -525.000
246.669; -125.325; -889.000; -780.000
246.811;   17.550;  172.000;   -1.000
246.954;  -67.525; -512.000; -426.000
247.096;  -29.425;  -84.000;   -6.000
247.239;  -63.425; -482.000; -445.000
247.381;  -66.800; -647.000; -488.000
247.524;   78.300;  645.000;  679.000
247.666;  -10.575;   58.000;   11.000
247.809; -125.150; -887.000; -691.000
247.951;  -15.025;  -75.000;  138.000
248.094;   25.350;  432.000;  308.000
248.236; -157.425;-1262.000;-1238.000
248.378;   16.925; -356.000;  -81.000
248.521;  -23.425; -334.000; -337.000
248.663;  -37.375; -236.000; -267.000
248.806;  -13.775; -300.000; -266.000
248.948;  -93.050; -886.000; -763.000
249.090;  -32.275; -428.000; -398.000
249.233;  -53.025; -344.000; -381.000
249.375;  -59.325; -474.000; -451.000
249.518;  -17.825;  -83.000; -133.000
249.660;   -7.150; -103.000;    3.000
249.802; -156.925;-1303.000;-1189.000
249.945;  -71.800; -612.000; -540.000
250.087; -113.725; -834.000; -768.000
250.229;  -40.975; -362.000; -480.000
250.371;  -87.725; -494.000; -439.000
250.514;  -57.000; -310.000; -244.000
250.656;  -26.075;   69.000;  102.000
250.798; -114.625; -849.000; -800.000
250.940;  -41.050; -322.000; -322.000
251.083;  -21.900; -335.000; -111.000
251.225;   44.475;  338.000;  310.000
251.367;  -44.450; -274.000; -373.000
251.509;  -43.250; -265.000; -210.000
251.651;  -80.750; -731.000; -671.000
251.794;   41.900;  538.000;  632.000
251.936;  -96.325; -821.000; -747.000
252.078;  -76.325; -540.000; -461.000
252.220;  -76.075; -645.000; -477.000
252.362;   82.350;  344.000;  462.000
252.504;  -68.050; -677.000; -584.000
252.646; -108.950; -875.000; -722.000
252.788;   10.800;   14.000; -128.000
252.931;  -35.850; -257.000; -253.000
253.073;  -45.750; -376.000; -317.000
253.215;  -16.775;  141.000;  122.000
253.357;  -14.725;   82.000; -153.000
253.499;  -54.375; -374.000; -234.000
253.641;  -86.450; -749.000; -594.000
253.783;  -93.600; -609.000; -527.000
253.925;  -93.375; -586.000; -591.000
254.067; -105.450; -744.000; -667.000
254.209;  -34.950; -391.000; -259.000
254.351; -127.900; -865.000; -883.000
254.493;  -59.175; -441.000; -417.000
254.635; -122.800; -936.000; -818.000
254.777;  -98.500; -752.000; -687.000
254.918;  -74.850; -512.000; -430.000
255.060;  -48.050; -551.000; -395.000
255.202;  -58.625; -473.000; -261.000
255.344;  -65.200; -658.000; -455.000
255.486;  -79.725; -471.000; -406.000
255.628; -105.500; -780.000; -781.000
255.770;  -83.675; -676.000; -536.000
255.912;  -64.975; -559.000; -468.000
256.053;  -94.100; -730.000; -508.000
256.195;  150.025; 1008.000;  903.000
256.337; -109.075; -861.000; -595.000
256.479;   62.600;  532.000;  416.000
256.621;  -48.825; -394.000; -212.000
256.762;  -91.400; -789.000; -742.000
256.904;   50.425;  485.000;  487.000
257.046;  -42.025; -381.000; -271.000
257.188;  -35.000; -351.000; -264.000
257.329;  -69.425; -525.000; -464.000
257.471; -108.525; -939.000; -807.000
257.613;  -69.700; -584.000; -498.000
257.755; -151.400;-1073.000; -982.000
257.896;   30.225;  286.000;  392.000
258.038;  -78.725; -403.000; -352.000
258.180;  -37.875; -354.000; -279.000
258.321;  -88.325; -581.000; -457.000
258.463;    4.575;  -71.000;  133.000
258.605;  -88.475; -562.000; -570.000
258.746;  -96.650; -886.000; -772.000
258.888; -144.875;-1026.000;-1020.000
259.029;   -2.125;  121.000;   -8.000
259.171;  -93.150; -614.000; -550.000
259.313;   -8.225;  -49.000;  -47.000
259.454;  -68.500; -536.000; -414.000
259.596;  -63.875; -483.000; -390.000
259.737;  -71.450; -590.000; -474.000
259.879;   39.850;  217.000;  311.000
260.020;   79.225;  901.000;  636.000
260.162;  -38.125; -146.000; -253.000
260.303; -124.700; -768.000; -687.000
260.445;  -78.375; -609.000; -613.000
260.586;   15.200;  392.000;  157.000
260.728;  -42.425; -360.000; -248.000
260.869; -116.125; -350.000; -343.000
261.011;   66.125;  706.000;  537.000
261.152;  -64.175; -479.000; -319.000
261.293;  -80.750; -576.000; -595.000
261.435;  -36.100; -219.000; -184.000
261.576;  -43.625; -455.000; -325.000
261.718;   52.700;  420.000;  470.000
261.859; -138.100; -940.000; -949.000
262.000; -127.300; -951.000;-1016.000
262.142;  -19.625;  -52.000;  -60.000
262.283; -114.850; -808.000; -691.000
262.424;  -82.525; -666.000; -625.000
262.566; -152.975;-1161.000; -983.000
262.707; -108.950; -840.000; -830.000
262.848; -114.175; -769.000; -726.000
262.990;  -43.375; -362.000; -345.000
263.131;   73.650;  650.000;  681.000
263.272;    2.200;  -61.000;  -41.000
263.413;  -95.150; -589.000; -561.000
263.555;  -62.225; -669.000; -143.000
263.696; -104.025; -550.000; -641.000
263.837;  -70.900; -449.000; -551.000
263.978;  -16.600;   -5.000;  -77.000
264.119;  -57.500; -283.000; -264.000
264.261; -107.600; -847.000; -630.000
264.402;   -4.300;   33.000;   40.000
264.543;  -77.425; -509.000; -524.000
264.684;   -2.525;   61.000;  -50.000
264.825;  -75.900; -816.000; -538.000
264.966;   -9.975;  -84.000;  -67.000
265.107; -104.225; -646.000; -670.000
265.248; -121.450; -825.000; -812.000
265.390;   -0.350;  152.000;   -9.000
265.531;  -34.850; -238.000; -107.000
265.672;  -91.050; -557.000; -630.000
265.813;   55.625;  563.000;  439.000
265.954; -147.000; -959.000; -940.000
266.095;  -12.225; -372.000; -322.000
266.236;  -94.750; -686.000; -548.000
266.377;  -43.750; -243.000; -297.000
266.518;  -69.975; -619.000; -547.000
266.659;   26.550;  170.000;  268.000
266.800;   11.375;   83.000;   85.000
266.941;  -82.975; -487.000; -478.000
267.082;    6.575;  354.000;   99.000
267.223;  -56.350; -344.000; -273.000
267.364; -115.800; -892.000; -686.000
267.504;  -15.725;    3.000;  135.000
267.645;    8.375;  160.000;   67.000
267.786;  -28.800; -147.000;  -86.000
267.927;  -72.650; -473.000; -379.000
268.068;  -17.425; -186.000;  -61.000
268.209;  -59.000; -175.000; -413.000
268.350;  -70.425; -388.000; -532.000
268.490;  -93.975; -648.000; -521.000
268.631;   19.150;  127.000;  225.000
268.772; -109.300; -874.000; -647.000
268.913;  -44.700; -328.000; -476.000
269.054;  -11.650; -117.000;   12.000
269.194;  -44.550; -418.000; -402.000
269.335; -165.925;-1137.000;-1074.000
269.476;  -19.525;   33.000;  -35.000
269.617;  -51.800; -347.000; -392.000
269.757;  -76.175; -713.000; -646.000
269.898;  -92.425; -856.000; -613.000
270.039;  -60.375; -415.000; -405.000
270.180; -134.275; -952.000; -816.000
270.320;  -24.050; -190.000; -250.000
270.461;  -40.775; -277.000; -249.000
270.602;    0.925; -186.000; -156.000
270.742; -114.075; -868.000; -943.000
270.883;  -51.625; -442.000; -390.000
271.023;  -50.825; -358.000; -357.000
271.164;  -76.975; -607.000; -528.000
271.305; -103.100; -666.000; -654.000
271.445;  -89.350; -722.000; -683.000
271.586;  -72.400; -462.000; -283.000
271.726;  -54.175; -397.000; -322.000
271.867;  -46.075; -594.000; -534.000
272.008;  202.150; -473.000; -285.000
272.148;  142.750;  462.000;  468.000
272.289;   13.725; -113.000; -181.000
272.429;   21.075;   19.000;  185.000
272.570;  -87.900; -633.000; -737.000
272.710;  -91.700; -825.000; -775.000
272.851;  -12.325;  113.000; -130.000
272.991; -154.050;-1173.000;-1077.000
273.131;  -67.650; -419.000; -459.000
273.272;  -90.500; -683.000; -723.000
273.412;   -3.150; -143.000;  -31.000
273.553;  -45.700; -488.000; -507.000
273.693;  125.325;  913.000;  858.000
273.834;  -77.075; -894.000; -692.000
273.974;  -72.475; -664.000; -615.000
274.114;  -81.900; -772.000; -560.000
274.255;   74.575;  414.000;  373.000
274.395;   17.325; -180.000; -125.000
274.535;   45.850;  199.000;  350.000
274.676;   14.925;  225.000;   94.000
274.816;    9.300;  110.000;   34.000
274.956;  -74.025; -624.000; -690.000
275.097;  -40.825;-1014.000; -922.000
275.237; -109.675; -913.000; -803.000
275.377;  -96.125; -778.000; -689.000
275.517; -142.925; -878.000; -937.000
275.658;  -54.725; -590.000; -555.000
275.798;  -71.975; -606.000; -413.000
275.938;   34.675;  215.000;  323.000
276.078; -101.800; -626.000; -395.000
276.218;    9.125;   99.000;  104.000
276.359; -118.575;-1026.000;-1024.000
276.499;  -81.025; -605.000; -446.000
276.639;  -27.150; -305.000; -151.000
276.779;  -40.900; -475.000; -357.000
276.919;  -99.975; -783.000; -624.000
277.059;  -30.250; -261.000; -212.000
277.199;  -42.675; -357.000; -259.000
277.340;   46.125;  287.000;  175.000
277.480; -100.750; -840.000; -693.000
277.620;   29.625;  192.000;   16.000
277.760; -167.700;-1533.000;-1294.000
277.900;   23.650;  113.000;   33.000
278.040;   14.625;  137.000;  159.000
278.180;   35.775;  270.000;  170.000
278.320;    5.125;   21.000;   56.000
278.460;  -79.425; -443.000; -469.000
278.600;  -88.950; -708.000; -598.000
278.740;   46.075;  448.000;  224.000
278.880;  -40.850; -768.000; -791.000
279.020;   -0.275; -194.000; -144.000
279.160;  -95.875; -672.000; -595.000
279.300; -137.225; -926.000; -873.000
279.440;  -84.650; -709.000; -622.000
279.579;   -1.800;-1014.000; -929.000
279.719;  -40.425; -410.000; -394.000
279.859;   77.650;   -4.000;   41.000
279.999;   44.750; -208.000;  101.000
280.139;   -1.725; -435.000; -387.000
280.279;  -80.225; -708.000; -745.000
280.419;   -3.875; -229.000; -147.000
280.559;  -42.100; -259.000; -180.000
280.698;  -88.125; -790.000; -639.000
280.838;  -89.325; -778.000; -800.000
280.978;  -97.575; -846.000; -790.000
281.118; -112.150; -811.000; -704.000
281.257;    8.400;   24.000;    6.000
281.397; -101.075;-1094.000; -960.000
281.537;  -83.075; -599.000; -712.000
281.677;  -29.475; -150.000; -101.000
281.816;  -99.125; -700.000; -630.000
281.956;  -40.075; -193.000; -257.000
282.096;  -52.400; -539.000; -396.000
282.235; -108.050; -672.000; -638.000
282.375;  -18.900; -243.000;  -98.000
282.515;  -97.675; -715.000; -707.000
282.654;   30.600;   29.000;  106.000
282.794;   18.100;  388.000;  244.000
282.934;  -66.425; -530.000; -491.000
283.073; -130.650;-1030.000; -857.000
283.213;  -61.725; -460.000; -467.000
283.353;  -24.975; -408.000; -349.000
283.492;  -29.650; -264.000; -296.000
283.632;  -54.175; -254.000; -168.000
283.771;  -96.975; -859.000; -730.000
283.911;  -54.400; -369.000; -260.000
284.050; -106.450; -794.000; -748.000
284.190; -157.775;-1229.000;-1096.000
284.329; -142.450;-1055.000; -964.000
284.469;  -63.350; -516.000; -591.000
284.608;  -52.100; -559.000; -598.000
284.748;  -79.025; -614.000; -570.000
284.887;  -11.825;  -87.000;  -20.000
285.027; -122.650; -844.000; -892.000
285.166;  -23.250; -192.000; -249.000
285.306;    7.775; -116.000;  -33.000
285.445;  -30.150; -229.000; -343.000
285.584;  -95.825; -630.000; -494.000
285.724;  -53.525; -282.000; -322.000
285.863; -119.950; -857.000; -507.000
286.002;  -48.875; -366.000; -276.000
286.142; -104.200; -715.000; -622.000
286.281;  -66.350; -525.000; -493.000
286.420;  -68.950; -554.000; -417.000
286.560;   99.425;  653.000;  623.000
286.699; -143.700; -958.000; -912.000
286.838;  -82.475; -590.000; -591.000
286.978;  -87.200; -533.000; -537.000
287.117; -128.250;-1085.000; -950.000
287.256;  -34.600; -228.000; -211.000
287.395;  -62.275; -197.000; -378.000
287.535;  -37.150; -370.000; -298.000
287.674;  -72.600; -509.000; -484.000
287.813;   58.125;  661.000;  533.000
287.952; -127.950;-1010.000; -871.000
288.091; -149.700;-1049.000; -915.000
288.231;   19.100;   13.000;   15.000
288.370; -158.750;-1217.000;-1200.000
288.509;  -98.225; -728.000; -645.000
288.648;  -92.725; -770.000; -548.000
288.787;  -29.625; -243.000;  -87.000
288.926;  -61.450; -454.000; -475.000
289.065;  101.525;  859.000;  672.000
289.204;  -58.075; -377.000; -217.000
289.344;  -91.325; -791.000; -690.000
289.483;   29.375;  416.000;  304.000
289.622;  -28.450; -291.000; -149.000
289.761;  -25.200; -309.000; -166.000
289.900; -106.300; -785.000; -626.000
290.039;  -22.925;  -12.000;  -95.000
290.178;  -50.875; -274.000; -180.000
290.317;  -72.525; -618.000; -479.000
290.456;  -58.350; -463.000; -451.000
290.595; -136.500; -961.000; -833.000
290.734; -141.075; -904.000; -891.000
290.873;  -66.200; -456.000; -420.000
291.011; -114.775; -833.000; -843.000
291.150;  -91.400; -770.000; -682.000
291.289;  -19.150; -343.000; -110.000
291.428;  -93.500; -599.000; -480.000
291.567;  -46.650; -370.000; -442.000
291.706;   -7.125;  109.000;  154.000
291.845;  -79.200; -597.000; -505.000
291.984; -168.975;-1234.000;-1061.000
292.122;   66.175;  602.000;  582.000
292.261;   44.850;  620.000;  463.000
292.400;   10.600; -144.000;  211.000
292.539; -128.650; -959.000; -813.000
292.678;  -33.050; -325.000; -300.000
292.816; -142.275;-1136.000; -965.000
292.955;  -72.700; -844.000; -684.000
293.094;  -21.275; -173.000; -337.000
293.233;  -53.500; -556.000; -400.000
293.371;  -33.175; -225.000;  -84.000
293.510; -111.900; -866.000; -780.000
293.649; -117.325; -959.000; -924.000
293.787;  -38.425;-1083.000;-1012.000
293.926;    6.800; -113.000;  -32.000
294.065;  -42.250; -379.000; -290.000
294.203;   46.675;  298.000;  406.000
294.342;   40.425;   74.000;  156.000
294.481; 6171.475;51180.000; -836.000
294.619;  -24.675; -425.000; -582.000
294.758; -148.775;-1230.000;-1137.000
294.896;   93.725; -125.000;    5.000
295.035; -122.425;-1040.000;-1006.000
295.174; -116.475;-1082.000; -954.000
295.312;  -29.850; -323.000; -203.000
295.451;    2.750; -307.000; -428.000
295.589;  -38.575; -389.000; -518.000
295.728;   22.525; -292.000; -165.000
295.866;   -0.275;  -36.000;  -51.000
296.005;  -55.975; -584.000; -341.000
296.143;  -64.675; -558.000; -596.000
296.282;  -93.850; -957.000; -881.000
296.420;  -85.425; -657.000; -557.000
296.559;  -86.500; -892.000; -633.000
296.697;   57.525; -847.000; -665.000
296.835;  101.325;-1141.000;-1002.000
296.974;   41.200;  -23.000;   39.000
297.112;   22.050; -443.000; -504.000
297.251;  -61.400; -815.000; -755.000
297.389;  117.500; -576.000; -438.000
297.527;   51.125; -145.000;  -83.000
297.666;  -38.775; -486.000; -438.000
297.804;  -47.600; -404.000; -264.000
297.942;   -3.375; -136.000; -161.000
298.081;   -8.200; -183.000;   63.000
298.219;   93.025;  -17.000;  -19.000
298.357;   63.825; -144.000;  -71.000
298.495;   70.850; -810.000; -812.000
298.634;   99.350;  245.000;  219.000
298.772;   74.100; -220.000; -338.000
298.910;  -29.575; -309.000; -182.000
299.048;   -1.925; -130.000; -153.000
299.187;  -25.800; -350.000; -250.000
299.325;   20.300;   52.000;  122.000
299.463;   78.500; -389.000; -299.000
299.601;  139.100; -327.000; -271.000
299.739;  -85.975; -908.000; -883.000
299.877;  -81.125; -791.000; -703.000
300.016;  -20.550;-1095.000; -935.000
300.154;  201.550;  -19.000; -161.000
300.292;   73.075; -428.000; -348.000
300.430;   46.875; -408.000; -291.000
300.568;  -87.225; -940.000; -874.000
300.706;  -37.450; -366.000; -469.000
300.844;  -54.050;-1108.000; -979.000
300.982;  123.075;  246.000;  282.000
301.120; -110.375; -965.000; -866.000
301.258;  -56.250; -812.000; -705.000
301.396;   51.050;  104.000;  -41.000
301.534;  130.225; -218.000; -293.000
301.672;    5.875; -664.000; -521.000
301.810;   61.600; -613.000; -545.000
301.948;  143.575;   53.000;  149.000
302.086;  742.800; -250.000;  -32.000
302.224; 1132.550; -610.000; -585.000
302.362;   62.100; -558.000; -622.000
302.500;   16.975; -923.000; -893.000
302.638;  130.525;  128.000;  245.000
302.776;   -0.125; -352.000; -408.000
302.913;   46.650;  447.000;  236.000
303.051;    5.800;  -86.000;  -23.000
303.189;   68.150;   90.000;  118.000
303.327;  -36.450; -341.000; -256.000
303.465;  -74.500; -832.000; -588.000
303.603;  -90.975; -805.000; -604.000
303.740;  101.800;  417.000;  241.000
303.878;   30.575; -800.000; -759.000
304.016;  -79.325; -915.000; -790.000
304.154; -105.275;-1123.000;-1152.000
304.291;  -26.725; -505.000; -554.000
304.429;    0.275;  102.000;   74.000
304.567; -107.575; -908.000; -893.000
304.705;  -41.175; -408.000; -515.000
304.842;  138.325; -616.000; -540.000
304.980;   60.250;  215.000;   35.000
305.118;   76.800; -367.000; -365.000
305.255;  -61.550; -945.000; -927.000
305.393;   75.250;  178.000;  239.000
305.531;  -98.725;-1173.000; -956.000
305.668;  -49.750; -663.000; -582.000
305.806;  134.475; -358.000; -439.000
305.943;  140.800; -629.000; -637.000
306.081;   61.075; -378.000; -267.000
306.219;  -88.700; -863.000; -748.000
306.356;    9.150;  158.000;   27.000
306.494;  110.475;  981.000;  761.000
306.631;    2.725;  -11.000;  -55.000
306.769;    8.775; -613.000; -485.000
306.906;  -14.725; -284.000; -258.000
307.044;  -65.825; -473.000; -488.000
307.181;  -64.775; -410.000; -332.000
307.319;    6.425;  112.000;   87.000
307.456; -159.850;-1191.000;-1153.000
307.594;  -90.675; -980.000; -727.000
307.731;   -0.450; -371.000; -164.000
307.868;    5.425;  -15.000;   20.000
308.006; -119.475; -961.000; -847.000
308.143;  -75.200; -618.000; -330.000
308.281;  205.075;  -37.000; -254.000
308.418;    5.075; -748.000; -640.000
308.555;  -51.725; -400.000; -250.000
308.693;  -75.425; -577.000; -573.000
308.830;  -93.825; -712.000; -657.000
308.967;  -17.450; -215.000;  -95.000
309.105;  -48.825; -507.000; -396.000
309.242;   43.650; -468.000; -367.000
309.379;  389.000; -577.000; -655.000
309.517;  -38.725; -936.000; -948.000
309.654; -104.625; -910.000; -734.000
309.791;  -66.250; -662.000; -580.000
309.928; -116.900; -977.000; -914.000
310.065;  181.875;  819.000;  697.000
310.203;   31.450; -825.000; -850.000
310.340;   -0.125; -465.000; -321.000
310.477;  -60.925; -412.000; -516.000
310.614;  -81.975; -383.000; -473.000
310.751;  -74.425; -427.000; -518.000
310.889;  -30.200;    1.000;   11.000
311.026; -133.650;-1161.000; -939.000
311.163;  -50.725; -386.000; -380.000
311.300;  -88.100; -512.000; -479.000
311.437;  -75.075; -658.000; -619.000
311.574; -162.675;-1226.000; -985.000
311.711;  -57.725; -595.000; -433.000
311.848;  -35.000; -380.000; -388.000
311.985;   11.650;  270.000;   93.000
312.122; -105.350; -932.000; -762.000
312.259; -117.550; -941.000; -994.000
312.396;  -92.800; -508.000; -551.000
312.533;  -72.575; -812.000; -790.000
312.670; -127.175;-1070.000; -898.000
312.807;  -31.125; -352.000; -367.000
312.944;  -75.525; -513.000; -611.000
313.081;  -28.575; -150.000; -415.000
313.218;  -97.150;-1111.000; -867.000
313.355;   26.850; -531.000; -449.000
313.492;    6.300; -455.000; -292.000
313.629;  136.850;  815.000;  735.000
313.766; -162.650;-1176.000;-1008.000
313.902;   -6.350; -186.000;   21.000
314.039;  -48.275; -372.000; -289.000
314.176;   23.775;  286.000;  192.000
314.313;  -77.900; -569.000; -473.000
314.450;  -72.850; -788.000; -684.000
314.587;  -59.050; -468.000; -480.000
314.723;   10.800;  -78.000;  130.000
314.860;   45.425;  318.000;  332.000
314.997;   38.250;  223.000;  142.000
315.134;  -44.525; -385.000; -368.000
315.270;  -29.925; -480.000; -496.000
315.407; -113.350;-1094.000; -967.000
315.544;  -45.250; -657.000; -538.000
315.681;  -69.925; -681.000; -565.000
315.817;   26.700; -133.000; -176.000
315.954;   27.550; -613.000; -392.000
316.091; -110.425;-1045.000;-1023.000
316.227;  -33.975;  -71.000; -179.000
316.364;    6.400;   23.000;    6.000
316.500;  -40.525; -113.000; -300.000
316.637;  -39.525; -181.000; -302.000
316.774;  -83.950; -625.000; -358.000
316.910;  -86.525; -598.000; -629.000
317.047;  -77.025; -487.000; -351.000
317.183;  -52.900; -435.000; -566.000
317.320;   -0.650; -367.000; -321.000
317.456;  -61.450; -733.000; -805.000
317.593;  -81.825; -598.000; -641.000
317.729;    2.325;  168.000;  -67.000
317.866; -191.825;-1434.000;-1285.000
318.002;  -94.725; -708.000; -948.000
318.139;  -89.625; -883.000; -867.000
318.275; -103.525;-1003.000; -738.000
318.412;  -62.400; -517.000; -336.000
318.548;  -13.400; -751.000; -720.000
318.685;  -79.750; -985.000; -888.000
318.821;  -85.325; -762.000; -735.000
318.957;  -12.150;   34.000;  -23.000
319.094;   26.575;  297.000;  154.000
319.230;  -50.925; -756.000; -742.000
319.367;  157.325; -471.000; -520.000
319.503;   76.450; -538.000; -436.000
319.639;  -87.475; -877.000; -793.000
319.775;  -40.000; -750.000; -685.000
319.912;  -41.875; -424.000; -519.000
320.048;  -75.550;-1184.000;-1184.000
320.184;   70.725;   59.000;   70.000
320.321;  -59.975; -497.000; -467.000
320.457;   50.100;  475.000;  662.000
320.593;  -65.225; -375.000; -382.000
320.729; -105.100; -732.000; -734.000
320.866;  -75.025; -577.000; -635.000
321.002;  -63.325; -759.000; -809.000
321.138;  -13.100; -135.000; -211.000
321.274;   75.925; -148.000; -115.000
321.410;  -10.375; -585.000; -353.000
321.546;   -8.850;-1011.000; -911.000
321.683;   63.975;  400.000;  185.000
321.819;   11.850;  -48.000; -117.000
321.955; -104.600; -743.000; -722.000
322.091;  -43.700; -585.000; -540.000
322.227;   -5.000; -382.000; -202.000
322.363;  -15.200; -320.000; -215.000
322.499;  -42.175; -343.000; -331.000
322.635;  173.625;  636.000;  443.000
322.771;   46.225; -139.000;   12.000
322.907;  105.300;  129.000;  327.000
323.043;  -19.225; -115.000; -206.000
323.179;  -28.600; -394.000; -363.000
323.315;   61.150; -401.000; -371.000
323.451;  118.175; -328.000; -236.000
323.587;   73.750;  -60.000;  -77.000
323.723;   32.700; -682.000; -601.000
323.859;   -7.975; -258.000;  -76.000
323.995;  -28.525; -467.000; -409.000
324.131; -114.850; -967.000; -892.000
324.267;  -45.675; -254.000; -276.000
324.402; -131.150; -960.000; -983.000
324.538;  -12.375; -279.000; -104.000
324.674;   21.350;  164.000;   77.000
324.810;  157.600;  226.000;  308.000
324.946;   20.650; -810.000; -658.000
325.082;  -66.300; -568.000; -475.000
325.217;  -15.300;  -62.000;   16.000
325.353;  -98.725; -764.000; -659.000
325.489;  -72.625; -540.000; -506.000
325.625;  -83.450; -579.000; -525.000
325.760;   70.375;  517.000;  376.000
325.896;  -40.300; -515.000; -702.000
326.032;  -46.800; -403.000; -352.000
326.168;  -57.900; -462.000; -369.000
326.303;  -49.850; -352.000; -461.000
326.439;  -24.225; -336.000; -276.000
326.575;    7.300; -190.000;  -29.000
326.710;   -9.225; -156.000;  -30.000
326.846;   -7.700;  146.000;  103.000
326.982;  -93.200; -530.000; -548.000
327.117;  -82.350; -481.000; -442.000
327.253;  -89.425; -745.000; -742.000
327.388; -138.125;-1137.000;-1153.000
327.524;  -47.450; -811.000; -578.000
327.659;  -40.675;  -58.000;  -22.000
327.795;   -5.625;   69.000;   45.000
327.931;  -92.925; -723.000; -499.000
328.066;  -27.875; -417.000; -276.000
328.202;    1.450;   12.000; -129.000
328.337;   85.900;  957.000;  713.000
328.473;   37.425;  -12.000;  -74.000
328.608;  -20.975; -256.000; -267.000
328.743;  -75.900; -799.000; -664.000
328.879;   21.400;  214.000;  114.000
329.014;  -25.700; -102.000; -122.000
329.150;  -86.350; -358.000; -483.000
329.285;  -80.200; -465.000; -466.000
329.421;  -47.650; -548.000; -246.000
329.556;  -33.950;  -36.000;   85.000
329.691;  -85.250; -633.000; -615.000
329.827;  -76.475; -626.000; -480.000
329.962;  -50.375;  131.000; -301.000
330.097;  -90.875; -673.000; -585.000
330.233;  -44.300; -410.000; -223.000
330.368; -129.225; -839.000; -628.000
330.503;  -17.025;    3.000;   98.000
330.638;   21.650;  -93.000; -125.000
330.774;  -60.775; -609.000; -530.000
330.909;  -45.225; -434.000; -244.000
331.044;  -91.125; -714.000; -708.000
331.179; -176.375;-1217.000;-1109.000
331.315;    5.100;   77.000;   20.000
331.450;    7.050;  157.000;  285.000
331.585;  -89.950; -805.000; -706.000
331.720;  -74.400; -510.000; -460.000
331.855;   -8.800;  -35.000; -102.000
331.990;  216.825;   62.000;  138.000
332.126;  106.675; -110.000;   71.000
332.261;   -9.900; -379.000; -265.000
332.396;    1.375; -135.000; -242.000
332.531; -105.400;-1074.000;-1031.000
332.666;   25.475; -519.000; -363.000
332.801;  -97.175; -726.000; -807.000
332.936;  -18.300; -192.000; -122.000
333.071; -148.025; -870.000; -817.000
333.206;   27.550;  307.000;  379.000
333.341;   23.550;  344.000;  418.000
333.476;  -96.375; -627.000; -623.000
333.611;  -49.150; -251.000; -173.000
333.746;  -40.575; -381.000; -464.000
333.881; -112.850; -973.000; -935.000
334.016; -122.550; -936.000; -917.000
334.151; -119.550; -746.000; -702.000
334.286;   26.050;  152.000;  186.000
334.421;  -16.725; -125.000; -178.000
334.556;  -67.050; -611.000; -567.000
334.690;  -88.550; -631.000; -577.000
334.825;   61.875;  381.000;   83.000
334.960;  -52.525; -285.000; -413.000
335.095;   15.850;  135.000;  -91.000
335.230;  -85.750; -722.000; -738.000
335.365; -129.125;-1084.000; -990.000
335.499; -127.125;-1108.000;-1037.000
335.634;   23.900;    9.000;  534.000
335.769;  -84.650; -755.000; -720.000
335.904;  -50.025; -603.000; -561.000
336.038;  -48.800; -735.000; -657.000
336.173;  -92.650;-1206.000;-1194.000
336.308;   25.450; -116.000; -189.000
336.443;   21.675; -544.000; -634.000
336.577;  -58.500; -936.000; -787.000
336.712;   77.350;   -4.000;  -12.000
336.847;  -21.975; -724.000; -607.000
336.981;   94.625; -272.000; -208.000
337.116;  324.075;  615.000;  501.000
337.250;  192.775; -434.000; -421.000
337.385;  228.175; -297.000; -208.000
337.520;   76.625; -632.000; -603.000
337.654;  -32.250; -215.000; -126.000
337.789; -121.725; -989.000; -933.000
337.923;  -39.875; -104.000; -205.000
338.058;  -80.775; -673.000; -738.000
338.192;   -6.975; -611.000; -488.000
338.327;   -3.775;  -18.000; -155.000
338.461;  -65.125; -299.000; -469.000
338.596;  -88.675; -780.000; -638.000
338.730; -110.475; -767.000; -803.000
338.865;   81.575;  -46.000; -140.000
338.999;  -51.500; -846.000; -702.000
339.134;  -27.825; -634.000; -536.000
339.268;   24.725; -741.000; -603.000
339.403;  356.600; -740.000; -775.000
339.537;   78.250; -894.000; -820.000
339.671; -110.225; -829.000; -813.000
339.806;  -71.000; -556.000; -512.000
339.940;   12.750; -261.000; -235.000
340.074;  -91.575; -685.000; -510.000
340.209;  -45.275; -351.000; -230.000
340.343;  -91.900; -517.000; -573.000
340.477;  156.425;  998.000; 1036.000
340.612;  -65.325;-1033.000; -900.000
340.746;  133.975; -199.000; -243.000
340.880;  -65.900; -924.000; -785.000
341.014;   -6.750;  -45.000; -154.000
341.149; -117.400; -756.000; -718.000
341.283; -110.775; -839.000; -754.000
341.417;  -73.200;-1124.000; -938.000
341.551;  175.425; -768.000; -708.000
341.685;  -25.100; -633.000; -611.000
341.820;  -48.525; -562.000; -493.000
341.954;  -51.225; -218.000; -349.000
342.088; -153.625;-1102.000;-1019.000
342.222;   68.850;  565.000;  618.000
342.356;  -44.625; -395.000; -335.000
342.490;  -71.125; -880.000; -841.000
342.624;  -49.025; -339.000; -242.000
342.758;    4.750; -364.000; -312.000
342.892;  -60.675; -710.000; -585.000
343.026;  -34.050;  -58.000; -116.000
343.160;  -54.450; -426.000; -376.000
343.294;  -76.600; -474.000; -337.000
343.428;  -14.125; -488.000; -448.000
343.562;    6.750; -172.000;  -23.000
343.696;  -20.950; -385.000; -314.000
343.830;   -5.825; -362.000; -356.000
343.964;   18.050; -231.000; -168.000
344.098; 1116.825;  199.000;   70.000
344.232;  953.450; -266.000; -127.000
344.366;  122.350; -567.000; -453.000
344.500;  104.800; -665.000; -744.000
344.634;   60.375; -324.000; -164.000
344.768;    2.300; -531.000; -341.000
344.902;   20.250;  278.000;  256.000
345.035;  -69.700; -556.000; -496.000
345.169; -130.475; -933.000; -656.000
345.303;  -19.625; -308.000; -482.000
345.437;  -68.400; -826.000; -717.000
345.571;  -73.950; -675.000; -594.000
345.704;  -46.125; -309.000; -532.000
345.838;  -16.725; -331.000; -284.000
345.972;  -48.225; -543.000; -495.000
346.106;  149.075; -179.000; -190.000
346.239;  439.625; -312.000; -243.000
346.373;   21.350; -343.000; -302.000
346.507; -115.750; -950.000; -962.000
346.640;  178.875;  -30.000;   13.000
346.774;  -30.950; -650.000; -797.000
346.908;   -6.425; -138.000;  -11.000
347.041;  -93.275; -646.000; -593.000
347.175;   11.700;  259.000;   27.000
347.309;  -68.250; -698.000; -628.000
347.442; -100.450; -883.000; -732.000
347.576;  327.175;  670.000;  668.000
347.709;  269.575; -123.000;  -52.000
347.843;  -81.000; -933.000; -825.000
347.976;   50.450;  235.000;  294.000
348.110; -165.625;-1268.000;-1186.000
348.243;  -86.250; -679.000; -772.000
348.377;   13.350;  -26.000;   60.000
348.510;   60.200;  403.000;  540.000
348.644;  -22.250;  -37.000; -159.000
348.777;   -0.750;  180.000;  191.000
348.911;  -39.675; -142.000; -112.000
349.044;  195.625;  471.000;  448.000
349.178;  238.950;-1069.000;-1006.000
349.311;  109.750;  141.000;  255.000
349.444;   -3.575; -927.000; -813.000
349.578;  -10.075; -347.000; -200.000
349.711;  -92.550; -959.000; -862.000
349.845;   25.750; -661.000; -591.000
349.978; -137.950;-1224.000;-1137.000
350.111;  -80.875; -546.000; -612.000
350.244;  -67.425; -596.000; -700.000
350.378;   25.500; -392.000; -393.000
350.511;  -77.625; -393.000; -426.000
350.644;  -92.350; -808.000; -806.000
350.778;   -1.000;  168.000;  104.000
350.911;    4.700;  134.000;  140.000
351.044;  -80.850; -685.000; -615.000
351.177;  -14.575; -321.000; -281.000
351.310;  -16.050;    3.000; -131.000
351.444;  -64.750; -888.000; -788.000
351.577;  148.950;  140.000;   90.000
351.710;  100.975;  593.000;  417.000
351.843;  -37.775; -165.000;  -77.000
351.976;   10.600;  149.000;  -79.000
352.109;  -94.350; -621.000; -612.000
352.242;  -13.500; -464.000; -419.000
352.376;  -48.350; -580.000; -636.000
352.509;  233.650; -437.000; -356.000
352.642;   50.100; -654.000; -604.000
352.775;   87.500; -141.000;  -98.000
352.908;  -93.475; -933.000; -904.000
353.041;  -89.900; -814.000; -824.000
353.174;  -54.275; -551.000; -424.000
353.307;  -76.575; -753.000; -764.000
353.440;   65.800;  541.000;  453.000
353.573; -116.850; -957.000;-1008.000
353.706;  -42.300; -384.000; -558.000
353.839;   -5.800; -264.000; -220.000
353.971;  -87.650; -657.000; -512.000
354.104;  -67.000; -896.000; -835.000
354.237;  -17.650; -627.000; -662.000
354.370;  -83.525; -846.000; -879.000
354.503; -169.775;-1231.000;-1308.000
354.636;  -39.550; -529.000; -348.000
354.769; -114.025; -937.000; -860.000
354.902;   -2.925; -230.000; -139.000
355.034;   -8.925; -164.000; -220.000
355.167;  -21.150; -262.000; -162.000
355.300;  -87.800;-1061.000; -880.000
355.433;  909.625;  -71.000;  -14.000
355.565; 1409.150; -402.000; -384.000
355.698;  354.475; -356.000; -296.000
355.831;   12.625; -882.000; -801.000
355.964;  102.425; -285.000; -170.000
356.096;  -80.175; -856.000; -843.000
356.229;   36.175; -523.000; -530.000
356.362;  297.900; -373.000; -266.000
356.494;  579.300; -229.000; -162.000
356.627;  566.325;  269.000;  377.000
356.760;  653.025;  120.000;   53.000
356.892;  876.350; -286.000; -601.000
357.025;  775.925;  403.000;  389.000
357.157;  738.800; -167.000; -179.000
357.290;  586.350; -856.000; -713.000
357.423;  210.325; -667.000; -556.000
357.555;  130.675; -217.000; -228.000
357.688;  170.100; -483.000; -364.000
357.820;  543.225; -870.000; -877.000
357.953; 4332.225; -563.000; -589.000
358.085;  988.150; -632.000; -612.000
358.218; 1497.375;-1131.000; -932.000
358.350;  272.875;  -58.000;  312.000
358.483; -100.100;-1300.000;-1187.000
358.615;   21.900;-1182.000;-1078.000
358.747;  -24.900;-1187.000;-1058.000
358.880;   60.350; -810.000; -744.000
359.012;   12.650; -376.000; -202.000
359.145;  -20.925; -480.000; -511.000
359.277;  106.425; -962.000; -913.000
359.409; 3571.850;  536.000;  231.000
359.542;  960.850; -738.000; -688.000
359.674;   84.050;   46.000;   13.000
359.806;  -47.450; -565.000; -438.000
359.939;  -47.725; -617.000; -516.000
360.071;  -10.425; -583.000; -579.000
360.203;  -20.975; -411.000; -364.000
360.335;   57.900;  164.000;  -16.000
360.468;  229.150; -249.000; -307.000
360.600; 2794.200; -547.000; -454.000
360.732; 2644.025; -546.000; -423.000
360.864;  390.300;-1216.000;-1044.000
360.996;  363.675; -516.000; -554.000
361.129;   84.450; -389.000; -598.000
361.261;   21.225;  110.000; -113.000
361.393;  -19.950; -252.000; -214.000
361.525;   40.150;   94.000;  244.000
361.657;  -11.375; -821.000; -703.000
361.789;   14.275; -139.000; -155.000
361.921;  313.250; -642.000; -593.000
362.053;  318.650;  524.000;  541.000
362.185;   64.575;  288.000;   72.000
362.318;  -75.925; -709.000; -705.000
362.450;  151.075;  294.000;  444.000
362.582;  210.250; -913.000; -870.000
362.714;  -27.500; -353.000; -332.000
362.846;  -89.200; -606.000; -490.000
362.978; -138.675; -941.000; -811.000
363.109;   74.350; -161.000; -260.000
363.241;  531.575; -739.000; -749.000
363.373;  438.200; -649.000; -564.000
363.505;  603.725; -186.000;  -91.000
363.637;  161.350; -787.000; -601.000
363.769; -104.500;-1067.000;-1080.000
363.901;  -59.500; -596.000; -654.000
364.033; -110.975;-1103.000;-1062.000
364.165;    7.950; -283.000; -283.000
364.296;   79.525; -316.000; -177.000
364.428;   71.475;-1344.000;-1220.000
364.560;  -66.450; -679.000; -661.000
364.692;  -42.100; -738.000; -835.000
364.824;  358.100; -588.000; -456.000
364.955;  467.600; -402.000; -564.000
365.087;  812.650;-1097.000; -852.000
365.219;   17.900; -686.000; -816.000
365.351;  -54.575; -526.000; -572.000
365.482;   54.000;  300.000;  240.000
365.614;  -38.325; -402.000; -314.000
365.746;  -92.200; -729.000; -752.000
365.877; -105.225; -706.000; -672.000
366.009;  221.875;  -35.000;  -62.000
366.141;  -86.475;-1249.000;-1134.000
366.272;  -94.450; -803.000; -719.000
366.404; -115.875;-1005.000; -874.000
366.535;    2.200; -139.000;  -12.000
366.667;  -95.350; -644.000; -649.000
366.799;   43.100;  353.000;  203.000
366.930; -115.525; -862.000; -996.000
367.062;  108.575; -639.000; -613.000
367.193;  131.175; -872.000; -842.000
367.325;  -53.375; -580.000; -684.000
367.456;   88.800; -246.000;   31.000
367.588;  153.000; -371.000; -318.000
367.719;   25.175;  -44.000;  -45.000
367.851;  -10.975; -222.000; -241.000
367.982;  -28.700; -875.000; -732.000
368.113;  138.375; -475.000; -358.000
368.245; -105.925; -960.000; -841.000
368.376;  -12.425; -254.000; -302.000
368.508;  -19.775; -188.000; -263.000
368.639; -120.700;-1166.000;-1034.000
368.770;   -2.675; -670.000; -589.000
368.902;  -49.475; -836.000; -926.000
369.033;  -93.525; -906.000; -855.000
369.164;  -57.500; -720.000; -653.000
369.296; -110.050; -452.000; -601.000
369.427;   14.850; -209.000; -144.000
369.558;  -43.050; -593.000; -377.000
369.689;  -84.500; -721.000; -569.000
369.821; -128.175; -951.000; -845.000
369.952;  -21.550;   42.000; -108.000
370.083;  -35.575; -229.000; -108.000
370.214;  -73.425; -735.000; -650.000
370.345;    6.725;   65.000;   81.000
370.477;  -76.550; -810.000; -790.000
370.608;  287.350; -328.000; -264.000
370.739;   -3.050;-1233.000;-1292.000
370.870;  -17.550;-1102.000; -923.000
371.001;  133.425; -378.000; -467.000
371.132;  -55.450; -754.000; -735.000
371.263;  -13.450;  -42.000; -148.000
371.394; -129.200; -841.000; -748.000
371.525;   33.950;  345.000;  225.000
371.657;  -80.700; -808.000; -670.000
371.788;   98.575;  103.000;  199.000
371.919;  241.425; -384.000; -304.000
372.050; 4328.900;  -91.000; -156.000
372.181; 1349.725; -188.000; -294.000
372.311;  444.350;   42.000; -127.000
372.442;   57.550; -457.000; -451.000
372.573;   -7.525; -444.000; -340.000
372.704; -113.325;-1008.000; -980.000
372.835;  112.275; -228.000; -289.000
372.966;  -50.125; -646.000; -554.000
373.097;  -61.575; -575.000; -711.000
373.228;  -18.275; -717.000; -542.000
373.359;  184.450; -824.000; -536.000
373.490; 1167.475; -881.000; -727.000
373.620; 1481.800;-1001.000; -803.000
373.751; 2177.900; -332.000; -396.000
373.882; 1008.900; -663.000; -733.000
374.013;   93.650; -449.000; -262.000
374.143;  -23.875; -581.000; -659.000
374.274;  -89.725; -987.000; -908.000
374.405;  204.225; -388.000; -276.000
374.536;  549.950; -526.000; -387.000
374.666; 1417.200; -759.000; -807.000
374.797;  312.775; -817.000; -868.000
374.928; 1078.575; -710.000; -560.000
375.058; 1128.250; -535.000; -500.000
375.189;  101.400;  -59.000;  -93.000
375.320;  -92.550; -928.000;-1034.000
375.450;  -39.025; -625.000; -616.000
375.581;  -41.825; -526.000; -436.000
375.712;  -27.300; -574.000; -250.000
375.842;  393.200; -438.000; -415.000
375.973;  299.375; -554.000; -513.000
376.103;  -20.350; -665.000; -648.000
376.234;  -83.100; -531.000; -552.000
376.364;   -6.400; -944.000; -867.000
376.495;  386.800;  925.000;  529.000
376.625;   22.000; -472.000; -485.000
376.756;  100.550; -709.000; -678.000
376.886;  -46.000;-1178.000;-1026.000
377.017;   52.650;-1048.000;-1061.000
377.147;  309.875; -786.000; -782.000
377.278;   60.550;  174.000;  228.000
377.408; -114.475; -801.000; -815.000
377.538; -100.850; -707.000; -693.000
377.669;  -73.400; -537.000; -613.000
377.799;  -78.800; -645.000; -635.000
377.929;  -34.900; -610.000; -428.000
378.060; -118.900; -781.000; -847.000
378.190;  -55.125; -726.000; -531.000
378.320;  -44.800; -401.000; -406.000
378.451;    3.025; -131.000;  -22.000
378.581;   -9.175;  -67.000; -110.000
378.711;  161.275; 1035.000;  866.000
378.841;    1.725; -533.000; -675.000
378.972;  -60.550; -871.000; -751.000
379.102;   17.325; -652.000; -579.000
379.232;  -10.775; -126.000;  -73.000
379.362;  -89.475;-1001.000; -885.000
379.492;   43.200; -373.000; -424.000
379.623;  138.025;    0.000;  111.000
379.753;  -70.100;-1107.000; -974.000
379.883;  239.925;   59.000;  156.000
380.013;   47.025;-1081.000;-1017.000
380.143;  -77.825;-1097.000;-1056.000
380.273;  -83.625; -985.000; -861.000
380.403;   -1.950; -344.000; -257.000
380.533;   -8.600; -651.000; -664.000
380.663;   89.350;  173.000;  128.000
380.793;  -76.750;-1027.000;-1074.000
380.923;   -0.225; -103.000;  -34.000
381.053;  -86.525; -613.000; -623.000
381.183;  -37.475; -106.000; -248.000
381.313;   57.425; -656.000; -470.000
381.443;   74.875; -692.000; -473.000
381.573;  274.425; -402.000; -409.000
381.703;  411.325;-1249.000;-1095.000
381.833; -101.275;-1454.000;-1336.000
381.963;  134.325; -134.000;  -87.000
382.093; 1682.950; -925.000; -909.000
382.223;  547.650; -713.000; -602.000
382.353;   19.625; -801.000; -608.000
382.482;  492.975;-1091.000; -964.000
382.612;  955.775; -872.000; -644.000
382.742;  551.200; -695.000; -622.000
382.872;  356.000; -565.000; -551.000
383.002;   70.750;  347.000; -132.000
383.131;   -4.900; -226.000; -160.000
383.261;  -31.900; -706.000; -768.000
383.391;  312.825; -552.000; -377.000
383.521; 2950.600;  451.000;  263.000
383.650;  698.250; -947.000; -904.000
383.780;  -18.500; -783.000; -656.000
383.910;  116.825;  880.000;  802.000
384.039;   42.750; -794.000; -656.000
384.169;  298.150;-1205.000;-1017.000
384.299;    6.825; -650.000; -662.000
384.428;  -72.000; -764.000; -680.000
384.558;  -44.225; -308.000; -275.000
384.687;  -39.950; -414.000; -334.000
384.817;   15.725;   75.000;   -2.000
384.947;   35.325; -234.000; -141.000
385.076;  321.000;  982.000;  912.000
385.206;  128.500;  369.000;  480.000
385.335;  -11.600; -549.000; -417.000
385.465;  -77.275; -655.000; -663.000
385.594;  167.700;  -53.000;  -44.000
385.724;  555.875; -868.000; -838.000
385.853;  169.750; -296.000; -270.000
385.982; 1686.500; -743.000; -787.000
386.112; 2673.125;-1052.000; -871.000
386.241;  194.925; -307.000; -312.000
386.371;   32.275; -174.000;  -87.000
386.500;   37.850; -825.000; -789.000
386.629;   37.750; -874.000; -817.000
386.759;   77.375;  -43.000;   68.000
386.888;    7.275; -170.000; -250.000
387.017;  -64.550; -648.000; -620.000
387.147;  -73.975; -771.000; -798.000
387.276;   20.850; -410.000; -397.000
387.405;   44.500; -398.000; -342.000
387.535;  -20.725; -452.000; -361.000
387.664;  -62.250; -692.000; -620.000
387.793;   81.500; -198.000; -113.000
387.922;  639.375;  255.000;  200.000
388.052;   50.075; -576.000; -423.000
388.181;   47.000; -342.000; -472.000
388.310;   48.075; -889.000; -710.000
388.439;  -30.975; -749.000; -742.000
388.568;  236.375;  365.000;  244.000
388.697; 1309.050; -756.000; -653.000
388.826;  299.950; -768.000; -666.000
388.956;  108.175; -285.000; -307.000
389.085;  -26.225; -347.000; -287.000
389.214;  -99.100; -842.000; -872.000
389.343;  -61.975; -645.000; -413.000
389.472;  369.550;  126.000;  149.000
389.601;  524.500;   91.000;    0.000
389.730;   34.150; -568.000; -687.000
389.859;   76.750;  226.000;   46.000
389.988;  246.575; -423.000; -408.000
390.117;  179.375; -168.000; -146.000
390.246;    7.775; -331.000; -320.000
390.375;  161.050; -673.000; -626.000
390.504;  -42.875; -703.000; -621.000
390.633;  -89.800; -672.000; -726.000
390.761;  -65.925; -732.000; -645.000
390.890;   46.025;   -4.000; -130.000
391.019;  -19.375; -421.000; -441.000
391.148; -127.200; -826.000; -855.000
391.277;  -60.475; -576.000; -493.000
391.406;  -39.775; -821.000; -805.000
391.534;   31.800;  574.000; -301.000
391.663;  -63.075; -583.000; -645.000
391.792;  -77.975; -673.000; -701.000
391.921;  134.075;   -3.000;   15.000
392.050;  257.875; -287.000; -228.000
392.178;    0.900;-1206.000;-1061.000
392.307;  198.750; -758.000; -712.000
392.436;  122.300; -427.000; -641.000
392.564;   27.050;  166.000;   -6.000
392.693;  -73.800; -860.000; -682.000
392.822;  287.350; -529.000; -534.000
392.950;  151.025; -880.000; -714.000
393.079;  412.800; -188.000; -328.000
393.208;   65.975; -488.000; -511.000
393.336;  -10.025; -170.000; -145.000
393.465;  -41.125; -317.000; -199.000
393.593;    3.950;   62.000;   79.000
393.722; -152.350;-1121.000; -916.000
393.850;  -37.050; -188.000;  -61.000
393.979; -146.825; -926.000; -805.000
394.107;  -66.575; -517.000; -537.000
394.236;   -7.050; -570.000; -507.000
394.364;  243.275;  383.000;  206.000
394.493;  440.850; -911.000; -767.000
394.621;   -2.575; -955.000; -916.000
394.750;  647.725; -873.000; -923.000
394.878; 2714.125; -247.000; -149.000
395.007; 3759.825; -721.000; -807.000
395.135;  294.050; -790.000; -721.000
395.263;  -67.075;-1038.000;-1040.000
395.392;    7.825;  -25.000; -107.000
395.520; -146.100; -818.000; -679.000
395.648;  -74.025; -865.000; -915.000
395.777;    0.375; -366.000; -405.000
395.905;  -42.525; -449.000; -564.000
396.033;   15.525;  217.000;  172.000
396.162;  675.425; -399.000; -453.000
396.290;  627.225;  -17.000;   -2.000
396.418;  148.100; -555.000; -514.000
396.546;  -54.775; -571.000; -466.000
396.674;  -82.300; -850.000; -878.000
396.803;   25.725;  -72.000;  -23.000
396.931;  122.400; -179.000; -199.000
397.059;  112.450;-1026.000; -989.000
397.187;  -92.125;-1026.000; -975.000
397.315; -127.025; -884.000; -649.000
397.443;  -97.600; -592.000; -443.000
397.572;  -87.900; -578.000; -424.000
397.700;   19.350; -607.000; -614.000
397.828;   45.650;  120.000;  -90.000
397.956;  -51.600; -508.000; -478.000
398.084;  -59.600; -767.000; -626.000
398.212;   52.325;  137.000;  124.000
398.340;   24.750;  -56.000;  159.000
398.468;   60.025; -390.000; -169.000
398.596; -137.200; -993.000; -953.000
398.724; -106.350; -762.000; -767.000
398.852; -155.900;-1024.000; -976.000
398.980;  -51.575; -560.000; -560.000
399.108;  -36.100; -982.000; -735.000
399.236;   41.600;   13.000;    8.000
399.363;    4.950;  222.000;  196.000
399.491;  -68.350; -404.000; -398.000
399.619; -117.125; -829.000; -800.000
399.747;  -93.300; -859.000; -771.000
399.875;   94.400;  220.000;  234.000
400.003;  -40.875; -359.000; -284.000
400.130;  -78.525; -421.000; -341.000
400.258;  -33.025;  -83.000;   38.000
400.386;  -78.475; -352.000; -168.000
400.514;  -35.800; -526.000; -587.000
400.641;  -63.050; -928.000; -802.000
400.769; -137.525; -979.000; -888.000
400.897; -106.950; -838.000; -793.000
401.025;  -21.150; -166.000; -152.000
401.152;   -9.700;  220.000;   38.000
401.280;  -80.850; -430.000; -429.000
401.408; -116.925; -712.000; -576.000
401.535;  -94.975; -735.000; -758.000
401.663; -181.625;-1134.000;-1054.000
401.790;  -88.400; -514.000; -525.000
401.918;   42.950;  436.000;  405.000
402.046;  -21.775;  134.000;  122.000
402.173;  -42.975;  -18.000;    7.000
402.301;  -60.275; -519.000; -397.000
402.428;   24.725;  528.000;  383.000
402.556; -140.775;-1188.000; -913.000
402.683;  -17.750;  -20.000;   -1.000
402.811;  -10.525;  -37.000; -206.000
402.938;  -18.425;   20.000;   27.000
403.066;  252.300; -574.000; -558.000
403.193;  438.200;  299.000;  239.000
403.321;  335.150; -396.000; -574.000
403.448;  402.425;   83.000;   27.000
403.575;  186.675;  -90.000;  -46.000
403.703;  -86.000; -732.000; -557.000
403.830;  -61.575; -531.000; -496.000
403.957; -141.825;-1117.000;-1023.000
404.085;    6.275;  -61.000; -172.000
404.212;  113.075;  -50.000;   63.000
404.339;  245.300; -566.000; -306.000
404.467; 5321.575; -612.000; -524.000
404.594; 3842.450; -287.000; -227.000
404.721; 1017.175; -869.000; -764.000
404.848;   89.725; -113.000; -202.000
404.976;  -98.525; -856.000; -783.000
405.103;  -13.950;  -14.000;  -82.000
405.230;    9.850;  190.000;  226.000
405.357;   25.875;  117.000;   44.000
405.484;  256.325;  -49.000;    5.000
405.612;   44.325; -548.000; -563.000
405.739;  -70.550; -488.000; -243.000
405.866;   82.525;  669.000;  385.000
405.993;  -41.325; -398.000; -102.000
406.120; -132.850; -801.000; -887.000
406.247;  -39.725; -323.000; -342.000
406.374;  536.600;  540.000;  629.000
406.501;  169.950; -632.000; -702.000
406.628;  -62.375; -621.000; -589.000
406.755;  -96.400; -803.000; -620.000
406.882;  -22.150; -228.000; -277.000
407.009; -101.300; -719.000; -628.000
407.136;   69.100; -480.000; -401.000
407.263;  216.400; -939.000; -829.000
407.390;  -65.450; -692.000; -614.000
407.517; -159.675;-1139.000;-1187.000
407.644;  -55.975; -332.000; -256.000
407.771; -128.875; -249.000; -287.000
407.898;   -0.900;  168.000;  328.000
408.025;  -68.475; -421.000; -313.000
408.151;   -9.475;   82.000;  153.000
408.278;  -61.725; -267.000; -216.000
408.405;  -98.850; -931.000; -899.000
408.532;  -64.025; -549.000; -542.000
408.659; -112.375; -677.000; -648.000
408.785; -202.550;-1298.000;-1170.000
408.912;  -69.375; -412.000; -296.000
409.039; -117.000; -610.000; -686.000
409.166;  -96.800; -591.000; -555.000
409.292; -108.600; -571.000; -534.000
409.419; -130.375; -665.000; -649.000
409.546;  -81.750; -431.000; -192.000
409.672; -112.325; -713.000; -545.000
409.799;  -29.925;  -36.000;   34.000
409.926;  -33.525; -180.000; -179.000
410.052; -170.250;-1127.000;-1091.000
410.179;  -50.925; -368.000; -392.000
410.305;  -91.175; -375.000; -493.000
410.432;  -46.150; -220.000; -333.000
410.558;  -83.725; -305.000; -380.000
410.685; -103.000; -688.000; -431.000
410.812;  -99.100; -409.000; -588.000
410.938; -134.575; -964.000; -808.000
411.065; -102.975; -671.000; -645.000
411.191;  -24.550; -189.000; -174.000
411.317; -103.300; -823.000; -742.000
411.444;  -51.675; -317.000; -246.000
411.570;  -68.450; -339.000; -294.000
411.697; -121.525; -758.000; -752.000
411.823; -168.425; -989.000; -999.000
411.949;  -15.375;  -56.000;   17.000
412.076; -118.175; -539.000; -519.000
412.202; -118.100; -758.000; -757.000
412.329; -126.600; -798.000; -752.000
412.455; -105.900; -821.000; -657.000
412.581;  -24.850;  -15.000;  172.000
412.707;  -48.650; -540.000; -457.000
412.834;   11.825;  156.000;  219.000
412.960;  -69.275; -785.000; -784.000
413.086;  -96.800; -743.000; -701.000
413.212;  155.075;  604.000;  578.000
413.339;  -53.200; -685.000; -701.000
413.465;   11.150; -364.000; -310.000
413.591;  -82.950; -757.000; -474.000
413.717;  -40.725; -358.000; -366.000
413.843; -130.175; -839.000; -861.000
413.969;  -72.375;  -47.000; -292.000
414.096;  -92.325; -679.000; -679.000
414.222;   -5.725;  -33.000;   85.000
414.348;  -22.500; -652.000; -385.000
414.474;  130.300;   38.000;  -52.000
414.600;   -8.300; -126.000; -144.000
414.726;  -21.050;  -96.000;  -55.000
414.852;  -68.650; -365.000; -342.000
414.978;   30.500;  104.000;  -18.000
415.104;   52.875;   38.000;   80.000
415.230;    8.150; -329.000; -330.000
415.356;   35.650; -409.000; -514.000
415.482;  203.125;   13.000;  -35.000
415.608;  269.325; -247.000; -323.000
415.734;  888.250;   67.000;   38.000
415.860;18802.950; -875.000; -767.000
415.986;14325.875; -685.000; -607.000
416.111; 1249.975; -798.000; -652.000
416.237;  256.175; -424.000; -571.000
416.363; 1010.075; -765.000; -733.000
416.489; 3915.150; -324.000; -251.000
416.615;  431.475; -707.000; -742.000
416.741;  -36.250; -677.000; -784.000
416.866;  -93.500; -673.000; -736.000
416.992; -114.625; -801.000; -818.000
417.118;  -19.325;  -41.000;  -80.000
417.244;  -62.250; -798.000; -531.000
417.369;  -70.325; -801.000; -612.000
417.495;   -4.475; -325.000; -254.000
417.621;  -62.100;-1015.000; -803.000
417.746;   13.275; -579.000; -572.000
417.872;   56.475; -254.000; -144.000
417.998;   35.375; -515.000; -530.000
418.123;  933.550;-1073.000; -845.000
418.249; 5092.175; -512.000; -601.000
418.374;  750.725; -916.000; -824.000
418.500;  104.225; -383.000; -482.000
418.626;  103.975;   70.000;  -59.000
418.751;  134.225; -549.000; -448.000
418.877;  192.625; -637.000; -643.000
419.002; 1620.400; -688.000; -560.000
419.128;11751.100; -930.000; -721.000
419.253; 2997.650; -967.000; -837.000
419.379;  403.150; -391.000; -338.000
419.504;  383.650;  325.000;  415.000
419.629;  479.450; -393.000; -212.000
419.755; 3118.525; -317.000; -254.000
419.880;19359.375;  -98.000;   67.000
420.006;10653.125; -280.000; -221.000
420.131;28091.500; -662.000; -775.000
420.256; 4253.225; -315.000; -316.000
420.382;  552.650; -665.000; -687.000
420.507;   66.275; -649.000; -778.000
420.632;  178.100; -337.000; -339.000
420.758;  339.550; -251.000; -425.000
420.883;  -82.275; -876.000; -672.000
421.008;  -91.625; -775.000; -619.000
421.133;  -82.300; -509.000; -467.000
421.259;  -42.150; -325.000; -259.000
421.384;  -98.650; -834.000; -693.000
421.509;  -18.775;-1052.000; -862.000
421.634; 1511.000; -936.000; -820.000
421.759;  697.600; -359.000; -327.000
421.885;  -31.925; -717.000; -656.000
422.010;  -78.450; -673.000; -542.000
422.135; -143.850; -695.000; -727.000
422.260;   38.225;  340.000;  280.000
422.385;  -45.350;   12.000;  -98.000
422.510;   14.950;  151.000;  -26.000
422.635;   24.475;  -87.000;  -43.000
422.760;  130.750; -766.000; -791.000
422.885;   70.225;  -57.000;  -80.000
423.010;  -29.375; -112.000; -169.000
423.135;  -81.575; -481.000; -561.000
423.260;  -11.100; -150.000; -245.000
423.385;   65.775;  476.000;  222.000
423.510;   20.075;   71.000;  -22.000
423.635;   96.300;  133.000;   45.000
423.760;   59.900;  383.000;  328.000
423.885;   57.450;  336.000;  391.000
424.010;   19.050;  -68.000;  -13.000
424.135;  -31.325;    5.000;  -33.000
424.259;  -90.500; -654.000; -457.000
424.384;  -57.900; -279.000; -272.000
424.509;  -20.725; -260.000; -186.000
424.634; -100.100; -761.000; -623.000
424.759;  -15.425; -688.000; -544.000
424.883;  -15.650; -506.000; -527.000
425.008;  152.725; -502.000; -410.000
425.133; 1863.400; -679.000; -653.000
425.258;  917.725; -517.000; -381.000
425.382; 1194.100; -867.000; -774.000
425.507; 3165.725; -487.000; -543.000
425.632;  500.675; -802.000; -663.000
425.756;  429.025; -256.000; -146.000
425.881; 5693.425; -831.000; -857.000
426.006;16082.450; -604.000; -355.000
426.130; 2657.300; -696.000; -508.000
426.255;  345.275; -611.000; -491.000
426.379;  148.850; -189.000; -577.000
426.504;  337.600;  660.000;  544.000
426.629; 3815.075; -519.000; -466.000
426.753; 2759.175;   64.000;  -46.000
426.878;  331.175; -252.000; -288.000
427.002;  141.875; -651.000; -668.000
427.127; 1490.000;  -35.000; -158.000
427.251;10615.975;  372.000;  401.000
427.375; 3230.250; -191.000; -173.000
427.500; 2664.400; -616.000; -610.000
427.624;  980.925; -234.000; -400.000
427.749;  111.350; -216.000; -225.000
427.873;  -17.125; -499.000; -412.000
427.997;  -49.450; -222.000; -230.000
428.122;   83.525;  795.000;  703.000
428.246;   76.150;  433.000;  434.000
428.371; -123.750; -869.000; -773.000
428.495; -110.000; -624.000; -646.000
428.619;  -17.650; -186.000; -117.000
428.743;   32.850;   65.000;  132.000
428.868;   34.825; -732.000; -643.000
428.992; 1685.975; -219.000; -326.000
429.116;  731.000; -329.000; -357.000
429.240;  342.425;  419.000;  426.000
429.365;   -9.550; -454.000; -574.000
429.489;  -40.650; -638.000; -647.000
429.613;   15.425; -236.000; -177.000
429.737;   30.075; -563.000; -432.000
429.861;  251.125; -247.000; -133.000
429.985; 5167.475; -425.000; -305.000
430.109; 5933.375; -770.000; -908.000
430.234;  704.775;   76.000;  -50.000
430.358;   71.050; -250.000; -160.000
430.482;  -57.975; -672.000; -564.000
430.606;  -63.775; -655.000; -375.000
430.730;   33.650; -437.000; -388.000
430.854;  206.875; -909.000; -835.000
430.978;  -56.000; -795.000; -764.000
431.102;  -78.750; -499.000; -422.000
431.226; -107.900; -874.000; -815.000
431.350;   19.150;  345.000;  422.000
431.474;  -78.525; -661.000; -373.000
431.597; -147.575;-1060.000; -848.000
431.721;  -84.700; -276.000; -267.000
431.845; -130.600; -704.000; -472.000
431.969;  -91.925; -304.000; -349.000
432.093;  -88.225; -395.000; -317.000
432.217;  -28.275;   32.000;   82.000
432.341;  -97.450; -523.000; -518.000
432.464;    3.300;   96.000;   40.000
432.588;  261.875; -401.000; -329.000
432.712;  151.225;  -52.000;  -52.000
432.836;   42.400;  213.000;  263.000
432.959;  -19.575; -372.000; -311.000
433.083;   74.175;   11.000;    2.000
433.207;  351.825;  285.000;  930.000
433.330; 4608.000; -391.000; -200.000
433.454; 5932.975; -654.000; -638.000
433.578; 3390.500;  583.000;  278.000
433.701;  690.800; -623.000; -675.000
433.825;  172.750; -292.000; -299.000
433.949;  244.250;   28.000;  -72.000
434.072;  105.850; -410.000; -323.000
434.196;  -17.650; -309.000; -117.000
434.319; 3607.825;25482.000;25124.000
434.443;  715.425; -656.000; -603.000
434.566; 2520.275;  281.000;   62.000
434.690;  446.525; -637.000; -383.000
434.813;   53.625; -251.000; -173.000
434.937;  -77.850; -569.000; -696.000
435.060;  -18.625; -423.000; -332.000
435.184;  445.550; -492.000; -217.000
435.307;  244.650;  159.000;  102.000
435.431;   -0.550;  -40.000;   24.000
435.554;  -74.300; -399.000; -240.000
435.677;  -90.575; -350.000; -258.000
435.801;  -50.450;  -25.000;   49.000
435.924;  -18.500;    1.000;  -67.000
436.048;  -89.175;-1019.000; -732.000
436.171;  -55.675; -240.000;  -66.000
436.294;  -35.525; -248.000; -229.000
436.417;   67.675; -963.000; -849.000
436.541;  -80.275; -814.000; -840.000
436.664;  -50.375; -242.000; -316.000
436.787;  -26.600;   13.000;  113.000
436.910; -100.275; -792.000; -422.000
437.034;   16.875;  142.000;  143.000
437.157;   71.950;  -11.000;    0.000
437.280;  -47.475; -392.000; -292.000
437.403;  -56.475; -982.000; -869.000
437.526;  827.350; -903.000; -865.000
437.649; 3036.550; -505.000; -332.000
437.772;  518.450; -692.000; -540.000
437.896;  140.100;  700.000;  544.000
438.019;  -90.950; -758.000; -503.000
438.142;  -83.950; -596.000; -506.000
438.265;   13.600; -639.000; -670.000
438.388;  719.450; -520.000; -410.000
438.511;  173.650; -597.000; -394.000
438.634;  -26.825; -247.000; -125.000
438.757; -135.200; -693.000; -619.000
438.880;  -22.450;  -34.000;  -57.000
439.003;  -68.875; -417.000; -437.000
439.126;  -69.825; -287.000; -167.000
439.248;  -59.300;  -98.000; -139.000
439.371;  -56.575;    9.000;  -53.000
439.494;   20.525;  510.000;  439.000
439.617;  -69.275;   65.000;  -88.000
439.740; -170.800; -968.000; -816.000
439.863; -137.525; -755.000; -595.000
439.986; -135.750; -476.000; -431.000
440.108;  -46.325; -161.000; -112.000
440.231; -156.250; -950.000; -836.000
440.354;  -39.100;  -64.000; -150.000
440.477;   66.125; -566.000; -542.000
440.599;   21.075; -200.000; -225.000
440.722; -122.500; -709.000; -586.000
440.845;   63.525;  751.000;  928.000
440.968; -110.900; -415.000; -311.000
441.090;  -58.375; -199.000;  -33.000
441.213; -164.550;-1021.000; -825.000
441.336;  -44.050; -159.000;   -5.000
441.458;  -81.100; -549.000; -396.000
441.581;  -69.825; -628.000; -629.000
441.703;  -72.600; -152.000;   13.000
441.826; -108.500; -557.000; -400.000
441.948;  -44.700;   56.000;   51.000
442.071;   27.475;  555.000;  424.000
442.193; -116.950; -531.000; -485.000
442.316;   10.200;  152.000;   97.000
442.438;   52.225; -233.000;  -10.000
442.561;   82.525;  272.000;  262.000
442.683;  700.125; -809.000; -522.000
442.806; 1553.300;   -8.000;   74.000
442.928;  103.725; -859.000; -604.000
443.051;  -48.175; -577.000; -373.000
443.173;  -92.800; -341.000; -339.000
443.295;  -76.800; -263.000; -371.000
443.418;  -68.700; -321.000;  -29.000
443.540;   -8.425; -106.000;   -4.000
443.662; -116.425; -563.000; -465.000
443.785;  -20.550;  335.000;  199.000
443.907;  -93.025; -362.000; -208.000
444.029; -119.175; -767.000; -494.000
444.152; -156.775; -644.000; -554.000
444.274;  -26.850;  -18.000;  -24.000
444.396; -111.050; -461.000; -221.000
444.518; -145.975; -691.000; -454.000
444.640;  -99.275; -268.000; -111.000
444.763;  -36.900;  388.000;  249.000
444.885; -117.950; -432.000; -392.000
445.007;  -38.725;   35.000;   86.000
445.129; -117.150; -610.000; -515.000
445.251;  -99.250; -372.000; -439.000
445.373; -136.075; -537.000; -386.000
445.495;  -10.000;  242.000;  350.000
445.617;   58.000;  853.000;  753.000
445.739;  -68.825; -215.000;  -97.000
445.861;  -29.650; -245.000; -112.000
445.984;  -30.400; -267.000; -101.000
446.105;  238.375; -418.000; -251.000
446.227;  755.550; -176.000;  -19.000
446.349;   37.125; -358.000; -249.000
446.471;  -89.175; -615.000; -448.000
446.593;  -68.250; -316.000;   19.000
446.715;   -7.025;  -67.000;   41.000
446.837;   52.625;  697.000;  832.000
446.959;  -98.650; -457.000; -478.000
447.081; -125.325; -628.000; -518.000
447.203;   41.525;  862.000;  834.000
447.325;  -82.775; -270.000;   42.000
447.446;   -3.725;  286.000;  530.000
447.568; -144.875; -921.000; -803.000
447.690;  -81.325; -236.000; -245.000
447.812; -144.750; -798.000; -519.000
447.933;  -31.525;  155.000;  127.000
448.055;  -60.500; -306.000; -261.000
448.177;  176.925;   31.000;   79.000
448.299;  145.200; -935.000; -727.000
448.420;   37.725;  -25.000;  159.000
448.542;  -48.650;   -3.000;   33.000
448.664;  -21.075;  109.000;  322.000
448.785;  -37.900;  265.000;   83.000
448.907;  -66.925; -614.000; -353.000
449.028;  -10.225; -771.000; -471.000
449.150;   61.575;  492.000;  589.000
449.272; -173.100;-1044.000; -913.000
449.393;   30.425;  612.000;  694.000
449.515; -152.600; -634.000; -581.000
449.636;  -57.325; -264.000; -155.000
449.758;   72.850;  763.000;  622.000
449.879;  -91.675; -498.000; -396.000
450.001;  -83.875; -149.000;  -49.000
450.122;  -28.875;  -95.000;  162.000
450.244;  -45.300;   37.000;  364.000
450.365; -101.525; -495.000; -301.000
450.486;  -38.875;   80.000;  268.000
450.608;    1.425;  393.000;  326.000
450.729;   55.225;  578.000;  645.000
450.850;  -10.350; -574.000; -466.000
450.972;  633.475; -552.000; -389.000
451.093; 4446.150;  190.000;  588.000
451.214; 2011.775; -516.000; -337.000
451.336;  337.100;  773.000;  579.000
451.457;   59.475;  264.000;  393.000
451.578;  -34.400; -118.000;  -74.000
451.699; -130.500; -546.000; -540.000
451.821;  -63.950; -284.000;  -50.000
451.942;   -0.975;  278.000;  285.000
452.063;   33.075;  228.000;  419.000
452.184;  464.875;  -54.000;  -49.000
452.305; 1049.150;  103.000;  170.000
452.427;  124.925; -549.000; -301.000
452.548;  -25.550;   23.000;   79.000
452.669;  -51.200; -257.000;  -89.000
452.790;  -43.950;    3.000;  -18.000
452.911;  -20.775;  195.000;  259.000
453.032;  -76.925; -289.000;  -60.000
453.153;  -39.100;  -29.000;   81.000
453.274;   46.300;  737.000;  868.000
453.395;  -47.100;  -51.000;  175.000
453.516;  121.750; 1317.000; 1388.000
453.637;  -61.000; -205.000; -150.000
453.758;  -53.050;   15.000;   69.000
453.879; -122.025; -462.000; -250.000
454.000;   80.000; 1086.000;  948.000
454.121; -112.675; -554.000; -326.000
454.242; -107.700; -599.000; -383.000
454.362;  -54.350;  -99.000;  114.000
454.483;  -48.550; -309.000; -229.000
454.604;   51.225;  512.000;  580.000
454.725; -119.950; -627.000; -555.000
454.846; -115.525; -474.000; -406.000
454.967;  -32.350;  230.000;  539.000
455.087;  -42.200;  179.000;  153.000
455.208;    4.250;  554.000;  856.000
455.329;  -62.550;  -22.000;   82.000
455.450;   28.850;  473.000;  633.000
455.570;  -84.325; -234.000; -211.000
455.691;  -38.800;  201.000;  407.000
455.812; -114.900; -270.000;  -92.000
455.932;  -66.350;  107.000;  -97.000
456.053;  -85.575;   36.000;   24.000
456.173; -127.875; -433.000; -355.000
456.294; -122.850; -476.000; -303.000
456.415;  -68.925;  -73.000;   70.000
456.535;  -25.575;  297.000;  273.000
456.656;  -46.125;  132.000;  240.000
456.776;  -68.975;    3.000;  298.000
456.897;   -8.800;  308.000;  513.000
457.017;  -91.150; -153.000;   -3.000
457.138; -101.800; -402.000; -249.000
457.258;  -41.025;  263.000;  224.000
457.379;  -19.225;  509.000;  521.000
457.499;  -32.375;  443.000;  432.000
457.620; -119.250; -407.000; -231.000
457.740; -105.750; -132.000;  -11.000
457.860;  -59.500;   87.000;   44.000
457.981;  -49.350;  132.000;  124.000
458.101;  -68.475;  -89.000;   40.000
458.221;  -22.975;  336.000;  402.000
458.342;  -77.425;   -4.000;  -37.000
458.462;   -2.950;  617.000;  352.000
458.582;  -64.600; -302.000; -294.000
458.703;    3.025;  303.000;  154.000
458.823;  -26.550;   22.000;  163.000
458.943;   17.700;  341.000;  467.000
459.063;   -1.225; 1124.000;  192.000
459.183;  -26.550;  328.000;  313.000
459.304;    3.100;  315.000;  517.000
459.424;  -62.850; -246.000;  -89.000
459.544;  286.750;  388.000;  764.000
459.664;  771.975;  499.000;  506.000
459.784;  307.050; 1004.000; 1175.000
459.904;   48.725;  867.000;  744.000
460.024;   62.850;  867.000;  684.000
460.144;   17.975;  449.000;  554.000
460.264;  -13.900;  515.000;  327.000
460.385;  -96.175; -145.000; -119.000
460.505;   31.400;  905.000;  858.000
460.625;  -84.750;  -17.000;  -68.000
460.745;  -29.300;  396.000;  541.000
460.864;  -53.225;  153.000;  469.000
460.984;   10.950;  499.000;  573.000
461.104;  143.225; 1656.000; 1775.000
461.224;    8.350;  657.000;  650.000
461.344;  -22.500;  431.000;  360.000
461.464;  -44.475;  258.000;  513.000
461.584;   -4.350;  283.000;  466.000
461.704;  -35.675;   58.000;  108.000
461.824;  -52.800;  238.000;  259.000
461.943;  -34.425;  191.000;  130.000
462.063;  -72.125;    2.000;  324.000
462.183;   33.375;  639.000;  717.000
462.303;   98.925; 1678.000; 1230.000
462.422;   30.975;  781.000;  840.000
462.542;  -30.825;  271.000;  391.000
462.662;   52.200;  353.000;  380.000
462.782;  226.725;  833.000;  572.000
462.901;  456.750;  545.000;  717.000
463.021;  273.175; 1702.000; 1638.000
463.141;   -7.800;  337.000;  770.000
463.260;  -15.500;  614.000;  474.000
463.380;   17.750;  902.000;  884.000
463.499;  -30.675;  342.000;  332.000
463.619;  -37.075;  581.000;  559.000
463.738;  107.825; 1644.000;  903.000
463.858;   14.900;  657.000;  811.000
463.978;  -27.800;  542.000;  396.000
464.097;   38.275;  921.000; 1114.000
464.217;   95.950; 1196.000; 1143.000
464.336;   84.800; 1068.000; 1130.000
464.455;  -34.075;  328.000;  659.000
464.575;   45.400;  597.000;  602.000
464.694;  186.100; 1204.000; 1179.000
464.814;  127.400; 1190.000; 1138.000
464.933;   70.900; 1095.000; 1027.000
465.052;  101.275; 1412.000; 1054.000
465.172;   77.750;  922.000;  799.000
465.291;  136.000; 1376.000; 1320.000
465.410;   16.000;  462.000;  735.000
465.530;   84.800; 1355.000; 1310.000
465.649;   73.925; 1209.000; 1273.000
465.768;  147.950; 1673.000; 1508.000
465.888;   45.250;  941.000; 1174.000
466.007;   87.200; 1335.000; 1440.000
466.126;   -8.975;  721.000;  641.000
466.245;   43.800; 1176.000; 1187.000
466.364;   24.425;  950.000; 1060.000
466.484;   54.000; 1024.000; 1213.000
466.603;   39.525; 1101.000; 1222.000
466.722;  114.575; 1490.000; 1769.000
466.841;   92.150; 1151.000; 1401.000
466.960;   51.975; 1069.000;  972.000
467.079;  113.900; 1971.000; 1786.000
467.198;   42.225; 1238.000; 1181.000
467.317;   80.950; 1768.000; 1162.000
467.436;   68.950; 1709.000; 1261.000
467.555;  135.250; 1796.000; 1746.000
467.674;   62.800; 1227.000; 1329.000
467.793;   46.950; 1376.000; 1374.000
467.912;   90.975; 1658.000; 1539.000
468.031;  133.525; 2038.000; 1930.000
468.150;  142.425; 1842.000; 1837.000
468.269;  185.825; 2313.000; 2090.000
468.388;  196.075; 2168.000; 2339.000
468.507;  257.000; 2884.000; 2903.000
468.626;  259.200; 2555.000; 2541.000
468.744;  143.225; 2018.000; 2174.000
468.863;  197.275; 2312.000; 2523.000
468.982;   92.425; 1503.000; 1555.000
469.101;  215.600; 2788.000; 2692.000
469.220;  140.675; 2333.000; 2176.000
469.338;  241.075; 2935.000; 3051.000
469.457;  187.250; 2719.000; 2545.000
469.576;  330.575; 3953.000; 3784.000
469.695;  232.425; 2877.000; 3066.000
469.813;  415.150; 4148.000; 4192.000
469.932;  403.025; 4255.000; 4485.000
470.051;  426.275; 4075.000; 4161.000
470.169;  802.675; 4470.000; 4338.000
470.288; 1406.375; 4700.000; 4809.000
470.406;  861.950; 5059.000; 5194.000
470.525;  628.450; 6101.000; 5787.000
470.644;  628.475; 6847.000; 6794.000
470.762;  805.400; 8397.000; 7873.000
470.881;  914.950; 8651.000; 8464.000
470.999; 1019.175; 9685.000; 9151.000
471.118; 1091.575;11174.000;10711.000

