
Integration time [ms]: 200.000
Averaging Nr. [scans]: 10
Smoothing Nr. [pixels]: 0
Data measured with spectrometer [name]: 2101012U2
Wave   ;Sample   ;Dark     ;Reference
[nm]   ;[counts] ;[counts] ;[counts] 

197.733;  153.200;  516.000;  404.000
197.879; -142.300; -610.000; -634.000
198.025; -101.900; -475.000; -420.000
198.171; -173.200; -602.000; -612.000
198.317;  -92.000; -401.000; -316.000
198.463; -140.400; -655.000; -404.000
198.609;   59.000;  181.000; -137.000
198.755; -190.800; -644.000; -410.000
198.901; -165.600; -505.000; -424.000
199.047; -126.300; -615.000; -488.000
199.193;  -99.500; -230.000; -468.000
199.339;  -49.800; -222.000; -369.000
199.485;   56.600;  330.000;  271.000
199.631;    9.400;  227.000;  310.000
199.777; -131.900; -466.000; -398.000
199.923; -118.500; -610.000; -424.000
200.069;  -27.200; -141.000;  -58.000
200.215;  117.600;  128.000;  453.000
200.361;   77.800;  243.000;  477.000
200.507; -167.700; -600.000; -373.000
200.653;  -53.900; -371.000; -194.000
200.798;  -70.700; -215.000; -125.000
200.944;  -31.700; -146.000;  -41.000
201.090;   84.700;   61.000;  222.000
201.236;  -28.900; -116.000; -158.000
201.382;  208.500;  874.000;  903.000
201.528;   11.500;  -58.000;  -48.000
201.674;  -69.400; -386.000; -293.000
201.819; -142.600; -540.000; -439.000
201.965; -188.300; -699.000; -447.000
202.111;  -57.600; -273.000; -226.000
202.257;  -61.200; -250.000; -238.000
202.402;   17.700;   13.000;  -36.000
202.548;  -69.900; -169.000; -116.000
202.694;  152.300;  410.000; -183.000
202.840; -155.400; -603.000; -531.000
202.985; -157.900; -681.000; -639.000
203.131; -229.400; -832.000; -666.000
203.277;  -60.200; -199.000; -262.000
203.423; -120.600; -434.000; -520.000
203.568;  -86.700; -462.000; -237.000
203.714; -132.200; -535.000; -542.000
203.860; -184.100; -682.000; -641.000
204.005;   47.600;  112.000;  167.000
204.151;  133.000;  561.000;  556.000
204.296; -110.500; -354.000; -221.000
204.442; -179.000; -600.000; -547.000
204.588; -184.300; -592.000; -579.000
204.733;   14.600;  178.000;  168.000
204.879; -276.800;-1018.000; -822.000
205.025;    9.300;  -99.000;  126.000
205.170;    2.300;  -17.000;   94.000
205.316;  162.400;  438.000;  661.000
205.461; -155.700; -698.000; -554.000
205.607;  159.200;  609.000;  665.000
205.752; -183.800; -626.000; -551.000
205.898; -135.500; -501.000; -391.000
206.043; -107.600; -578.000; -506.000
206.189; -115.800; -243.000; -285.000
206.334;  162.800;  554.000;  606.000
206.480;  182.600;  409.000;  239.000
206.625; -169.600; -529.000; -552.000
206.771; -112.500; -451.000; -373.000
206.916;  -73.700; -210.000; -537.000
207.062; -126.300; -545.000; -591.000
207.207; -108.000; -546.000; -443.000
207.353;   66.800;  185.000;  460.000
207.498;   37.100;  196.000;   85.000
207.643;  -94.200; -501.000; -370.000
207.789; -278.000;-1069.000; -910.000
207.934; -204.300; -665.000; -713.000
208.080;  -35.500; -154.000;   66.000
208.225;  -42.000;  -22.000;  -57.000
208.370; -159.400; -727.000; -619.000
208.516; -188.200; -741.000; -487.000
208.661;  -57.500; -127.000;  -69.000
208.806;  -66.500; -165.000; -171.000
208.952; -242.300;-1044.000; -731.000
209.097;  170.000;  378.000;  349.000
209.242;  -77.500; -307.000; -382.000
209.387;  120.400;  392.000;  350.000
209.533; -127.200; -321.000; -350.000
209.678;  149.600;  472.000;  543.000
209.823; -105.100; -408.000; -310.000
209.969; -204.500; -860.000; -757.000
210.114; -224.200; -907.000; -719.000
210.259; -246.500; -939.000; -889.000
210.404;   -5.400; -171.000;  103.000
210.549;    4.700;  108.000;    3.000
210.695;  -16.300;   -3.000;  -95.000
210.840;   40.400;   94.000;   67.000
210.985; -125.700; -484.000; -303.000
211.130;  150.000;  268.000;  406.000
211.275;   42.800;  207.000;  199.000
211.420; -114.200; -300.000; -289.000
211.566; -133.600; -536.000; -489.000
211.711;   48.900;  218.000;  157.000
211.856; -147.200; -545.000; -519.000
212.001;   36.300;  151.000;   44.000
212.146;   -5.600;  153.000;   49.000
212.291;  -62.900; -210.000; -186.000
212.436;  -47.700; -280.000;   -6.000
212.581; -165.500; -685.000; -653.000
212.726; -161.900; -487.000; -538.000
212.871;  -98.700; -552.000; -217.000
213.016; -310.000;-1172.000;-1029.000
213.161;  114.500;  406.000;  291.000
213.306; -150.100; -435.000; -577.000
213.451; -213.000; -778.000; -689.000
213.596; -103.400; -455.000; -347.000
213.741;  -97.900; -448.000; -538.000
213.886; -157.900; -498.000; -517.000
214.031;  -36.200; -294.000; -124.000
214.176;  -98.700; -408.000; -341.000
214.321;  -42.300; -296.000; -157.000
214.466;  -46.500; -163.000;  -43.000
214.611;  -40.300;  -61.000;  -10.000
214.756; -262.100; -948.000; -858.000
214.901;  -51.700; -388.000; -226.000
215.046; -245.900; -797.000; -825.000
215.191;   20.700;  128.000;   35.000
215.336;  -40.600; -157.000;  -19.000
215.480; -138.500; -684.000; -505.000
215.625;  -26.100; -175.000;  -19.000
215.770; -187.300; -757.000; -662.000
215.915;    2.100;   -5.000;  -97.000
216.060;  -14.000; -113.000;  -21.000
216.205; -226.400; -731.000; -779.000
216.349; -128.800; -470.000; -533.000
216.494; -278.700; -939.000; -867.000
216.639; -248.600; -823.000; -888.000
216.784; -173.600; -577.000; -525.000
216.929;   88.200;  392.000;  281.000
217.073;  -11.400; -244.000;  -31.000
217.218;   19.600;   78.000;  -47.000
217.363; -156.500; -656.000; -618.000
217.507; -193.800; -623.000; -588.000
217.652; -282.400; -845.000; -874.000
217.797; -187.200; -708.000; -659.000
217.942; -230.100; -856.000; -720.000
218.086;  109.800;  608.000;  539.000
218.231;  -46.300; -174.000;  -26.000
218.376;  -91.800; -337.000; -229.000
218.520;  -23.000;  -41.000;   96.000
218.665;  -72.000; -338.000; -204.000
218.810;  -64.900; -275.000; -233.000
218.954;   34.500;  201.000;   35.000
219.099; -244.900; -713.000; -963.000
219.243; -144.500; -589.000; -554.000
219.388;  -70.800; -264.000; -136.000
219.532;  -19.100; -116.000; -116.000
219.677; -149.400; -564.000; -521.000
219.822;   20.800;   33.000;   89.000
219.966;   -8.100;   17.000;  -99.000
220.111;  -81.500; -328.000;  -40.000
220.255; -172.900; -797.000; -750.000
220.400;  -56.400; -180.000; -146.000
220.544; -150.800; -516.000; -450.000
220.689; -114.400; -422.000; -451.000
220.833;    9.300; -123.000;  -58.000
220.978; -102.700; -393.000; -563.000
221.122;   96.200;  319.000;  307.000
221.267; -252.200; -906.000; -837.000
221.411; -122.200; -478.000; -394.000
221.555;  -17.700; -104.000;  -23.000
221.700;  -81.500; -329.000; -222.000
221.844;   83.300;  255.000;  272.000
221.989; -120.800; -328.000; -311.000
222.133;  -58.300; -289.000; -307.000
222.277;    3.800;    5.000;   78.000
222.422;   36.600;  227.000;  113.000
222.566;  -83.200; -381.000; -214.000
222.711; -131.600; -414.000; -479.000
222.855; -178.800; -643.000; -586.000
222.999; -181.800; -642.000; -717.000
223.144;  -63.700; -195.000; -194.000
223.288;  121.100;  423.000;  251.000
223.432;   28.600;  184.000;  230.000
223.576;   29.300;  152.000;  -21.000
223.721;  114.600;  364.000;  273.000
223.865; -133.100; -472.000; -475.000
224.009;  588.600; 1673.000; 1631.000
224.153; -154.900; -660.000; -671.000
224.298; -122.300; -531.000; -489.000
224.442;  -55.100;  -74.000;  -33.000
224.586;    4.000; -169.000; -106.000
224.730; -210.100; -858.000; -670.000
224.875; -240.000; -739.000; -688.000
225.019;   -1.300;  102.000;  188.000
225.163;   93.800;  208.000;  341.000
225.307;   -4.000;   97.000;  -91.000
225.451;   97.800;  360.000;  481.000
225.595;   61.200;  264.000;  176.000
225.739;  -52.200; -170.000;  -94.000
225.884;   21.000;   86.000;    5.000
226.028; -181.500; -760.000; -626.000
226.172;  -92.600; -260.000; -273.000
226.316; -238.600; -941.000; -902.000
226.460; -154.100; -645.000; -493.000
226.604;  -93.500; -406.000; -400.000
226.748; -185.000; -836.000; -733.000
226.892;  -59.800; -227.000; -181.000
227.036; -116.100; -537.000; -447.000
227.180;  -84.800; -551.000; -375.000
227.324; -111.900; -561.000; -580.000
227.468; -250.300; -819.000; -717.000
227.612;    5.300;  242.000;  -28.000
227.756; -199.000; -845.000; -698.000
227.900;  115.600;  342.000;  441.000
228.044; -114.600; -509.000; -290.000
228.188;  104.900;  448.000;  568.000
228.332; -177.400; -546.000; -472.000
228.476;  -22.200; -223.000; -149.000
228.620;  -77.800; -210.000; -150.000
228.764;  126.400;  431.000;  349.000
228.908;  -20.500; -155.000;   30.000
229.052; -142.200; -615.000; -528.000
229.195;  -20.600; -172.000;   13.000
229.339;  -48.200; -235.000; -305.000
229.483;  -26.300;    5.000; -162.000
229.627;  -23.000; -156.000;  139.000
229.771; -103.000; -218.000; -294.000
229.915;   42.800;  230.000;   79.000
230.059; -163.800; -648.000; -663.000
230.202; -108.200; -370.000; -317.000
230.346;  -34.900; -107.000;  107.000
230.490; -134.700; -489.000; -521.000
230.634; -215.900; -736.000; -553.000
230.777;  144.100;  478.000;  509.000
230.921; -116.200; -450.000; -359.000
231.065;  -73.300; -246.000; -286.000
231.209;   77.400;  261.000;  265.000
231.352;   61.900;   54.000;   40.000
231.496;   56.300;  568.000;  188.000
231.640; -193.400; -693.000; -621.000
231.783;  114.000;  546.000;  525.000
231.927;  -83.800; -294.000; -365.000
232.071; -251.600; -962.000; -736.000
232.214; -218.400; -980.000; -764.000
232.358; -184.500; -683.000; -599.000
232.502;   14.700;  -19.000;    7.000
232.645; -286.200;-1090.000; -927.000
232.789;  -57.400; -257.000; -218.000
232.933;  -53.100; -407.000; -224.000
233.076; -265.100;-1038.000; -897.000
233.220; -201.500; -752.000; -777.000
233.363; -191.400; -669.000; -477.000
233.507;  137.000;  371.000;  129.000
233.650; -200.900; -764.000; -834.000
233.794;   90.000;  438.000;  461.000
233.938; -143.000; -530.000; -362.000
234.081;  -35.800;  -93.000;   31.000
234.225; -151.200; -631.000; -539.000
234.368; -215.000; -773.000; -723.000
234.512;  -88.900; -385.000; -299.000
234.655; -186.100; -582.000; -555.000
234.798; -141.000; -493.000; -466.000
234.942; -245.400; -884.000;-1002.000
235.085; -157.900; -651.000; -443.000
235.229; -151.300; -405.000; -410.000
235.372;  -90.800; -247.000; -191.000
235.516; -118.400; -397.000; -321.000
235.659;   36.700;   92.000;  121.000
235.802;   13.500;  -38.000;  -22.000
235.946;   77.300;  335.000;  215.000
236.089;   83.300;  126.000;  250.000
236.233;  117.700;  275.000;  298.000
236.376; -111.400; -235.000; -378.000
236.519; -113.100; -297.000; -319.000
236.663;  -24.600; -215.000; -117.000
236.806; -294.600;-1029.000; -999.000
236.949;  154.900;  543.000;  431.000
237.092;  141.200;  412.000;  391.000
237.236; -200.000; -589.000; -502.000
237.379;  154.600;  352.000;  428.000
237.522; -237.500; -879.000; -768.000
237.666;  -27.700; -271.000;   18.000
237.809; -248.200; -851.000; -823.000
237.952;   91.400;  469.000;  271.000
238.095; -128.000; -447.000; -442.000
238.238;  180.400;  688.000;  700.000
238.382;    2.200;  166.000;  103.000
238.525; -149.600; -598.000; -511.000
238.668; -281.200;-1060.000; -985.000
238.811; -174.400; -638.000; -643.000
238.954;  -95.000; -483.000; -334.000
239.097;  183.300;  617.000;  664.000
239.241;   61.900;  394.000;  326.000
239.384;  -63.600; -254.000; -214.000
239.527; -126.600; -424.000; -224.000
239.670; -306.200; -994.000;-1091.000
239.813; -195.800; -696.000; -658.000
239.956;  151.400;  579.000;  473.000
240.099; -228.100; -778.000; -725.000
240.242;  108.600;  428.000;  432.000
240.385;  122.500;  466.000;  450.000
240.528; -134.900; -706.000; -473.000
240.671;   40.400;  189.000;  134.000
240.814;  -90.700; -441.000; -158.000
240.957; -194.700; -767.000; -578.000
241.100; -218.100; -779.000; -755.000
241.243; -288.200;-1234.000; -893.000
241.386; -125.200; -508.000; -379.000
241.529; -173.300; -735.000; -547.000
241.672; -120.800; -566.000; -495.000
241.815; -242.700; -832.000; -808.000
241.958;  -60.600; -125.000; -182.000
242.101; -167.900; -545.000; -390.000
242.244;  -80.500; -270.000; -325.000
242.387;  -78.600; -304.000; -246.000
242.530;  132.600;  470.000;  134.000
242.673;  -49.400; -381.000; -309.000
242.815; -241.300; -925.000; -899.000
242.958; -127.100; -482.000; -381.000
243.101;   19.200;  132.000;  187.000
243.244; -136.000; -564.000; -521.000
243.387; -102.400; -313.000; -316.000
243.530; -203.600; -657.000; -674.000
243.672;    0.000;   43.000;  -92.000
243.815; -123.900; -355.000; -283.000
243.958;    3.400;   98.000;  -26.000
244.101;    8.500;   59.000;  -16.000
244.243;  -32.700;  -47.000;  101.000
244.386; -225.600; -761.000; -630.000
244.529;  -54.100; -132.000; -139.000
244.672; -341.100;-1154.000; -951.000
244.814; -202.600; -621.000; -794.000
244.957;  -82.800; -380.000; -304.000
245.100; -167.300; -489.000; -489.000
245.242;  -75.800; -387.000; -374.000
245.385;    4.800;  -59.000;  -39.000
245.528; -268.500; -871.000; -705.000
245.670;  198.700;  612.000;  634.000
245.813; -160.800; -599.000; -547.000
245.956;  -43.500; -324.000; -275.000
246.098; -151.600; -508.000; -650.000
246.241;   -3.000;  194.000;   48.000
246.383;  -13.600; -119.000;  -73.000
246.526; -164.500; -454.000; -525.000
246.669; -246.700; -889.000; -780.000
246.811;   53.600;  172.000;   -1.000
246.954; -132.400; -512.000; -426.000
247.096;  -64.200;  -84.000;   -6.000
247.239; -120.400; -482.000; -445.000
247.381; -169.200; -647.000; -488.000
247.524;  223.700;  645.000;  679.000
247.666;  -21.400;   58.000;   11.000
247.809; -242.100; -887.000; -691.000
247.951;  -26.800;  -75.000;  138.000
248.094;   81.600;  432.000;  308.000
248.236; -321.400;-1262.000;-1238.000
248.378;  -12.700; -356.000;  -81.000
248.521;  -30.400; -334.000; -337.000
248.663;  -62.100; -236.000; -267.000
248.806;  -63.900; -300.000; -266.000
248.948; -212.500; -886.000; -763.000
249.090;  -94.800; -428.000; -398.000
249.233; -100.400; -344.000; -381.000
249.375; -149.000; -474.000; -451.000
249.518;  -25.200;  -83.000; -133.000
249.660;   12.500; -103.000;    3.000
249.802; -353.000;-1303.000;-1189.000
249.945; -158.800; -612.000; -540.000
250.087; -233.200; -834.000; -768.000
250.229; -109.500; -362.000; -480.000
250.371; -135.700; -494.000; -439.000
250.514; -131.400; -310.000; -244.000
250.656; -116.600;   69.000;  102.000
250.798; -232.800; -849.000; -800.000
250.940; -108.000; -322.000; -322.000
251.083;  -53.900; -335.000; -111.000
251.225;  156.300;  338.000;  310.000
251.367;  -68.100; -274.000; -373.000
251.509;  -62.000; -265.000; -210.000
251.651; -192.800; -731.000; -671.000
251.794;  133.200;  538.000;  632.000
251.936; -223.800; -821.000; -747.000
252.078; -165.600; -540.000; -461.000
252.220; -146.900; -645.000; -477.000
252.362;  155.600;  344.000;  462.000
252.504; -163.100; -677.000; -584.000
252.646; -231.100; -875.000; -722.000
252.788;  -17.500;   14.000; -128.000
252.931;  -77.100; -257.000; -253.000
253.073;  -77.200; -376.000; -317.000
253.215;   11.000;  141.000;  122.000
253.357;  -33.100;   82.000; -153.000
253.499; -106.200; -374.000; -234.000
253.641; -201.200; -749.000; -594.000
253.783; -177.400; -609.000; -527.000
253.925; -181.500; -586.000; -591.000
254.067; -195.500; -744.000; -667.000
254.209;  -81.100; -391.000; -259.000
254.351; -277.000; -865.000; -883.000
254.493; -143.100; -441.000; -417.000
254.635; -219.000; -936.000; -818.000
254.777; -199.500; -752.000; -687.000
254.918; -134.400; -512.000; -430.000
255.060; -150.800; -551.000; -395.000
255.202;  -96.100; -473.000; -261.000
255.344; -158.300; -658.000; -455.000
255.486; -126.700; -471.000; -406.000
255.628; -219.100; -780.000; -781.000
255.770; -184.500; -676.000; -536.000
255.912; -112.900; -559.000; -468.000
256.053; -174.300; -730.000; -508.000
256.195;  328.300; 1008.000;  903.000
256.337; -189.000; -861.000; -595.000
256.479;  141.200;  532.000;  416.000
256.621;  -90.300; -394.000; -212.000
256.762; -182.400; -789.000; -742.000
256.904;  119.400;  485.000;  487.000
257.046;  -69.300; -381.000; -271.000
257.188;  -73.000; -351.000; -264.000
257.329; -151.100; -525.000; -464.000
257.471; -225.200; -939.000; -807.000
257.613; -121.200; -584.000; -498.000
257.755; -312.000;-1073.000; -982.000
257.896;   81.500;  286.000;  392.000
258.038; -105.200; -403.000; -352.000
258.180;  -72.200; -354.000; -279.000
258.321; -133.300; -581.000; -457.000
258.463;   -2.900;  -71.000;  133.000
258.605; -176.800; -562.000; -570.000
258.746; -244.600; -886.000; -772.000
258.888; -304.700;-1026.000;-1020.000
259.029;   60.600;  121.000;   -8.000
259.171; -184.300; -614.000; -550.000
259.313;   17.200;  -49.000;  -47.000
259.454; -112.000; -536.000; -414.000
259.596; -143.300; -483.000; -390.000
259.737; -130.500; -590.000; -474.000
259.879;   89.200;  217.000;  311.000
260.020;  194.900;  901.000;  636.000
260.162;  -67.600; -146.000; -253.000
260.303; -223.100; -768.000; -687.000
260.445; -145.500; -609.000; -613.000
260.586;   63.200;  392.000;  157.000
260.728;  -66.200; -360.000; -248.000
260.869; -132.200; -350.000; -343.000
261.011;  148.500;  706.000;  537.000
261.152; -133.700; -479.000; -319.000
261.293; -164.200; -576.000; -595.000
261.435;  -34.900; -219.000; -184.000
261.576; -110.900; -455.000; -325.000
261.718;  130.500;  420.000;  470.000
261.859; -238.100; -940.000; -949.000
262.000; -259.700; -951.000;-1016.000
262.142;  -32.200;  -52.000;  -60.000
262.283; -205.200; -808.000; -691.000
262.424; -164.900; -666.000; -625.000
262.566; -328.900;-1161.000; -983.000
262.707; -233.200; -840.000; -830.000
262.848; -256.600; -769.000; -726.000
262.990; -109.800; -362.000; -345.000
263.131;  200.500;  650.000;  681.000
263.272;   19.900;  -61.000;  -41.000
263.413; -180.800; -589.000; -561.000
263.555; -124.600; -669.000; -143.000
263.696; -159.100; -550.000; -641.000
263.837; -126.300; -449.000; -551.000
263.978;   -9.200;   -5.000;  -77.000
264.119;  -68.300; -283.000; -264.000
264.261; -213.400; -847.000; -630.000
264.402;  -13.600;   33.000;   40.000
264.543; -125.300; -509.000; -524.000
264.684;  -24.000;   61.000;  -50.000
264.825; -195.800; -816.000; -538.000
264.966;   -4.600;  -84.000;  -67.000
265.107; -212.300; -646.000; -670.000
265.248; -231.500; -825.000; -812.000
265.390;    4.200;  152.000;   -9.000
265.531;  -26.600; -238.000; -107.000
265.672; -159.400; -557.000; -630.000
265.813;  136.800;  563.000;  439.000
265.954; -270.200; -959.000; -940.000
266.095;   -7.300; -372.000; -322.000
266.236; -183.800; -686.000; -548.000
266.377;  -63.700; -243.000; -297.000
266.518; -133.100; -619.000; -547.000
266.659;   74.500;  170.000;  268.000
266.800;   38.700;   83.000;   85.000
266.941; -134.700; -487.000; -478.000
267.082;   45.500;  354.000;   99.000
267.223;  -87.600; -344.000; -273.000
267.364; -223.600; -892.000; -686.000
267.504;  -57.600;    3.000;  135.000
267.645;   16.900;  160.000;   67.000
267.786; -104.600; -147.000;  -86.000
267.927; -147.900; -473.000; -379.000
268.068;  -13.300; -186.000;  -61.000
268.209;  -82.800; -175.000; -413.000
268.350; -119.300; -388.000; -532.000
268.490; -153.700; -648.000; -521.000
268.631;   71.900;  127.000;  225.000
268.772; -214.600; -874.000; -647.000
268.913;  -99.400; -328.000; -476.000
269.054;   -0.700; -117.000;   12.000
269.194;  -87.100; -418.000; -402.000
269.335; -301.300;-1137.000;-1074.000
269.476;  -58.300;   33.000;  -35.000
269.617;  -76.100; -347.000; -392.000
269.757; -179.700; -713.000; -646.000
269.898; -200.900; -856.000; -613.000
270.039; -135.800; -415.000; -405.000
270.180; -275.700; -952.000; -816.000
270.320;  -85.900; -190.000; -250.000
270.461;  -65.200; -277.000; -249.000
270.602;    4.100; -186.000; -156.000
270.742; -237.400; -868.000; -943.000
270.883; -121.200; -442.000; -390.000
271.023;  -94.200; -358.000; -357.000
271.164; -140.200; -607.000; -528.000
271.305; -209.700; -666.000; -654.000
271.445; -213.000; -722.000; -683.000
271.586; -138.300; -462.000; -283.000
271.726;  -61.300; -397.000; -322.000
271.867; -141.000; -594.000; -534.000
272.008;  302.500; -473.000; -285.000
272.148;  261.300;  462.000;  468.000
272.289;   11.500; -113.000; -181.000
272.429;   14.400;   19.000;  185.000
272.570; -203.600; -633.000; -737.000
272.710; -212.900; -825.000; -775.000
272.851;  -19.400;  113.000; -130.000
272.991; -329.500;-1173.000;-1077.000
273.131; -139.300; -419.000; -459.000
273.272; -178.300; -683.000; -723.000
273.412;    5.600; -143.000;  -31.000
273.553;  -95.700; -488.000; -507.000
273.693;  262.000;  913.000;  858.000
273.834; -179.000; -894.000; -692.000
273.974; -159.400; -664.000; -615.000
274.114; -190.200; -772.000; -560.000
274.255;  141.200;  414.000;  373.000
274.395;   35.800; -180.000; -125.000
274.535;   83.200;  199.000;  350.000
274.676;   71.200;  225.000;   94.000
274.816;   36.200;  110.000;   34.000
274.956; -149.500; -624.000; -690.000
275.097; -138.800;-1014.000; -922.000
275.237; -242.700; -913.000; -803.000
275.377; -216.500; -778.000; -689.000
275.517; -291.200; -878.000; -937.000
275.658; -115.900; -590.000; -555.000
275.798; -130.900; -606.000; -413.000
275.938;   57.400;  215.000;  323.000
276.078; -185.800; -626.000; -395.000
276.218;   49.600;   99.000;  104.000
276.359; -258.800;-1026.000;-1024.000
276.499; -131.500; -605.000; -446.000
276.639;  -61.100; -305.000; -151.000
276.779;  -69.700; -475.000; -357.000
276.919; -195.700; -783.000; -624.000
277.059;  -22.500; -261.000; -212.000
277.199;  -52.300; -357.000; -259.000
277.340;  122.600;  287.000;  175.000
277.480; -232.700; -840.000; -693.000
277.620;   78.600;  192.000;   16.000
277.760; -395.900;-1533.000;-1294.000
277.900;   25.400;  113.000;   33.000
278.040;   56.200;  137.000;  159.000
278.180;   74.600;  270.000;  170.000
278.320;  -26.200;   21.000;   56.000
278.460; -132.200; -443.000; -469.000
278.600; -175.900; -708.000; -598.000
278.740;  130.400;  448.000;  224.000
278.880; -140.300; -768.000; -791.000
279.020;   34.200; -194.000; -144.000
279.160; -174.200; -672.000; -595.000
279.300; -227.500; -926.000; -873.000
279.440; -166.500; -709.000; -622.000
279.579;  -87.500;-1014.000; -929.000
279.719;  -73.600; -410.000; -394.000
279.859;  127.900;   -4.000;   41.000
279.999;   55.700; -208.000;  101.000
280.139;  -29.800; -435.000; -387.000
280.279; -143.500; -708.000; -745.000
280.419;  -34.300; -229.000; -147.000
280.559;  -60.500; -259.000; -180.000
280.698; -144.700; -790.000; -639.000
280.838; -175.200; -778.000; -800.000
280.978; -207.100; -846.000; -790.000
281.118; -211.900; -811.000; -704.000
281.257;   34.500;   24.000;    6.000
281.397; -230.900;-1094.000; -960.000
281.537; -160.800; -599.000; -712.000
281.677;  -21.800; -150.000; -101.000
281.816; -173.600; -700.000; -630.000
281.956;  -55.800; -193.000; -257.000
282.096; -128.700; -539.000; -396.000
282.235; -179.500; -672.000; -638.000
282.375;  -52.200; -243.000;  -98.000
282.515; -181.800; -715.000; -707.000
282.654;   59.100;   29.000;  106.000
282.794;  105.200;  388.000;  244.000
282.934;  -89.600; -530.000; -491.000
283.073; -272.500;-1030.000; -857.000
283.213;  -88.800; -460.000; -467.000
283.353;  -41.100; -408.000; -349.000
283.492;  -66.200; -264.000; -296.000
283.632; -105.600; -254.000; -168.000
283.771; -205.400; -859.000; -730.000
283.911; -114.000; -369.000; -260.000
284.050; -208.600; -794.000; -748.000
284.190; -288.900;-1229.000;-1096.000
284.329; -282.100;-1055.000; -964.000
284.469; -132.500; -516.000; -591.000
284.608;  -95.300; -559.000; -598.000
284.748; -150.200; -614.000; -570.000
284.887;   14.500;  -87.000;  -20.000
285.027; -225.100; -844.000; -892.000
285.166;  -39.300; -192.000; -249.000
285.306;   27.000; -116.000;  -33.000
285.445;  -65.400; -229.000; -343.000
285.584; -192.800; -630.000; -494.000
285.724;  -98.200; -282.000; -322.000
285.863; -194.500; -857.000; -507.000
286.002; -105.800; -366.000; -276.000
286.142; -217.900; -715.000; -622.000
286.281; -119.400; -525.000; -493.000
286.420; -130.200; -554.000; -417.000
286.560;  223.500;  653.000;  623.000
286.699; -257.900; -958.000; -912.000
286.838; -161.100; -590.000; -591.000
286.978; -177.500; -533.000; -537.000
287.117; -290.800;-1085.000; -950.000
287.256;  -52.200; -228.000; -211.000
287.395; -101.900; -197.000; -378.000
287.535;  -84.200; -370.000; -298.000
287.674; -178.800; -509.000; -484.000
287.813;  159.600;  661.000;  533.000
287.952; -267.600;-1010.000; -871.000
288.091; -293.100;-1049.000; -915.000
288.231;   60.500;   13.000;   15.000
288.370; -316.000;-1217.000;-1200.000
288.509; -174.100; -728.000; -645.000
288.648; -160.600; -770.000; -548.000
288.787;  -71.400; -243.000;  -87.000
288.926; -107.400; -454.000; -475.000
289.065;  250.600;  859.000;  672.000
289.204;  -92.200; -377.000; -217.000
289.344; -161.700; -791.000; -690.000
289.483;   71.500;  416.000;  304.000
289.622;  -47.200; -291.000; -149.000
289.761;   40.400; -309.000; -166.000
289.900; -197.700; -785.000; -626.000
290.039;   19.500;  -12.000;  -95.000
290.178;  -74.500; -274.000; -180.000
290.317; -149.200; -618.000; -479.000
290.456; -127.400; -463.000; -451.000
290.595; -278.700; -961.000; -833.000
290.734; -272.400; -904.000; -891.000
290.873; -128.800; -456.000; -420.000
291.011; -215.400; -833.000; -843.000
291.150; -183.200; -770.000; -682.000
291.289;  -34.100; -343.000; -110.000
291.428; -160.500; -599.000; -480.000
291.567; -118.400; -370.000; -442.000
291.706;   33.400;  109.000;  154.000
291.845; -153.400; -597.000; -505.000
291.984; -326.200;-1234.000;-1061.000
292.122;  145.600;  602.000;  582.000
292.261;   81.700;  620.000;  463.000
292.400;   42.300; -144.000;  211.000
292.539; -238.400; -959.000; -813.000
292.678;  -64.600; -325.000; -300.000
292.816; -298.600;-1136.000; -965.000
292.955; -157.000; -844.000; -684.000
293.094;  -31.600; -173.000; -337.000
293.233;  -79.300; -556.000; -400.000
293.371;  -78.000; -225.000;  -84.000
293.510; -215.300; -866.000; -780.000
293.649; -241.700; -959.000; -924.000
293.787; -130.800;-1083.000;-1012.000
293.926;   -8.700; -113.000;  -32.000
294.065;  -95.500; -379.000; -290.000
294.203;  145.900;  298.000;  406.000
294.342;   52.500;   74.000;  156.000
294.481;11786.600;51180.000; -836.000
294.619;  -41.600; -425.000; -582.000
294.758; -255.200;-1230.000;-1137.000
294.896;  161.900; -125.000;    5.000
295.035; -239.100;-1040.000;-1006.000
295.174; -260.800;-1082.000; -954.000
295.312;  -65.600; -323.000; -203.000
295.451;  -10.700; -307.000; -428.000
295.589; -111.500; -389.000; -518.000
295.728;   54.700; -292.000; -165.000
295.866;   31.200;  -36.000;  -51.000
296.005; -122.400; -584.000; -341.000
296.143;  -82.100; -558.000; -596.000
296.282; -185.700; -957.000; -881.000
296.420; -138.100; -657.000; -557.000
296.559; -129.300; -892.000; -633.000
296.697;   44.300; -847.000; -665.000
296.835;   54.400;-1141.000;-1002.000
296.974;  145.700;  -23.000;   39.000
297.112;   37.600; -443.000; -504.000
297.251; -152.200; -815.000; -755.000
297.389;  159.200; -576.000; -438.000
297.527;  116.600; -145.000;  -83.000
297.666;  -75.300; -486.000; -438.000
297.804;  -79.400; -404.000; -264.000
297.942;   40.900; -136.000; -161.000
298.081;   10.800; -183.000;   63.000
298.219;  104.000;  -17.000;  -19.000
298.357;  107.600; -144.000;  -71.000
298.495;   21.600; -810.000; -812.000
298.634;  142.000;  245.000;  219.000
298.772;  111.900; -220.000; -338.000
298.910;  -36.000; -309.000; -182.000
299.048;  -15.500; -130.000; -153.000
299.187;  -33.300; -350.000; -250.000
299.325;   52.500;   52.000;  122.000
299.463;   76.800; -389.000; -299.000
299.601;  192.800; -327.000; -271.000
299.739; -194.700; -908.000; -883.000
299.877; -172.100; -791.000; -703.000
300.016; -126.900;-1095.000; -935.000
300.154;  271.700;  -19.000; -161.000
300.292;  103.100; -428.000; -348.000
300.430;   48.300; -408.000; -291.000
300.568; -191.900; -940.000; -874.000
300.706; -118.100; -366.000; -469.000
300.844; -150.100;-1108.000; -979.000
300.982;  229.500;  246.000;  282.000
301.120; -230.800; -965.000; -866.000
301.258; -116.600; -812.000; -705.000
301.396;   83.800;  104.000;  -41.000
301.534;  145.800; -218.000; -293.000
301.672;  -15.100; -664.000; -521.000
301.810;   44.300; -613.000; -545.000
301.948;  267.300;   53.000;  149.000
302.086; 1004.900; -250.000;  -32.000
302.224; 1689.100; -610.000; -585.000
302.362;   45.300; -558.000; -622.000
302.500;  -41.200; -923.000; -893.000
302.638;  210.100;  128.000;  245.000
302.776;    4.700; -352.000; -408.000
302.913;  122.700;  447.000;  236.000
303.051;    7.200;  -86.000;  -23.000
303.189;  137.400;   90.000;  118.000
303.327;   -3.300; -341.000; -256.000
303.465; -155.000; -832.000; -588.000
303.603; -191.100; -805.000; -604.000
303.740;  235.000;  417.000;  241.000
303.878;   -5.500; -800.000; -759.000
304.016; -177.800; -915.000; -790.000
304.154; -266.600;-1123.000;-1152.000
304.291;  -70.500; -505.000; -554.000
304.429;   57.000;  102.000;   74.000
304.567; -258.200; -908.000; -893.000
304.705;  -97.000; -408.000; -515.000
304.842;  118.300; -616.000; -540.000
304.980;  122.200;  215.000;   35.000
305.118;   87.800; -367.000; -365.000
305.255; -124.100; -945.000; -927.000
305.393;  145.000;  178.000;  239.000
305.531; -197.000;-1173.000; -956.000
305.668; -122.000; -663.000; -582.000
305.806;  215.100; -358.000; -439.000
305.943;  157.100; -629.000; -637.000
306.081;  106.600; -378.000; -267.000
306.219; -154.100; -863.000; -748.000
306.356;   40.100;  158.000;   27.000
306.494;  264.000;  981.000;  761.000
306.631;   32.000;  -11.000;  -55.000
306.769;   30.700; -613.000; -485.000
306.906;   11.000; -284.000; -258.000
307.044; -115.500; -473.000; -488.000
307.181;  -71.500; -410.000; -332.000
307.319;   59.800;  112.000;   87.000
307.456; -317.100;-1191.000;-1153.000
307.594; -191.400; -980.000; -727.000
307.731;   26.400; -371.000; -164.000
307.868;   29.100;  -15.000;   20.000
308.006; -241.300; -961.000; -847.000
308.143;  -95.200; -618.000; -330.000
308.281;  433.500;  -37.000; -254.000
308.418;   55.600; -748.000; -640.000
308.555; -102.100; -400.000; -250.000
308.693; -136.300; -577.000; -573.000
308.830; -201.200; -712.000; -657.000
308.967;   15.500; -215.000;  -95.000
309.105;  -11.500; -507.000; -396.000
309.242;  110.000; -468.000; -367.000
309.379;  725.500; -577.000; -655.000
309.517;  -88.600; -936.000; -948.000
309.654; -185.800; -910.000; -734.000
309.791; -121.800; -662.000; -580.000
309.928; -205.900; -977.000; -914.000
310.065;  391.100;  819.000;  697.000
310.203;  -20.300; -825.000; -850.000
310.340;   34.200; -465.000; -321.000
310.477; -133.300; -412.000; -516.000
310.614;  -74.900; -383.000; -473.000
310.751; -120.300; -427.000; -518.000
310.889;   -2.600;    1.000;   11.000
311.026; -270.000;-1161.000; -939.000
311.163;  -68.200; -386.000; -380.000
311.300;  -95.100; -512.000; -479.000
311.437; -121.100; -658.000; -619.000
311.574; -279.200;-1226.000; -985.000
311.711;  -94.600; -595.000; -433.000
311.848;  -18.900; -380.000; -388.000
311.985;   53.000;  270.000;   93.000
312.122; -218.500; -932.000; -762.000
312.259; -226.600; -941.000; -994.000
312.396; -129.700; -508.000; -551.000
312.533; -154.900; -812.000; -790.000
312.670; -224.900;-1070.000; -898.000
312.807;  -64.100; -352.000; -367.000
312.944; -103.600; -513.000; -611.000
313.081;    4.700; -150.000; -415.000
313.218; -206.800;-1111.000; -867.000
313.355;   29.900; -531.000; -449.000
313.492;   66.700; -455.000; -292.000
313.629;  292.200;  815.000;  735.000
313.766; -264.800;-1176.000;-1008.000
313.902;   -0.300; -186.000;   21.000
314.039;  -59.400; -372.000; -289.000
314.176;   91.900;  286.000;  192.000
314.313; -109.400; -569.000; -473.000
314.450; -104.700; -788.000; -684.000
314.587;  -91.100; -468.000; -480.000
314.723;   19.100;  -78.000;  130.000
314.860;  102.700;  318.000;  332.000
314.997;   79.000;  223.000;  142.000
315.134;  -61.800; -385.000; -368.000
315.270;  -41.100; -480.000; -496.000
315.407; -226.800;-1094.000; -967.000
315.544;  -90.200; -657.000; -538.000
315.681; -103.000; -681.000; -565.000
315.817;   88.600; -133.000; -176.000
315.954;   59.200; -613.000; -392.000
316.091; -221.200;-1045.000;-1023.000
316.227;   -6.600;  -71.000; -179.000
316.364;   48.900;   23.000;    6.000
316.500;  -30.900; -113.000; -300.000
316.637;  -51.000; -181.000; -302.000
316.774; -135.000; -625.000; -358.000
316.910; -152.000; -598.000; -629.000
317.047; -120.700; -487.000; -351.000
317.183;  -77.300; -435.000; -566.000
317.320;    8.400; -367.000; -321.000
317.456;  -96.500; -733.000; -805.000
317.593; -189.300; -598.000; -641.000
317.729;   23.300;  168.000;  -67.000
317.866; -387.500;-1434.000;-1285.000
318.002; -160.500; -708.000; -948.000
318.139; -174.800; -883.000; -867.000
318.275; -200.000;-1003.000; -738.000
318.412; -119.900; -517.000; -336.000
318.548;  -55.600; -751.000; -720.000
318.685; -164.200; -985.000; -888.000
318.821; -173.000; -762.000; -735.000
318.957;   13.700;   34.000;  -23.000
319.094;  101.400;  297.000;  154.000
319.230; -133.300; -756.000; -742.000
319.367;  187.500; -471.000; -520.000
319.503;  116.800; -538.000; -436.000
319.639; -152.000; -877.000; -793.000
319.775; -130.400; -750.000; -685.000
319.912;  -69.900; -424.000; -519.000
320.048; -155.600;-1184.000;-1184.000
320.184;  184.900;   59.000;   70.000
320.321;  -78.300; -497.000; -467.000
320.457;  172.200;  475.000;  662.000
320.593;  -84.500; -375.000; -382.000
320.729; -196.100; -732.000; -734.000
320.866; -100.300; -577.000; -635.000
321.002; -155.200; -759.000; -809.000
321.138;   24.600; -135.000; -211.000
321.274;  136.900; -148.000; -115.000
321.410;  -15.100; -585.000; -353.000
321.546;  -64.400;-1011.000; -911.000
321.683;  145.700;  400.000;  185.000
321.819;   23.100;  -48.000; -117.000
321.955; -198.600; -743.000; -722.000
322.091;  -82.200; -585.000; -540.000
322.227;  -17.600; -382.000; -202.000
322.363;  -39.600; -320.000; -215.000
322.499;  -50.300; -343.000; -331.000
322.635;  300.700;  636.000;  443.000
322.771;   67.400; -139.000;   12.000
322.907;  180.700;  129.000;  327.000
323.043;   -4.300; -115.000; -206.000
323.179;  -73.300; -394.000; -363.000
323.315;   54.300; -401.000; -371.000
323.451;  183.000; -328.000; -236.000
323.587;  121.900;  -60.000;  -77.000
323.723;    4.800; -682.000; -601.000
323.859;    4.400; -258.000;  -76.000
323.995;  -19.900; -467.000; -409.000
324.131; -232.600; -967.000; -892.000
324.267;  -86.600; -254.000; -276.000
324.402; -237.000; -960.000; -983.000
324.538;  -14.600; -279.000; -104.000
324.674;   58.500;  164.000;   77.000
324.810;  320.400;  226.000;  308.000
324.946;   33.700; -810.000; -658.000
325.082; -140.300; -568.000; -475.000
325.217;   16.400;  -62.000;   16.000
325.353; -197.000; -764.000; -659.000
325.489; -123.400; -540.000; -506.000
325.625; -129.900; -579.000; -525.000
325.760;  133.300;  517.000;  376.000
325.896;  -25.600; -515.000; -702.000
326.032;  -68.300; -403.000; -352.000
326.168;  -86.500; -462.000; -369.000
326.303;  -73.100; -352.000; -461.000
326.439;  -22.100; -336.000; -276.000
326.575;   18.500; -190.000;  -29.000
326.710;    8.700; -156.000;  -30.000
326.846;   10.700;  146.000;  103.000
326.982; -141.800; -530.000; -548.000
327.117;  -98.300; -481.000; -442.000
327.253; -148.600; -745.000; -742.000
327.388; -249.200;-1137.000;-1153.000
327.524;  -79.200; -811.000; -578.000
327.659;  -11.000;  -58.000;  -22.000
327.795;    7.000;   69.000;   45.000
327.931; -138.000; -723.000; -499.000
328.066;  -23.800; -417.000; -276.000
328.202;   37.100;   12.000; -129.000
328.337;  215.300;  957.000;  713.000
328.473;   17.400;  -12.000;  -74.000
328.608;    3.500; -256.000; -267.000
328.743; -161.000; -799.000; -664.000
328.879;   66.000;  214.000;  114.000
329.014;  -69.700; -102.000; -122.000
329.150; -141.000; -358.000; -483.000
329.285; -100.000; -465.000; -466.000
329.421;  -67.000; -548.000; -246.000
329.556;   11.500;  -36.000;   85.000
329.691; -195.000; -633.000; -615.000
329.827; -154.300; -626.000; -480.000
329.962;  -60.100;  131.000; -301.000
330.097; -123.300; -673.000; -585.000
330.233;  -72.500; -410.000; -223.000
330.368; -228.500; -839.000; -628.000
330.503;  -14.100;    3.000;   98.000
330.638;   52.700;  -93.000; -125.000
330.774;  -93.600; -609.000; -530.000
330.909;  -52.500; -434.000; -244.000
331.044; -190.800; -714.000; -708.000
331.179; -338.600;-1217.000;-1109.000
331.315;   14.300;   77.000;   20.000
331.450;   32.100;  157.000;  285.000
331.585; -166.200; -805.000; -706.000
331.720; -136.400; -510.000; -460.000
331.855;   -9.800;  -35.000; -102.000
331.990;  498.500;   62.000;  138.000
332.126;  247.800; -110.000;   71.000
332.261;  -22.500; -379.000; -265.000
332.396;   38.100; -135.000; -242.000
332.531; -169.600;-1074.000;-1031.000
332.666;   90.000; -519.000; -363.000
332.801; -211.000; -726.000; -807.000
332.936;  -12.600; -192.000; -122.000
333.071; -211.600; -870.000; -817.000
333.206;   69.600;  307.000;  379.000
333.341;   57.100;  344.000;  418.000
333.476; -163.800; -627.000; -623.000
333.611;  -16.900; -251.000; -173.000
333.746;  -55.300; -381.000; -464.000
333.881; -231.500; -973.000; -935.000
334.016; -223.700; -936.000; -917.000
334.151; -243.900; -746.000; -702.000
334.286;   85.200;  152.000;  186.000
334.421;  -19.800; -125.000; -178.000
334.556; -155.200; -611.000; -567.000
334.690; -146.800; -631.000; -577.000
334.825;   96.500;  381.000;   83.000
334.960;  -43.000; -285.000; -413.000
335.095;   57.000;  135.000;  -91.000
335.230; -176.200; -722.000; -738.000
335.365; -249.400;-1084.000; -990.000
335.499; -214.700;-1108.000;-1037.000
335.634;   59.100;    9.000;  534.000
335.769; -183.400; -755.000; -720.000
335.904;  -98.000; -603.000; -561.000
336.038;  -89.100; -735.000; -657.000
336.173; -253.200;-1206.000;-1194.000
336.308;   41.600; -116.000; -189.000
336.443;   66.200; -544.000; -634.000
336.577; -156.800; -936.000; -787.000
336.712;  154.800;   -4.000;  -12.000
336.847;  -67.400; -724.000; -607.000
336.981;  113.800; -272.000; -208.000
337.116;  568.500;  615.000;  501.000
337.250;  268.900; -434.000; -421.000
337.385;  482.400; -297.000; -208.000
337.520;  179.900; -632.000; -603.000
337.654;  -45.100; -215.000; -126.000
337.789; -237.500; -989.000; -933.000
337.923;  -29.100; -104.000; -205.000
338.058; -176.600; -673.000; -738.000
338.192;  -71.200; -611.000; -488.000
338.327;   41.600;  -18.000; -155.000
338.461; -102.600; -299.000; -469.000
338.596; -152.300; -780.000; -638.000
338.730; -151.100; -767.000; -803.000
338.865;  190.500;  -46.000; -140.000
338.999; -107.500; -846.000; -702.000
339.134;  -40.200; -634.000; -536.000
339.268;   14.900; -741.000; -603.000
339.403;  693.100; -740.000; -775.000
339.537;  211.100; -894.000; -820.000
339.671; -208.600; -829.000; -813.000
339.806;  -99.900; -556.000; -512.000
339.940;   32.000; -261.000; -235.000
340.074; -130.200; -685.000; -510.000
340.209;  -52.300; -351.000; -230.000
340.343; -130.700; -517.000; -573.000
340.477;  355.400;  998.000; 1036.000
340.612; -121.100;-1033.000; -900.000
340.746;  265.900; -199.000; -243.000
340.880; -150.300; -924.000; -785.000
341.014;  -10.500;  -45.000; -154.000
341.149; -218.600; -756.000; -718.000
341.283; -202.100; -839.000; -754.000
341.417; -190.100;-1124.000; -938.000
341.551;  198.100; -768.000; -708.000
341.685;  -51.000; -633.000; -611.000
341.820;  -73.700; -562.000; -493.000
341.954;  -77.500; -218.000; -349.000
342.088; -290.900;-1102.000;-1019.000
342.222;  137.300;  565.000;  618.000
342.356; -119.800; -395.000; -335.000
342.490; -172.000; -880.000; -841.000
342.624;  -48.500; -339.000; -242.000
342.758;   -5.100; -364.000; -312.000
342.892; -126.500; -710.000; -585.000
343.026;  -35.500;  -58.000; -116.000
343.160;  -89.800; -426.000; -376.000
343.294; -109.600; -474.000; -337.000
343.428;  -53.000; -488.000; -448.000
343.562;   14.900; -172.000;  -23.000
343.696;  -77.000; -385.000; -314.000
343.830;   -6.200; -362.000; -356.000
343.964;   14.000; -231.000; -168.000
344.098; 1556.000;  199.000;   70.000
344.232; 1330.000; -266.000; -127.000
344.366;  182.900; -567.000; -453.000
344.500;  111.300; -665.000; -744.000
344.634;   42.000; -324.000; -164.000
344.768;  -28.800; -531.000; -341.000
344.902;   84.700;  278.000;  256.000
345.035; -138.300; -556.000; -496.000
345.169; -239.700; -933.000; -656.000
345.303;  -34.500; -308.000; -482.000
345.437; -113.800; -826.000; -717.000
345.571; -144.200; -675.000; -594.000
345.704;  -86.200; -309.000; -532.000
345.838;    2.100; -331.000; -284.000
345.972;  -37.700; -543.000; -495.000
346.106;  314.300; -179.000; -190.000
346.239;  824.000; -312.000; -243.000
346.373;   11.100; -343.000; -302.000
346.507; -261.600; -950.000; -962.000
346.640;  266.800;  -30.000;   13.000
346.774;  -84.500; -650.000; -797.000
346.908;   -4.700; -138.000;  -11.000
347.041; -148.300; -646.000; -593.000
347.175;   34.800;  259.000;   27.000
347.309; -143.400; -698.000; -628.000
347.442; -186.100; -883.000; -732.000
347.576;  531.500;  670.000;  668.000
347.709;  353.500; -123.000;  -52.000
347.843; -160.300; -933.000; -825.000
347.976;   92.700;  235.000;  294.000
348.110; -312.800;-1268.000;-1186.000
348.243; -188.600; -679.000; -772.000
348.377;   44.000;  -26.000;   60.000
348.510;  128.500;  403.000;  540.000
348.644;  -27.400;  -37.000; -159.000
348.777;   16.100;  180.000;  191.000
348.911;  -43.200; -142.000; -112.000
349.044;  286.900;  471.000;  448.000
349.178;  248.600;-1069.000;-1006.000
349.311;  218.200;  141.000;  255.000
349.444;  -14.600; -927.000; -813.000
349.578;   14.800; -347.000; -200.000
349.711; -206.500; -959.000; -862.000
349.845;   -8.100; -661.000; -591.000
349.978; -286.200;-1224.000;-1137.000
350.111; -138.300; -546.000; -612.000
350.244; -145.800; -596.000; -700.000
350.378;   47.400; -392.000; -393.000
350.511; -111.200; -393.000; -426.000
350.644; -180.900; -808.000; -806.000
350.778;   54.300;  168.000;  104.000
350.911;   59.800;  134.000;  140.000
351.044; -165.400; -685.000; -615.000
351.177;  -23.700; -321.000; -281.000
351.310;    3.600;    3.000; -131.000
351.444; -146.100; -888.000; -788.000
351.577;  204.100;  140.000;   90.000
351.710;  249.100;  593.000;  417.000
351.843;  -24.000; -165.000;  -77.000
351.976;   64.700;  149.000;  -79.000
352.109; -148.400; -621.000; -612.000
352.242;  -49.400; -464.000; -419.000
352.376; -105.400; -580.000; -636.000
352.509;  290.800; -437.000; -356.000
352.642;   18.400; -654.000; -604.000
352.775;  136.700; -141.000;  -98.000
352.908; -236.500; -933.000; -904.000
353.041; -163.200; -814.000; -824.000
353.174;  -93.000; -551.000; -424.000
353.307; -195.000; -753.000; -764.000
353.440;  181.000;  541.000;  453.000
353.573; -213.900; -957.000;-1008.000
353.706;  -76.800; -384.000; -558.000
353.839;  -48.200; -264.000; -220.000
353.971; -149.400; -657.000; -512.000
354.104; -140.600; -896.000; -835.000
354.237;  -69.900; -627.000; -662.000
354.370; -149.500; -846.000; -879.000
354.503; -333.100;-1231.000;-1308.000
354.636;  -56.500; -529.000; -348.000
354.769; -216.800; -937.000; -860.000
354.902;    0.400; -230.000; -139.000
355.034;   14.000; -164.000; -220.000
355.167;   13.800; -262.000; -162.000
355.300; -182.600;-1061.000; -880.000
355.433; 1869.600;  -71.000;  -14.000
355.565; 2912.900; -402.000; -384.000
355.698;  730.900; -356.000; -296.000
355.831;   11.800; -882.000; -801.000
355.964;  169.600; -285.000; -170.000
356.096; -119.800; -856.000; -843.000
356.229;  -13.500; -523.000; -530.000
356.362;  630.500; -373.000; -266.000
356.494; 1175.500; -229.000; -162.000
356.627;  880.300;  269.000;  377.000
356.760; 1260.800;  120.000;   53.000
356.892; 1882.800; -286.000; -601.000
357.025; 1217.000;  403.000;  389.000
357.157; 1074.200; -167.000; -179.000
357.290; 1269.900; -856.000; -713.000
357.423;  385.200; -667.000; -556.000
357.555;  213.800; -217.000; -228.000
357.688;  237.800; -483.000; -364.000
357.820;  734.700; -870.000; -877.000
357.953; 6298.400; -563.000; -589.000
358.085; 1267.000; -632.000; -612.000
358.218; 2056.700;-1131.000; -932.000
358.350;  429.400;  -58.000;  312.000
358.483; -205.600;-1300.000;-1187.000
358.615;  -32.700;-1182.000;-1078.000
358.747; -110.100;-1187.000;-1058.000
358.880;   60.500; -810.000; -744.000
359.012;   55.800; -376.000; -202.000
359.145;  -79.900; -480.000; -511.000
359.277;   73.000; -962.000; -913.000
359.409; 5203.900;  536.000;  231.000
359.542; 1307.300; -738.000; -688.000
359.674;  145.500;   46.000;   13.000
359.806;  -79.000; -565.000; -438.000
359.939;  -36.300; -617.000; -516.000
360.071;    9.900; -583.000; -579.000
360.203;  -19.700; -411.000; -364.000
360.335;  114.500;  164.000;  -16.000
360.468;  339.000; -249.000; -307.000
360.600; 4148.200; -547.000; -454.000
360.732; 5231.500; -546.000; -423.000
360.864;  714.700;-1216.000;-1044.000
360.996;  510.400; -516.000; -554.000
361.129;  113.900; -389.000; -598.000
361.261;   56.400;  110.000; -113.000
361.393;  -14.900; -252.000; -214.000
361.525;  101.000;   94.000;  244.000
361.657;  -72.800; -821.000; -703.000
361.789;   38.500; -139.000; -155.000
361.921;  442.200; -642.000; -593.000
362.053;  513.000;  524.000;  541.000
362.185;  143.600;  288.000;   72.000
362.318; -135.100; -709.000; -705.000
362.450;  280.900;  294.000;  444.000
362.582;  223.300; -913.000; -870.000
362.714;  -55.800; -353.000; -332.000
362.846; -142.000; -606.000; -490.000
362.978; -239.900; -941.000; -811.000
363.109;   84.100; -161.000; -260.000
363.241;  818.300; -739.000; -749.000
363.373;  822.300; -649.000; -564.000
363.505; 1352.600; -186.000;  -91.000
363.637;  329.800; -787.000; -601.000
363.769; -178.800;-1067.000;-1080.000
363.901; -114.000; -596.000; -654.000
364.033; -210.300;-1103.000;-1062.000
364.165;    8.700; -283.000; -283.000
364.296;  171.600; -316.000; -177.000
364.428;  155.700;-1344.000;-1220.000
364.560; -128.500; -679.000; -661.000
364.692;  -76.400; -738.000; -835.000
364.824;  484.500; -588.000; -456.000
364.955;  834.400; -402.000; -564.000
365.087; 1808.400;-1097.000; -852.000
365.219;   69.300; -686.000; -816.000
365.351;  -82.200; -526.000; -572.000
365.482;  142.700;  300.000;  240.000
365.614;  -46.400; -402.000; -314.000
365.746; -181.100; -729.000; -752.000
365.877; -130.500; -706.000; -672.000
366.009;  542.100;  -35.000;  -62.000
366.141; -164.000;-1249.000;-1134.000
366.272; -177.800; -803.000; -719.000
366.404; -190.400;-1005.000; -874.000
366.535;   24.100; -139.000;  -12.000
366.667; -144.400; -644.000; -649.000
366.799;  117.800;  353.000;  203.000
366.930; -206.400; -862.000; -996.000
367.062;  229.900; -639.000; -613.000
367.193;  319.700; -872.000; -842.000
367.325; -101.800; -580.000; -684.000
367.456;  116.500; -246.000;   31.000
367.588;  341.400; -371.000; -318.000
367.719;   69.900;  -44.000;  -45.000
367.851;   12.500; -222.000; -241.000
367.982;  -79.900; -875.000; -732.000
368.113;  195.800; -475.000; -358.000
368.245; -210.900; -960.000; -841.000
368.376;  -26.100; -254.000; -302.000
368.508;  -29.200; -188.000; -263.000
368.639; -244.100;-1166.000;-1034.000
368.770;   -9.900; -670.000; -589.000
368.902;  -83.300; -836.000; -926.000
369.033; -162.800; -906.000; -855.000
369.164;  -46.700; -720.000; -653.000
369.296; -174.800; -452.000; -601.000
369.427;   18.100; -209.000; -144.000
369.558;  -49.900; -593.000; -377.000
369.689; -163.600; -721.000; -569.000
369.821; -235.800; -951.000; -845.000
369.952;   28.700;   42.000; -108.000
370.083;  -96.400; -229.000; -108.000
370.214; -127.400; -735.000; -650.000
370.345;   49.100;   65.000;   81.000
370.477; -139.100; -810.000; -790.000
370.608;  402.000; -328.000; -264.000
370.739; -125.800;-1233.000;-1292.000
370.870;  -44.200;-1102.000; -923.000
371.001;  193.500; -378.000; -467.000
371.132;  -94.500; -754.000; -735.000
371.263;   24.600;  -42.000; -148.000
371.394; -239.900; -841.000; -748.000
371.525;  115.400;  345.000;  225.000
371.657; -128.900; -808.000; -670.000
371.788;  179.100;  103.000;  199.000
371.919;  322.000; -384.000; -304.000
372.050; 6240.400;  -91.000; -156.000
372.181; 1698.800; -188.000; -294.000
372.311;  645.100;   42.000; -127.000
372.442;   63.300; -457.000; -451.000
372.573;    2.200; -444.000; -340.000
372.704; -221.000;-1008.000; -980.000
372.835;  150.800; -228.000; -289.000
372.966;  -76.100; -646.000; -554.000
373.097; -116.800; -575.000; -711.000
373.228;  -51.300; -717.000; -542.000
373.359;  219.900; -824.000; -536.000
373.490; 1656.900; -881.000; -727.000
373.620; 1975.300;-1001.000; -803.000
373.751; 3016.000; -332.000; -396.000
373.882; 1342.500; -663.000; -733.000
374.013;  147.400; -449.000; -262.000
374.143;  -67.400; -581.000; -659.000
374.274; -170.300; -987.000; -908.000
374.405;  362.900; -388.000; -276.000
374.536;  791.400; -526.000; -387.000
374.666; 1927.800; -759.000; -807.000
374.797;  385.900; -817.000; -868.000
374.928; 1516.300; -710.000; -560.000
375.058; 1546.200; -535.000; -500.000
375.189;  185.700;  -59.000;  -93.000
375.320; -193.600; -928.000;-1034.000
375.450;  -39.600; -625.000; -616.000
375.581;  -81.200; -526.000; -436.000
375.712;   -8.900; -574.000; -250.000
375.842;  543.000; -438.000; -415.000
375.973;  369.400; -554.000; -513.000
376.103;  -16.600; -665.000; -648.000
376.234; -149.400; -531.000; -552.000
376.364;  -37.800; -944.000; -867.000
376.495;  679.200;  925.000;  529.000
376.625;   34.200; -472.000; -485.000
376.756;  110.600; -709.000; -678.000
376.886; -122.000;-1178.000;-1026.000
377.017;  125.400;-1048.000;-1061.000
377.147;  698.100; -786.000; -782.000
377.278;  153.300;  174.000;  228.000
377.408; -207.100; -801.000; -815.000
377.538; -179.300; -707.000; -693.000
377.669; -112.100; -537.000; -613.000
377.799; -165.700; -645.000; -635.000
377.929;  -66.700; -610.000; -428.000
378.060; -231.200; -781.000; -847.000
378.190;  -64.800; -726.000; -531.000
378.320;  -40.200; -401.000; -406.000
378.451;   -1.600; -131.000;  -22.000
378.581;   25.700;  -67.000; -110.000
378.711;  337.500; 1035.000;  866.000
378.841;  -57.800; -533.000; -675.000
378.972; -137.800; -871.000; -751.000
379.102;  -36.600; -652.000; -579.000
379.232;    6.300; -126.000;  -73.000
379.362; -194.200;-1001.000; -885.000
379.492;   21.900; -373.000; -424.000
379.623;  247.600;    0.000;  111.000
379.753; -172.900;-1107.000; -974.000
379.883;  412.000;   59.000;  156.000
380.013;    5.400;-1081.000;-1017.000
380.143; -207.300;-1097.000;-1056.000
380.273; -186.000; -985.000; -861.000
380.403;   23.000; -344.000; -257.000
380.533;  -38.900; -651.000; -664.000
380.663;  184.000;  173.000;  128.000
380.793; -167.900;-1027.000;-1074.000
380.923;   -1.900; -103.000;  -34.000
381.053; -155.400; -613.000; -623.000
381.183;  -22.300; -106.000; -248.000
381.313;   98.500; -656.000; -470.000
381.443;  103.300; -692.000; -473.000
381.573;  369.600; -402.000; -409.000
381.703;  477.800;-1249.000;-1095.000
381.833; -229.000;-1454.000;-1336.000
381.963;  242.700; -134.000;  -87.000
382.093; 2415.200; -925.000; -909.000
382.223;  700.200; -713.000; -602.000
382.353;  -13.600; -801.000; -608.000
382.482;  637.700;-1091.000; -964.000
382.612; 1328.000; -872.000; -644.000
382.742;  753.300; -695.000; -622.000
382.872;  529.300; -565.000; -551.000
383.002;  204.400;  347.000; -132.000
383.131;   27.900; -226.000; -160.000
383.261;  -47.800; -706.000; -768.000
383.391;  572.900; -552.000; -377.000
383.521; 6141.600;  451.000;  263.000
383.650; 1394.200; -947.000; -904.000
383.780;  -21.600; -783.000; -656.000
383.910;  290.100;  880.000;  802.000
384.039;   57.200; -794.000; -656.000
384.169;  362.100;-1205.000;-1017.000
384.299;  -10.500; -650.000; -662.000
384.428; -162.400; -764.000; -680.000
384.558;  -47.900; -308.000; -275.000
384.687;   -5.000; -414.000; -334.000
384.817;   84.500;   75.000;   -2.000
384.947;   95.900; -234.000; -141.000
385.076;  592.600;  982.000;  912.000
385.206;  245.800;  369.000;  480.000
385.335;  -39.100; -549.000; -417.000
385.465; -103.500; -655.000; -663.000
385.594;  325.500;  -53.000;  -44.000
385.724;  765.300; -868.000; -838.000
385.853;  210.200; -296.000; -270.000
385.982; 2410.100; -743.000; -787.000
386.112; 3600.500;-1052.000; -871.000
386.241;  252.400; -307.000; -312.000
386.371;   99.500; -174.000;  -87.000
386.500;   26.900; -825.000; -789.000
386.629;   77.700; -874.000; -817.000
386.759;  209.200;  -43.000;   68.000
386.888;   63.200; -170.000; -250.000
387.017;  -71.400; -648.000; -620.000
387.147; -110.000; -771.000; -798.000
387.276;   35.700; -410.000; -397.000
387.405;   53.200; -398.000; -342.000
387.535;  -10.200; -452.000; -361.000
387.664;  -57.900; -692.000; -620.000
387.793;  158.300; -198.000; -113.000
387.922;  965.800;  255.000;  200.000
388.052;   55.200; -576.000; -423.000
388.181;   79.800; -342.000; -472.000
388.310;   31.400; -889.000; -710.000
388.439;  -71.700; -749.000; -742.000
388.568;  370.900;  365.000;  244.000
388.697; 1788.900; -756.000; -653.000
388.826;  351.700; -768.000; -666.000
388.956;  113.600; -285.000; -307.000
389.085;   -5.300; -347.000; -287.000
389.214; -195.600; -842.000; -872.000
389.343;  -68.700; -645.000; -413.000
389.472;  855.100;  126.000;  149.000
389.601; 1008.600;   91.000;    0.000
389.730;   56.100; -568.000; -687.000
389.859;  162.000;  226.000;   46.000
389.988;  364.800; -423.000; -408.000
390.117;  252.400; -168.000; -146.000
390.246;   19.000; -331.000; -320.000
390.375;  198.500; -673.000; -626.000
390.504;  -77.000; -703.000; -621.000
390.633; -150.000; -672.000; -726.000
390.761;  -98.000; -732.000; -645.000
390.890;  117.600;   -4.000; -130.000
391.019;  -39.900; -421.000; -441.000
391.148; -201.900; -826.000; -855.000
391.277; -108.500; -576.000; -493.000
391.406; -136.600; -821.000; -805.000
391.534;  102.500;  574.000; -301.000
391.663;  -66.700; -583.000; -645.000
391.792; -141.500; -673.000; -701.000
391.921;  248.700;   -3.000;   15.000
392.050;  345.700; -287.000; -228.000
392.178;  -80.000;-1206.000;-1061.000
392.307;  263.000; -758.000; -712.000
392.436;  115.700; -427.000; -641.000
392.564;  112.800;  166.000;   -6.000
392.693; -105.400; -860.000; -682.000
392.822;  422.400; -529.000; -534.000
392.950;  168.400; -880.000; -714.000
393.079;  597.400; -188.000; -328.000
393.208;   40.600; -488.000; -511.000
393.336;   21.000; -170.000; -145.000
393.465;  -22.900; -317.000; -199.000
393.593;   44.700;   62.000;   79.000
393.722; -225.500;-1121.000; -916.000
393.850;   -6.300; -188.000;  -61.000
393.979; -240.400; -926.000; -805.000
394.107;  -77.700; -517.000; -537.000
394.236;    6.200; -570.000; -507.000
394.364;  552.000;  383.000;  206.000
394.493;  791.700; -911.000; -767.000
394.621;   21.100; -955.000; -916.000
394.750; 1433.900; -873.000; -923.000
394.878; 5922.400; -247.000; -149.000
395.007; 7648.400; -721.000; -807.000
395.135;  569.100; -790.000; -721.000
395.263; -107.100;-1038.000;-1040.000
395.392;   45.200;  -25.000; -107.000
395.520; -150.500; -818.000; -679.000
395.648; -168.500; -865.000; -915.000
395.777;  -13.300; -366.000; -405.000
395.905;  -38.800; -449.000; -564.000
396.033;   78.500;  217.000;  172.000
396.162; 1342.800; -399.000; -453.000
396.290; 1148.800;  -17.000;   -2.000
396.418;  191.500; -555.000; -514.000
396.546; -128.600; -571.000; -466.000
396.674; -152.400; -850.000; -878.000
396.803;   58.600;  -72.000;  -23.000
396.931;  201.600; -179.000; -199.000
397.059;   79.400;-1026.000; -989.000
397.187; -177.600;-1026.000; -975.000
397.315; -210.300; -884.000; -649.000
397.443; -145.900; -592.000; -443.000
397.572; -105.600; -578.000; -424.000
397.700;   13.500; -607.000; -614.000
397.828;   78.600;  120.000;  -90.000
397.956;  -36.400; -508.000; -478.000
398.084;  -58.400; -767.000; -626.000
398.212;  137.800;  137.000;  124.000
398.340;   98.900;  -56.000;  159.000
398.468;   49.000; -390.000; -169.000
398.596; -229.200; -993.000; -953.000
398.724; -208.900; -762.000; -767.000
398.852; -281.700;-1024.000; -976.000
398.980; -115.300; -560.000; -560.000
399.108;  -77.100; -982.000; -735.000
399.236;   96.600;   13.000;    8.000
399.363;   87.100;  222.000;  196.000
399.491; -127.400; -404.000; -398.000
399.619; -226.800; -829.000; -800.000
399.747; -158.000; -859.000; -771.000
399.875;  233.100;  220.000;  234.000
400.003;  -76.400; -359.000; -284.000
400.130; -106.200; -421.000; -341.000
400.258;    5.500;  -83.000;   38.000
400.386;  -70.900; -352.000; -168.000
400.514;  -47.000; -526.000; -587.000
400.641; -129.800; -928.000; -802.000
400.769; -264.600; -979.000; -888.000
400.897; -150.200; -838.000; -793.000
401.025;   38.200; -166.000; -152.000
401.152;   62.200;  220.000;   38.000
401.280; -118.400; -430.000; -429.000
401.408; -179.100; -712.000; -576.000
401.535; -179.200; -735.000; -758.000
401.663; -321.800;-1134.000;-1054.000
401.790; -154.900; -514.000; -525.000
401.918;  149.700;  436.000;  405.000
402.046;   30.500;  134.000;  122.000
402.173;  -28.100;  -18.000;    7.000
402.301;  -53.700; -519.000; -397.000
402.428;  144.100;  528.000;  383.000
402.556; -247.900;-1188.000; -913.000
402.683;  -20.200;  -20.000;   -1.000
402.811;   15.400;  -37.000; -206.000
402.938;   48.100;   20.000;   27.000
403.066;  355.800; -574.000; -558.000
403.193;  585.800;  299.000;  239.000
403.321;  467.400; -396.000; -574.000
403.448;  566.800;   83.000;   27.000
403.575;  258.100;  -90.000;  -46.000
403.703; -156.300; -732.000; -557.000
403.830; -100.200; -531.000; -496.000
403.957; -226.100;-1117.000;-1023.000
404.085;   95.800;  -61.000; -172.000
404.212;  260.600;  -50.000;   63.000
404.339;  563.200; -566.000; -306.000
404.467;11597.500; -612.000; -524.000
404.594; 7048.400; -287.000; -227.000
404.721; 1610.600; -869.000; -764.000
404.848;  208.700; -113.000; -202.000
404.976; -156.500; -856.000; -783.000
405.103;   35.000;  -14.000;  -82.000
405.230;   99.300;  190.000;  226.000
405.357;  106.600;  117.000;   44.000
405.484;  587.600;  -49.000;    5.000
405.612;  121.500; -548.000; -563.000
405.739;  -80.900; -488.000; -243.000
405.866;  241.800;  669.000;  385.000
405.993;  -52.900; -398.000; -102.000
406.120; -211.300; -801.000; -887.000
406.247;  -85.500; -323.000; -342.000
406.374;  906.100;  540.000;  629.000
406.501;  188.000; -632.000; -702.000
406.628;  -89.800; -621.000; -589.000
406.755; -159.900; -803.000; -620.000
406.882;  -58.100; -228.000; -277.000
407.009; -157.900; -719.000; -628.000
407.136;  156.500; -480.000; -401.000
407.263;  244.400; -939.000; -829.000
407.390;  -82.200; -692.000; -614.000
407.517; -291.500;-1139.000;-1187.000
407.644;  -53.000; -332.000; -256.000
407.771; -103.400; -249.000; -287.000
407.898;   88.000;  168.000;  328.000
408.025;  -49.500; -421.000; -313.000
408.151;   48.900;   82.000;  153.000
408.278;  -76.100; -267.000; -216.000
408.405; -202.400; -931.000; -899.000
408.532;  -85.800; -549.000; -542.000
408.659; -172.800; -677.000; -648.000
408.785; -351.100;-1298.000;-1170.000
408.912;  -53.000; -412.000; -296.000
409.039; -168.000; -610.000; -686.000
409.166; -151.600; -591.000; -555.000
409.292; -175.200; -571.000; -534.000
409.419; -198.700; -665.000; -649.000
409.546; -118.300; -431.000; -192.000
409.672; -154.100; -713.000; -545.000
409.799;   42.200;  -36.000;   34.000
409.926;  -57.400; -180.000; -179.000
410.052; -315.200;-1127.000;-1091.000
410.179;  -70.300; -368.000; -392.000
410.305; -103.300; -375.000; -493.000
410.432;  -48.600; -220.000; -333.000
410.558; -149.100; -305.000; -380.000
410.685; -168.900; -688.000; -431.000
410.812; -119.400; -409.000; -588.000
410.938; -250.300; -964.000; -808.000
411.065; -146.600; -671.000; -645.000
411.191;   -1.300; -189.000; -174.000
411.317; -190.200; -823.000; -742.000
411.444;  -72.100; -317.000; -246.000
411.570;  -79.000; -339.000; -294.000
411.697; -196.000; -758.000; -752.000
411.823; -291.300; -989.000; -999.000
411.949;    0.100;  -56.000;   17.000
412.076; -184.100; -539.000; -519.000
412.202; -182.100; -758.000; -757.000
412.329; -195.400; -798.000; -752.000
412.455; -180.700; -821.000; -657.000
412.581;   -9.400;  -15.000;  172.000
412.707;  -69.700; -540.000; -457.000
412.834;   73.200;  156.000;  219.000
412.960; -133.100; -785.000; -784.000
413.086; -148.800; -743.000; -701.000
413.212;  350.800;  604.000;  578.000
413.339;  -81.300; -685.000; -701.000
413.465;    4.000; -364.000; -310.000
413.591; -156.300; -757.000; -474.000
413.717;  -54.800; -358.000; -366.000
413.843; -226.800; -839.000; -861.000
413.969;  -68.100;  -47.000; -292.000
414.096; -151.200; -679.000; -679.000
414.222;   36.700;  -33.000;   85.000
414.348;   -9.400; -652.000; -385.000
414.474;  232.000;   38.000;  -52.000
414.600;   44.500; -126.000; -144.000
414.726;   57.300;  -96.000;  -55.000
414.852;  -61.200; -365.000; -342.000
414.978;  117.200;  104.000;  -18.000
415.104;  118.400;   38.000;   80.000
415.230;  101.400; -329.000; -330.000
415.356;  138.200; -409.000; -514.000
415.482;  473.500;   13.000;  -35.000
415.608;  569.800; -247.000; -323.000
415.734; 2022.100;   67.000;   38.000
415.860;40762.800; -875.000; -767.000
415.986;26900.600; -685.000; -607.000
416.111; 2282.700; -798.000; -652.000
416.237;  503.800; -424.000; -571.000
416.363; 2481.800; -765.000; -733.000
416.489; 8147.900; -324.000; -251.000
416.615;  835.900; -707.000; -742.000
416.741;   -8.400; -677.000; -784.000
416.866; -122.300; -673.000; -736.000
416.992; -193.100; -801.000; -818.000
417.118;    2.800;  -41.000;  -80.000
417.244;  -72.600; -798.000; -531.000
417.369; -113.700; -801.000; -612.000
417.495;   27.100; -325.000; -254.000
417.621;  -95.700;-1015.000; -803.000
417.746;   50.500; -579.000; -572.000
417.872;  155.600; -254.000; -144.000
417.998;  178.400; -515.000; -530.000
418.123; 2362.100;-1073.000; -845.000
418.249;10640.100; -512.000; -601.000
418.374; 1345.100; -916.000; -824.000
418.500;  265.100; -383.000; -482.000
418.626;  289.000;   70.000;  -59.000
418.751;  282.000; -549.000; -448.000
418.877;  420.300; -637.000; -643.000
419.002; 3997.200; -688.000; -560.000
419.128;24978.900; -930.000; -721.000
419.253; 5463.000; -967.000; -837.000
419.379;  822.400; -391.000; -338.000
419.504;  794.000;  325.000;  415.000
419.629; 1026.700; -393.000; -212.000
419.755; 7595.600; -317.000; -254.000
419.880;40735.900;  -98.000;   67.000
420.006;22999.900; -280.000; -221.000
420.131;55561.700; -662.000; -775.000
420.256; 7192.300; -315.000; -316.000
420.382; 1112.800; -665.000; -687.000
420.507;  185.400; -649.000; -778.000
420.632;  281.600; -337.000; -339.000
420.758;  428.100; -251.000; -425.000
420.883; -143.900; -876.000; -672.000
421.008; -155.900; -775.000; -619.000
421.133; -119.000; -509.000; -467.000
421.259;  -32.000; -325.000; -259.000
421.384; -176.200; -834.000; -693.000
421.509;  -72.300;-1052.000; -862.000
421.634; 1961.900; -936.000; -820.000
421.759;  792.600; -359.000; -327.000
421.885;  -76.400; -717.000; -656.000
422.010; -110.500; -673.000; -542.000
422.135; -228.100; -695.000; -727.000
422.260;  121.900;  340.000;  280.000
422.385;  -15.000;   12.000;  -98.000
422.510;  102.200;  151.000;  -26.000
422.635;  121.400;  -87.000;  -43.000
422.760;  208.400; -766.000; -791.000
422.885;  117.800;  -57.000;  -80.000
423.010;  -31.400; -112.000; -169.000
423.135; -133.400; -481.000; -561.000
423.260;   21.900; -150.000; -245.000
423.385;  173.200;  476.000;  222.000
423.510;  124.100;   71.000;  -22.000
423.635;  190.600;  133.000;   45.000
423.760;  171.100;  383.000;  328.000
423.885;  179.000;  336.000;  391.000
424.010;   78.300;  -68.000;  -13.000
424.135;   28.400;    5.000;  -33.000
424.259; -110.100; -654.000; -457.000
424.384;  -67.400; -279.000; -272.000
424.509;   -2.800; -260.000; -186.000
424.634; -171.800; -761.000; -623.000
424.759;   13.600; -688.000; -544.000
424.883;   18.800; -506.000; -527.000
425.008;  389.100; -502.000; -410.000
425.133; 4085.400; -679.000; -653.000
425.258; 1685.500; -517.000; -381.000
425.382; 1919.400; -867.000; -774.000
425.507; 4346.800; -487.000; -543.000
425.632;  733.100; -802.000; -663.000
425.756;  886.000; -256.000; -146.000
425.881;13861.700; -831.000; -857.000
426.006;33629.500; -604.000; -355.000
426.130; 4714.300; -696.000; -508.000
426.255;  624.100; -611.000; -491.000
426.379;  360.200; -189.000; -577.000
426.504;  820.500;  660.000;  544.000
426.629; 8433.200; -519.000; -466.000
426.753; 5307.700;   64.000;  -46.000
426.878;  606.000; -252.000; -288.000
427.002;  376.500; -651.000; -668.000
427.127; 3451.400;  -35.000; -158.000
427.251;22728.000;  372.000;  401.000
427.375; 5684.200; -191.000; -173.000
427.500; 3993.000; -616.000; -610.000
427.624; 1203.900; -234.000; -400.000
427.749;  205.700; -216.000; -225.000
427.873;   -6.900; -499.000; -412.000
427.997;  -24.900; -222.000; -230.000
428.122;  220.800;  795.000;  703.000
428.246;  199.200;  433.000;  434.000
428.371; -191.100; -869.000; -773.000
428.495; -157.200; -624.000; -646.000
428.619;   33.200; -186.000; -117.000
428.743;  104.600;   65.000;  132.000
428.868;   95.400; -732.000; -643.000
428.992; 2464.600; -219.000; -326.000
429.116;  947.000; -329.000; -357.000
429.240;  539.400;  419.000;  426.000
429.365;   -2.200; -454.000; -574.000
429.489;  -18.300; -638.000; -647.000
429.613;   78.000; -236.000; -177.000
429.737;  152.300; -563.000; -432.000
429.861;  648.000; -247.000; -133.000
429.985;11605.400; -425.000; -305.000
430.109;11468.000; -770.000; -908.000
430.234; 1355.400;   76.000;  -50.000
430.358;  204.400; -250.000; -160.000
430.482;  -54.900; -672.000; -564.000
430.606;  -53.800; -655.000; -375.000
430.730;   75.400; -437.000; -388.000
430.854;  276.200; -909.000; -835.000
430.978; -106.500; -795.000; -764.000
431.102;  -69.900; -499.000; -422.000
431.226; -143.600; -874.000; -815.000
431.350;  145.100;  345.000;  422.000
431.474;  -67.900; -661.000; -373.000
431.597; -269.300;-1060.000; -848.000
431.721; -119.800; -276.000; -267.000
431.845; -186.300; -704.000; -472.000
431.969;  -99.000; -304.000; -349.000
432.093; -118.100; -395.000; -317.000
432.217;   61.700;   32.000;   82.000
432.341; -129.700; -523.000; -518.000
432.464;   40.300;   96.000;   40.000
432.588;  404.600; -401.000; -329.000
432.712;  220.200;  -52.000;  -52.000
432.836;  146.000;  213.000;  263.000
432.959;   58.800; -372.000; -311.000
433.083;  233.900;   11.000;    2.000
433.207;  816.300;  285.000;  930.000
433.330;10710.500; -391.000; -200.000
433.454;11981.200; -654.000; -638.000
433.578; 6982.000;  583.000;  278.000
433.701; 1204.100; -623.000; -675.000
433.825;  290.400; -292.000; -299.000
433.949;  369.800;   28.000;  -72.000
434.072;  118.100; -410.000; -323.000
434.196;   16.400; -309.000; -117.000
434.319; 7832.600;25482.000;25124.000
434.443; 1531.500; -656.000; -603.000
434.566; 5354.300;  281.000;   62.000
434.690;  785.900; -637.000; -383.000
434.813;  122.600; -251.000; -173.000
434.937;  -89.000; -569.000; -696.000
435.060;   -5.800; -423.000; -332.000
435.184;  542.400; -492.000; -217.000
435.307;  335.200;  159.000;  102.000
435.431;   39.100;  -40.000;   24.000
435.554; -119.000; -399.000; -240.000
435.677; -126.800; -350.000; -258.000
435.801;  -19.000;  -25.000;   49.000
435.924;   51.300;    1.000;  -67.000
436.048; -189.200;-1019.000; -732.000
436.171;  -58.700; -240.000;  -66.000
436.294;    7.600; -248.000; -229.000
436.417;  257.600; -963.000; -849.000
436.541;  -99.100; -814.000; -840.000
436.664;  -60.400; -242.000; -316.000
436.787;   38.500;   13.000;  113.000
436.910; -148.000; -792.000; -422.000
437.034;   84.700;  142.000;  143.000
437.157;  150.200;  -11.000;    0.000
437.280;  -51.000; -392.000; -292.000
437.403; -167.900; -982.000; -869.000
437.526; 1151.000; -903.000; -865.000
437.649; 3803.500; -505.000; -332.000
437.772;  471.200; -692.000; -540.000
437.896;  267.200;  700.000;  544.000
438.019; -148.500; -758.000; -503.000
438.142; -135.700; -596.000; -506.000
438.265;   58.900; -639.000; -670.000
438.388; 1057.800; -520.000; -410.000
438.511;  153.400; -597.000; -394.000
438.634;  -47.500; -247.000; -125.000
438.757; -199.900; -693.000; -619.000
438.880;   10.700;  -34.000;  -57.000
439.003; -135.200; -417.000; -437.000
439.126;  -86.200; -287.000; -167.000
439.248;  -49.500;  -98.000; -139.000
439.371;  -34.600;    9.000;  -53.000
439.494;  156.800;  510.000;  439.000
439.617;    5.700;   65.000;  -88.000
439.740; -300.000; -968.000; -816.000
439.863; -205.100; -755.000; -595.000
439.986; -176.500; -476.000; -431.000
440.108;  -18.600; -161.000; -112.000
440.231; -268.300; -950.000; -836.000
440.354;    5.500;  -64.000; -150.000
440.477;  123.800; -566.000; -542.000
440.599;   47.200; -200.000; -225.000
440.722; -188.700; -709.000; -586.000
440.845;  211.900;  751.000;  928.000
440.968; -172.200; -415.000; -311.000
441.090;  -99.300; -199.000;  -33.000
441.213; -265.800;-1021.000; -825.000
441.336;  -48.800; -159.000;   -5.000
441.458;  -88.200; -549.000; -396.000
441.581;  -94.900; -628.000; -629.000
441.703;  -53.600; -152.000;   13.000
441.826; -190.100; -557.000; -400.000
441.948;  -17.900;   56.000;   51.000
442.071;  125.000;  555.000;  424.000
442.193; -186.900; -531.000; -485.000
442.316;  106.200;  152.000;   97.000
442.438;  150.900; -233.000;  -10.000
442.561;  205.100;  272.000;  262.000
442.683; 1019.300; -809.000; -522.000
442.806; 1845.800;   -8.000;   74.000
442.928;   35.300; -859.000; -604.000
443.051; -109.400; -577.000; -373.000
443.173; -100.100; -341.000; -339.000
443.295; -106.900; -263.000; -371.000
443.418;  -94.500; -321.000;  -29.000
443.540;   57.900; -106.000;   -4.000
443.662; -181.300; -563.000; -465.000
443.785;   39.600;  335.000;  199.000
443.907; -156.800; -362.000; -208.000
444.029; -209.000; -767.000; -494.000
444.152; -225.600; -644.000; -554.000
444.274;    9.700;  -18.000;  -24.000
444.396; -183.500; -461.000; -221.000
444.518; -175.500; -691.000; -454.000
444.640; -177.100; -268.000; -111.000
444.763;    9.600;  388.000;  249.000
444.885; -163.700; -432.000; -392.000
445.007;   10.700;   35.000;   86.000
445.129; -168.800; -610.000; -515.000
445.251; -172.000; -372.000; -439.000
445.373; -208.600; -537.000; -386.000
445.495;   73.700;  242.000;  350.000
445.617;  181.700;  853.000;  753.000
445.739;  -52.500; -215.000;  -97.000
445.861;    3.400; -245.000; -112.000
445.984;  -37.400; -267.000; -101.000
446.105;  425.800; -418.000; -251.000
446.227; 1026.400; -176.000;  -19.000
446.349;   -6.500; -358.000; -249.000
446.471; -167.300; -615.000; -448.000
446.593;  -57.200; -316.000;   19.000
446.715;   48.100;  -67.000;   41.000
446.837;  187.900;  697.000;  832.000
446.959; -125.500; -457.000; -478.000
447.081; -229.600; -628.000; -518.000
447.203;  199.900;  862.000;  834.000
447.325;  -73.300; -270.000;   42.000
447.446;   50.500;  286.000;  530.000
447.568; -252.700; -921.000; -803.000
447.690;  -80.400; -236.000; -245.000
447.812; -245.900; -798.000; -519.000
447.933;   -8.500;  155.000;  127.000
448.055;  -70.800; -306.000; -261.000
448.177;  327.700;   31.000;   79.000
448.299;  170.000; -935.000; -727.000
448.420;   84.100;  -25.000;  159.000
448.542;  -28.000;   -3.000;   33.000
448.664;   41.100;  109.000;  322.000
448.785;    8.800;  265.000;   83.000
448.907; -120.600; -614.000; -353.000
449.028;  -19.600; -771.000; -471.000
449.150;  180.300;  492.000;  589.000
449.272; -293.500;-1044.000; -913.000
449.393;  129.600;  612.000;  694.000
449.515; -228.500; -634.000; -581.000
449.636;  -67.700; -264.000; -155.000
449.758;  188.200;  763.000;  622.000
449.879; -108.600; -498.000; -396.000
450.001;  -80.700; -149.000;  -49.000
450.122;   19.500;  -95.000;  162.000
450.244;   16.700;   37.000;  364.000
450.365; -124.900; -495.000; -301.000
450.486;   14.100;   80.000;  268.000
450.608;  102.600;  393.000;  326.000
450.729;  234.500;  578.000;  645.000
450.850;   88.200; -574.000; -466.000
450.972; 1609.400; -552.000; -389.000
451.093;10050.500;  190.000;  588.000
451.214; 3814.600; -516.000; -337.000
451.336;  798.100;  773.000;  579.000
451.457;  203.800;  264.000;  393.000
451.578;   -9.600; -118.000;  -74.000
451.699; -181.400; -546.000; -540.000
451.821;  -36.900; -284.000;  -50.000
451.942;   61.400;  278.000;  285.000
452.063;  130.600;  228.000;  419.000
452.184; 1300.500;  -54.000;  -49.000
452.305; 2220.200;  103.000;  170.000
452.427;  297.700; -549.000; -301.000
452.548;  -13.700;   23.000;   79.000
452.669;  -47.500; -257.000;  -89.000
452.790;   -7.300;    3.000;  -18.000
452.911;   70.800;  195.000;  259.000
453.032;  -77.600; -289.000;  -60.000
453.153;    0.100;  -29.000;   81.000
453.274;  186.300;  737.000;  868.000
453.395;    3.700;  -51.000;  175.000
453.516;  330.300; 1317.000; 1388.000
453.637;  -63.100; -205.000; -150.000
453.758;  -55.200;   15.000;   69.000
453.879; -161.100; -462.000; -250.000
454.000;  214.100; 1086.000;  948.000
454.121; -173.800; -554.000; -326.000
454.242; -179.200; -599.000; -383.000
454.362;  -28.800;  -99.000;  114.000
454.483;   33.900; -309.000; -229.000
454.604;  153.100;  512.000;  580.000
454.725; -210.400; -627.000; -555.000
454.846; -148.900; -474.000; -406.000
454.967;   10.000;  230.000;  539.000
455.087;   14.200;  179.000;  153.000
455.208;  104.600;  554.000;  856.000
455.329;  -33.600;  -22.000;   82.000
455.450;  174.800;  473.000;  633.000
455.570;  -89.600; -234.000; -211.000
455.691;   -7.100;  201.000;  407.000
455.812; -145.900; -270.000;  -92.000
455.932;  -42.900;  107.000;  -97.000
456.053; -116.600;   36.000;   24.000
456.173; -160.600; -433.000; -355.000
456.294; -185.100; -476.000; -303.000
456.415;  -66.500;  -73.000;   70.000
456.535;  -14.100;  297.000;  273.000
456.656;  -36.400;  132.000;  240.000
456.776;  -54.700;    3.000;  298.000
456.897;   75.700;  308.000;  513.000
457.017;  -78.800; -153.000;   -3.000
457.138; -161.500; -402.000; -249.000
457.258;    5.800;  263.000;  224.000
457.379;   30.800;  509.000;  521.000
457.499;   42.500;  443.000;  432.000
457.620; -189.500; -407.000; -231.000
457.740; -139.500; -132.000;  -11.000
457.860;  -45.300;   87.000;   44.000
457.981;  -36.100;  132.000;  124.000
458.101;  -78.400;  -89.000;   40.000
458.221;   89.300;  336.000;  402.000
458.342;  -46.100;   -4.000;  -37.000
458.462;   77.000;  617.000;  352.000
458.582;   -3.100; -302.000; -294.000
458.703;   99.200;  303.000;  154.000
458.823;   15.100;   22.000;  163.000
458.943;  117.100;  341.000;  467.000
459.063;    0.500; 1124.000;  192.000
459.183;   21.400;  328.000;  313.000
459.304;   96.900;  315.000;  517.000
459.424;  -47.300; -246.000;  -89.000
459.544;  768.600;  388.000;  764.000
459.664; 1734.300;  499.000;  506.000
459.784;  664.000; 1004.000; 1175.000
459.904;  190.800;  867.000;  744.000
460.024;  190.800;  867.000;  684.000
460.144;  109.300;  449.000;  554.000
460.264;   44.500;  515.000;  327.000
460.385;  -92.000; -145.000; -119.000
460.505;  138.200;  905.000;  858.000
460.625;  -89.900;  -17.000;  -68.000
460.745;   20.500;  396.000;  541.000
460.864;   -6.500;  153.000;  469.000
460.984;  114.600;  499.000;  573.000
461.104;  344.500; 1656.000; 1775.000
461.224;  120.600;  657.000;  650.000
461.344;   25.800;  431.000;  360.000
461.464;    6.300;  258.000;  513.000
461.584;   36.900;  283.000;  466.000
461.704;  -12.700;   58.000;  108.000
461.824;  -32.800;  238.000;  259.000
461.943;  -36.600;  191.000;  130.000
462.063;  -63.300;    2.000;  324.000
462.183;  123.800;  639.000;  717.000
462.303;  317.900; 1678.000; 1230.000
462.422;  128.100;  781.000;  840.000
462.542;  -29.900;  271.000;  391.000
462.662;  124.300;  353.000;  380.000
462.782;  562.400;  833.000;  572.000
462.901; 1048.100;  545.000;  717.000
463.021;  661.100; 1702.000; 1638.000
463.141;   44.500;  337.000;  770.000
463.260;    9.900;  614.000;  474.000
463.380;  142.100;  902.000;  884.000
463.499;  -10.800;  342.000;  332.000
463.619;   -6.900;  581.000;  559.000
463.738;  312.100; 1644.000;  903.000
463.858;  102.500;  657.000;  811.000
463.978;   14.700;  542.000;  396.000
464.097;  182.600;  921.000; 1114.000
464.217;  300.400; 1196.000; 1143.000
464.336;  313.300; 1068.000; 1130.000
464.455;   28.800;  328.000;  659.000
464.575;  138.300;  597.000;  602.000
464.694;  394.700; 1204.000; 1179.000
464.814;  335.200; 1190.000; 1138.000
464.933;  247.400; 1095.000; 1027.000
465.052;  254.800; 1412.000; 1054.000
465.172;  238.600;  922.000;  799.000
465.291;  326.400; 1376.000; 1320.000
465.410;   89.200;  462.000;  735.000
465.530;  283.000; 1355.000; 1310.000
465.649;  204.900; 1209.000; 1273.000
465.768;  347.700; 1673.000; 1508.000
465.888;  164.900;  941.000; 1174.000
466.007;  250.000; 1335.000; 1440.000
466.126;   72.200;  721.000;  641.000
466.245;  142.200; 1176.000; 1187.000
466.364;  137.700;  950.000; 1060.000
466.484;  181.900; 1024.000; 1213.000
466.603;  151.500; 1101.000; 1222.000
466.722;  317.700; 1490.000; 1769.000
466.841;  226.800; 1151.000; 1401.000
466.960;  147.600; 1069.000;  972.000
467.079;  364.300; 1971.000; 1786.000
467.198;  184.700; 1238.000; 1181.000
467.317;  285.700; 1768.000; 1162.000
467.436;  228.600; 1709.000; 1261.000
467.555;  359.200; 1796.000; 1746.000
467.674;  198.900; 1227.000; 1329.000
467.793;  200.100; 1376.000; 1374.000
467.912;  274.000; 1658.000; 1539.000
468.031;  367.500; 2038.000; 1930.000
468.150;  338.600; 1842.000; 1837.000
468.269;  456.200; 2313.000; 2090.000
468.388;  461.500; 2168.000; 2339.000
468.507;  645.000; 2884.000; 2903.000
468.626;  668.100; 2555.000; 2541.000
468.744;  369.200; 2018.000; 2174.000
468.863;  481.100; 2312.000; 2523.000
468.982;  235.800; 1503.000; 1555.000
469.101;  586.700; 2788.000; 2692.000
469.220;  376.000; 2333.000; 2176.000
469.338;  550.400; 2935.000; 3051.000
469.457;  502.000; 2719.000; 2545.000
469.576;  781.900; 3953.000; 3784.000
469.695;  578.700; 2877.000; 3066.000
469.813;  931.700; 4148.000; 4192.000
469.932;  925.400; 4255.000; 4485.000
470.051;  894.300; 4075.000; 4161.000
470.169; 1843.200; 4470.000; 4338.000
470.288; 2949.800; 4700.000; 4809.000
470.406; 1741.200; 5059.000; 5194.000
470.525; 1342.600; 6101.000; 5787.000
470.644; 1404.700; 6847.000; 6794.000
470.762; 1755.700; 8397.000; 7873.000
470.881; 1873.900; 8651.000; 8464.000
470.999; 2161.800; 9685.000; 9151.000
471.118; 2295.700;11174.000;10711.000

