
Integration time [ms]: 100.000
Averaging Nr. [scans]: 40
Smoothing Nr. [pixels]: 0
Data measured with spectrometer [name]: 2101012U2
Wave   ;Sample   ;Dark     ;Reference
[nm]   ;[counts] ;[counts] ;[counts] 

197.733;   61.900;  516.000;  404.000
197.879;  -77.050; -610.000; -634.000
198.025;  -55.450; -475.000; -420.000
198.171;  -93.250; -602.000; -612.000
198.317;  -26.950; -401.000; -316.000
198.463;  -65.725; -655.000; -404.000
198.609;   45.000;  181.000; -137.000
198.755;  -85.975; -644.000; -410.000
198.901;  -62.850; -505.000; -424.000
199.047;  -76.675; -615.000; -488.000
199.193;  -38.000; -230.000; -468.000
199.339;  -48.600; -222.000; -369.000
199.485;   47.800;  330.000;  271.000
199.631;   13.900;  227.000;  310.000
199.777;  -64.525; -466.000; -398.000
199.923;  -66.925; -610.000; -424.000
200.069;    0.000; -141.000;  -58.000
200.215;   54.300;  128.000;  453.000
200.361;   47.150;  243.000;  477.000
200.507;  -74.275; -600.000; -373.000
200.653;  -30.975; -371.000; -194.000
200.798;  -47.925; -215.000; -125.000
200.944;    3.900; -146.000;  -41.000
201.090;   37.450;   61.000;  222.000
201.236;   -4.425; -116.000; -158.000
201.382;  128.825;  874.000;  903.000
201.528;    7.375;  -58.000;  -48.000
201.674;  -64.200; -386.000; -293.000
201.819;  -62.925; -540.000; -439.000
201.965;  -97.200; -699.000; -447.000
202.111;  -30.100; -273.000; -226.000
202.257;  -38.850; -250.000; -238.000
202.402;    4.500;   13.000;  -36.000
202.548;  -41.175; -169.000; -116.000
202.694;   71.700;  410.000; -183.000
202.840;  -93.725; -603.000; -531.000
202.985;  -74.050; -681.000; -639.000
203.131; -114.450; -832.000; -666.000
203.277;  -28.775; -199.000; -262.000
203.423;  -62.250; -434.000; -520.000
203.568;  -47.450; -462.000; -237.000
203.714;  -63.550; -535.000; -542.000
203.860;  -82.000; -682.000; -641.000
204.005;   17.250;  112.000;  167.000
204.151;   81.250;  561.000;  556.000
204.296;  -52.850; -354.000; -221.000
204.442;  -73.675; -600.000; -547.000
204.588;  -77.600; -592.000; -579.000
204.733;   24.150;  178.000;  168.000
204.879; -132.650;-1018.000; -822.000
205.025;   21.075;  -99.000;  126.000
205.170;   -1.000;  -17.000;   94.000
205.316;   75.725;  438.000;  661.000
205.461;  -92.550; -698.000; -554.000
205.607;   86.375;  609.000;  665.000
205.752;  -87.000; -626.000; -551.000
205.898;  -50.925; -501.000; -391.000
206.043;  -71.850; -578.000; -506.000
206.189;  -39.800; -243.000; -285.000
206.334;   72.575;  554.000;  606.000
206.480;  105.425;  409.000;  239.000
206.625;  -88.975; -529.000; -552.000
206.771;  -46.725; -451.000; -373.000
206.916;  -38.850; -210.000; -537.000
207.062;  -76.125; -545.000; -591.000
207.207;  -73.125; -546.000; -443.000
207.353;   57.375;  185.000;  460.000
207.498;   13.575;  196.000;   85.000
207.643;  -54.200; -501.000; -370.000
207.789; -136.525;-1069.000; -910.000
207.934;  -96.175; -665.000; -713.000
208.080;  -19.450; -154.000;   66.000
208.225;  -19.400;  -22.000;  -57.000
208.370;  -95.875; -727.000; -619.000
208.516;  -87.100; -741.000; -487.000
208.661;  -32.050; -127.000;  -69.000
208.806;  -30.150; -165.000; -171.000
208.952; -133.550;-1044.000; -731.000
209.097;   70.800;  378.000;  349.000
209.242;  -54.650; -307.000; -382.000
209.387;   77.675;  392.000;  350.000
209.533;  -47.525; -321.000; -350.000
209.678;   78.350;  472.000;  543.000
209.823;  -65.550; -408.000; -310.000
209.969; -103.875; -860.000; -757.000
210.114; -107.250; -907.000; -719.000
210.259; -109.025; -939.000; -889.000
210.404;  -16.675; -171.000;  103.000
210.549;   13.900;  108.000;    3.000
210.695;  -27.125;   -3.000;  -95.000
210.840;   44.150;   94.000;   67.000
210.985;  -72.625; -484.000; -303.000
211.130;   78.275;  268.000;  406.000
211.275;   19.475;  207.000;  199.000
211.420;  -47.750; -300.000; -289.000
211.566;  -66.375; -536.000; -489.000
211.711;   12.775;  218.000;  157.000
211.856;  -71.475; -545.000; -519.000
212.001;    9.950;  151.000;   44.000
212.146;    1.825;  153.000;   49.000
212.291;  -28.575; -210.000; -186.000
212.436;  -22.625; -280.000;   -6.000
212.581;  -91.700; -685.000; -653.000
212.726;  -86.050; -487.000; -538.000
212.871;  -48.725; -552.000; -217.000
213.016; -153.650;-1172.000;-1029.000
213.161;   75.525;  406.000;  291.000
213.306;  -76.625; -435.000; -577.000
213.451;  -97.950; -778.000; -689.000
213.596;  -50.825; -455.000; -347.000
213.741;  -44.925; -448.000; -538.000
213.886;  -80.675; -498.000; -517.000
214.031;  -23.300; -294.000; -124.000
214.176;  -61.450; -408.000; -341.000
214.321;  -22.825; -296.000; -157.000
214.466;  -24.700; -163.000;  -43.000
214.611;    0.000;  -61.000;  -10.000
214.756; -131.325; -948.000; -858.000
214.901;  -28.425; -388.000; -226.000
215.046; -128.300; -797.000; -825.000
215.191;   11.300;  128.000;   35.000
215.336;  -29.925; -157.000;  -19.000
215.480;  -56.225; -684.000; -505.000
215.625;  -23.400; -175.000;  -19.000
215.770;  -93.750; -757.000; -662.000
215.915;  -26.850;   -5.000;  -97.000
216.060;    9.425; -113.000;  -21.000
216.205; -118.325; -731.000; -779.000
216.349;  -67.650; -470.000; -533.000
216.494; -144.975; -939.000; -867.000
216.639; -105.175; -823.000; -888.000
216.784;  -94.025; -577.000; -525.000
216.929;   45.575;  392.000;  281.000
217.073;   -7.100; -244.000;  -31.000
217.218;    3.650;   78.000;  -47.000
217.363; -100.500; -656.000; -618.000
217.507;  -86.425; -623.000; -588.000
217.652; -127.625; -845.000; -874.000
217.797;  -91.475; -708.000; -659.000
217.942; -124.875; -856.000; -720.000
218.086;   66.550;  608.000;  539.000
218.231;  -20.125; -174.000;  -26.000
218.376;  -43.700; -337.000; -229.000
218.520;    1.175;  -41.000;   96.000
218.665;  -25.450; -338.000; -204.000
218.810;  -50.175; -275.000; -233.000
218.954;   26.850;  201.000;   35.000
219.099; -123.950; -713.000; -963.000
219.243;  -75.750; -589.000; -554.000
219.388;  -28.300; -264.000; -136.000
219.532;  -10.975; -116.000; -116.000
219.677;  -84.225; -564.000; -521.000
219.822;   -4.525;   33.000;   89.000
219.966;    4.600;   17.000;  -99.000
220.111;  -30.125; -328.000;  -40.000
220.255; -106.950; -797.000; -750.000
220.400;  -24.000; -180.000; -146.000
220.544;  -80.300; -516.000; -450.000
220.689;  -66.900; -422.000; -451.000
220.833;  -28.500; -123.000;  -58.000
220.978;  -49.950; -393.000; -563.000
221.122;    7.725;  319.000;  307.000
221.267; -122.300; -906.000; -837.000
221.411;  -62.025; -478.000; -394.000
221.555;   -7.100; -104.000;  -23.000
221.700;  -69.500; -329.000; -222.000
221.844;   42.150;  255.000;  272.000
221.989;  -64.200; -328.000; -311.000
222.133;  -35.150; -289.000; -307.000
222.277;   -5.325;    5.000;   78.000
222.422;   15.350;  227.000;  113.000
222.566;  -49.775; -381.000; -214.000
222.711;  -68.650; -414.000; -479.000
222.855;  -90.350; -643.000; -586.000
222.999;  -92.950; -642.000; -717.000
223.144;  -35.750; -195.000; -194.000
223.288;   43.075;  423.000;  251.000
223.432;   26.950;  184.000;  230.000
223.576;   20.075;  152.000;  -21.000
223.721;   28.750;  364.000;  273.000
223.865;  -56.875; -472.000; -475.000
224.009;  238.725; 1673.000; 1631.000
224.153;  -93.275; -660.000; -671.000
224.298;  -83.200; -531.000; -489.000
224.442;  -28.775;  -74.000;  -33.000
224.586;  -15.250; -169.000; -106.000
224.730; -109.100; -858.000; -670.000
224.875; -126.025; -739.000; -688.000
225.019;   26.000;  102.000;  188.000
225.163;   50.075;  208.000;  341.000
225.307;   22.325;   97.000;  -91.000
225.451;   40.050;  360.000;  481.000
225.595;   18.625;  264.000;  176.000
225.739;  -29.200; -170.000;  -94.000
225.884;   -0.350;   86.000;    5.000
226.028; -104.975; -760.000; -626.000
226.172;  -46.950; -260.000; -273.000
226.316; -128.725; -941.000; -902.000
226.460;  -66.550; -645.000; -493.000
226.604;  -71.225; -406.000; -400.000
226.748; -101.900; -836.000; -733.000
226.892;  -36.400; -227.000; -181.000
227.036;  -66.400; -537.000; -447.000
227.180;  -66.375; -551.000; -375.000
227.324;  -64.300; -561.000; -580.000
227.468; -120.950; -819.000; -717.000
227.612;    2.525;  242.000;  -28.000
227.756; -109.050; -845.000; -698.000
227.900;   38.875;  342.000;  441.000
228.044;  -69.825; -509.000; -290.000
228.188;   70.725;  448.000;  568.000
228.332;  -94.650; -546.000; -472.000
228.476;  -21.525; -223.000; -149.000
228.620;  -31.775; -210.000; -150.000
228.764;   72.025;  431.000;  349.000
228.908;  -30.700; -155.000;   30.000
229.052;  -61.375; -615.000; -528.000
229.195;    0.525; -172.000;   13.000
229.339;  -24.375; -235.000; -305.000
229.483;  -23.600;    5.000; -162.000
229.627;  -21.050; -156.000;  139.000
229.771;  -46.900; -218.000; -294.000
229.915;    6.850;  230.000;   79.000
230.059; -108.575; -648.000; -663.000
230.202;  -38.250; -370.000; -317.000
230.346;  -23.550; -107.000;  107.000
230.490;  -56.075; -489.000; -521.000
230.634; -120.225; -736.000; -553.000
230.777;   84.725;  478.000;  509.000
230.921;  -72.975; -450.000; -359.000
231.065;  -34.750; -246.000; -286.000
231.209;   27.025;  261.000;  265.000
231.352;   18.400;   54.000;   40.000
231.496;   17.350;  568.000;  188.000
231.640;  -92.575; -693.000; -621.000
231.783;   49.275;  546.000;  525.000
231.927;  -49.400; -294.000; -365.000
232.071; -125.850; -962.000; -736.000
232.214; -114.925; -980.000; -764.000
232.358; -111.925; -683.000; -599.000
232.502;    2.600;  -19.000;    7.000
232.645; -147.300;-1090.000; -927.000
232.789;  -15.050; -257.000; -218.000
232.933;  -42.350; -407.000; -224.000
233.076; -138.575;-1038.000; -897.000
233.220; -122.250; -752.000; -777.000
233.363;  -76.925; -669.000; -477.000
233.507;   46.425;  371.000;  129.000
233.650; -105.275; -764.000; -834.000
233.794;   57.100;  438.000;  461.000
233.938;  -68.400; -530.000; -362.000
234.081;  -24.725;  -93.000;   31.000
234.225;  -68.450; -631.000; -539.000
234.368; -121.275; -773.000; -723.000
234.512;  -39.150; -385.000; -299.000
234.655; -106.875; -582.000; -555.000
234.798;  -77.025; -493.000; -466.000
234.942; -139.850; -884.000;-1002.000
235.085;  -66.375; -651.000; -443.000
235.229;  -83.050; -405.000; -410.000
235.372;  -41.125; -247.000; -191.000
235.516;  -66.400; -397.000; -321.000
235.659;   32.225;   92.000;  121.000
235.802;  -16.350;  -38.000;  -22.000
235.946;   32.000;  335.000;  215.000
236.089;   20.125;  126.000;  250.000
236.233;   53.700;  275.000;  298.000
236.376;  -50.975; -235.000; -378.000
236.519;  -53.150; -297.000; -319.000
236.663;  -27.775; -215.000; -117.000
236.806; -135.350;-1029.000; -999.000
236.949;   58.800;  543.000;  431.000
237.092;   65.200;  412.000;  391.000
237.236;  -96.025; -589.000; -502.000
237.379;   69.225;  352.000;  428.000
237.522; -130.600; -879.000; -768.000
237.666;  -26.450; -271.000;   18.000
237.809; -125.250; -851.000; -823.000
237.952;   31.525;  469.000;  271.000
238.095;  -75.125; -447.000; -442.000
238.238;   97.425;  688.000;  700.000
238.382;    5.700;  166.000;  103.000
238.525;  -79.000; -598.000; -511.000
238.668; -148.150;-1060.000; -985.000
238.811;  -89.700; -638.000; -643.000
238.954;  -67.550; -483.000; -334.000
239.097;   94.975;  617.000;  664.000
239.241;   18.725;  394.000;  326.000
239.384;  -29.475; -254.000; -214.000
239.527;  -71.200; -424.000; -224.000
239.670; -144.600; -994.000;-1091.000
239.813; -120.500; -696.000; -658.000
239.956;   79.100;  579.000;  473.000
240.099; -123.475; -778.000; -725.000
240.242;   57.550;  428.000;  432.000
240.385;   45.000;  466.000;  450.000
240.528;  -79.500; -706.000; -473.000
240.671;    8.275;  189.000;  134.000
240.814;  -50.500; -441.000; -158.000
240.957; -111.150; -767.000; -578.000
241.100; -107.950; -779.000; -755.000
241.243; -151.500;-1234.000; -893.000
241.386;  -58.950; -508.000; -379.000
241.529;  -86.650; -735.000; -547.000
241.672;  -76.450; -566.000; -495.000
241.815; -135.850; -832.000; -808.000
241.958;  -19.675; -125.000; -182.000
242.101;  -77.275; -545.000; -390.000
242.244;  -44.700; -270.000; -325.000
242.387;  -45.550; -304.000; -246.000
242.530;   60.050;  470.000;  134.000
242.673;  -47.400; -381.000; -309.000
242.815; -128.550; -925.000; -899.000
242.958;  -72.200; -482.000; -381.000
243.101;   15.375;  132.000;  187.000
243.244;  -93.750; -564.000; -521.000
243.387;  -39.725; -313.000; -316.000
243.530; -106.975; -657.000; -674.000
243.672;   20.250;   43.000;  -92.000
243.815;  -57.100; -355.000; -283.000
243.958;   10.225;   98.000;  -26.000
244.101;   -4.325;   59.000;  -16.000
244.243;  -10.950;  -47.000;  101.000
244.386; -124.425; -761.000; -630.000
244.529;  -21.725; -132.000; -139.000
244.672; -160.775;-1154.000; -951.000
244.814; -101.075; -621.000; -794.000
244.957;  -50.675; -380.000; -304.000
245.100;  -79.600; -489.000; -489.000
245.242;  -67.050; -387.000; -374.000
245.385;   -6.325;  -59.000;  -39.000
245.528; -124.850; -871.000; -705.000
245.670;   84.200;  612.000;  634.000
245.813;  -95.725; -599.000; -547.000
245.956;  -32.925; -324.000; -275.000
246.098;  -72.825; -508.000; -650.000
246.241;   11.600;  194.000;   48.000
246.383;  -13.525; -119.000;  -73.000
246.526;  -85.400; -454.000; -525.000
246.669; -120.275; -889.000; -780.000
246.811;   15.125;  172.000;   -1.000
246.954;  -61.400; -512.000; -426.000
247.096;  -16.675;  -84.000;   -6.000
247.239;  -80.750; -482.000; -445.000
247.381;  -66.925; -647.000; -488.000
247.524;   75.075;  645.000;  679.000
247.666;  -10.525;   58.000;   11.000
247.809; -121.300; -887.000; -691.000
247.951;   -6.925;  -75.000;  138.000
248.094;   20.575;  432.000;  308.000
248.236; -168.600;-1262.000;-1238.000
248.378;  -14.100; -356.000;  -81.000
248.521;  -33.675; -334.000; -337.000
248.663;  -51.875; -236.000; -267.000
248.806;  -15.775; -300.000; -266.000
248.948; -101.925; -886.000; -763.000
249.090;  -47.200; -428.000; -398.000
249.233;  -62.000; -344.000; -381.000
249.375;  -56.650; -474.000; -451.000
249.518;  -35.875;  -83.000; -133.000
249.660;   -6.600; -103.000;    3.000
249.802; -182.550;-1303.000;-1189.000
249.945;  -81.625; -612.000; -540.000
250.087; -126.175; -834.000; -768.000
250.229;  -60.325; -362.000; -480.000
250.371;  -83.900; -494.000; -439.000
250.514;  -56.250; -310.000; -244.000
250.656;  -78.475;   69.000;  102.000
250.798; -117.800; -849.000; -800.000
250.940;  -73.850; -322.000; -322.000
251.083;  -36.825; -335.000; -111.000
251.225;   51.025;  338.000;  310.000
251.367;  -44.025; -274.000; -373.000
251.509;  -47.600; -265.000; -210.000
251.651; -107.225; -731.000; -671.000
251.794;   74.500;  538.000;  632.000
251.936; -107.300; -821.000; -747.000
252.078;  -93.425; -540.000; -461.000
252.220;  -78.000; -645.000; -477.000
252.362;   78.350;  344.000;  462.000
252.504;  -76.650; -677.000; -584.000
252.646; -119.100; -875.000; -722.000
252.788;    3.325;   14.000; -128.000
252.931;  -43.425; -257.000; -253.000
253.073;  -41.275; -376.000; -317.000
253.215;  -10.350;  141.000;  122.000
253.357;  -20.800;   82.000; -153.000
253.499;  -64.950; -374.000; -234.000
253.641;  -90.950; -749.000; -594.000
253.783; -105.775; -609.000; -527.000
253.925;  -86.725; -586.000; -591.000
254.067; -114.575; -744.000; -667.000
254.209;  -32.925; -391.000; -259.000
254.351; -145.150; -865.000; -883.000
254.493;  -84.600; -441.000; -417.000
254.635; -138.550; -936.000; -818.000
254.777;  -97.625; -752.000; -687.000
254.918;  -78.250; -512.000; -430.000
255.060;  -49.175; -551.000; -395.000
255.202;  -66.075; -473.000; -261.000
255.344;  -79.025; -658.000; -455.000
255.486;  -77.025; -471.000; -406.000
255.628; -110.950; -780.000; -781.000
255.770; -105.475; -676.000; -536.000
255.912;  -69.350; -559.000; -468.000
256.053;  -97.550; -730.000; -508.000
256.195;  151.000; 1008.000;  903.000
256.337; -115.900; -861.000; -595.000
256.479;   79.500;  532.000;  416.000
256.621;  -57.100; -394.000; -212.000
256.762;  -98.075; -789.000; -742.000
256.904;   37.300;  485.000;  487.000
257.046;  -45.200; -381.000; -271.000
257.188;  -47.750; -351.000; -264.000
257.329;  -73.675; -525.000; -464.000
257.471; -125.100; -939.000; -807.000
257.613;  -69.150; -584.000; -498.000
257.755; -153.900;-1073.000; -982.000
257.896;   28.750;  286.000;  392.000
258.038;  -80.425; -403.000; -352.000
258.180;  -51.300; -354.000; -279.000
258.321;  -86.775; -581.000; -457.000
258.463;   -5.900;  -71.000;  133.000
258.605; -104.925; -562.000; -570.000
258.746; -111.400; -886.000; -772.000
258.888; -151.925;-1026.000;-1020.000
259.029;    9.200;  121.000;   -8.000
259.171; -100.025; -614.000; -550.000
259.313;   -2.450;  -49.000;  -47.000
259.454;  -77.975; -536.000; -414.000
259.596;  -56.425; -483.000; -390.000
259.737;  -75.225; -590.000; -474.000
259.879;   46.350;  217.000;  311.000
260.020;   82.925;  901.000;  636.000
260.162;  -22.975; -146.000; -253.000
260.303; -122.350; -768.000; -687.000
260.445;  -82.950; -609.000; -613.000
260.586;   24.225;  392.000;  157.000
260.728;  -49.425; -360.000; -248.000
260.869; -126.800; -350.000; -343.000
261.011;   69.525;  706.000;  537.000
261.152;  -63.200; -479.000; -319.000
261.293;  -87.675; -576.000; -595.000
261.435;  -41.600; -219.000; -184.000
261.576;  -46.650; -455.000; -325.000
261.718;   43.050;  420.000;  470.000
261.859; -133.800; -940.000; -949.000
262.000; -137.200; -951.000;-1016.000
262.142;  -20.700;  -52.000;  -60.000
262.283; -133.600; -808.000; -691.000
262.424;  -86.100; -666.000; -625.000
262.566; -172.900;-1161.000; -983.000
262.707; -114.025; -840.000; -830.000
262.848; -125.300; -769.000; -726.000
262.990;  -63.450; -362.000; -345.000
263.131;   82.475;  650.000;  681.000
263.272;  -18.725;  -61.000;  -41.000
263.413;  -99.075; -589.000; -561.000
263.555;  -65.850; -669.000; -143.000
263.696;  -89.675; -550.000; -641.000
263.837;  -48.600; -449.000; -551.000
263.978;   -5.925;   -5.000;  -77.000
264.119;  -51.425; -283.000; -264.000
264.261; -120.450; -847.000; -630.000
264.402;   -0.650;   33.000;   40.000
264.543;  -89.050; -509.000; -524.000
264.684;  -10.075;   61.000;  -50.000
264.825;  -77.350; -816.000; -538.000
264.966;  -10.875;  -84.000;  -67.000
265.107; -112.725; -646.000; -670.000
265.248; -124.575; -825.000; -812.000
265.390;  -22.475;  152.000;   -9.000
265.531;  -24.575; -238.000; -107.000
265.672;  -87.825; -557.000; -630.000
265.813;   64.700;  563.000;  439.000
265.954; -165.825; -959.000; -940.000
266.095;  -28.125; -372.000; -322.000
266.236; -107.175; -686.000; -548.000
266.377;  -55.450; -243.000; -297.000
266.518;  -72.200; -619.000; -547.000
266.659;   16.700;  170.000;  268.000
266.800;    6.925;   83.000;   85.000
266.941;  -75.400; -487.000; -478.000
267.082;    1.850;  354.000;   99.000
267.223;  -52.475; -344.000; -273.000
267.364; -123.875; -892.000; -686.000
267.504;  -17.550;    3.000;  135.000
267.645;   -2.200;  160.000;   67.000
267.786;  -26.000; -147.000;  -86.000
267.927;  -86.775; -473.000; -379.000
268.068;  -17.400; -186.000;  -61.000
268.209;  -51.375; -175.000; -413.000
268.350;  -64.500; -388.000; -532.000
268.490;  -94.275; -648.000; -521.000
268.631;   29.775;  127.000;  225.000
268.772; -109.625; -874.000; -647.000
268.913;  -57.300; -328.000; -476.000
269.054;  -24.875; -117.000;   12.000
269.194;  -65.025; -418.000; -402.000
269.335; -163.350;-1137.000;-1074.000
269.476;  -19.250;   33.000;  -35.000
269.617;  -53.800; -347.000; -392.000
269.757;  -86.050; -713.000; -646.000
269.898; -113.400; -856.000; -613.000
270.039;  -74.425; -415.000; -405.000
270.180; -133.525; -952.000; -816.000
270.320;  -27.175; -190.000; -250.000
270.461;  -50.400; -277.000; -249.000
270.602;   -6.775; -186.000; -156.000
270.742; -124.600; -868.000; -943.000
270.883;  -56.600; -442.000; -390.000
271.023;  -63.450; -358.000; -357.000
271.164;  -70.225; -607.000; -528.000
271.305; -113.250; -666.000; -654.000
271.445;  -90.250; -722.000; -683.000
271.586;  -85.000; -462.000; -283.000
271.726;  -59.575; -397.000; -322.000
271.867;  -77.150; -594.000; -534.000
272.008;  137.350; -473.000; -285.000
272.148;  100.425;  462.000;  468.000
272.289;    1.425; -113.000; -181.000
272.429;    3.925;   19.000;  185.000
272.570;  -82.100; -633.000; -737.000
272.710; -117.000; -825.000; -775.000
272.851;  -35.525;  113.000; -130.000
272.991; -169.475;-1173.000;-1077.000
273.131;  -69.050; -419.000; -459.000
273.272; -108.450; -683.000; -723.000
273.412;   -0.050; -143.000;  -31.000
273.553;  -69.100; -488.000; -507.000
273.693;  146.775;  913.000;  858.000
273.834; -109.050; -894.000; -692.000
273.974;  -65.275; -664.000; -615.000
274.114; -105.550; -772.000; -560.000
274.255;   66.900;  414.000;  373.000
274.395;  -16.325; -180.000; -125.000
274.535;   35.375;  199.000;  350.000
274.676;   26.850;  225.000;   94.000
274.816;   -6.350;  110.000;   34.000
274.956;  -96.225; -624.000; -690.000
275.097;  -74.425;-1014.000; -922.000
275.237; -119.125; -913.000; -803.000
275.377; -111.300; -778.000; -689.000
275.517; -163.650; -878.000; -937.000
275.658;  -58.100; -590.000; -555.000
275.798;  -95.150; -606.000; -413.000
275.938;   12.525;  215.000;  323.000
276.078;  -88.650; -626.000; -395.000
276.218;    3.025;   99.000;  104.000
276.359; -146.750;-1026.000;-1024.000
276.499;  -73.050; -605.000; -446.000
276.639;  -47.175; -305.000; -151.000
276.779;  -53.550; -475.000; -357.000
276.919; -118.725; -783.000; -624.000
277.059;  -29.550; -261.000; -212.000
277.199;  -58.850; -357.000; -259.000
277.340;   40.125;  287.000;  175.000
277.480; -128.475; -840.000; -693.000
277.620;   21.250;  192.000;   16.000
277.760; -201.475;-1533.000;-1294.000
277.900;    9.250;  113.000;   33.000
278.040;    9.175;  137.000;  159.000
278.180;   33.400;  270.000;  170.000
278.320;  -22.900;   21.000;   56.000
278.460;  -79.100; -443.000; -469.000
278.600; -106.450; -708.000; -598.000
278.740;   44.050;  448.000;  224.000
278.880;  -93.025; -768.000; -791.000
279.020;  -21.500; -194.000; -144.000
279.160; -105.175; -672.000; -595.000
279.300; -123.300; -926.000; -873.000
279.440; -102.750; -709.000; -622.000
279.579;  -39.475;-1014.000; -929.000
279.719;  -60.075; -410.000; -394.000
279.859;   64.125;   -4.000;   41.000
279.999;   13.450; -208.000;  101.000
280.139;  -45.800; -435.000; -387.000
280.279;  -85.425; -708.000; -745.000
280.419;  -10.675; -229.000; -147.000
280.559;  -43.400; -259.000; -180.000
280.698; -102.875; -790.000; -639.000
280.838; -109.225; -778.000; -800.000
280.978; -111.900; -846.000; -790.000
281.118; -127.200; -811.000; -704.000
281.257;   -8.550;   24.000;    6.000
281.397; -140.125;-1094.000; -960.000
281.537;  -90.750; -599.000; -712.000
281.677;  -30.325; -150.000; -101.000
281.816; -103.125; -700.000; -630.000
281.956;  -48.600; -193.000; -257.000
282.096;  -59.875; -539.000; -396.000
282.235; -110.900; -672.000; -638.000
282.375;  -25.900; -243.000;  -98.000
282.515;  -96.275; -715.000; -707.000
282.654;   15.025;   29.000;  106.000
282.794;   23.700;  388.000;  244.000
282.934;  -60.650; -530.000; -491.000
283.073; -138.850;-1030.000; -857.000
283.213;  -59.250; -460.000; -467.000
283.353;  -65.675; -408.000; -349.000
283.492;  -42.900; -264.000; -296.000
283.632;  -36.025; -254.000; -168.000
283.771; -104.675; -859.000; -730.000
283.911;  -60.725; -369.000; -260.000
284.050; -107.625; -794.000; -748.000
284.190; -178.900;-1229.000;-1096.000
284.329; -152.450;-1055.000; -964.000
284.469;  -91.500; -516.000; -591.000
284.608;  -59.975; -559.000; -598.000
284.748;  -89.000; -614.000; -570.000
284.887;   -1.575;  -87.000;  -20.000
285.027; -130.125; -844.000; -892.000
285.166;  -40.625; -192.000; -249.000
285.306;  -25.300; -116.000;  -33.000
285.445;  -40.475; -229.000; -343.000
285.584; -106.675; -630.000; -494.000
285.724;  -52.650; -282.000; -322.000
285.863; -119.875; -857.000; -507.000
286.002;  -58.600; -366.000; -276.000
286.142; -114.350; -715.000; -622.000
286.281;  -79.525; -525.000; -493.000
286.420;  -91.200; -554.000; -417.000
286.560;  104.325;  653.000;  623.000
286.699; -148.050; -958.000; -912.000
286.838;  -90.375; -590.000; -591.000
286.978;  -98.600; -533.000; -537.000
287.117; -144.675;-1085.000; -950.000
287.256;  -50.950; -228.000; -211.000
287.395;  -61.650; -197.000; -378.000
287.535;  -58.650; -370.000; -298.000
287.674;  -82.200; -509.000; -484.000
287.813;   45.825;  661.000;  533.000
287.952; -137.200;-1010.000; -871.000
288.091; -150.825;-1049.000; -915.000
288.231;    1.800;   13.000;   15.000
288.370; -188.550;-1217.000;-1200.000
288.509; -100.825; -728.000; -645.000
288.648; -102.725; -770.000; -548.000
288.787;  -40.425; -243.000;  -87.000
288.926;  -85.575; -454.000; -475.000
289.065;  113.400;  859.000;  672.000
289.204;  -68.125; -377.000; -217.000
289.344; -104.975; -791.000; -690.000
289.483;   19.775;  416.000;  304.000
289.622;  -53.250; -291.000; -149.000
289.761;  -39.750; -309.000; -166.000
289.900; -104.500; -785.000; -626.000
290.039;  -19.650;  -12.000;  -95.000
290.178;  -49.850; -274.000; -180.000
290.317;  -89.200; -618.000; -479.000
290.456;  -70.075; -463.000; -451.000
290.595; -164.450; -961.000; -833.000
290.734; -142.775; -904.000; -891.000
290.873;  -74.900; -456.000; -420.000
291.011; -129.275; -833.000; -843.000
291.150; -121.300; -770.000; -682.000
291.289;  -30.300; -343.000; -110.000
291.428; -106.075; -599.000; -480.000
291.567;  -54.525; -370.000; -442.000
291.706;   -6.500;  109.000;  154.000
291.845;  -94.700; -597.000; -505.000
291.984; -187.375;-1234.000;-1061.000
292.122;   68.750;  602.000;  582.000
292.261;   37.575;  620.000;  463.000
292.400;   12.175; -144.000;  211.000
292.539; -131.700; -959.000; -813.000
292.678;  -44.000; -325.000; -300.000
292.816; -171.550;-1136.000; -965.000
292.955;  -99.100; -844.000; -684.000
293.094;  -43.625; -173.000; -337.000
293.233;  -52.525; -556.000; -400.000
293.371;  -44.825; -225.000;  -84.000
293.510; -110.050; -866.000; -780.000
293.649; -135.075; -959.000; -924.000
293.787;  -92.800;-1083.000;-1012.000
293.926;   -8.200; -113.000;  -32.000
294.065;  -57.400; -379.000; -290.000
294.203;   42.750;  298.000;  406.000
294.342;   23.775;   74.000;  156.000
294.481; 6151.975;51180.000; -836.000
294.619;  -27.450; -425.000; -582.000
294.758; -170.075;-1230.000;-1137.000
294.896;   58.950; -125.000;    5.000
295.035; -149.975;-1040.000;-1006.000
295.174; -126.275;-1082.000; -954.000
295.312;  -48.600; -323.000; -203.000
295.451;  -19.725; -307.000; -428.000
295.589;  -59.825; -389.000; -518.000
295.728;   11.300; -292.000; -165.000
295.866;  -21.500;  -36.000;  -51.000
296.005;  -76.925; -584.000; -341.000
296.143;  -82.300; -558.000; -596.000
296.282; -114.250; -957.000; -881.000
296.420;  -82.900; -657.000; -557.000
296.559; -100.550; -892.000; -633.000
296.697;  -11.525; -847.000; -665.000
296.835;   -7.300;-1141.000;-1002.000
296.974;   33.675;  -23.000;   39.000
297.112;  -11.150; -443.000; -504.000
297.251; -103.975; -815.000; -755.000
297.389;   55.650; -576.000; -438.000
297.527;   24.950; -145.000;  -83.000
297.666;  -58.225; -486.000; -438.000
297.804;  -66.525; -404.000; -264.000
297.942;  -13.200; -136.000; -161.000
298.081;    2.200; -183.000;   63.000
298.219;   56.075;  -17.000;  -19.000
298.357;   33.175; -144.000;  -71.000
298.495;  -10.675; -810.000; -812.000
298.634;   49.425;  245.000;  219.000
298.772;   22.975; -220.000; -338.000
298.910;  -30.800; -309.000; -182.000
299.048;  -19.425; -130.000; -153.000
299.187;  -44.775; -350.000; -250.000
299.325;   13.125;   52.000;  122.000
299.463;   19.600; -389.000; -299.000
299.601;   69.075; -327.000; -271.000
299.739; -127.950; -908.000; -883.000
299.877;  -99.075; -791.000; -703.000
300.016;  -80.450;-1095.000; -935.000
300.154;  113.150;  -19.000; -161.000
300.292;   21.300; -428.000; -348.000
300.430;    9.750; -408.000; -291.000
300.568; -131.425; -940.000; -874.000
300.706;  -59.625; -366.000; -469.000
300.844; -108.550;-1108.000; -979.000
300.982;   98.125;  246.000;  282.000
301.120; -126.500; -965.000; -866.000
301.258;  -90.275; -812.000; -705.000
301.396;   30.100;  104.000;  -41.000
301.534;   33.250; -218.000; -293.000
301.672;  -42.625; -664.000; -521.000
301.810;   -7.975; -613.000; -545.000
301.948;   80.500;   53.000;  149.000
302.086;  471.825; -250.000;  -32.000
302.224;  743.275; -610.000; -585.000
302.362;    8.550; -558.000; -622.000
302.500;  -57.150; -923.000; -893.000
302.638;   69.025;  128.000;  245.000
302.776;  -10.400; -352.000; -408.000
302.913;   28.250;  447.000;  236.000
303.051;  -15.000;  -86.000;  -23.000
303.189;   46.425;   90.000;  118.000
303.327;  -56.350; -341.000; -256.000
303.465;  -89.725; -832.000; -588.000
303.603; -103.200; -805.000; -604.000
303.740;   97.800;  417.000;  241.000
303.878;  -17.175; -800.000; -759.000
304.016; -102.025; -915.000; -790.000
304.154; -147.050;-1123.000;-1152.000
304.291;  -51.200; -505.000; -554.000
304.429;    3.300;  102.000;   74.000
304.567; -137.275; -908.000; -893.000
304.705;  -75.375; -408.000; -515.000
304.842;   55.100; -616.000; -540.000
304.980;   27.825;  215.000;   35.000
305.118;   14.175; -367.000; -365.000
305.255;  -97.675; -945.000; -927.000
305.393;   60.775;  178.000;  239.000
305.531; -118.350;-1173.000; -956.000
305.668;  -71.925; -663.000; -582.000
305.806;   63.575; -358.000; -439.000
305.943;   79.175; -629.000; -637.000
306.081;   27.800; -378.000; -267.000
306.219; -117.750; -863.000; -748.000
306.356;   -2.875;  158.000;   27.000
306.494;  116.800;  981.000;  761.000
306.631;  -19.000;  -11.000;  -55.000
306.769;   -5.625; -613.000; -485.000
306.906;  -33.175; -284.000; -258.000
307.044;  -67.600; -473.000; -488.000
307.181;  -72.925; -410.000; -332.000
307.319;    6.650;  112.000;   87.000
307.456; -188.500;-1191.000;-1153.000
307.594; -108.050; -980.000; -727.000
307.731;  -29.250; -371.000; -164.000
307.868;  -12.275;  -15.000;   20.000
308.006; -140.425; -961.000; -847.000
308.143;  -68.475; -618.000; -330.000
308.281;   76.650;  -37.000; -254.000
308.418;  -33.775; -748.000; -640.000
308.555;  -88.850; -400.000; -250.000
308.693;  -75.675; -577.000; -573.000
308.830; -114.525; -712.000; -657.000
308.967;  -11.550; -215.000;  -95.000
309.105;  -58.250; -507.000; -396.000
309.242;   -7.700; -468.000; -367.000
309.379;  141.275; -577.000; -655.000
309.517;  -83.625; -936.000; -948.000
309.654; -120.375; -910.000; -734.000
309.791;  -68.025; -662.000; -580.000
309.928; -147.000; -977.000; -914.000
310.065;  154.925;  819.000;  697.000
310.203;  -41.625; -825.000; -850.000
310.340;  -27.450; -465.000; -321.000
310.477;  -93.225; -412.000; -516.000
310.614;  -67.150; -383.000; -473.000
310.751;  -92.975; -427.000; -518.000
310.889;  -19.350;    1.000;   11.000
311.026; -170.900;-1161.000; -939.000
311.163;  -54.200; -386.000; -380.000
311.300;  -92.600; -512.000; -479.000
311.437;  -86.525; -658.000; -619.000
311.574; -173.600;-1226.000; -985.000
311.711;  -70.300; -595.000; -433.000
311.848;  -46.175; -380.000; -388.000
311.985;   -5.475;  270.000;   93.000
312.122; -128.350; -932.000; -762.000
312.259; -125.200; -941.000; -994.000
312.396; -103.000; -508.000; -551.000
312.533;  -99.300; -812.000; -790.000
312.670; -148.950;-1070.000; -898.000
312.807;  -43.425; -352.000; -367.000
312.944;  -91.700; -513.000; -611.000
313.081;  -30.225; -150.000; -415.000
313.218; -112.375;-1111.000; -867.000
313.355;  -20.225; -531.000; -449.000
313.492;  -19.875; -455.000; -292.000
313.629;  134.900;  815.000;  735.000
313.766; -170.850;-1176.000;-1008.000
313.902;  -21.600; -186.000;   21.000
314.039;  -53.675; -372.000; -289.000
314.176;   27.100;  286.000;  192.000
314.313;  -91.125; -569.000; -473.000
314.450;  -74.000; -788.000; -684.000
314.587;  -66.225; -468.000; -480.000
314.723;   -1.975;  -78.000;  130.000
314.860;   24.375;  318.000;  332.000
314.997;   26.500;  223.000;  142.000
315.134;  -40.575; -385.000; -368.000
315.270;  -38.350; -480.000; -496.000
315.407; -147.300;-1094.000; -967.000
315.544;  -65.525; -657.000; -538.000
315.681;  -84.375; -681.000; -565.000
315.817;   14.450; -133.000; -176.000
315.954;   -4.875; -613.000; -392.000
316.091; -134.900;-1045.000;-1023.000
316.227;  -41.775;  -71.000; -179.000
316.364;    1.050;   23.000;    6.000
316.500;  -50.625; -113.000; -300.000
316.637;  -54.500; -181.000; -302.000
316.774;  -92.550; -625.000; -358.000
316.910; -103.250; -598.000; -629.000
317.047;  -85.450; -487.000; -351.000
317.183;  -60.875; -435.000; -566.000
317.320;   -7.400; -367.000; -321.000
317.456;  -73.400; -733.000; -805.000
317.593;  -99.950; -598.000; -641.000
317.729;    4.175;  168.000;  -67.000
317.866; -208.500;-1434.000;-1285.000
318.002;  -97.300; -708.000; -948.000
318.139; -112.725; -883.000; -867.000
318.275; -105.000;-1003.000; -738.000
318.412;  -87.525; -517.000; -336.000
318.548;  -46.975; -751.000; -720.000
318.685; -107.600; -985.000; -888.000
318.821;  -94.475; -762.000; -735.000
318.957;  -17.625;   34.000;  -23.000
319.094;   40.150;  297.000;  154.000
319.230;  -72.250; -756.000; -742.000
319.367;   83.500; -471.000; -520.000
319.503;   18.250; -538.000; -436.000
319.639; -118.100; -877.000; -793.000
319.775;  -94.575; -750.000; -685.000
319.912;  -62.400; -424.000; -519.000
320.048; -114.675;-1184.000;-1184.000
320.184;   69.000;   59.000;   70.000
320.321;  -69.325; -497.000; -467.000
320.457;   68.025;  475.000;  662.000
320.593;  -81.150; -375.000; -382.000
320.729; -111.200; -732.000; -734.000
320.866;  -93.875; -577.000; -635.000
321.002;  -98.925; -759.000; -809.000
321.138;  -35.575; -135.000; -211.000
321.274;   58.925; -148.000; -115.000
321.410;  -42.950; -585.000; -353.000
321.546;  -55.125;-1011.000; -911.000
321.683;   30.075;  400.000;  185.000
321.819;  -15.525;  -48.000; -117.000
321.955; -129.875; -743.000; -722.000
322.091;  -36.525; -585.000; -540.000
322.227;  -22.900; -382.000; -202.000
322.363;  -36.100; -320.000; -215.000
322.499;  -54.775; -343.000; -331.000
322.635;  131.025;  636.000;  443.000
322.771;   12.700; -139.000;   12.000
322.907;   69.375;  129.000;  327.000
323.043;  -30.550; -115.000; -206.000
323.179;  -65.400; -394.000; -363.000
323.315;  -13.300; -401.000; -371.000
323.451;   59.125; -328.000; -236.000
323.587;   39.975;  -60.000;  -77.000
323.723;  -22.650; -682.000; -601.000
323.859;  -30.575; -258.000;  -76.000
323.995;  -41.000; -467.000; -409.000
324.131; -132.900; -967.000; -892.000
324.267;  -44.175; -254.000; -276.000
324.402; -144.700; -960.000; -983.000
324.538;  -20.125; -279.000; -104.000
324.674;   13.875;  164.000;   77.000
324.810;   92.100;  226.000;  308.000
324.946;  -29.075; -810.000; -658.000
325.082;  -77.475; -568.000; -475.000
325.217;  -16.450;  -62.000;   16.000
325.353; -103.750; -764.000; -659.000
325.489;  -85.625; -540.000; -506.000
325.625;  -70.800; -579.000; -525.000
325.760;   51.275;  517.000;  376.000
325.896;  -39.775; -515.000; -702.000
326.032;  -77.000; -403.000; -352.000
326.168;  -64.075; -462.000; -369.000
326.303;  -75.400; -352.000; -461.000
326.439;  -32.050; -336.000; -276.000
326.575;   -6.350; -190.000;  -29.000
326.710;   -9.925; -156.000;  -30.000
326.846;  -31.725;  146.000;  103.000
326.982; -106.600; -530.000; -548.000
327.117;  -74.425; -481.000; -442.000
327.253;  -90.325; -745.000; -742.000
327.388; -151.425;-1137.000;-1153.000
327.524;  -82.000; -811.000; -578.000
327.659;  -26.025;  -58.000;  -22.000
327.795;  -24.125;   69.000;   45.000
327.931;  -93.575; -723.000; -499.000
328.066;  -21.425; -417.000; -276.000
328.202;  -54.225;   12.000; -129.000
328.337;  106.750;  957.000;  713.000
328.473;   31.725;  -12.000;  -74.000
328.608;  -25.525; -256.000; -267.000
328.743; -104.200; -799.000; -664.000
328.879;    8.975;  214.000;  114.000
329.014;  -40.075; -102.000; -122.000
329.150;  -90.675; -358.000; -483.000
329.285;  -91.100; -465.000; -466.000
329.421;  -64.475; -548.000; -246.000
329.556;  -34.650;  -36.000;   85.000
329.691;  -98.100; -633.000; -615.000
329.827;  -82.800; -626.000; -480.000
329.962;  -43.075;  131.000; -301.000
330.097;  -94.575; -673.000; -585.000
330.233;  -58.925; -410.000; -223.000
330.368; -129.700; -839.000; -628.000
330.503;  -24.650;    3.000;   98.000
330.638;   -6.725;  -93.000; -125.000
330.774;  -83.325; -609.000; -530.000
330.909;  -58.650; -434.000; -244.000
331.044; -120.075; -714.000; -708.000
331.179; -188.525;-1217.000;-1109.000
331.315;   -3.450;   77.000;   20.000
331.450;   17.075;  157.000;  285.000
331.585;  -92.025; -805.000; -706.000
331.720;  -91.375; -510.000; -460.000
331.855;   -5.225;  -35.000; -102.000
331.990;  247.625;   62.000;  138.000
332.126;  131.350; -110.000;   71.000
332.261;  -22.000; -379.000; -265.000
332.396;    3.425; -135.000; -242.000
332.531; -106.200;-1074.000;-1031.000
332.666;   36.175; -519.000; -363.000
332.801; -110.750; -726.000; -807.000
332.936;  -17.750; -192.000; -122.000
333.071; -130.100; -870.000; -817.000
333.206;   25.250;  307.000;  379.000
333.341;   28.200;  344.000;  418.000
333.476; -101.350; -627.000; -623.000
333.611;  -48.225; -251.000; -173.000
333.746;  -46.750; -381.000; -464.000
333.881; -141.325; -973.000; -935.000
334.016; -134.275; -936.000; -917.000
334.151; -138.125; -746.000; -702.000
334.286;   28.275;  152.000;  186.000
334.421;  -25.325; -125.000; -178.000
334.556;  -86.925; -611.000; -567.000
334.690; -106.150; -631.000; -577.000
334.825;   52.425;  381.000;   83.000
334.960;  -73.675; -285.000; -413.000
335.095;   -0.600;  135.000;  -91.000
335.230; -135.350; -722.000; -738.000
335.365; -141.625;-1084.000; -990.000
335.499; -153.425;-1108.000;-1037.000
335.634;   12.900;    9.000;  534.000
335.769; -114.300; -755.000; -720.000
335.904;  -66.525; -603.000; -561.000
336.038;  -67.900; -735.000; -657.000
336.173; -129.825;-1206.000;-1194.000
336.308;    5.825; -116.000; -189.000
336.443;   17.875; -544.000; -634.000
336.577;  -91.900; -936.000; -787.000
336.712;   61.525;   -4.000;  -12.000
336.847;  -65.250; -724.000; -607.000
336.981;   45.375; -272.000; -208.000
337.116;  240.900;  615.000;  501.000
337.250;  106.825; -434.000; -421.000
337.385;  245.275; -297.000; -208.000
337.520;  102.025; -632.000; -603.000
337.654;  -50.850; -215.000; -126.000
337.789; -130.625; -989.000; -933.000
337.923;  -42.675; -104.000; -205.000
338.058; -103.775; -673.000; -738.000
338.192;  -56.750; -611.000; -488.000
338.327;  -13.325;  -18.000; -155.000
338.461;  -79.500; -299.000; -469.000
338.596; -100.075; -780.000; -638.000
338.730; -123.850; -767.000; -803.000
338.865;   86.775;  -46.000; -140.000
338.999;  -51.175; -846.000; -702.000
339.134;  -30.700; -634.000; -536.000
339.268;  -10.825; -741.000; -603.000
339.403;  347.200; -740.000; -775.000
339.537;  102.750; -894.000; -820.000
339.671; -123.975; -829.000; -813.000
339.806;  -65.850; -556.000; -512.000
339.940;   19.950; -261.000; -235.000
340.074; -102.850; -685.000; -510.000
340.209;  -47.150; -351.000; -230.000
340.343; -107.325; -517.000; -573.000
340.477;  139.500;  998.000; 1036.000
340.612;  -65.450;-1033.000; -900.000
340.746;  135.575; -199.000; -243.000
340.880;  -97.475; -924.000; -785.000
341.014;  -27.100;  -45.000; -154.000
341.149; -130.650; -756.000; -718.000
341.283; -114.175; -839.000; -754.000
341.417; -112.650;-1124.000; -938.000
341.551;   81.250; -768.000; -708.000
341.685;  -58.350; -633.000; -611.000
341.820;  -59.900; -562.000; -493.000
341.954;  -82.275; -218.000; -349.000
342.088; -166.425;-1102.000;-1019.000
342.222;   43.275;  565.000;  618.000
342.356;  -75.050; -395.000; -335.000
342.490; -115.975; -880.000; -841.000
342.624;  -53.975; -339.000; -242.000
342.758;  -17.825; -364.000; -312.000
342.892;  -81.175; -710.000; -585.000
343.026;  -39.250;  -58.000; -116.000
343.160;  -73.075; -426.000; -376.000
343.294;  -81.900; -474.000; -337.000
343.428;  -45.025; -488.000; -448.000
343.562;  -32.425; -172.000;  -23.000
343.696;  -41.475; -385.000; -314.000
343.830;  -45.050; -362.000; -356.000
343.964;   -1.275; -231.000; -168.000
344.098;  721.500;  199.000;   70.000
344.232;  595.825; -266.000; -127.000
344.366;   54.175; -567.000; -453.000
344.500;   -1.075; -665.000; -744.000
344.634;   -7.950; -324.000; -164.000
344.768;  -27.175; -531.000; -341.000
344.902;    1.150;  278.000;  256.000
345.035;  -71.400; -556.000; -496.000
345.169; -135.350; -933.000; -656.000
345.303;  -47.900; -308.000; -482.000
345.437; -107.575; -826.000; -717.000
345.571;  -69.975; -675.000; -594.000
345.704;  -73.400; -309.000; -532.000
345.838;  -27.325; -331.000; -284.000
345.972;  -57.700; -543.000; -495.000
346.106;  155.575; -179.000; -190.000
346.239;  376.850; -312.000; -243.000
346.373;   -8.050; -343.000; -302.000
346.507; -150.825; -950.000; -962.000
346.640;  104.600;  -30.000;   13.000
346.774;  -67.450; -650.000; -797.000
346.908;  -10.325; -138.000;  -11.000
347.041; -110.950; -646.000; -593.000
347.175;    6.700;  259.000;   27.000
347.309;  -88.575; -698.000; -628.000
347.442; -114.600; -883.000; -732.000
347.576;  224.950;  670.000;  668.000
347.709;  138.825; -123.000;  -52.000
347.843; -109.650; -933.000; -825.000
347.976;   32.275;  235.000;  294.000
348.110; -191.200;-1268.000;-1186.000
348.243; -110.225; -679.000; -772.000
348.377;    9.650;  -26.000;   60.000
348.510;   58.800;  403.000;  540.000
348.644;  -55.475;  -37.000; -159.000
348.777;  -13.825;  180.000;  191.000
348.911;  -51.300; -142.000; -112.000
349.044;  137.450;  471.000;  448.000
349.178;   79.750;-1069.000;-1006.000
349.311;  101.675;  141.000;  255.000
349.444;  -11.175; -927.000; -813.000
349.578;  -21.975; -347.000; -200.000
349.711; -126.975; -959.000; -862.000
349.845;  -35.225; -661.000; -591.000
349.978; -158.575;-1224.000;-1137.000
350.111;  -85.625; -546.000; -612.000
350.244;  -96.025; -596.000; -700.000
350.378;  -21.975; -392.000; -393.000
350.511;  -93.475; -393.000; -426.000
350.644; -125.975; -808.000; -806.000
350.778;  -17.025;  168.000;  104.000
350.911;   -2.200;  134.000;  140.000
351.044; -126.550; -685.000; -615.000
351.177;  -42.950; -321.000; -281.000
351.310;  -32.000;    3.000; -131.000
351.444; -104.475; -888.000; -788.000
351.577;   88.825;  140.000;   90.000
351.710;   80.850;  593.000;  417.000
351.843;  -41.675; -165.000;  -77.000
351.976;  -14.750;  149.000;  -79.000
352.109; -113.450; -621.000; -612.000
352.242;  -45.900; -464.000; -419.000
352.376;  -88.300; -580.000; -636.000
352.509;   99.100; -437.000; -356.000
352.642;  -36.675; -654.000; -604.000
352.775;   30.775; -141.000;  -98.000
352.908; -136.275; -933.000; -904.000
353.041; -104.925; -814.000; -824.000
353.174;  -73.625; -551.000; -424.000
353.307;  -97.925; -753.000; -764.000
353.440;   42.075;  541.000;  453.000
353.573; -135.725; -957.000;-1008.000
353.706;  -43.475; -384.000; -558.000
353.839;  -40.650; -264.000; -220.000
353.971;  -88.100; -657.000; -512.000
354.104;  -90.950; -896.000; -835.000
354.237;  -67.875; -627.000; -662.000
354.370;  -98.650; -846.000; -879.000
354.503; -207.100;-1231.000;-1308.000
354.636;  -54.675; -529.000; -348.000
354.769; -135.875; -937.000; -860.000
354.902;  -15.550; -230.000; -139.000
355.034;  -22.525; -164.000; -220.000
355.167;  -40.300; -262.000; -162.000
355.300; -107.975;-1061.000; -880.000
355.433;  977.475;  -71.000;  -14.000
355.565; 1519.300; -402.000; -384.000
355.698;  364.800; -356.000; -296.000
355.831;  -17.800; -882.000; -801.000
355.964;   52.775; -285.000; -170.000
356.096; -107.525; -856.000; -843.000
356.229;  -15.225; -523.000; -530.000
356.362;  313.725; -373.000; -266.000
356.494;  617.175; -229.000; -162.000
356.627;  402.275;  269.000;  377.000
356.760;  648.800;  120.000;   53.000
356.892;  958.000; -286.000; -601.000
357.025;  514.050;  403.000;  389.000
357.157;  455.350; -167.000; -179.000
357.290;  720.725; -856.000; -713.000
357.423;  196.475; -667.000; -556.000
357.555;   97.525; -217.000; -228.000
357.688;   91.750; -483.000; -364.000
357.820;  356.475; -870.000; -877.000
357.953; 3097.275; -563.000; -589.000
358.085;  621.350; -632.000; -612.000
358.218;  771.150;-1131.000; -932.000
358.350;  136.725;  -58.000;  312.000
358.483; -145.825;-1300.000;-1187.000
358.615;  -61.150;-1182.000;-1078.000
358.747; -101.800;-1187.000;-1058.000
358.880;  -20.750; -810.000; -744.000
359.012;  -33.400; -376.000; -202.000
359.145;  -30.950; -480.000; -511.000
359.277;    9.675; -962.000; -913.000
359.409; 2501.775;  536.000;  231.000
359.542;  614.025; -738.000; -688.000
359.674;   46.400;   46.000;   13.000
359.806;  -89.200; -565.000; -438.000
359.939;  -47.850; -617.000; -516.000
360.071;  -22.375; -583.000; -579.000
360.203;  -29.800; -411.000; -364.000
360.335;   43.100;  164.000;  -16.000
360.468;  155.550; -249.000; -307.000
360.600; 2051.700; -547.000; -454.000
360.732; 2881.825; -546.000; -423.000
360.864;  356.325;-1216.000;-1044.000
360.996;  183.725; -516.000; -554.000
361.129;    9.450; -389.000; -598.000
361.261;   15.475;  110.000; -113.000
361.393;  -38.650; -252.000; -214.000
361.525;    0.675;   94.000;  244.000
361.657;  -68.350; -821.000; -703.000
361.789;  -12.700; -139.000; -155.000
361.921;  133.575; -642.000; -593.000
362.053;  192.375;  524.000;  541.000
362.185;   30.400;  288.000;   72.000
362.318; -106.450; -709.000; -705.000
362.450;   75.200;  294.000;  444.000
362.582;   24.250; -913.000; -870.000
362.714;  -44.200; -353.000; -332.000
362.846;  -98.900; -606.000; -490.000
362.978; -150.050; -941.000; -811.000
363.109;   15.875; -161.000; -260.000
363.241;  309.475; -739.000; -749.000
363.373;  424.550; -649.000; -564.000
363.505;  683.875; -186.000;  -91.000
363.637;  140.150; -787.000; -601.000
363.769; -139.900;-1067.000;-1080.000
363.901;  -96.950; -596.000; -654.000
364.033; -149.050;-1103.000;-1062.000
364.165;  -15.425; -283.000; -283.000
364.296;   59.200; -316.000; -177.000
364.428;   57.600;-1344.000;-1220.000
364.560;  -89.900; -679.000; -661.000
364.692;  -72.325; -738.000; -835.000
364.824;  160.775; -588.000; -456.000
364.955;  387.650; -402.000; -564.000
365.087;  957.175;-1097.000; -852.000
365.219;   30.700; -686.000; -816.000
365.351;  -80.000; -526.000; -572.000
365.482;   38.425;  300.000;  240.000
365.614;  -58.575; -402.000; -314.000
365.746; -106.075; -729.000; -752.000
365.877; -103.075; -706.000; -672.000
366.009;  247.050;  -35.000;  -62.000
366.141;  -93.500;-1249.000;-1134.000
366.272; -113.025; -803.000; -719.000
366.404; -128.125;-1005.000; -874.000
366.535;  -23.300; -139.000;  -12.000
366.667; -125.275; -644.000; -649.000
366.799;   30.250;  353.000;  203.000
366.930; -145.825; -862.000; -996.000
367.062;   96.100; -639.000; -613.000
367.193;  157.775; -872.000; -842.000
367.325;  -57.075; -580.000; -684.000
367.456;   36.600; -246.000;   31.000
367.588;  157.900; -371.000; -318.000
367.719;   12.050;  -44.000;  -45.000
367.851;  -34.075; -222.000; -241.000
367.982;  -86.275; -875.000; -732.000
368.113;   59.000; -475.000; -358.000
368.245; -149.025; -960.000; -841.000
368.376;  -23.625; -254.000; -302.000
368.508;  -41.950; -188.000; -263.000
368.639; -147.400;-1166.000;-1034.000
368.770;  -50.175; -670.000; -589.000
368.902;  -77.400; -836.000; -926.000
369.033; -131.200; -906.000; -855.000
369.164;  -61.825; -720.000; -653.000
369.296; -125.150; -452.000; -601.000
369.427;   -8.525; -209.000; -144.000
369.558;  -66.225; -593.000; -377.000
369.689;  -87.400; -721.000; -569.000
369.821; -140.000; -951.000; -845.000
369.952;  -26.500;   42.000; -108.000
370.083;  -76.700; -229.000; -108.000
370.214;  -91.775; -735.000; -650.000
370.345;  -25.775;   65.000;   81.000
370.477; -108.000; -810.000; -790.000
370.608;  157.300; -328.000; -264.000
370.739;  -82.800;-1233.000;-1292.000
370.870;  -81.900;-1102.000; -923.000
371.001;   47.925; -378.000; -467.000
371.132;  -91.725; -754.000; -735.000
371.263;  -25.875;  -42.000; -148.000
371.394; -128.825; -841.000; -748.000
371.525;   32.500;  345.000;  225.000
371.657; -102.525; -808.000; -670.000
371.788;   53.275;  103.000;  199.000
371.919;  111.025; -384.000; -304.000
372.050; 2919.525;  -91.000; -156.000
372.181;  832.975; -188.000; -294.000
372.311;  292.850;   42.000; -127.000
372.442;   -7.175; -457.000; -451.000
372.573;  -38.075; -444.000; -340.000
372.704; -138.200;-1008.000; -980.000
372.835;   49.400; -228.000; -289.000
372.966;  -95.325; -646.000; -554.000
373.097;  -84.100; -575.000; -711.000
373.228;  -67.050; -717.000; -542.000
373.359;   69.675; -824.000; -536.000
373.490;  686.850; -881.000; -727.000
373.620;  871.550;-1001.000; -803.000
373.751; 1377.925; -332.000; -396.000
373.882;  570.400; -663.000; -733.000
374.013;   23.900; -449.000; -262.000
374.143;  -77.150; -581.000; -659.000
374.274; -124.675; -987.000; -908.000
374.405;  120.350; -388.000; -276.000
374.536;  339.975; -526.000; -387.000
374.666;  834.475; -759.000; -807.000
374.797;  130.050; -817.000; -868.000
374.928;  626.425; -710.000; -560.000
375.058;  635.425; -535.000; -500.000
375.189;   42.100;  -59.000;  -93.000
375.320; -133.425; -928.000;-1034.000
375.450;  -58.575; -625.000; -616.000
375.581;  -68.275; -526.000; -436.000
375.712;  -44.100; -574.000; -250.000
375.842;  208.425; -438.000; -415.000
375.973;  124.675; -554.000; -513.000
376.103;  -85.525; -665.000; -648.000
376.234;  -98.375; -531.000; -552.000
376.364;  -84.375; -944.000; -867.000
376.495;  261.525;  925.000;  529.000
376.625;  -37.875; -472.000; -485.000
376.756;   11.625; -709.000; -678.000
376.886; -102.875;-1178.000;-1026.000
377.017;   52.050;-1048.000;-1061.000
377.147;  356.450; -786.000; -782.000
377.278;   52.425;  174.000;  228.000
377.408; -141.850; -801.000; -815.000
377.538; -114.025; -707.000; -693.000
377.669;  -98.675; -537.000; -613.000
377.799; -106.525; -645.000; -635.000
377.929;  -70.125; -610.000; -428.000
378.060; -150.375; -781.000; -847.000
378.190;  -66.225; -726.000; -531.000
378.320;  -55.725; -401.000; -406.000
378.451;  -23.550; -131.000;  -22.000
378.581;  -14.250;  -67.000; -110.000
378.711;  128.475; 1035.000;  866.000
378.841;  -46.775; -533.000; -675.000
378.972; -117.200; -871.000; -751.000
379.102;  -35.575; -652.000; -579.000
379.232;  -37.025; -126.000;  -73.000
379.362; -125.825;-1001.000; -885.000
379.492;   -6.875; -373.000; -424.000
379.623;   77.175;    0.000;  111.000
379.753; -131.125;-1107.000; -974.000
379.883;  143.350;   59.000;  156.000
380.013;  -45.500;-1081.000;-1017.000
380.143; -130.525;-1097.000;-1056.000
380.273; -120.175; -985.000; -861.000
380.403;  -14.850; -344.000; -257.000
380.533;  -57.625; -651.000; -664.000
380.663;   48.100;  173.000;  128.000
380.793; -141.825;-1027.000;-1074.000
380.923;  -21.575; -103.000;  -34.000
381.053; -115.125; -613.000; -623.000
381.183;  -38.625; -106.000; -248.000
381.313;  -17.550; -656.000; -470.000
381.443;    6.750; -692.000; -473.000
381.573;  108.825; -402.000; -409.000
381.703;  142.700;-1249.000;-1095.000
381.833; -171.175;-1454.000;-1336.000
381.963;   82.325; -134.000;  -87.000
382.093; 1099.575; -925.000; -909.000
382.223;  301.350; -713.000; -602.000
382.353;  -54.825; -801.000; -608.000
382.482;  239.725;-1091.000; -964.000
382.612;  580.525; -872.000; -644.000
382.742;  300.050; -695.000; -622.000
382.872;  165.450; -565.000; -551.000
383.002;   47.475;  347.000; -132.000
383.131;  -31.850; -226.000; -160.000
383.261;  -52.075; -706.000; -768.000
383.391;  257.775; -552.000; -377.000
383.521; 3317.750;  451.000;  263.000
383.650;  773.700; -947.000; -904.000
383.780;  -20.725; -783.000; -656.000
383.910;   97.650;  880.000;  802.000
384.039;  -16.425; -794.000; -656.000
384.169;   98.450;-1205.000;-1017.000
384.299;  -45.100; -650.000; -662.000
384.428; -111.925; -764.000; -680.000
384.558;  -48.125; -308.000; -275.000
384.687;  -59.100; -414.000; -334.000
384.817;   15.525;   75.000;   -2.000
384.947;   -7.050; -234.000; -141.000
385.076;  251.600;  982.000;  912.000
385.206;   80.375;  369.000;  480.000
385.335;  -44.075; -549.000; -417.000
385.465;  -91.150; -655.000; -663.000
385.594;   99.100;  -53.000;  -44.000
385.724;  284.850; -868.000; -838.000
385.853;   67.425; -296.000; -270.000
385.982; 1059.875; -743.000; -787.000
386.112; 1617.800;-1052.000; -871.000
386.241;   81.725; -307.000; -312.000
386.371;    4.775; -174.000;  -87.000
386.500;  -53.200; -825.000; -789.000
386.629;    2.375; -874.000; -817.000
386.759;   50.275;  -43.000;   68.000
386.888;   -8.550; -170.000; -250.000
387.017;  -90.900; -648.000; -620.000
387.147; -101.825; -771.000; -798.000
387.276;  -25.975; -410.000; -397.000
387.405;   -6.150; -398.000; -342.000
387.535;  -70.975; -452.000; -361.000
387.664;  -77.325; -692.000; -620.000
387.793;   39.950; -198.000; -113.000
387.922;  399.425;  255.000;  200.000
388.052;  -11.625; -576.000; -423.000
388.181;  -19.050; -342.000; -472.000
388.310;  -36.425; -889.000; -710.000
388.439;  -71.150; -749.000; -742.000
388.568;  126.450;  365.000;  244.000
388.697;  785.300; -756.000; -653.000
388.826;  111.600; -768.000; -666.000
388.956;   28.525; -285.000; -307.000
389.085;  -49.825; -347.000; -287.000
389.214; -124.775; -842.000; -872.000
389.343;  -88.475; -645.000; -413.000
389.472;  428.975;  126.000;  149.000
389.601;  481.375;   91.000;    0.000
389.730;  -18.025; -568.000; -687.000
389.859;   47.400;  226.000;   46.000
389.988;  136.975; -423.000; -408.000
390.117;   85.950; -168.000; -146.000
390.246;  -24.875; -331.000; -320.000
390.375;   32.625; -673.000; -626.000
390.504;  -86.425; -703.000; -621.000
390.633; -113.975; -672.000; -726.000
390.761;  -83.275; -732.000; -645.000
390.890;   -0.525;   -4.000; -130.000
391.019;  -58.425; -421.000; -441.000
391.148; -142.225; -826.000; -855.000
391.277;  -81.700; -576.000; -493.000
391.406; -114.825; -821.000; -805.000
391.534;   16.200;  574.000; -301.000
391.663;  -91.725; -583.000; -645.000
391.792; -111.750; -673.000; -701.000
391.921;   50.300;   -3.000;   15.000
392.050;  107.900; -287.000; -228.000
392.178;  -92.125;-1206.000;-1061.000
392.307;   83.525; -758.000; -712.000
392.436;   22.425; -427.000; -641.000
392.564;   15.375;  166.000;   -6.000
392.693; -121.100; -860.000; -682.000
392.822;  146.925; -529.000; -534.000
392.950;   25.950; -880.000; -714.000
393.079;  219.700; -188.000; -328.000
393.208;  -18.875; -488.000; -511.000
393.336;  -29.300; -170.000; -145.000
393.465;  -68.375; -317.000; -199.000
393.593;   -2.125;   62.000;   79.000
393.722; -167.025;-1121.000; -916.000
393.850;  -29.175; -188.000;  -61.000
393.979; -165.175; -926.000; -805.000
394.107;  -84.700; -517.000; -537.000
394.236;  -60.225; -570.000; -507.000
394.364;  150.400;  383.000;  206.000
394.493;  159.900; -911.000; -767.000
394.621;  -51.200; -955.000; -916.000
394.750;  730.125; -873.000; -923.000
394.878; 3047.800; -247.000; -149.000
395.007; 4045.650; -721.000; -807.000
395.135;  279.150; -790.000; -721.000
395.263; -101.100;-1038.000;-1040.000
395.392;    5.425;  -25.000; -107.000
395.520; -148.750; -818.000; -679.000
395.648; -122.075; -865.000; -915.000
395.777;  -40.750; -366.000; -405.000
395.905;  -67.025; -449.000; -564.000
396.033;   -3.775;  217.000;  172.000
396.162;  304.375; -399.000; -453.000
396.290;  273.850;  -17.000;   -2.000
396.418;   35.825; -555.000; -514.000
396.546; -105.200; -571.000; -466.000
396.674; -117.925; -850.000; -878.000
396.803;  -11.125;  -72.000;  -23.000
396.931;   48.750; -179.000; -199.000
397.059;  -24.125;-1026.000; -989.000
397.187; -117.850;-1026.000; -975.000
397.315; -144.375; -884.000; -649.000
397.443;  -97.950; -592.000; -443.000
397.572; -108.700; -578.000; -424.000
397.700;  -51.625; -607.000; -614.000
397.828;  -18.475;  120.000;  -90.000
397.956;  -59.850; -508.000; -478.000
398.084;  -75.625; -767.000; -626.000
398.212;   20.950;  137.000;  124.000
398.340;  -10.325;  -56.000;  159.000
398.468;   -9.850; -390.000; -169.000
398.596; -151.900; -993.000; -953.000
398.724; -130.700; -762.000; -767.000
398.852; -172.025;-1024.000; -976.000
398.980;  -85.850; -560.000; -560.000
399.108;  -80.950; -982.000; -735.000
399.236;    4.225;   13.000;    8.000
399.363;   -2.450;  222.000;  196.000
399.491;  -88.250; -404.000; -398.000
399.619; -141.025; -829.000; -800.000
399.747; -124.775; -859.000; -771.000
399.875;   54.125;  220.000;  234.000
400.003;  -58.000; -359.000; -284.000
400.130;  -91.950; -421.000; -341.000
400.258;  -31.000;  -83.000;   38.000
400.386;  -85.225; -352.000; -168.000
400.514;  -54.025; -526.000; -587.000
400.641; -131.000; -928.000; -802.000
400.769; -154.925; -979.000; -888.000
400.897; -140.675; -838.000; -793.000
401.025;  -41.050; -166.000; -152.000
401.152;  -19.700;  220.000;   38.000
401.280;  -82.600; -430.000; -429.000
401.408; -114.775; -712.000; -576.000
401.535; -123.200; -735.000; -758.000
401.663; -217.700;-1134.000;-1054.000
401.790;  -84.475; -514.000; -525.000
401.918;   51.275;  436.000;  405.000
402.046;  -30.775;  134.000;  122.000
402.173;  -50.075;  -18.000;    7.000
402.301;  -78.225; -519.000; -397.000
402.428;   27.925;  528.000;  383.000
402.556; -167.850;-1188.000; -913.000
402.683;  -44.100;  -20.000;   -1.000
402.811;  -29.050;  -37.000; -206.000
402.938;  -21.450;   20.000;   27.000
403.066;  145.600; -574.000; -558.000
403.193;  255.300;  299.000;  239.000
403.321;  193.200; -396.000; -574.000
403.448;  233.225;   83.000;   27.000
403.575;  110.875;  -90.000;  -46.000
403.703;  -92.225; -732.000; -557.000
403.830;  -70.625; -531.000; -496.000
403.957; -143.300;-1117.000;-1023.000
404.085;   -0.250;  -61.000; -172.000
404.212;   91.800;  -50.000;   63.000
404.339;  256.425; -566.000; -306.000
404.467; 6013.325; -612.000; -524.000
404.594; 3638.375; -287.000; -227.000
404.721;  752.150; -869.000; -764.000
404.848;   51.100; -113.000; -202.000
404.976; -111.175; -856.000; -783.000
405.103;  -14.125;  -14.000;  -82.000
405.230;  -13.075;  190.000;  226.000
405.357;    8.500;  117.000;   44.000
405.484;  264.350;  -49.000;    5.000
405.612;   32.750; -548.000; -563.000
405.739;  -69.525; -488.000; -243.000
405.866;   72.675;  669.000;  385.000
405.993;  -54.125; -398.000; -102.000
406.120; -156.475; -801.000; -887.000
406.247;  -72.850; -323.000; -342.000
406.374;  333.550;  540.000;  629.000
406.501;   16.450; -632.000; -702.000
406.628;  -96.975; -621.000; -589.000
406.755; -120.900; -803.000; -620.000
406.882;  -57.100; -228.000; -277.000
407.009; -127.600; -719.000; -628.000
407.136;   11.800; -480.000; -401.000
407.263;   41.450; -939.000; -829.000
407.390;  -90.500; -692.000; -614.000
407.517; -196.450;-1139.000;-1187.000
407.644;  -68.250; -332.000; -256.000
407.771;  -88.625; -249.000; -287.000
407.898;    9.600;  168.000;  328.000
408.025;  -79.450; -421.000; -313.000
408.151;  -20.600;   82.000;  153.000
408.278;  -69.400; -267.000; -216.000
408.405; -121.850; -931.000; -899.000
408.532;  -84.400; -549.000; -542.000
408.659; -118.300; -677.000; -648.000
408.785; -211.000;-1298.000;-1170.000
408.912;  -76.975; -412.000; -296.000
409.039; -132.500; -610.000; -686.000
409.166; -109.550; -591.000; -555.000
409.292; -129.000; -571.000; -534.000
409.419; -125.350; -665.000; -649.000
409.546; -100.275; -431.000; -192.000
409.672; -124.175; -713.000; -545.000
409.799;  -35.700;  -36.000;   34.000
409.926;  -53.525; -180.000; -179.000
410.052; -202.575;-1127.000;-1091.000
410.179;  -77.725; -368.000; -392.000
410.305;  -99.925; -375.000; -493.000
410.432;  -66.375; -220.000; -333.000
410.558;  -90.700; -305.000; -380.000
410.685; -120.475; -688.000; -431.000
410.812; -109.575; -409.000; -588.000
410.938; -141.550; -964.000; -808.000
411.065; -111.075; -671.000; -645.000
411.191;  -26.675; -189.000; -174.000
411.317; -131.575; -823.000; -742.000
411.444;  -69.725; -317.000; -246.000
411.570;  -81.475; -339.000; -294.000
411.697; -128.450; -758.000; -752.000
411.823; -188.375; -989.000; -999.000
411.949;  -42.875;  -56.000;   17.000
412.076; -133.750; -539.000; -519.000
412.202; -143.375; -758.000; -757.000
412.329; -141.850; -798.000; -752.000
412.455; -117.900; -821.000; -657.000
412.581;  -24.025;  -15.000;  172.000
412.707;  -83.225; -540.000; -457.000
412.834;    9.325;  156.000;  219.000
412.960; -104.250; -785.000; -784.000
413.086; -127.775; -743.000; -701.000
413.212;  127.325;  604.000;  578.000
413.339; -106.200; -685.000; -701.000
413.465;  -27.425; -364.000; -310.000
413.591; -110.775; -757.000; -474.000
413.717;  -71.525; -358.000; -366.000
413.843; -150.375; -839.000; -861.000
413.969;  -74.725;  -47.000; -292.000
414.096; -121.200; -679.000; -679.000
414.222;  -16.725;  -33.000;   85.000
414.348;  -48.175; -652.000; -385.000
414.474;   57.750;   38.000;  -52.000
414.600;  -34.575; -126.000; -144.000
414.726;  -20.475;  -96.000;  -55.000
414.852;  -80.675; -365.000; -342.000
414.978;   22.825;  104.000;  -18.000
415.104;   30.850;   38.000;   80.000
415.230;    9.975; -329.000; -330.000
415.356;   21.725; -409.000; -514.000
415.482;  182.850;   13.000;  -35.000
415.608;  277.300; -247.000; -323.000
415.734;  991.400;   67.000;   38.000
415.860;20554.175; -875.000; -767.000
415.986;14219.425; -685.000; -607.000
416.111; 1180.075; -798.000; -652.000
416.237;  266.325; -424.000; -571.000
416.363; 1199.975; -765.000; -733.000
416.489; 4282.650; -324.000; -251.000
416.615;  415.725; -707.000; -742.000
416.741;  -20.975; -677.000; -784.000
416.866; -104.250; -673.000; -736.000
416.992; -119.525; -801.000; -818.000
417.118;  -26.175;  -41.000;  -80.000
417.244;  -81.725; -798.000; -531.000
417.369;  -92.275; -801.000; -612.000
417.495;  -10.275; -325.000; -254.000
417.621; -111.950;-1015.000; -803.000
417.746;   -4.825; -579.000; -572.000
417.872;   21.300; -254.000; -144.000
417.998;   64.225; -515.000; -530.000
418.123; 1134.425;-1073.000; -845.000
418.249; 5563.175; -512.000; -601.000
418.374;  719.200; -916.000; -824.000
418.500;  109.300; -383.000; -482.000
418.626;   96.700;   70.000;  -59.000
418.751;  109.100; -549.000; -448.000
418.877;  181.100; -637.000; -643.000
419.002; 1922.375; -688.000; -560.000
419.128;13001.325; -930.000; -721.000
419.253; 3016.700; -967.000; -837.000
419.379;  402.025; -391.000; -338.000
419.504;  415.775;  325.000;  415.000
419.629;  517.325; -393.000; -212.000
419.755; 3889.425; -317.000; -254.000
419.880;22132.625;  -98.000;   67.000
420.006;11861.050; -280.000; -221.000
420.131;29907.975; -662.000; -775.000
420.256; 4095.425; -315.000; -316.000
420.382;  516.850; -665.000; -687.000
420.507;   60.925; -649.000; -778.000
420.632;   97.300; -337.000; -339.000
420.758;  167.000; -251.000; -425.000
420.883; -108.475; -876.000; -672.000
421.008; -100.750; -775.000; -619.000
421.133;  -97.000; -509.000; -467.000
421.259;  -57.700; -325.000; -259.000
421.384; -127.400; -834.000; -693.000
421.509;  -78.875;-1052.000; -862.000
421.634;  802.825; -936.000; -820.000
421.759;  311.400; -359.000; -327.000
421.885;  -83.550; -717.000; -656.000
422.010;  -95.175; -673.000; -542.000
422.135; -150.625; -695.000; -727.000
422.260;   17.425;  340.000;  280.000
422.385;  -57.250;   12.000;  -98.000
422.510;   -1.375;  151.000;  -26.000
422.635;   -4.675;  -87.000;  -43.000
422.760;   58.550; -766.000; -791.000
422.885;   19.625;  -57.000;  -80.000
423.010;  -41.175; -112.000; -169.000
423.135; -113.175; -481.000; -561.000
423.260;  -25.925; -150.000; -245.000
423.385;   38.600;  476.000;  222.000
423.510;   14.675;   71.000;  -22.000
423.635;   43.425;  133.000;   45.000
423.760;   55.775;  383.000;  328.000
423.885;   40.725;  336.000;  391.000
424.010;   -1.850;  -68.000;  -13.000
424.135;  -31.225;    5.000;  -33.000
424.259;  -94.100; -654.000; -457.000
424.384;  -78.250; -279.000; -272.000
424.509;  -38.175; -260.000; -186.000
424.634; -123.600; -761.000; -623.000
424.759;  -41.625; -688.000; -544.000
424.883;  -27.900; -506.000; -527.000
425.008;  139.350; -502.000; -410.000
425.133; 2040.800; -679.000; -653.000
425.258;  904.925; -517.000; -381.000
425.382;  858.525; -867.000; -774.000
425.507; 2077.775; -487.000; -543.000
425.632;  341.525; -802.000; -663.000
425.756;  449.075; -256.000; -146.000
425.881; 7207.650; -831.000; -857.000
426.006;18745.475; -604.000; -355.000
426.130; 2710.350; -696.000; -508.000
426.255;  355.375; -611.000; -491.000
426.379;  140.875; -189.000; -577.000
426.504;  386.600;  660.000;  544.000
426.629; 4133.725; -519.000; -466.000
426.753; 2711.200;   64.000;  -46.000
426.878;  299.525; -252.000; -288.000
427.002;  132.650; -651.000; -668.000
427.127; 1671.975;  -35.000; -158.000
427.251;11807.875;  372.000;  401.000
427.375; 3190.525; -191.000; -173.000
427.500; 1891.650; -616.000; -610.000
427.624;  584.900; -234.000; -400.000
427.749;   60.975; -216.000; -225.000
427.873;  -55.650; -499.000; -412.000
427.997;  -35.650; -222.000; -230.000
428.122;   58.700;  795.000;  703.000
428.246;   57.350;  433.000;  434.000
428.371; -145.975; -869.000; -773.000
428.495; -118.425; -624.000; -646.000
428.619;  -46.150; -186.000; -117.000
428.743;    7.425;   65.000;  132.000
428.868;  -32.100; -732.000; -643.000
428.992; 1128.250; -219.000; -326.000
429.116;  396.725; -329.000; -357.000
429.240;  196.425;  419.000;  426.000
429.365;  -39.725; -454.000; -574.000
429.489;  -74.150; -638.000; -647.000
429.613;   -1.800; -236.000; -177.000
429.737;   21.550; -563.000; -432.000
429.861;  257.350; -247.000; -133.000
429.985; 5847.125; -425.000; -305.000
430.109; 6131.950; -770.000; -908.000
430.234;  671.700;   76.000;  -50.000
430.358;   55.500; -250.000; -160.000
430.482;  -84.625; -672.000; -564.000
430.606;  -78.275; -655.000; -375.000
430.730;  -14.425; -437.000; -388.000
430.854;   44.800; -909.000; -835.000
430.978;  -90.425; -795.000; -764.000
431.102;  -94.700; -499.000; -422.000
431.226; -133.600; -874.000; -815.000
431.350;    2.175;  345.000;  422.000
431.474;  -98.675; -661.000; -373.000
431.597; -166.200;-1060.000; -848.000
431.721;  -94.025; -276.000; -267.000
431.845; -144.925; -704.000; -472.000
431.969;  -88.100; -304.000; -349.000
432.093; -101.000; -395.000; -317.000
432.217;  -20.000;   32.000;   82.000
432.341; -102.500; -523.000; -518.000
432.464;   -8.800;   96.000;   40.000
432.588;  118.025; -401.000; -329.000
432.712;   46.100;  -52.000;  -52.000
432.836;   47.375;  213.000;  263.000
432.959;  -20.075; -372.000; -311.000
433.083;   86.850;   11.000;    2.000
433.207;  383.250;  285.000;  930.000
433.330; 5398.900; -391.000; -200.000
433.454; 6317.950; -654.000; -638.000
433.578; 3659.550;  583.000;  278.000
433.701;  625.775; -623.000; -675.000
433.825;   83.700; -292.000; -299.000
433.949;   98.575;   28.000;  -72.000
434.072;  -10.475; -410.000; -323.000
434.196;  -23.800; -309.000; -117.000
434.319; 3832.825;25482.000;25124.000
434.443;  727.925; -656.000; -603.000
434.566; 2722.275;  281.000;   62.000
434.690;  416.975; -637.000; -383.000
434.813;   37.150; -251.000; -173.000
434.937;  -88.250; -569.000; -696.000
435.060;  -70.375; -423.000; -332.000
435.184;  172.425; -492.000; -217.000
435.307;  100.950;  159.000;  102.000
435.431;  -31.375;  -40.000;   24.000
435.554;  -89.000; -399.000; -240.000
435.677;  -89.925; -350.000; -258.000
435.801;  -57.025;  -25.000;   49.000
435.924;  -27.550;    1.000;  -67.000
436.048; -149.200;-1019.000; -732.000
436.171;  -70.575; -240.000;  -66.000
436.294;  -36.775; -248.000; -229.000
436.417;   95.300; -963.000; -849.000
436.541;  -88.775; -814.000; -840.000
436.664;  -59.250; -242.000; -316.000
436.787;  -52.325;   13.000;  113.000
436.910; -124.675; -792.000; -422.000
437.034;  -14.825;  142.000;  143.000
437.157;   23.775;  -11.000;    0.000
437.280;  -72.200; -392.000; -292.000
437.403; -115.525; -982.000; -869.000
437.526;  412.750; -903.000; -865.000
437.649; 1570.500; -505.000; -332.000
437.772;  161.725; -692.000; -540.000
437.896;  100.550;  700.000;  544.000
438.019; -116.475; -758.000; -503.000
438.142; -104.225; -596.000; -506.000
438.265;  -68.150; -639.000; -670.000
438.388;  360.900; -520.000; -410.000
438.511;   18.775; -597.000; -394.000
438.634;  -68.975; -247.000; -125.000
438.757; -147.100; -693.000; -619.000
438.880;  -27.975;  -34.000;  -57.000
439.003; -107.050; -417.000; -437.000
439.126;  -61.975; -287.000; -167.000
439.248;  -72.375;  -98.000; -139.000
439.371;  -66.400;    9.000;  -53.000
439.494;   17.100;  510.000;  439.000
439.617;  -50.225;   65.000;  -88.000
439.740; -192.700; -968.000; -816.000
439.863; -133.725; -755.000; -595.000
439.986; -134.950; -476.000; -431.000
440.108;  -55.125; -161.000; -112.000
440.231; -184.050; -950.000; -836.000
440.354;  -59.075;  -64.000; -150.000
440.477;  -38.025; -566.000; -542.000
440.599;  -40.075; -200.000; -225.000
440.722; -132.700; -709.000; -586.000
440.845;   63.575;  751.000;  928.000
440.968; -128.925; -415.000; -311.000
441.090;  -80.150; -199.000;  -33.000
441.213; -166.375;-1021.000; -825.000
441.336;  -56.900; -159.000;   -5.000
441.458; -100.225; -549.000; -396.000
441.581; -109.475; -628.000; -629.000
441.703;  -83.300; -152.000;   13.000
441.826; -111.700; -557.000; -400.000
441.948;  -51.725;   56.000;   51.000
442.071;    9.925;  555.000;  424.000
442.193; -138.650; -531.000; -485.000
442.316;   -1.925;  152.000;   97.000
442.438;   18.125; -233.000;  -10.000
442.561;   53.600;  272.000;  262.000
442.683;  342.750; -809.000; -522.000
442.806;  821.550;   -8.000;   74.000
442.928;  -59.150; -859.000; -604.000
443.051;  -80.400; -577.000; -373.000
443.173;  -97.025; -341.000; -339.000
443.295; -105.000; -263.000; -371.000
443.418;  -81.300; -321.000;  -29.000
443.540;  -27.125; -106.000;   -4.000
443.662; -136.875; -563.000; -465.000
443.785;  -21.525;  335.000;  199.000
443.907; -129.775; -362.000; -208.000
444.029; -128.600; -767.000; -494.000
444.152; -157.250; -644.000; -554.000
444.274;  -48.025;  -18.000;  -24.000
444.396; -127.025; -461.000; -221.000
444.518; -143.100; -691.000; -454.000
444.640; -121.525; -268.000; -111.000
444.763;  -23.350;  388.000;  249.000
444.885; -137.775; -432.000; -392.000
445.007;  -37.575;   35.000;   86.000
445.129; -129.325; -610.000; -515.000
445.251; -121.625; -372.000; -439.000
445.373; -150.000; -537.000; -386.000
445.495;    4.700;  242.000;  350.000
445.617;   41.025;  853.000;  753.000
445.739;  -61.275; -215.000;  -97.000
445.861;  -60.550; -245.000; -112.000
445.984;  -54.425; -267.000; -101.000
446.105;  112.475; -418.000; -251.000
446.227;  419.525; -176.000;  -19.000
446.349;  -38.150; -358.000; -249.000
446.471; -119.200; -615.000; -448.000
446.593;  -88.175; -316.000;   19.000
446.715;  -34.800;  -67.000;   41.000
446.837;   62.950;  697.000;  832.000
446.959; -101.825; -457.000; -478.000
447.081; -160.000; -628.000; -518.000
447.203;   61.325;  862.000;  834.000
447.325;  -98.225; -270.000;   42.000
447.446;  -22.150;  286.000;  530.000
447.568; -170.900; -921.000; -803.000
447.690;  -89.225; -236.000; -245.000
447.812; -156.100; -798.000; -519.000
447.933;  -30.325;  155.000;  127.000
448.055;  -81.500; -306.000; -261.000
448.177;   99.000;   31.000;   79.000
448.299;  -10.475; -935.000; -727.000
448.420;   -9.500;  -25.000;  159.000
448.542;  -58.125;   -3.000;   33.000
448.664;  -28.025;  109.000;  322.000
448.785;  -46.025;  265.000;   83.000
448.907; -102.700; -614.000; -353.000
449.028;  -62.800; -771.000; -471.000
449.150;   45.900;  492.000;  589.000
449.272; -191.975;-1044.000; -913.000
449.393;   23.675;  612.000;  694.000
449.515; -163.725; -634.000; -581.000
449.636;  -66.575; -264.000; -155.000
449.758;   59.525;  763.000;  622.000
449.879;  -97.550; -498.000; -396.000
450.001;  -89.425; -149.000;  -49.000
450.122;  -34.725;  -95.000;  162.000
450.244;  -40.300;   37.000;  364.000
450.365; -107.725; -495.000; -301.000
450.486;  -46.175;   80.000;  268.000
450.608;    7.550;  393.000;  326.000
450.729;   77.100;  578.000;  645.000
450.850;   14.575; -574.000; -466.000
450.972;  816.475; -552.000; -389.000
451.093; 5213.375;  190.000;  588.000
451.214; 2151.500; -516.000; -337.000
451.336;  384.475;  773.000;  579.000
451.457;   55.850;  264.000;  393.000
451.578;  -43.700; -118.000;  -74.000
451.699; -127.650; -546.000; -540.000
451.821;  -78.100; -284.000;  -50.000
451.942;  -10.950;  278.000;  285.000
452.063;   35.400;  228.000;  419.000
452.184;  574.650;  -54.000;  -49.000
452.305; 1090.875;  103.000;  170.000
452.427;  115.325; -549.000; -301.000
452.548;  -12.550;   23.000;   79.000
452.669;  -55.375; -257.000;  -89.000
452.790;  -54.875;    3.000;  -18.000
452.911;  -21.275;  195.000;  259.000
453.032;  -80.775; -289.000;  -60.000
453.153;  -61.275;  -29.000;   81.000
453.274;   46.775;  737.000;  868.000
453.395;  -54.050;  -51.000;  175.000
453.516;  117.175; 1317.000; 1388.000
453.637;  -82.950; -205.000; -150.000
453.758;  -66.900;   15.000;   69.000
453.879; -137.000; -462.000; -250.000
454.000;   76.625; 1086.000;  948.000
454.121; -140.650; -554.000; -326.000
454.242; -127.575; -599.000; -383.000
454.362;  -65.850;  -99.000;  114.000
454.483;  -54.425; -309.000; -229.000
454.604;   21.425;  512.000;  580.000
454.725; -135.625; -627.000; -555.000
454.846; -147.925; -474.000; -406.000
454.967;  -26.750;  230.000;  539.000
455.087;  -41.400;  179.000;  153.000
455.208;    4.775;  554.000;  856.000
455.329;  -71.175;  -22.000;   82.000
455.450;   28.675;  473.000;  633.000
455.570; -101.450; -234.000; -211.000
455.691;  -47.525;  201.000;  407.000
455.812; -120.375; -270.000;  -92.000
455.932;  -75.375;  107.000;  -97.000
456.053;  -92.100;   36.000;   24.000
456.173; -114.775; -433.000; -355.000
456.294; -133.850; -476.000; -303.000
456.415;  -71.575;  -73.000;   70.000
456.535;  -44.950;  297.000;  273.000
456.656;  -62.250;  132.000;  240.000
456.776;  -80.525;    3.000;  298.000
456.897;   -7.450;  308.000;  513.000
457.017;  -82.100; -153.000;   -3.000
457.138; -122.150; -402.000; -249.000
457.258;  -45.575;  263.000;  224.000
457.379;  -19.050;  509.000;  521.000
457.499;  -30.225;  443.000;  432.000
457.620; -132.300; -407.000; -231.000
457.740; -113.600; -132.000;  -11.000
457.860;  -69.175;   87.000;   44.000
457.981;  -64.300;  132.000;  124.000
458.101;  -81.100;  -89.000;   40.000
458.221;  -38.500;  336.000;  402.000
458.342;  -57.925;   -4.000;  -37.000
458.462;   18.025;  617.000;  352.000
458.582;  -51.100; -302.000; -294.000
458.703;   14.050;  303.000;  154.000
458.823;  -33.725;   22.000;  163.000
458.943;   24.950;  341.000;  467.000
459.063;  -29.650; 1124.000;  192.000
459.183;  -24.150;  328.000;  313.000
459.304;    0.075;  315.000;  517.000
459.424;  -72.225; -246.000;  -89.000
459.544;  336.975;  388.000;  764.000
459.664;  865.375;  499.000;  506.000
459.784;  306.800; 1004.000; 1175.000
459.904;   54.500;  867.000;  744.000
460.024;   58.525;  867.000;  684.000
460.144;  -23.350;  449.000;  554.000
460.264;   -8.050;  515.000;  327.000
460.385;  -95.925; -145.000; -119.000
460.505;   35.225;  905.000;  858.000
460.625; -100.775;  -17.000;  -68.000
460.745;  -34.275;  396.000;  541.000
460.864;  -56.500;  153.000;  469.000
460.984;    5.150;  499.000;  573.000
461.104;  145.300; 1656.000; 1775.000
461.224;   16.875;  657.000;  650.000
461.344;  -35.050;  431.000;  360.000
461.464;  -51.625;  258.000;  513.000
461.584;  -25.425;  283.000;  466.000
461.704;  -55.975;   58.000;  108.000
461.824;  -75.700;  238.000;  259.000
461.943;  -45.700;  191.000;  130.000
462.063;  -90.900;    2.000;  324.000
462.183;   32.550;  639.000;  717.000
462.303;   97.725; 1678.000; 1230.000
462.422;   15.450;  781.000;  840.000
462.542;  -49.750;  271.000;  391.000
462.662;   22.225;  353.000;  380.000
462.782;  260.725;  833.000;  572.000
462.901;  486.625;  545.000;  717.000
463.021;  269.525; 1702.000; 1638.000
463.141;  -10.700;  337.000;  770.000
463.260;  -33.600;  614.000;  474.000
463.380;   13.075;  902.000;  884.000
463.499;  -42.150;  342.000;  332.000
463.619;  -48.150;  581.000;  559.000
463.738;  117.150; 1644.000;  903.000
463.858;    3.450;  657.000;  811.000
463.978;  -34.025;  542.000;  396.000
464.097;   49.650;  921.000; 1114.000
464.217;  126.425; 1196.000; 1143.000
464.336;  106.150; 1068.000; 1130.000
464.455;  -57.600;  328.000;  659.000
464.575;   24.000;  597.000;  602.000
464.694;  135.750; 1204.000; 1179.000
464.814;  111.825; 1190.000; 1138.000
464.933;   60.600; 1095.000; 1027.000
465.052;   97.175; 1412.000; 1054.000
465.172;   51.975;  922.000;  799.000
465.291;  122.925; 1376.000; 1320.000
465.410;   -0.300;  462.000;  735.000
465.530;   80.850; 1355.000; 1310.000
465.649;   56.825; 1209.000; 1273.000
465.768;  118.950; 1673.000; 1508.000
465.888;   37.350;  941.000; 1174.000
466.007;   92.225; 1335.000; 1440.000
466.126;  -18.575;  721.000;  641.000
466.245;   32.025; 1176.000; 1187.000
466.364;    8.800;  950.000; 1060.000
466.484;   46.975; 1024.000; 1213.000
466.603;   27.500; 1101.000; 1222.000
466.722;  113.825; 1490.000; 1769.000
466.841;   59.650; 1151.000; 1401.000
466.960;   40.750; 1069.000;  972.000
467.079;  118.225; 1971.000; 1786.000
467.198;   50.250; 1238.000; 1181.000
467.317;   65.575; 1768.000; 1162.000
467.436;   67.600; 1709.000; 1261.000
467.555;  110.425; 1796.000; 1746.000
467.674;   73.200; 1227.000; 1329.000
467.793;   25.675; 1376.000; 1374.000
467.912;   68.550; 1658.000; 1539.000
468.031;  124.800; 2038.000; 1930.000
468.150;  145.400; 1842.000; 1837.000
468.269;  199.175; 2313.000; 2090.000
468.388;  174.025; 2168.000; 2339.000
468.507;  249.025; 2884.000; 2903.000
468.626;  273.675; 2555.000; 2541.000
468.744;  125.850; 2018.000; 2174.000
468.863;  190.050; 2312.000; 2523.000
468.982;   71.900; 1503.000; 1555.000
469.101;  233.725; 2788.000; 2692.000
469.220;  142.800; 2333.000; 2176.000
469.338;  244.800; 2935.000; 3051.000
469.457;  190.550; 2719.000; 2545.000
469.576;  336.025; 3953.000; 3784.000
469.695;  227.625; 2877.000; 3066.000
469.813;  414.325; 4148.000; 4192.000
469.932;  385.150; 4255.000; 4485.000
470.051;  413.200; 4075.000; 4161.000
470.169;  899.050; 4470.000; 4338.000
470.288; 1501.700; 4700.000; 4809.000
470.406;  835.200; 5059.000; 5194.000
470.525;  634.000; 6101.000; 5787.000
470.644;  632.675; 6847.000; 6794.000
470.762;  819.850; 8397.000; 7873.000
470.881;  904.500; 8651.000; 8464.000
470.999; 1049.750; 9685.000; 9151.000
471.118; 1107.400;11174.000;10711.000

