
Integration time [ms]: 100.000
Averaging Nr. [scans]: 40
Smoothing Nr. [pixels]: 0
Data measured with spectrometer [name]: 2101012U2
Wave   ;Sample   ;Dark     ;Reference
[nm]   ;[counts] ;[counts] ;[counts] 

197.733;   52.625;  516.000;  404.000
197.879;  -68.850; -610.000; -634.000
198.025;  -53.575; -475.000; -420.000
198.171;  -70.025; -602.000; -612.000
198.317;  -36.075; -401.000; -316.000
198.463;  -68.425; -655.000; -404.000
198.609;   38.000;  181.000; -137.000
198.755;  -72.725; -644.000; -410.000
198.901;  -56.925; -505.000; -424.000
199.047;  -64.600; -615.000; -488.000
199.193;  -36.100; -230.000; -468.000
199.339;  -51.800; -222.000; -369.000
199.485;   60.275;  330.000;  271.000
199.631;   17.650;  227.000;  310.000
199.777;  -47.350; -466.000; -398.000
199.923;  -79.025; -610.000; -424.000
200.069;    7.700; -141.000;  -58.000
200.215;   66.000;  128.000;  453.000
200.361;   46.025;  243.000;  477.000
200.507;  -65.825; -600.000; -373.000
200.653;  -14.700; -371.000; -194.000
200.798;  -37.925; -215.000; -125.000
200.944;   -3.050; -146.000;  -41.000
201.090;   48.400;   61.000;  222.000
201.236;    5.700; -116.000; -158.000
201.382;  131.550;  874.000;  903.000
201.528;    2.425;  -58.000;  -48.000
201.674;  -46.600; -386.000; -293.000
201.819;  -59.425; -540.000; -439.000
201.965;  -79.600; -699.000; -447.000
202.111;   -8.400; -273.000; -226.000
202.257;  -42.650; -250.000; -238.000
202.402;   19.425;   13.000;  -36.000
202.548;  -31.325; -169.000; -116.000
202.694;   88.275;  410.000; -183.000
202.840;  -70.400; -603.000; -531.000
202.985;  -71.350; -681.000; -639.000
203.131; -100.550; -832.000; -666.000
203.277;  -12.150; -199.000; -262.000
203.423;  -45.850; -434.000; -520.000
203.568;  -17.750; -462.000; -237.000
203.714;  -57.825; -535.000; -542.000
203.860;  -67.350; -682.000; -641.000
204.005;   19.250;  112.000;  167.000
204.151;   77.425;  561.000;  556.000
204.296;  -45.300; -354.000; -221.000
204.442;  -45.775; -600.000; -547.000
204.588;  -69.450; -592.000; -579.000
204.733;   29.525;  178.000;  168.000
204.879; -134.100;-1018.000; -822.000
205.025;   16.425;  -99.000;  126.000
205.170;    2.425;  -17.000;   94.000
205.316;   77.950;  438.000;  661.000
205.461;  -77.325; -698.000; -554.000
205.607;  104.475;  609.000;  665.000
205.752;  -73.175; -626.000; -551.000
205.898;  -48.475; -501.000; -391.000
206.043;  -64.275; -578.000; -506.000
206.189;  -19.675; -243.000; -285.000
206.334;   74.125;  554.000;  606.000
206.480;   81.950;  409.000;  239.000
206.625;  -73.200; -529.000; -552.000
206.771;  -39.250; -451.000; -373.000
206.916;  -16.475; -210.000; -537.000
207.062;  -64.850; -545.000; -591.000
207.207;  -58.600; -546.000; -443.000
207.353;   57.200;  185.000;  460.000
207.498;    9.600;  196.000;   85.000
207.643;  -55.125; -501.000; -370.000
207.789; -133.375;-1069.000; -910.000
207.934;  -95.475; -665.000; -713.000
208.080;  -20.275; -154.000;   66.000
208.225;   10.275;  -22.000;  -57.000
208.370;  -94.050; -727.000; -619.000
208.516;  -76.750; -741.000; -487.000
208.661;  -28.400; -127.000;  -69.000
208.806;   -4.950; -165.000; -171.000
208.952; -125.975;-1044.000; -731.000
209.097;   83.350;  378.000;  349.000
209.242;  -43.850; -307.000; -382.000
209.387;   86.650;  392.000;  350.000
209.533;  -45.750; -321.000; -350.000
209.678;   89.025;  472.000;  543.000
209.823;  -44.725; -408.000; -310.000
209.969; -100.325; -860.000; -757.000
210.114; -107.775; -907.000; -719.000
210.259; -104.600; -939.000; -889.000
210.404;  -15.750; -171.000;  103.000
210.549;   14.775;  108.000;    3.000
210.695;   -5.550;   -3.000;  -95.000
210.840;   37.625;   94.000;   67.000
210.985;  -64.025; -484.000; -303.000
211.130;   92.175;  268.000;  406.000
211.275;   12.050;  207.000;  199.000
211.420;  -45.500; -300.000; -289.000
211.566;  -79.975; -536.000; -489.000
211.711;   35.075;  218.000;  157.000
211.856;  -67.825; -545.000; -519.000
212.001;   12.850;  151.000;   44.000
212.146;   31.775;  153.000;   49.000
212.291;  -17.450; -210.000; -186.000
212.436;  -19.850; -280.000;   -6.000
212.581;  -75.225; -685.000; -653.000
212.726;  -76.150; -487.000; -538.000
212.871;  -49.625; -552.000; -217.000
213.016; -140.775;-1172.000;-1029.000
213.161;   73.375;  406.000;  291.000
213.306;  -86.350; -435.000; -577.000
213.451;  -73.675; -778.000; -689.000
213.596;  -37.575; -455.000; -347.000
213.741;  -51.550; -448.000; -538.000
213.886;  -78.900; -498.000; -517.000
214.031;  -14.175; -294.000; -124.000
214.176;  -45.000; -408.000; -341.000
214.321;  -10.525; -296.000; -157.000
214.466;  -19.675; -163.000;  -43.000
214.611;    7.475;  -61.000;  -10.000
214.756; -116.350; -948.000; -858.000
214.901;   -8.925; -388.000; -226.000
215.046; -119.725; -797.000; -825.000
215.191;   36.125;  128.000;   35.000
215.336;  -13.150; -157.000;  -19.000
215.480;  -57.775; -684.000; -505.000
215.625;  -13.850; -175.000;  -19.000
215.770;  -80.300; -757.000; -662.000
215.915;   -4.950;   -5.000;  -97.000
216.060;   18.875; -113.000;  -21.000
216.205; -110.450; -731.000; -779.000
216.349;  -63.075; -470.000; -533.000
216.494; -143.275; -939.000; -867.000
216.639; -115.900; -823.000; -888.000
216.784;  -87.550; -577.000; -525.000
216.929;   57.700;  392.000;  281.000
217.073;  -17.525; -244.000;  -31.000
217.218;    6.500;   78.000;  -47.000
217.363;  -89.900; -656.000; -618.000
217.507;  -70.675; -623.000; -588.000
217.652; -121.150; -845.000; -874.000
217.797;  -88.675; -708.000; -659.000
217.942; -120.225; -856.000; -720.000
218.086;   68.500;  608.000;  539.000
218.231;  -21.650; -174.000;  -26.000
218.376;  -25.275; -337.000; -229.000
218.520;    0.625;  -41.000;   96.000
218.665;  -27.450; -338.000; -204.000
218.810;  -41.475; -275.000; -233.000
218.954;   32.050;  201.000;   35.000
219.099; -106.475; -713.000; -963.000
219.243;  -64.775; -589.000; -554.000
219.388;  -29.150; -264.000; -136.000
219.532;    1.575; -116.000; -116.000
219.677;  -83.550; -564.000; -521.000
219.822;   14.450;   33.000;   89.000
219.966;   18.225;   17.000;  -99.000
220.111;  -25.925; -328.000;  -40.000
220.255;  -96.725; -797.000; -750.000
220.400;  -16.350; -180.000; -146.000
220.544;  -69.050; -516.000; -450.000
220.689;  -44.950; -422.000; -451.000
220.833;   -3.500; -123.000;  -58.000
220.978;  -33.175; -393.000; -563.000
221.122;   25.400;  319.000;  307.000
221.267; -108.800; -906.000; -837.000
221.411;  -61.975; -478.000; -394.000
221.555;   -9.250; -104.000;  -23.000
221.700;  -53.625; -329.000; -222.000
221.844;   35.000;  255.000;  272.000
221.989;  -41.250; -328.000; -311.000
222.133;  -30.575; -289.000; -307.000
222.277;    2.575;    5.000;   78.000
222.422;   22.000;  227.000;  113.000
222.566;  -32.300; -381.000; -214.000
222.711;  -40.800; -414.000; -479.000
222.855;  -74.025; -643.000; -586.000
222.999;  -78.500; -642.000; -717.000
223.144;  -33.100; -195.000; -194.000
223.288;   47.125;  423.000;  251.000
223.432;   27.225;  184.000;  230.000
223.576;   25.725;  152.000;  -21.000
223.721;   42.025;  364.000;  273.000
223.865;  -42.175; -472.000; -475.000
224.009;  255.750; 1673.000; 1631.000
224.153;  -79.525; -660.000; -671.000
224.298;  -68.000; -531.000; -489.000
224.442;   -5.150;  -74.000;  -33.000
224.586;   -3.750; -169.000; -106.000
224.730;  -96.450; -858.000; -670.000
224.875; -100.575; -739.000; -688.000
225.019;    4.625;  102.000;  188.000
225.163;   51.050;  208.000;  341.000
225.307;   14.350;   97.000;  -91.000
225.451;   51.325;  360.000;  481.000
225.595;   57.950;  264.000;  176.000
225.739;  -17.225; -170.000;  -94.000
225.884;    8.175;   86.000;    5.000
226.028;  -91.375; -760.000; -626.000
226.172;  -40.650; -260.000; -273.000
226.316; -118.250; -941.000; -902.000
226.460;  -61.300; -645.000; -493.000
226.604;  -59.275; -406.000; -400.000
226.748;  -92.075; -836.000; -733.000
226.892;  -26.850; -227.000; -181.000
227.036;  -38.600; -537.000; -447.000
227.180;  -54.125; -551.000; -375.000
227.324;  -61.500; -561.000; -580.000
227.468; -114.925; -819.000; -717.000
227.612;   23.500;  242.000;  -28.000
227.756; -113.775; -845.000; -698.000
227.900;   67.400;  342.000;  441.000
228.044;  -59.175; -509.000; -290.000
228.188;   60.675;  448.000;  568.000
228.332;  -90.250; -546.000; -472.000
228.476;  -27.375; -223.000; -149.000
228.620;  -33.600; -210.000; -150.000
228.764;   86.200;  431.000;  349.000
228.908;  -17.225; -155.000;   30.000
229.052;  -63.950; -615.000; -528.000
229.195;  -15.625; -172.000;   13.000
229.339;  -25.325; -235.000; -305.000
229.483;  -25.775;    5.000; -162.000
229.627;    6.925; -156.000;  139.000
229.771;  -35.175; -218.000; -294.000
229.915;   21.875;  230.000;   79.000
230.059;  -79.500; -648.000; -663.000
230.202;  -39.775; -370.000; -317.000
230.346;  -20.750; -107.000;  107.000
230.490;  -57.000; -489.000; -521.000
230.634; -106.875; -736.000; -553.000
230.777;   86.775;  478.000;  509.000
230.921;  -77.875; -450.000; -359.000
231.065;  -40.725; -246.000; -286.000
231.209;   30.725;  261.000;  265.000
231.352;   26.350;   54.000;   40.000
231.496;   29.500;  568.000;  188.000
231.640;  -78.300; -693.000; -621.000
231.783;   83.475;  546.000;  525.000
231.927;  -41.750; -294.000; -365.000
232.071; -118.300; -962.000; -736.000
232.214; -101.950; -980.000; -764.000
232.358;  -90.625; -683.000; -599.000
232.502;   14.250;  -19.000;    7.000
232.645; -140.875;-1090.000; -927.000
232.789;  -25.550; -257.000; -218.000
232.933;  -39.700; -407.000; -224.000
233.076; -129.800;-1038.000; -897.000
233.220; -107.325; -752.000; -777.000
233.363;  -69.850; -669.000; -477.000
233.507;   66.125;  371.000;  129.000
233.650;  -93.150; -764.000; -834.000
233.794;   49.150;  438.000;  461.000
233.938;  -57.725; -530.000; -362.000
234.081;  -14.225;  -93.000;   31.000
234.225;  -72.800; -631.000; -539.000
234.368; -112.850; -773.000; -723.000
234.512;  -37.825; -385.000; -299.000
234.655;  -91.875; -582.000; -555.000
234.798;  -63.075; -493.000; -466.000
234.942; -130.425; -884.000;-1002.000
235.085;  -65.500; -651.000; -443.000
235.229;  -57.800; -405.000; -410.000
235.372;  -47.125; -247.000; -191.000
235.516;  -60.975; -397.000; -321.000
235.659;   20.300;   92.000;  121.000
235.802;  -12.175;  -38.000;  -22.000
235.946;   42.975;  335.000;  215.000
236.089;   30.450;  126.000;  250.000
236.233;   56.375;  275.000;  298.000
236.376;  -53.875; -235.000; -378.000
236.519;  -33.950; -297.000; -319.000
236.663;  -28.925; -215.000; -117.000
236.806; -135.025;-1029.000; -999.000
236.949;   51.700;  543.000;  431.000
237.092;   65.500;  412.000;  391.000
237.236;  -92.825; -589.000; -502.000
237.379;   76.950;  352.000;  428.000
237.522; -122.875; -879.000; -768.000
237.666;  -14.850; -271.000;   18.000
237.809; -127.125; -851.000; -823.000
237.952;   50.725;  469.000;  271.000
238.095;  -68.800; -447.000; -442.000
238.238;   96.675;  688.000;  700.000
238.382;   11.625;  166.000;  103.000
238.525;  -65.300; -598.000; -511.000
238.668; -136.225;-1060.000; -985.000
238.811;  -75.250; -638.000; -643.000
238.954;  -57.550; -483.000; -334.000
239.097;  103.200;  617.000;  664.000
239.241;   20.450;  394.000;  326.000
239.384;  -33.700; -254.000; -214.000
239.527;  -52.850; -424.000; -224.000
239.670; -139.600; -994.000;-1091.000
239.813; -110.700; -696.000; -658.000
239.956;   74.200;  579.000;  473.000
240.099; -110.600; -778.000; -725.000
240.242;   61.025;  428.000;  432.000
240.385;   54.900;  466.000;  450.000
240.528;  -67.800; -706.000; -473.000
240.671;   11.225;  189.000;  134.000
240.814;  -32.125; -441.000; -158.000
240.957;  -99.025; -767.000; -578.000
241.100;  -85.700; -779.000; -755.000
241.243; -126.600;-1234.000; -893.000
241.386;  -57.400; -508.000; -379.000
241.529;  -81.500; -735.000; -547.000
241.672;  -59.600; -566.000; -495.000
241.815; -121.300; -832.000; -808.000
241.958;  -26.825; -125.000; -182.000
242.101;  -75.100; -545.000; -390.000
242.244;  -28.575; -270.000; -325.000
242.387;  -34.950; -304.000; -246.000
242.530;   51.000;  470.000;  134.000
242.673;  -33.500; -381.000; -309.000
242.815; -126.450; -925.000; -899.000
242.958;  -52.600; -482.000; -381.000
243.101;   27.350;  132.000;  187.000
243.244;  -77.500; -564.000; -521.000
243.387;  -43.825; -313.000; -316.000
243.530;  -92.800; -657.000; -674.000
243.672;    0.700;   43.000;  -92.000
243.815;  -59.450; -355.000; -283.000
243.958;   -1.575;   98.000;  -26.000
244.101;   -4.925;   59.000;  -16.000
244.243;   -9.025;  -47.000;  101.000
244.386; -121.925; -761.000; -630.000
244.529;   -9.475; -132.000; -139.000
244.672; -160.450;-1154.000; -951.000
244.814;  -94.450; -621.000; -794.000
244.957;  -45.450; -380.000; -304.000
245.100;  -60.675; -489.000; -489.000
245.242;  -56.550; -387.000; -374.000
245.385;   -4.625;  -59.000;  -39.000
245.528; -110.925; -871.000; -705.000
245.670;  103.650;  612.000;  634.000
245.813;  -80.175; -599.000; -547.000
245.956;  -14.050; -324.000; -275.000
246.098;  -73.650; -508.000; -650.000
246.241;   10.400;  194.000;   48.000
246.383;   -9.100; -119.000;  -73.000
246.526;  -65.775; -454.000; -525.000
246.669; -128.050; -889.000; -780.000
246.811;   16.350;  172.000;   -1.000
246.954;  -69.025; -512.000; -426.000
247.096;  -14.725;  -84.000;   -6.000
247.239;  -54.825; -482.000; -445.000
247.381;  -64.225; -647.000; -488.000
247.524;   84.150;  645.000;  679.000
247.666;    7.400;   58.000;   11.000
247.809; -112.875; -887.000; -691.000
247.951;   -9.125;  -75.000;  138.000
248.094;   40.925;  432.000;  308.000
248.236; -156.025;-1262.000;-1238.000
248.378;   11.100; -356.000;  -81.000
248.521;  -18.975; -334.000; -337.000
248.663;  -39.500; -236.000; -267.000
248.806;   -7.650; -300.000; -266.000
248.948;  -85.050; -886.000; -763.000
249.090;  -34.575; -428.000; -398.000
249.233;  -49.450; -344.000; -381.000
249.375;  -53.325; -474.000; -451.000
249.518;  -20.450;  -83.000; -133.000
249.660;  -10.725; -103.000;    3.000
249.802; -167.700;-1303.000;-1189.000
249.945;  -66.000; -612.000; -540.000
250.087; -119.500; -834.000; -768.000
250.229;  -50.775; -362.000; -480.000
250.371;  -80.425; -494.000; -439.000
250.514;  -41.950; -310.000; -244.000
250.656;  -72.425;   69.000;  102.000
250.798;  -98.225; -849.000; -800.000
250.940;  -56.050; -322.000; -322.000
251.083;  -17.125; -335.000; -111.000
251.225;   56.625;  338.000;  310.000
251.367;  -28.650; -274.000; -373.000
251.509;  -33.875; -265.000; -210.000
251.651;  -86.900; -731.000; -671.000
251.794;   55.475;  538.000;  632.000
251.936; -111.550; -821.000; -747.000
252.078;  -72.475; -540.000; -461.000
252.220;  -66.375; -645.000; -477.000
252.362;   89.400;  344.000;  462.000
252.504;  -47.825; -677.000; -584.000
252.646; -116.775; -875.000; -722.000
252.788;   -4.825;   14.000; -128.000
252.931;  -40.075; -257.000; -253.000
253.073;  -39.650; -376.000; -317.000
253.215;   14.175;  141.000;  122.000
253.357;    3.275;   82.000; -153.000
253.499;  -54.725; -374.000; -234.000
253.641;  -80.200; -749.000; -594.000
253.783;  -86.550; -609.000; -527.000
253.925;  -92.950; -586.000; -591.000
254.067; -109.550; -744.000; -667.000
254.209;  -16.500; -391.000; -259.000
254.351; -140.950; -865.000; -883.000
254.493;  -62.250; -441.000; -417.000
254.635; -117.550; -936.000; -818.000
254.777;  -91.625; -752.000; -687.000
254.918;  -64.875; -512.000; -430.000
255.060;  -39.825; -551.000; -395.000
255.202;  -57.575; -473.000; -261.000
255.344;  -67.300; -658.000; -455.000
255.486;  -66.500; -471.000; -406.000
255.628; -102.950; -780.000; -781.000
255.770;  -84.500; -676.000; -536.000
255.912;  -61.375; -559.000; -468.000
256.053;  -81.350; -730.000; -508.000
256.195;  179.475; 1008.000;  903.000
256.337;  -96.750; -861.000; -595.000
256.479;   66.150;  532.000;  416.000
256.621;  -46.725; -394.000; -212.000
256.762;  -89.675; -789.000; -742.000
256.904;   57.375;  485.000;  487.000
257.046;  -37.925; -381.000; -271.000
257.188;  -37.400; -351.000; -264.000
257.329;  -63.150; -525.000; -464.000
257.471; -116.400; -939.000; -807.000
257.613;  -60.500; -584.000; -498.000
257.755; -152.150;-1073.000; -982.000
257.896;   43.925;  286.000;  392.000
258.038;  -75.275; -403.000; -352.000
258.180;  -31.175; -354.000; -279.000
258.321;  -91.350; -581.000; -457.000
258.463;    0.975;  -71.000;  133.000
258.605;  -80.475; -562.000; -570.000
258.746;  -91.775; -886.000; -772.000
258.888; -145.950;-1026.000;-1020.000
259.029;   31.125;  121.000;   -8.000
259.171; -100.000; -614.000; -550.000
259.313;  -13.875;  -49.000;  -47.000
259.454;  -74.675; -536.000; -414.000
259.596;  -43.150; -483.000; -390.000
259.737;  -78.100; -590.000; -474.000
259.879;   47.475;  217.000;  311.000
260.020;   93.425;  901.000;  636.000
260.162;  -20.500; -146.000; -253.000
260.303; -115.275; -768.000; -687.000
260.445;  -73.675; -609.000; -613.000
260.586;   43.825;  392.000;  157.000
260.728;  -30.450; -360.000; -248.000
260.869; -120.950; -350.000; -343.000
261.011;   97.525;  706.000;  537.000
261.152;  -65.525; -479.000; -319.000
261.293;  -69.525; -576.000; -595.000
261.435;  -16.325; -219.000; -184.000
261.576;  -45.950; -455.000; -325.000
261.718;   57.150;  420.000;  470.000
261.859; -127.925; -940.000; -949.000
262.000; -139.725; -951.000;-1016.000
262.142;  -15.600;  -52.000;  -60.000
262.283; -118.725; -808.000; -691.000
262.424;  -94.775; -666.000; -625.000
262.566; -158.850;-1161.000; -983.000
262.707; -110.050; -840.000; -830.000
262.848; -112.275; -769.000; -726.000
262.990;  -40.150; -362.000; -345.000
263.131;   82.175;  650.000;  681.000
263.272;   -2.200;  -61.000;  -41.000
263.413;  -91.150; -589.000; -561.000
263.555;  -51.900; -669.000; -143.000
263.696;  -99.125; -550.000; -641.000
263.837;  -48.475; -449.000; -551.000
263.978;   11.625;   -5.000;  -77.000
264.119;  -44.900; -283.000; -264.000
264.261; -107.075; -847.000; -630.000
264.402;    2.425;   33.000;   40.000
264.543;  -81.200; -509.000; -524.000
264.684;   -4.725;   61.000;  -50.000
264.825;  -76.075; -816.000; -538.000
264.966;   23.550;  -84.000;  -67.000
265.107; -108.575; -646.000; -670.000
265.248; -118.600; -825.000; -812.000
265.390;  -10.000;  152.000;   -9.000
265.531;  -32.800; -238.000; -107.000
265.672;  -94.000; -557.000; -630.000
265.813;   70.875;  563.000;  439.000
265.954; -153.600; -959.000; -940.000
266.095;  -17.900; -372.000; -322.000
266.236;  -97.925; -686.000; -548.000
266.377;  -28.025; -243.000; -297.000
266.518;  -90.800; -619.000; -547.000
266.659;   28.525;  170.000;  268.000
266.800;   14.775;   83.000;   85.000
266.941;  -67.525; -487.000; -478.000
267.082;   44.475;  354.000;   99.000
267.223;  -50.275; -344.000; -273.000
267.364; -122.100; -892.000; -686.000
267.504;   -8.000;    3.000;  135.000
267.645;   -0.400;  160.000;   67.000
267.786;  -15.300; -147.000;  -86.000
267.927;  -76.700; -473.000; -379.000
268.068;  -17.900; -186.000;  -61.000
268.209;  -51.400; -175.000; -413.000
268.350;  -54.625; -388.000; -532.000
268.490;  -96.250; -648.000; -521.000
268.631;   31.125;  127.000;  225.000
268.772; -110.450; -874.000; -647.000
268.913;  -35.375; -328.000; -476.000
269.054;  -14.600; -117.000;   12.000
269.194;  -33.050; -418.000; -402.000
269.335; -155.600;-1137.000;-1074.000
269.476;  -16.275;   33.000;  -35.000
269.617;  -62.400; -347.000; -392.000
269.757;  -99.150; -713.000; -646.000
269.898; -102.200; -856.000; -613.000
270.039;  -49.275; -415.000; -405.000
270.180; -131.900; -952.000; -816.000
270.320;  -17.250; -190.000; -250.000
270.461;  -39.325; -277.000; -249.000
270.602;  -16.625; -186.000; -156.000
270.742; -125.975; -868.000; -943.000
270.883;  -45.050; -442.000; -390.000
271.023;  -53.350; -358.000; -357.000
271.164;  -64.800; -607.000; -528.000
271.305; -103.400; -666.000; -654.000
271.445;  -83.025; -722.000; -683.000
271.586;  -60.150; -462.000; -283.000
271.726;  -43.025; -397.000; -322.000
271.867;  -59.875; -594.000; -534.000
272.008;  194.675; -473.000; -285.000
272.148;  125.775;  462.000;  468.000
272.289;   10.300; -113.000; -181.000
272.429;   22.775;   19.000;  185.000
272.570;  -93.875; -633.000; -737.000
272.710; -105.750; -825.000; -775.000
272.851;  -24.100;  113.000; -130.000
272.991; -160.375;-1173.000;-1077.000
273.131;  -67.375; -419.000; -459.000
273.272;  -97.700; -683.000; -723.000
273.412;   19.350; -143.000;  -31.000
273.553;  -49.150; -488.000; -507.000
273.693;  148.725;  913.000;  858.000
273.834;  -82.925; -894.000; -692.000
273.974;  -58.375; -664.000; -615.000
274.114; -100.475; -772.000; -560.000
274.255;   85.175;  414.000;  373.000
274.395;    9.750; -180.000; -125.000
274.535;   48.275;  199.000;  350.000
274.676;   33.800;  225.000;   94.000
274.816;   11.625;  110.000;   34.000
274.956;  -91.300; -624.000; -690.000
275.097;  -56.825;-1014.000; -922.000
275.237; -110.850; -913.000; -803.000
275.377; -105.375; -778.000; -689.000
275.517; -147.150; -878.000; -937.000
275.658;  -51.800; -590.000; -555.000
275.798;  -54.350; -606.000; -413.000
275.938;   20.625;  215.000;  323.000
276.078; -102.450; -626.000; -395.000
276.218;    8.525;   99.000;  104.000
276.359; -128.750;-1026.000;-1024.000
276.499;  -54.975; -605.000; -446.000
276.639;  -34.575; -305.000; -151.000
276.779;  -38.625; -475.000; -357.000
276.919; -104.875; -783.000; -624.000
277.059;  -16.075; -261.000; -212.000
277.199;  -34.350; -357.000; -259.000
277.340;   67.300;  287.000;  175.000
277.480; -118.825; -840.000; -693.000
277.620;   40.700;  192.000;   16.000
277.760; -207.725;-1533.000;-1294.000
277.900;   24.075;  113.000;   33.000
278.040;   22.225;  137.000;  159.000
278.180;   33.875;  270.000;  170.000
278.320;    7.475;   21.000;   56.000
278.460;  -78.275; -443.000; -469.000
278.600;  -96.825; -708.000; -598.000
278.740;   66.050;  448.000;  224.000
278.880;  -48.825; -768.000; -791.000
279.020;    6.575; -194.000; -144.000
279.160;  -84.800; -672.000; -595.000
279.300; -117.125; -926.000; -873.000
279.440;  -78.275; -709.000; -622.000
279.579;   -8.075;-1014.000; -929.000
279.719;  -32.800; -410.000; -394.000
279.859;   85.825;   -4.000;   41.000
279.999;   41.350; -208.000;  101.000
280.139;  -26.750; -435.000; -387.000
280.279;  -72.225; -708.000; -745.000
280.419;  -11.225; -229.000; -147.000
280.559;  -16.050; -259.000; -180.000
280.698;  -97.250; -790.000; -639.000
280.838; -101.275; -778.000; -800.000
280.978;  -87.650; -846.000; -790.000
281.118; -107.225; -811.000; -704.000
281.257;    6.350;   24.000;    6.000
281.397; -116.800;-1094.000; -960.000
281.537;  -75.250; -599.000; -712.000
281.677;  -14.850; -150.000; -101.000
281.816;  -89.425; -700.000; -630.000
281.956;  -24.900; -193.000; -257.000
282.096;  -59.950; -539.000; -396.000
282.235; -102.650; -672.000; -638.000
282.375;  -17.300; -243.000;  -98.000
282.515; -111.500; -715.000; -707.000
282.654;   42.925;   29.000;  106.000
282.794;   20.625;  388.000;  244.000
282.934;  -55.500; -530.000; -491.000
283.073; -143.525;-1030.000; -857.000
283.213;  -40.950; -460.000; -467.000
283.353;  -35.050; -408.000; -349.000
283.492;  -31.325; -264.000; -296.000
283.632;  -41.100; -254.000; -168.000
283.771;  -97.925; -859.000; -730.000
283.911;  -47.800; -369.000; -260.000
284.050; -106.650; -794.000; -748.000
284.190; -158.325;-1229.000;-1096.000
284.329; -136.325;-1055.000; -964.000
284.469;  -74.900; -516.000; -591.000
284.608;  -57.825; -559.000; -598.000
284.748;  -80.500; -614.000; -570.000
284.887;    2.625;  -87.000;  -20.000
285.027; -134.750; -844.000; -892.000
285.166;  -32.000; -192.000; -249.000
285.306;    1.075; -116.000;  -33.000
285.445;  -36.500; -229.000; -343.000
285.584;  -93.950; -630.000; -494.000
285.724;  -29.825; -282.000; -322.000
285.863; -119.225; -857.000; -507.000
286.002;  -41.850; -366.000; -276.000
286.142; -106.100; -715.000; -622.000
286.281;  -76.275; -525.000; -493.000
286.420;  -77.850; -554.000; -417.000
286.560;  113.700;  653.000;  623.000
286.699; -139.850; -958.000; -912.000
286.838;  -88.675; -590.000; -591.000
286.978;  -89.525; -533.000; -537.000
287.117; -126.900;-1085.000; -950.000
287.256;  -27.600; -228.000; -211.000
287.395;  -63.625; -197.000; -378.000
287.535;  -50.500; -370.000; -298.000
287.674;  -81.650; -509.000; -484.000
287.813;   45.325;  661.000;  533.000
287.952; -129.475;-1010.000; -871.000
288.091; -147.375;-1049.000; -915.000
288.231;   20.850;   13.000;   15.000
288.370; -172.800;-1217.000;-1200.000
288.509;  -94.800; -728.000; -645.000
288.648; -100.250; -770.000; -548.000
288.787;  -32.400; -243.000;  -87.000
288.926;  -69.875; -454.000; -475.000
289.065;  130.150;  859.000;  672.000
289.204;  -47.825; -377.000; -217.000
289.344;  -87.700; -791.000; -690.000
289.483;   17.750;  416.000;  304.000
289.622;  -26.400; -291.000; -149.000
289.761;   -9.875; -309.000; -166.000
289.900; -105.775; -785.000; -626.000
290.039;  -28.075;  -12.000;  -95.000
290.178;  -30.500; -274.000; -180.000
290.317;  -75.275; -618.000; -479.000
290.456;  -62.900; -463.000; -451.000
290.595; -137.550; -961.000; -833.000
290.734; -134.900; -904.000; -891.000
290.873;  -65.650; -456.000; -420.000
291.011;  -98.675; -833.000; -843.000
291.150;  -91.725; -770.000; -682.000
291.289;  -15.775; -343.000; -110.000
291.428;  -98.175; -599.000; -480.000
291.567;  -29.625; -370.000; -442.000
291.706;    0.200;  109.000;  154.000
291.845;  -87.550; -597.000; -505.000
291.984; -159.975;-1234.000;-1061.000
292.122;   66.750;  602.000;  582.000
292.261;   48.125;  620.000;  463.000
292.400;   15.625; -144.000;  211.000
292.539; -119.050; -959.000; -813.000
292.678;  -16.025; -325.000; -300.000
292.816; -150.125;-1136.000; -965.000
292.955;  -81.425; -844.000; -684.000
293.094;  -22.725; -173.000; -337.000
293.233;  -59.575; -556.000; -400.000
293.371;  -46.800; -225.000;  -84.000
293.510; -106.225; -866.000; -780.000
293.649; -128.450; -959.000; -924.000
293.787;  -63.525;-1083.000;-1012.000
293.926;   -0.850; -113.000;  -32.000
294.065;  -52.475; -379.000; -290.000
294.203;   66.175;  298.000;  406.000
294.342;   24.625;   74.000;  156.000
294.481; 6593.800;51180.000; -836.000
294.619;  -19.500; -425.000; -582.000
294.758; -147.425;-1230.000;-1137.000
294.896;   84.975; -125.000;    5.000
295.035; -127.750;-1040.000;-1006.000
295.174; -125.150;-1082.000; -954.000
295.312;  -32.275; -323.000; -203.000
295.451;  -11.300; -307.000; -428.000
295.589;  -44.150; -389.000; -518.000
295.728;   20.450; -292.000; -165.000
295.866;   -0.250;  -36.000;  -51.000
296.005;  -67.625; -584.000; -341.000
296.143;  -68.550; -558.000; -596.000
296.282; -100.750; -957.000; -881.000
296.420;  -81.825; -657.000; -557.000
296.559;  -66.400; -892.000; -633.000
296.697;   21.225; -847.000; -665.000
296.835;   65.175;-1141.000;-1002.000
296.974;   47.625;  -23.000;   39.000
297.112;   15.025; -443.000; -504.000
297.251;  -87.200; -815.000; -755.000
297.389;   98.425; -576.000; -438.000
297.527;   32.375; -145.000;  -83.000
297.666;  -46.775; -486.000; -438.000
297.804;  -49.850; -404.000; -264.000
297.942;   -1.375; -136.000; -161.000
298.081;  -16.100; -183.000;   63.000
298.219;   74.875;  -17.000;  -19.000
298.357;   66.400; -144.000;  -71.000
298.495;   39.050; -810.000; -812.000
298.634;   65.700;  245.000;  219.000
298.772;   72.875; -220.000; -338.000
298.910;  -36.700; -309.000; -182.000
299.048;  -13.675; -130.000; -153.000
299.187;  -40.850; -350.000; -250.000
299.325;   40.600;   52.000;  122.000
299.463;   47.650; -389.000; -299.000
299.601;  124.600; -327.000; -271.000
299.739; -111.325; -908.000; -883.000
299.877;  -76.550; -791.000; -703.000
300.016;  -36.025;-1095.000; -935.000
300.154;  168.500;  -19.000; -161.000
300.292;   48.125; -428.000; -348.000
300.430;   33.600; -408.000; -291.000
300.568;  -96.500; -940.000; -874.000
300.706;  -38.025; -366.000; -469.000
300.844;  -79.975;-1108.000; -979.000
300.982;  123.100;  246.000;  282.000
301.120; -116.775; -965.000; -866.000
301.258;  -66.875; -812.000; -705.000
301.396;   31.375;  104.000;  -41.000
301.534;   87.600; -218.000; -293.000
301.672;   -6.325; -664.000; -521.000
301.810;   35.575; -613.000; -545.000
301.948;  126.550;   53.000;  149.000
302.086;  622.325; -250.000;  -32.000
302.224;  979.325; -610.000; -585.000
302.362;   51.700; -558.000; -622.000
302.500;  -24.275; -923.000; -893.000
302.638;  116.150;  128.000;  245.000
302.776;   12.075; -352.000; -408.000
302.913;   59.600;  447.000;  236.000
303.051;  -12.925;  -86.000;  -23.000
303.189;   56.425;   90.000;  118.000
303.327;  -32.025; -341.000; -256.000
303.465;  -73.075; -832.000; -588.000
303.603;  -84.100; -805.000; -604.000
303.740;  101.950;  417.000;  241.000
303.878;   20.875; -800.000; -759.000
304.016;  -94.500; -915.000; -790.000
304.154; -138.650;-1123.000;-1152.000
304.291;  -24.900; -505.000; -554.000
304.429;    9.875;  102.000;   74.000
304.567; -128.875; -908.000; -893.000
304.705;  -65.600; -408.000; -515.000
304.842;  100.750; -616.000; -540.000
304.980;   52.950;  215.000;   35.000
305.118;   43.200; -367.000; -365.000
305.255;  -79.800; -945.000; -927.000
305.393;   67.050;  178.000;  239.000
305.531; -101.950;-1173.000; -956.000
305.668;  -67.275; -663.000; -582.000
305.806;  103.725; -358.000; -439.000
305.943;  107.875; -629.000; -637.000
306.081;   65.225; -378.000; -267.000
306.219;  -86.700; -863.000; -748.000
306.356;   11.625;  158.000;   27.000
306.494;  120.700;  981.000;  761.000
306.631;   -4.525;  -11.000;  -55.000
306.769;    4.175; -613.000; -485.000
306.906;  -23.150; -284.000; -258.000
307.044;  -55.650; -473.000; -488.000
307.181;  -66.400; -410.000; -332.000
307.319;   39.125;  112.000;   87.000
307.456; -179.875;-1191.000;-1153.000
307.594;  -82.825; -980.000; -727.000
307.731;   -7.750; -371.000; -164.000
307.868;   12.875;  -15.000;   20.000
308.006; -130.275; -961.000; -847.000
308.143;  -62.600; -618.000; -330.000
308.281;  116.700;  -37.000; -254.000
308.418;  -24.400; -748.000; -640.000
308.555;  -71.500; -400.000; -250.000
308.693;  -80.475; -577.000; -573.000
308.830; -107.075; -712.000; -657.000
308.967;   -9.125; -215.000;  -95.000
309.105;  -62.450; -507.000; -396.000
309.242;   20.525; -468.000; -367.000
309.379;  228.300; -577.000; -655.000
309.517;  -73.025; -936.000; -948.000
309.654; -109.025; -910.000; -734.000
309.791;  -68.300; -662.000; -580.000
309.928; -126.700; -977.000; -914.000
310.065;  198.575;  819.000;  697.000
310.203;    9.725; -825.000; -850.000
310.340;   -2.075; -465.000; -321.000
310.477;  -91.425; -412.000; -516.000
310.614;  -67.175; -383.000; -473.000
310.751;  -74.925; -427.000; -518.000
310.889;  -11.050;    1.000;   11.000
311.026; -156.250;-1161.000; -939.000
311.163;  -44.900; -386.000; -380.000
311.300;  -73.475; -512.000; -479.000
311.437;  -82.375; -658.000; -619.000
311.574; -160.550;-1226.000; -985.000
311.711;  -58.225; -595.000; -433.000
311.848;  -48.575; -380.000; -388.000
311.985;   17.675;  270.000;   93.000
312.122; -120.475; -932.000; -762.000
312.259; -127.150; -941.000; -994.000
312.396;  -75.575; -508.000; -551.000
312.533;  -83.825; -812.000; -790.000
312.670; -136.250;-1070.000; -898.000
312.807;  -34.600; -352.000; -367.000
312.944;  -85.675; -513.000; -611.000
313.081;  -25.050; -150.000; -415.000
313.218; -116.025;-1111.000; -867.000
313.355;   21.075; -531.000; -449.000
313.492;    9.000; -455.000; -292.000
313.629;  135.100;  815.000;  735.000
313.766; -148.450;-1176.000;-1008.000
313.902;  -11.475; -186.000;   21.000
314.039;  -48.775; -372.000; -289.000
314.176;   27.025;  286.000;  192.000
314.313;  -69.675; -569.000; -473.000
314.450;  -93.975; -788.000; -684.000
314.587;  -62.250; -468.000; -480.000
314.723;    8.800;  -78.000;  130.000
314.860;   34.450;  318.000;  332.000
314.997;   27.275;  223.000;  142.000
315.134;  -42.350; -385.000; -368.000
315.270;  -22.575; -480.000; -496.000
315.407; -116.750;-1094.000; -967.000
315.544;  -52.350; -657.000; -538.000
315.681;  -69.050; -681.000; -565.000
315.817;   28.925; -133.000; -176.000
315.954;   19.900; -613.000; -392.000
316.091; -120.450;-1045.000;-1023.000
316.227;  -25.425;  -71.000; -179.000
316.364;   -1.400;   23.000;    6.000
316.500;  -35.150; -113.000; -300.000
316.637;  -44.675; -181.000; -302.000
316.774;  -76.175; -625.000; -358.000
316.910;  -81.175; -598.000; -629.000
317.047;  -65.025; -487.000; -351.000
317.183;  -44.575; -435.000; -566.000
317.320;   -8.000; -367.000; -321.000
317.456;  -69.750; -733.000; -805.000
317.593;  -84.725; -598.000; -641.000
317.729;   17.075;  168.000;  -67.000
317.866; -196.225;-1434.000;-1285.000
318.002;  -80.825; -708.000; -948.000
318.139;  -91.400; -883.000; -867.000
318.275; -101.775;-1003.000; -738.000
318.412;  -71.775; -517.000; -336.000
318.548;  -46.900; -751.000; -720.000
318.685;  -90.175; -985.000; -888.000
318.821; -100.975; -762.000; -735.000
318.957;  -10.050;   34.000;  -23.000
319.094;   45.900;  297.000;  154.000
319.230;  -71.550; -756.000; -742.000
319.367;  129.850; -471.000; -520.000
319.503;   61.650; -538.000; -436.000
319.639;  -73.000; -877.000; -793.000
319.775;  -59.875; -750.000; -685.000
319.912;  -39.175; -424.000; -519.000
320.048;  -94.250;-1184.000;-1184.000
320.184;   88.100;   59.000;   70.000
320.321;  -60.825; -497.000; -467.000
320.457;   77.525;  475.000;  662.000
320.593;  -61.650; -375.000; -382.000
320.729; -105.175; -732.000; -734.000
320.866;  -72.875; -577.000; -635.000
321.002;  -70.550; -759.000; -809.000
321.138;   -4.575; -135.000; -211.000
321.274;   89.600; -148.000; -115.000
321.410;  -25.900; -585.000; -353.000
321.546;  -32.100;-1011.000; -911.000
321.683;   62.050;  400.000;  185.000
321.819;   23.300;  -48.000; -117.000
321.955; -102.350; -743.000; -722.000
322.091;  -46.475; -585.000; -540.000
322.227;  -15.475; -382.000; -202.000
322.363;    4.850; -320.000; -215.000
322.499;  -41.600; -343.000; -331.000
322.635;  163.650;  636.000;  443.000
322.771;   21.175; -139.000;   12.000
322.907;   95.525;  129.000;  327.000
323.043;  -26.800; -115.000; -206.000
323.179;  -33.875; -394.000; -363.000
323.315;   16.450; -401.000; -371.000
323.451;   96.875; -328.000; -236.000
323.587;   69.900;  -60.000;  -77.000
323.723;   27.200; -682.000; -601.000
323.859;  -10.600; -258.000;  -76.000
323.995;  -20.300; -467.000; -409.000
324.131; -116.900; -967.000; -892.000
324.267;  -31.175; -254.000; -276.000
324.402; -122.700; -960.000; -983.000
324.538;   -9.775; -279.000; -104.000
324.674;   14.400;  164.000;   77.000
324.810;  135.200;  226.000;  308.000
324.946;   10.600; -810.000; -658.000
325.082;  -68.825; -568.000; -475.000
325.217;  -16.175;  -62.000;   16.000
325.353; -105.000; -764.000; -659.000
325.489;  -84.775; -540.000; -506.000
325.625;  -74.425; -579.000; -525.000
325.760;   71.325;  517.000;  376.000
325.896;  -44.225; -515.000; -702.000
326.032;  -57.800; -403.000; -352.000
326.168;  -62.100; -462.000; -369.000
326.303;  -67.125; -352.000; -461.000
326.439;  -24.225; -336.000; -276.000
326.575;   12.425; -190.000;  -29.000
326.710;   -8.750; -156.000;  -30.000
326.846;  -19.375;  146.000;  103.000
326.982;  -84.200; -530.000; -548.000
327.117;  -75.850; -481.000; -442.000
327.253;  -91.575; -745.000; -742.000
327.388; -168.850;-1137.000;-1153.000
327.524;  -40.375; -811.000; -578.000
327.659;  -39.575;  -58.000;  -22.000
327.795;   -0.350;   69.000;   45.000
327.931;  -93.825; -723.000; -499.000
328.066;  -23.625; -417.000; -276.000
328.202;  -32.425;   12.000; -129.000
328.337;  108.300;  957.000;  713.000
328.473;   41.000;  -12.000;  -74.000
328.608;  -24.050; -256.000; -267.000
328.743;  -81.375; -799.000; -664.000
328.879;   17.100;  214.000;  114.000
329.014;  -45.725; -102.000; -122.000
329.150;  -70.925; -358.000; -483.000
329.285;  -77.100; -465.000; -466.000
329.421;  -26.375; -548.000; -246.000
329.556;  -19.725;  -36.000;   85.000
329.691;  -97.975; -633.000; -615.000
329.827;  -83.750; -626.000; -480.000
329.962;  -43.175;  131.000; -301.000
330.097;  -92.000; -673.000; -585.000
330.233;  -52.200; -410.000; -223.000
330.368; -133.250; -839.000; -628.000
330.503;    1.975;    3.000;   98.000
330.638;   16.200;  -93.000; -125.000
330.774;  -60.450; -609.000; -530.000
330.909;  -45.050; -434.000; -244.000
331.044;  -88.800; -714.000; -708.000
331.179; -174.525;-1217.000;-1109.000
331.315;   10.025;   77.000;   20.000
331.450;   20.625;  157.000;  285.000
331.585;  -78.025; -805.000; -706.000
331.720;  -75.525; -510.000; -460.000
331.855;    0.450;  -35.000; -102.000
331.990;  232.025;   62.000;  138.000
332.126;  146.900; -110.000;   71.000
332.261;  -21.750; -379.000; -265.000
332.396;   -5.300; -135.000; -242.000
332.531; -100.650;-1074.000;-1031.000
332.666;   39.675; -519.000; -363.000
332.801; -111.725; -726.000; -807.000
332.936;   -7.150; -192.000; -122.000
333.071; -162.075; -870.000; -817.000
333.206;   21.550;  307.000;  379.000
333.341;   33.525;  344.000;  418.000
333.476;  -98.625; -627.000; -623.000
333.611;  -33.150; -251.000; -173.000
333.746;  -37.500; -381.000; -464.000
333.881; -117.025; -973.000; -935.000
334.016; -134.150; -936.000; -917.000
334.151; -128.525; -746.000; -702.000
334.286;   19.175;  152.000;  186.000
334.421;  -15.325; -125.000; -178.000
334.556;  -72.650; -611.000; -567.000
334.690;  -80.250; -631.000; -577.000
334.825;   64.025;  381.000;   83.000
334.960;  -44.750; -285.000; -413.000
335.095;    9.175;  135.000;  -91.000
335.230;  -99.400; -722.000; -738.000
335.365; -111.075;-1084.000; -990.000
335.499; -124.150;-1108.000;-1037.000
335.634;   31.975;    9.000;  534.000
335.769; -113.725; -755.000; -720.000
335.904;  -55.200; -603.000; -561.000
336.038;  -51.700; -735.000; -657.000
336.173; -126.675;-1206.000;-1194.000
336.308;   -2.475; -116.000; -189.000
336.443;   30.600; -544.000; -634.000
336.577;  -71.300; -936.000; -787.000
336.712;   60.825;   -4.000;  -12.000
336.847;  -36.650; -724.000; -607.000
336.981;   73.000; -272.000; -208.000
337.116;  309.625;  615.000;  501.000
337.250;  156.100; -434.000; -421.000
337.385;  252.625; -297.000; -208.000
337.520;   79.925; -632.000; -603.000
337.654;  -43.625; -215.000; -126.000
337.789; -123.350; -989.000; -933.000
337.923;  -34.250; -104.000; -205.000
338.058;  -86.425; -673.000; -738.000
338.192;  -48.325; -611.000; -488.000
338.327;    4.525;  -18.000; -155.000
338.461;  -73.975; -299.000; -469.000
338.596;  -85.025; -780.000; -638.000
338.730;  -95.450; -767.000; -803.000
338.865;   83.700;  -46.000; -140.000
338.999;  -42.075; -846.000; -702.000
339.134;  -30.900; -634.000; -536.000
339.268;    6.775; -741.000; -603.000
339.403;  358.750; -740.000; -775.000
339.537;   93.525; -894.000; -820.000
339.671; -116.000; -829.000; -813.000
339.806;  -77.350; -556.000; -512.000
339.940;   14.950; -261.000; -235.000
340.074;  -96.650; -685.000; -510.000
340.209;  -26.750; -351.000; -230.000
340.343;  -93.775; -517.000; -573.000
340.477;  147.050;  998.000; 1036.000
340.612;  -52.225;-1033.000; -900.000
340.746;  131.175; -199.000; -243.000
340.880;  -76.825; -924.000; -785.000
341.014;   -5.850;  -45.000; -154.000
341.149; -125.575; -756.000; -718.000
341.283; -111.775; -839.000; -754.000
341.417; -101.750;-1124.000; -938.000
341.551;  144.850; -768.000; -708.000
341.685;  -36.525; -633.000; -611.000
341.820;  -55.825; -562.000; -493.000
341.954;  -53.000; -218.000; -349.000
342.088; -147.500;-1102.000;-1019.000
342.222;   62.175;  565.000;  618.000
342.356;  -45.175; -395.000; -335.000
342.490;  -89.975; -880.000; -841.000
342.624;  -32.625; -339.000; -242.000
342.758;    6.100; -364.000; -312.000
342.892;  -61.425; -710.000; -585.000
343.026;  -24.100;  -58.000; -116.000
343.160;  -48.050; -426.000; -376.000
343.294;  -83.775; -474.000; -337.000
343.428;  -29.100; -488.000; -448.000
343.562;  -14.075; -172.000;  -23.000
343.696;  -31.100; -385.000; -314.000
343.830;  -19.025; -362.000; -356.000
343.964;   16.125; -231.000; -168.000
344.098;  920.250;  199.000;   70.000
344.232;  782.100; -266.000; -127.000
344.366;   90.850; -567.000; -453.000
344.500;   68.725; -665.000; -744.000
344.634;   21.500; -324.000; -164.000
344.768;   -4.575; -531.000; -341.000
344.902;   25.000;  278.000;  256.000
345.035;  -74.725; -556.000; -496.000
345.169; -126.100; -933.000; -656.000
345.303;  -28.125; -308.000; -482.000
345.437;  -67.425; -826.000; -717.000
345.571;  -70.100; -675.000; -594.000
345.704;  -67.275; -309.000; -532.000
345.838;  -11.950; -331.000; -284.000
345.972;  -39.825; -543.000; -495.000
346.106;  164.050; -179.000; -190.000
346.239;  403.650; -312.000; -243.000
346.373;    9.050; -343.000; -302.000
346.507; -137.125; -950.000; -962.000
346.640;  156.975;  -30.000;   13.000
346.774;  -51.675; -650.000; -797.000
346.908;  -13.950; -138.000;  -11.000
347.041;  -96.300; -646.000; -593.000
347.175;   16.025;  259.000;   27.000
347.309;  -72.575; -698.000; -628.000
347.442;  -97.475; -883.000; -732.000
347.576;  284.500;  670.000;  668.000
347.709;  203.975; -123.000;  -52.000
347.843;  -89.775; -933.000; -825.000
347.976;   46.425;  235.000;  294.000
348.110; -169.075;-1268.000;-1186.000
348.243; -100.275; -679.000; -772.000
348.377;    7.250;  -26.000;   60.000
348.510;   52.550;  403.000;  540.000
348.644;  -30.000;  -37.000; -159.000
348.777;   -1.425;  180.000;  191.000
348.911;  -44.825; -142.000; -112.000
349.044;  182.425;  471.000;  448.000
349.178;  154.500;-1069.000;-1006.000
349.311;  121.675;  141.000;  255.000
349.444;    0.975; -927.000; -813.000
349.578;  -25.975; -347.000; -200.000
349.711; -121.375; -959.000; -862.000
349.845;   -1.675; -661.000; -591.000
349.978; -140.625;-1224.000;-1137.000
350.111;  -78.800; -546.000; -612.000
350.244;  -80.575; -596.000; -700.000
350.378;   17.825; -392.000; -393.000
350.511;  -79.325; -393.000; -426.000
350.644;  -99.900; -808.000; -806.000
350.778;   15.950;  168.000;  104.000
350.911;    6.225;  134.000;  140.000
351.044;  -91.800; -685.000; -615.000
351.177;  -16.300; -321.000; -281.000
351.310;  -18.725;    3.000; -131.000
351.444;  -75.425; -888.000; -788.000
351.577;  121.825;  140.000;   90.000
351.710;  105.375;  593.000;  417.000
351.843;  -35.225; -165.000;  -77.000
351.976;   21.475;  149.000;  -79.000
352.109;  -89.375; -621.000; -612.000
352.242;  -21.150; -464.000; -419.000
352.376;  -67.650; -580.000; -636.000
352.509;  186.425; -437.000; -356.000
352.642;    9.400; -654.000; -604.000
352.775;   65.750; -141.000;  -98.000
352.908; -127.950; -933.000; -904.000
353.041; -103.225; -814.000; -824.000
353.174;  -46.600; -551.000; -424.000
353.307;  -79.300; -753.000; -764.000
353.440;   59.325;  541.000;  453.000
353.573;  -90.175; -957.000;-1008.000
353.706;  -56.375; -384.000; -558.000
353.839;  -12.700; -264.000; -220.000
353.971;  -85.200; -657.000; -512.000
354.104;  -89.700; -896.000; -835.000
354.237;  -39.500; -627.000; -662.000
354.370;  -81.825; -846.000; -879.000
354.503; -182.625;-1231.000;-1308.000
354.636;  -35.600; -529.000; -348.000
354.769; -130.200; -937.000; -860.000
354.902;   -7.000; -230.000; -139.000
355.034;  -15.800; -164.000; -220.000
355.167;   -3.275; -262.000; -162.000
355.300;  -98.575;-1061.000; -880.000
355.433;  968.450;  -71.000;  -14.000
355.565; 1499.700; -402.000; -384.000
355.698;  379.300; -356.000; -296.000
355.831;   -0.725; -882.000; -801.000
355.964;   75.275; -285.000; -170.000
356.096;  -99.850; -856.000; -843.000
356.229;    8.750; -523.000; -530.000
356.362;  317.050; -373.000; -266.000
356.494;  591.525; -229.000; -162.000
356.627;  469.475;  269.000;  377.000
356.760;  660.725;  120.000;   53.000
356.892;  954.075; -286.000; -601.000
357.025;  660.225;  403.000;  389.000
357.157;  628.100; -167.000; -179.000
357.290;  663.475; -856.000; -713.000
357.423;  197.175; -667.000; -556.000
357.555;  121.400; -217.000; -228.000
357.688;  128.975; -483.000; -364.000
357.820;  468.225; -870.000; -877.000
357.953; 3837.900; -563.000; -589.000
358.085;  822.025; -632.000; -612.000
358.218; 1183.725;-1131.000; -932.000
358.350;  217.300;  -58.000;  312.000
358.483; -137.825;-1300.000;-1187.000
358.615;  -22.425;-1182.000;-1078.000
358.747;  -52.525;-1187.000;-1058.000
358.880;   39.025; -810.000; -744.000
359.012;   -8.150; -376.000; -202.000
359.145;  -21.425; -480.000; -511.000
359.277;   73.575; -962.000; -913.000
359.409; 3173.125;  536.000;  231.000
359.542;  816.525; -738.000; -688.000
359.674;   84.575;   46.000;   13.000
359.806;  -82.100; -565.000; -438.000
359.939;  -35.250; -617.000; -516.000
360.071;  -17.175; -583.000; -579.000
360.203;  -24.250; -411.000; -364.000
360.335;   43.400;  164.000;  -16.000
360.468;  202.350; -249.000; -307.000
360.600; 2536.000; -547.000; -454.000
360.732; 2842.500; -546.000; -423.000
360.864;  390.850;-1216.000;-1044.000
360.996;  277.600; -516.000; -554.000
361.129;   40.050; -389.000; -598.000
361.261;   23.150;  110.000; -113.000
361.393;  -31.150; -252.000; -214.000
361.525;   21.600;   94.000;  244.000
361.657;  -44.625; -821.000; -703.000
361.789;   20.650; -139.000; -155.000
361.921;  211.025; -642.000; -593.000
362.053;  282.250;  524.000;  541.000
362.185;   54.150;  288.000;   72.000
362.318;  -82.325; -709.000; -705.000
362.450;  132.900;  294.000;  444.000
362.582;  122.200; -913.000; -870.000
362.714;  -41.675; -353.000; -332.000
362.846;  -95.175; -606.000; -490.000
362.978; -144.500; -941.000; -811.000
363.109;   44.150; -161.000; -260.000
363.241;  456.000; -739.000; -749.000
363.373;  437.625; -649.000; -564.000
363.505;  680.450; -186.000;  -91.000
363.637;  135.100; -787.000; -601.000
363.769; -117.400;-1067.000;-1080.000
363.901;  -58.750; -596.000; -654.000
364.033; -125.600;-1103.000;-1062.000
364.165;    8.300; -283.000; -283.000
364.296;   78.650; -316.000; -177.000
364.428;   73.150;-1344.000;-1220.000
364.560;  -57.025; -679.000; -661.000
364.692;  -66.250; -738.000; -835.000
364.824;  279.125; -588.000; -456.000
364.955;  429.925; -402.000; -564.000
365.087;  907.250;-1097.000; -852.000
365.219;   32.250; -686.000; -816.000
365.351;  -66.700; -526.000; -572.000
365.482;   62.000;  300.000;  240.000
365.614;  -48.450; -402.000; -314.000
365.746;  -95.075; -729.000; -752.000
365.877; -103.950; -706.000; -672.000
366.009;  269.325;  -35.000;  -62.000
366.141;  -89.325;-1249.000;-1134.000
366.272; -103.675; -803.000; -719.000
366.404; -115.050;-1005.000; -874.000
366.535;    2.100; -139.000;  -12.000
366.667; -113.225; -644.000; -649.000
366.799;   48.000;  353.000;  203.000
366.930; -110.150; -862.000; -996.000
367.062;  114.300; -639.000; -613.000
367.193;  147.050; -872.000; -842.000
367.325;  -49.450; -580.000; -684.000
367.456;   59.375; -246.000;   31.000
367.588;  149.400; -371.000; -318.000
367.719;   33.825;  -44.000;  -45.000
367.851;   -6.100; -222.000; -241.000
367.982;  -57.200; -875.000; -732.000
368.113;  102.375; -475.000; -358.000
368.245; -127.675; -960.000; -841.000
368.376;  -24.650; -254.000; -302.000
368.508;  -42.600; -188.000; -263.000
368.639; -154.525;-1166.000;-1034.000
368.770;  -11.350; -670.000; -589.000
368.902;  -50.825; -836.000; -926.000
369.033; -113.150; -906.000; -855.000
369.164;  -60.975; -720.000; -653.000
369.296; -108.675; -452.000; -601.000
369.427;    1.475; -209.000; -144.000
369.558;  -44.250; -593.000; -377.000
369.689;  -87.750; -721.000; -569.000
369.821; -139.600; -951.000; -845.000
369.952;  -17.225;   42.000; -108.000
370.083;  -51.450; -229.000; -108.000
370.214;  -71.400; -735.000; -650.000
370.345;    4.675;   65.000;   81.000
370.477;  -77.050; -810.000; -790.000
370.608;  217.075; -328.000; -264.000
370.739;  -53.225;-1233.000;-1292.000
370.870;  -41.700;-1102.000; -923.000
371.001;   98.900; -378.000; -467.000
371.132;  -81.075; -754.000; -735.000
371.263;  -16.100;  -42.000; -148.000
371.394; -128.075; -841.000; -748.000
371.525;   35.050;  345.000;  225.000
371.657;  -92.900; -808.000; -670.000
371.788;   80.175;  103.000;  199.000
371.919;  176.875; -384.000; -304.000
372.050; 3792.325;  -91.000; -156.000
372.181; 1080.850; -188.000; -294.000
372.311;  380.075;   42.000; -127.000
372.442;   39.825; -457.000; -451.000
372.573;  -14.925; -444.000; -340.000
372.704; -122.425;-1008.000; -980.000
372.835;   85.125; -228.000; -289.000
372.966;  -53.400; -646.000; -554.000
373.097;  -56.250; -575.000; -711.000
373.228;  -32.300; -717.000; -542.000
373.359;  139.400; -824.000; -536.000
373.490;  973.225; -881.000; -727.000
373.620; 1204.250;-1001.000; -803.000
373.751; 1871.500; -332.000; -396.000
373.882;  800.675; -663.000; -733.000
374.013;   67.100; -449.000; -262.000
374.143;  -34.700; -581.000; -659.000
374.274; -105.975; -987.000; -908.000
374.405;  179.275; -388.000; -276.000
374.536;  465.000; -526.000; -387.000
374.666; 1158.500; -759.000; -807.000
374.797;  238.625; -817.000; -868.000
374.928;  909.025; -710.000; -560.000
375.058;  914.275; -535.000; -500.000
375.189;   81.550;  -59.000;  -93.000
375.320; -123.850; -928.000;-1034.000
375.450;  -47.075; -625.000; -616.000
375.581;  -43.350; -526.000; -436.000
375.712;  -25.200; -574.000; -250.000
375.842;  300.175; -438.000; -415.000
375.973;  239.725; -554.000; -513.000
376.103;  -47.625; -665.000; -648.000
376.234;  -73.200; -531.000; -552.000
376.364;  -43.475; -944.000; -867.000
376.495;  337.050;  925.000;  529.000
376.625;  -14.550; -472.000; -485.000
376.756;   68.150; -709.000; -678.000
376.886;  -71.150;-1178.000;-1026.000
377.017;   54.700;-1048.000;-1061.000
377.147;  339.150; -786.000; -782.000
377.278;   60.675;  174.000;  228.000
377.408; -124.200; -801.000; -815.000
377.538;  -95.875; -707.000; -693.000
377.669;  -93.100; -537.000; -613.000
377.799;  -82.875; -645.000; -635.000
377.929;  -56.875; -610.000; -428.000
378.060; -132.975; -781.000; -847.000
378.190;  -61.975; -726.000; -531.000
378.320;  -36.600; -401.000; -406.000
378.451;  -14.200; -131.000;  -22.000
378.581;   13.750;  -67.000; -110.000
378.711;  142.300; 1035.000;  866.000
378.841;  -11.125; -533.000; -675.000
378.972;  -67.275; -871.000; -751.000
379.102;  -11.875; -652.000; -579.000
379.232;  -17.000; -126.000;  -73.000
379.362; -107.225;-1001.000; -885.000
379.492;    2.600; -373.000; -424.000
379.623;  107.025;    0.000;  111.000
379.753;  -90.150;-1107.000; -974.000
379.883;  199.600;   59.000;  156.000
380.013;    6.050;-1081.000;-1017.000
380.143;  -94.875;-1097.000;-1056.000
380.273;  -99.750; -985.000; -861.000
380.403;    4.725; -344.000; -257.000
380.533;  -25.975; -651.000; -664.000
380.663;   84.425;  173.000;  128.000
380.793; -103.250;-1027.000;-1074.000
380.923;   -6.175; -103.000;  -34.000
381.053;  -88.900; -613.000; -623.000
381.183;  -31.925; -106.000; -248.000
381.313;   24.875; -656.000; -470.000
381.443;   37.225; -692.000; -473.000
381.573;  205.400; -402.000; -409.000
381.703;  281.525;-1249.000;-1095.000
381.833; -137.125;-1454.000;-1336.000
381.963;  112.325; -134.000;  -87.000
382.093; 1464.675; -925.000; -909.000
382.223;  435.100; -713.000; -602.000
382.353;  -11.175; -801.000; -608.000
382.482;  393.625;-1091.000; -964.000
382.612;  785.125; -872.000; -644.000
382.742;  449.400; -695.000; -622.000
382.872;  278.925; -565.000; -551.000
383.002;   63.575;  347.000; -132.000
383.131;  -14.900; -226.000; -160.000
383.261;  -32.425; -706.000; -768.000
383.391;  297.400; -552.000; -377.000
383.521; 3225.875;  451.000;  263.000
383.650;  711.875; -947.000; -904.000
383.780;   -6.200; -783.000; -656.000
383.910;  112.175;  880.000;  802.000
384.039;    5.925; -794.000; -656.000
384.169;  219.200;-1205.000;-1017.000
384.299;  -18.425; -650.000; -662.000
384.428;  -98.975; -764.000; -680.000
384.558;  -26.900; -308.000; -275.000
384.687;  -54.000; -414.000; -334.000
384.817;   16.725;   75.000;   -2.000
384.947;   25.800; -234.000; -141.000
385.076;  298.075;  982.000;  912.000
385.206;   99.200;  369.000;  480.000
385.335;  -33.050; -549.000; -417.000
385.465;  -83.475; -655.000; -663.000
385.594;  145.275;  -53.000;  -44.000
385.724;  441.500; -868.000; -838.000
385.853;  120.500; -296.000; -270.000
385.982; 1440.450; -743.000; -787.000
386.112; 2181.300;-1052.000; -871.000
386.241;  142.675; -307.000; -312.000
386.371;   29.225; -174.000;  -87.000
386.500;  -10.250; -825.000; -789.000
386.629;   21.950; -874.000; -817.000
386.759;   62.400;  -43.000;   68.000
386.888;  -20.100; -170.000; -250.000
387.017;  -77.000; -648.000; -620.000
387.147;  -96.200; -771.000; -798.000
387.276;    8.650; -410.000; -397.000
387.405;   21.700; -398.000; -342.000
387.535;  -47.025; -452.000; -361.000
387.664;  -53.000; -692.000; -620.000
387.793;   57.600; -198.000; -113.000
387.922;  547.175;  255.000;  200.000
388.052;    9.675; -576.000; -423.000
388.181;   27.750; -342.000; -472.000
388.310;    0.500; -889.000; -710.000
388.439;  -47.575; -749.000; -742.000
388.568;  198.000;  365.000;  244.000
388.697; 1107.125; -756.000; -653.000
388.826;  230.625; -768.000; -666.000
388.956;   49.550; -285.000; -307.000
389.085;  -32.925; -347.000; -287.000
389.214; -115.525; -842.000; -872.000
389.343;  -71.800; -645.000; -413.000
389.472;  409.875;  126.000;  149.000
389.601;  532.075;   91.000;    0.000
389.730;   26.900; -568.000; -687.000
389.859;   76.050;  226.000;   46.000
389.988;  197.000; -423.000; -408.000
390.117;  140.100; -168.000; -146.000
390.246;  -13.150; -331.000; -320.000
390.375;   98.075; -673.000; -626.000
390.504;  -58.050; -703.000; -621.000
390.633; -103.200; -672.000; -726.000
390.761;  -55.850; -732.000; -645.000
390.890;    4.325;   -4.000; -130.000
391.019;  -35.000; -421.000; -441.000
391.148; -130.125; -826.000; -855.000
391.277;  -56.400; -576.000; -493.000
391.406;  -84.450; -821.000; -805.000
391.534;   10.825;  574.000; -301.000
391.663;  -64.350; -583.000; -645.000
391.792;  -79.200; -673.000; -701.000
391.921;   97.100;   -3.000;   15.000
392.050;  196.400; -287.000; -228.000
392.178;  -59.650;-1206.000;-1061.000
392.307;  142.950; -758.000; -712.000
392.436;   82.700; -427.000; -641.000
392.564;   37.250;  166.000;   -6.000
392.693;  -88.875; -860.000; -682.000
392.822;  220.025; -529.000; -534.000
392.950;   83.950; -880.000; -714.000
393.079;  348.450; -188.000; -328.000
393.208;   17.375; -488.000; -511.000
393.336;  -14.100; -170.000; -145.000
393.465;  -56.200; -317.000; -199.000
393.593;   -2.075;   62.000;   79.000
393.722; -149.025;-1121.000; -916.000
393.850;  -33.200; -188.000;  -61.000
393.979; -158.375; -926.000; -805.000
394.107;  -54.025; -517.000; -537.000
394.236;  -33.100; -570.000; -507.000
394.364;  195.750;  383.000;  206.000
394.493;  252.450; -911.000; -767.000
394.621;  -25.850; -955.000; -916.000
394.750;  710.175; -873.000; -923.000
394.878; 2943.700; -247.000; -149.000
395.007; 3969.900; -721.000; -807.000
395.135;  297.000; -790.000; -721.000
395.263;  -85.700;-1038.000;-1040.000
395.392;   -8.800;  -25.000; -107.000
395.520; -131.825; -818.000; -679.000
395.648;  -88.325; -865.000; -915.000
395.777;  -29.100; -366.000; -405.000
395.905;  -51.375; -449.000; -564.000
396.033;   10.550;  217.000;  172.000
396.162;  436.950; -399.000; -453.000
396.290;  384.700;  -17.000;   -2.000
396.418;   97.300; -555.000; -514.000
396.546;  -82.225; -571.000; -466.000
396.674;  -95.450; -850.000; -878.000
396.803;    0.900;  -72.000;  -23.000
396.931;  100.650; -179.000; -199.000
397.059;   36.950;-1026.000; -989.000
397.187; -118.025;-1026.000; -975.000
397.315; -142.425; -884.000; -649.000
397.443;  -93.700; -592.000; -443.000
397.572;  -98.425; -578.000; -424.000
397.700;  -21.100; -607.000; -614.000
397.828;    9.200;  120.000;  -90.000
397.956;  -43.175; -508.000; -478.000
398.084;  -81.500; -767.000; -626.000
398.212;   38.000;  137.000;  124.000
398.340;   -6.925;  -56.000;  159.000
398.468;   31.275; -390.000; -169.000
398.596; -151.200; -993.000; -953.000
398.724; -111.000; -762.000; -767.000
398.852; -171.675;-1024.000; -976.000
398.980;  -54.250; -560.000; -560.000
399.108;  -52.275; -982.000; -735.000
399.236;   51.300;   13.000;    8.000
399.363;    1.625;  222.000;  196.000
399.491;  -73.100; -404.000; -398.000
399.619; -131.250; -829.000; -800.000
399.747; -105.525; -859.000; -771.000
399.875;   85.600;  220.000;  234.000
400.003;  -42.475; -359.000; -284.000
400.130;  -94.775; -421.000; -341.000
400.258;  -32.550;  -83.000;   38.000
400.386;  -74.000; -352.000; -168.000
400.514;  -42.425; -526.000; -587.000
400.641;  -96.750; -928.000; -802.000
400.769; -141.400; -979.000; -888.000
400.897; -111.600; -838.000; -793.000
401.025;  -12.200; -166.000; -152.000
401.152;  -13.200;  220.000;   38.000
401.280;  -74.075; -430.000; -429.000
401.408; -117.300; -712.000; -576.000
401.535;  -93.125; -735.000; -758.000
401.663; -182.550;-1134.000;-1054.000
401.790;  -90.000; -514.000; -525.000
401.918;   36.775;  436.000;  405.000
402.046;  -20.825;  134.000;  122.000
402.173;  -48.875;  -18.000;    7.000
402.301;  -86.525; -519.000; -397.000
402.428;   38.700;  528.000;  383.000
402.556; -164.350;-1188.000; -913.000
402.683;  -34.600;  -20.000;   -1.000
402.811;  -22.725;  -37.000; -206.000
402.938;   -2.500;   20.000;   27.000
403.066;  223.800; -574.000; -558.000
403.193;  348.675;  299.000;  239.000
403.321;  278.650; -396.000; -574.000
403.448;  338.150;   83.000;   27.000
403.575;  140.250;  -90.000;  -46.000
403.703; -107.175; -732.000; -557.000
403.830;  -64.650; -531.000; -496.000
403.957; -140.000;-1117.000;-1023.000
404.085;    9.725;  -61.000; -172.000
404.212;   98.100;  -50.000;   63.000
404.339;  276.375; -566.000; -306.000
404.467; 5817.125; -612.000; -524.000
404.594; 3771.600; -287.000; -227.000
404.721;  881.250; -869.000; -764.000
404.848;   77.075; -113.000; -202.000
404.976; -106.225; -856.000; -783.000
405.103;   -8.300;  -14.000;  -82.000
405.230;   -0.825;  190.000;  226.000
405.357;   25.075;  117.000;   44.000
405.484;  266.175;  -49.000;    5.000
405.612;   59.075; -548.000; -563.000
405.739;  -67.800; -488.000; -243.000
405.866;   85.350;  669.000;  385.000
405.993;  -43.650; -398.000; -102.000
406.120; -133.350; -801.000; -887.000
406.247;  -59.600; -323.000; -342.000
406.374;  455.925;  540.000;  629.000
406.501;  107.525; -632.000; -702.000
406.628;  -72.700; -621.000; -589.000
406.755;  -97.250; -803.000; -620.000
406.882;  -36.900; -228.000; -277.000
407.009; -105.400; -719.000; -628.000
407.136;   52.075; -480.000; -401.000
407.263;  127.800; -939.000; -829.000
407.390;  -80.200; -692.000; -614.000
407.517; -178.525;-1139.000;-1187.000
407.644;  -54.200; -332.000; -256.000
407.771; -140.425; -249.000; -287.000
407.898;   22.600;  168.000;  328.000
408.025;  -65.850; -421.000; -313.000
408.151;  -13.150;   82.000;  153.000
408.278;  -64.925; -267.000; -216.000
408.405; -112.000; -931.000; -899.000
408.532;  -65.425; -549.000; -542.000
408.659; -108.225; -677.000; -648.000
408.785; -204.575;-1298.000;-1170.000
408.912;  -76.500; -412.000; -296.000
409.039; -108.000; -610.000; -686.000
409.166; -109.575; -591.000; -555.000
409.292; -115.225; -571.000; -534.000
409.419; -122.200; -665.000; -649.000
409.546;  -93.175; -431.000; -192.000
409.672; -108.425; -713.000; -545.000
409.799;  -17.600;  -36.000;   34.000
409.926;  -38.125; -180.000; -179.000
410.052; -168.400;-1127.000;-1091.000
410.179;  -56.300; -368.000; -392.000
410.305;  -99.850; -375.000; -493.000
410.432;  -40.950; -220.000; -333.000
410.558;  -97.425; -305.000; -380.000
410.685; -125.075; -688.000; -431.000
410.812;  -91.300; -409.000; -588.000
410.938; -131.375; -964.000; -808.000
411.065;  -96.525; -671.000; -645.000
411.191;  -13.650; -189.000; -174.000
411.317; -126.925; -823.000; -742.000
411.444;  -58.500; -317.000; -246.000
411.570;  -71.875; -339.000; -294.000
411.697; -125.975; -758.000; -752.000
411.823; -183.275; -989.000; -999.000
411.949;  -27.150;  -56.000;   17.000
412.076; -102.875; -539.000; -519.000
412.202; -120.550; -758.000; -757.000
412.329; -131.600; -798.000; -752.000
412.455; -110.200; -821.000; -657.000
412.581;  -27.850;  -15.000;  172.000
412.707;  -62.650; -540.000; -457.000
412.834;   14.675;  156.000;  219.000
412.960;  -89.500; -785.000; -784.000
413.086; -107.525; -743.000; -701.000
413.212;  148.150;  604.000;  578.000
413.339;  -64.875; -685.000; -701.000
413.465;    1.775; -364.000; -310.000
413.591;  -98.550; -757.000; -474.000
413.717;  -52.100; -358.000; -366.000
413.843; -146.950; -839.000; -861.000
413.969;  -53.000;  -47.000; -292.000
414.096; -106.600; -679.000; -679.000
414.222;   -7.675;  -33.000;   85.000
414.348;  -19.175; -652.000; -385.000
414.474;   99.700;   38.000;  -52.000
414.600;  -15.875; -126.000; -144.000
414.726;  -16.725;  -96.000;  -55.000
414.852;  -66.550; -365.000; -342.000
414.978;   34.775;  104.000;  -18.000
415.104;   30.300;   38.000;   80.000
415.230;   22.225; -329.000; -330.000
415.356;   40.550; -409.000; -514.000
415.482;  184.900;   13.000;  -35.000
415.608;  261.225; -247.000; -323.000
415.734;  976.400;   67.000;   38.000
415.860;20287.875; -875.000; -767.000
415.986;14230.525; -685.000; -607.000
416.111; 1191.475; -798.000; -652.000
416.237;  258.400; -424.000; -571.000
416.363; 1174.000; -765.000; -733.000
416.489; 4168.325; -324.000; -251.000
416.615;  428.075; -707.000; -742.000
416.741;  -14.000; -677.000; -784.000
416.866;  -94.000; -673.000; -736.000
416.992; -126.225; -801.000; -818.000
417.118;  -33.725;  -41.000;  -80.000
417.244;  -65.050; -798.000; -531.000
417.369;  -81.650; -801.000; -612.000
417.495;   -8.100; -325.000; -254.000
417.621;  -88.900;-1015.000; -803.000
417.746;   13.450; -579.000; -572.000
417.872;   34.175; -254.000; -144.000
417.998;   44.125; -515.000; -530.000
418.123; 1096.725;-1073.000; -845.000
418.249; 5417.050; -512.000; -601.000
418.374;  720.100; -916.000; -824.000
418.500;  105.450; -383.000; -482.000
418.626;  110.975;   70.000;  -59.000
418.751;  114.850; -549.000; -448.000
418.877;  190.625; -637.000; -643.000
419.002; 1866.025; -688.000; -560.000
419.128;12717.425; -930.000; -721.000
419.253; 2964.250; -967.000; -837.000
419.379;  388.025; -391.000; -338.000
419.504;  379.900;  325.000;  415.000
419.629;  510.275; -393.000; -212.000
419.755; 3726.400; -317.000; -254.000
419.880;21161.575;  -98.000;   67.000
420.006;11594.850; -280.000; -221.000
420.131;29312.775; -662.000; -775.000
420.256; 4064.875; -315.000; -316.000
420.382;  523.550; -665.000; -687.000
420.507;   69.550; -649.000; -778.000
420.632;  136.875; -337.000; -339.000
420.758;  267.475; -251.000; -425.000
420.883;  -93.225; -876.000; -672.000
421.008;  -90.825; -775.000; -619.000
421.133;  -88.675; -509.000; -467.000
421.259;  -49.475; -325.000; -259.000
421.384; -116.325; -834.000; -693.000
421.509;  -49.800;-1052.000; -862.000
421.634; 1213.225; -936.000; -820.000
421.759;  496.950; -359.000; -327.000
421.885;  -55.575; -717.000; -656.000
422.010;  -67.775; -673.000; -542.000
422.135; -143.750; -695.000; -727.000
422.260;   43.725;  340.000;  280.000
422.385;  -34.825;   12.000;  -98.000
422.510;   19.675;  151.000;  -26.000
422.635;   12.225;  -87.000;  -43.000
422.760;   98.525; -766.000; -791.000
422.885;   53.925;  -57.000;  -80.000
423.010;  -35.050; -112.000; -169.000
423.135;  -91.500; -481.000; -561.000
423.260;   -4.675; -150.000; -245.000
423.385;   74.350;  476.000;  222.000
423.510;   27.375;   71.000;  -22.000
423.635;  102.625;  133.000;   45.000
423.760;   59.000;  383.000;  328.000
423.885;   49.100;  336.000;  391.000
424.010;   12.600;  -68.000;  -13.000
424.135;  -15.850;    5.000;  -33.000
424.259;  -95.725; -654.000; -457.000
424.384;  -69.050; -279.000; -272.000
424.509;  -24.275; -260.000; -186.000
424.634;  -98.375; -761.000; -623.000
424.759;  -23.500; -688.000; -544.000
424.883;  -21.750; -506.000; -527.000
425.008;  173.700; -502.000; -410.000
425.133; 2015.850; -679.000; -653.000
425.258;  909.525; -517.000; -381.000
425.382; 1078.750; -867.000; -774.000
425.507; 2685.600; -487.000; -543.000
425.632;  433.200; -802.000; -663.000
425.756;  469.125; -256.000; -146.000
425.881; 6783.475; -831.000; -857.000
426.006;17600.600; -604.000; -355.000
426.130; 2665.150; -696.000; -508.000
426.255;  335.025; -611.000; -491.000
426.379;  156.950; -189.000; -577.000
426.504;  388.200;  660.000;  544.000
426.629; 4104.375; -519.000; -466.000
426.753; 2715.075;   64.000;  -46.000
426.878;  312.750; -252.000; -288.000
427.002;  183.575; -651.000; -668.000
427.127; 1663.150;  -35.000; -158.000
427.251;11488.325;  372.000;  401.000
427.375; 3169.650; -191.000; -173.000
427.500; 2366.600; -616.000; -610.000
427.624;  760.575; -234.000; -400.000
427.749;   87.175; -216.000; -225.000
427.873;  -52.500; -499.000; -412.000
427.997;  -45.775; -222.000; -230.000
428.122;   68.250;  795.000;  703.000
428.246;   66.050;  433.000;  434.000
428.371; -126.525; -869.000; -773.000
428.495; -110.375; -624.000; -646.000
428.619;  -30.475; -186.000; -117.000
428.743;   26.300;   65.000;  132.000
428.868;   16.525; -732.000; -643.000
428.992; 1475.650; -219.000; -326.000
429.116;  560.900; -329.000; -357.000
429.240;  279.500;  419.000;  426.000
429.365;  -36.100; -454.000; -574.000
429.489;  -35.325; -638.000; -647.000
429.613;   18.900; -236.000; -177.000
429.737;   41.850; -563.000; -432.000
429.861;  266.275; -247.000; -133.000
429.985; 5695.475; -425.000; -305.000
430.109; 6008.075; -770.000; -908.000
430.234;  672.500;   76.000;  -50.000
430.358;   45.950; -250.000; -160.000
430.482;  -69.525; -672.000; -564.000
430.606;  -58.950; -655.000; -375.000
430.730;   28.550; -437.000; -388.000
430.854;  131.375; -909.000; -835.000
430.978;  -69.350; -795.000; -764.000
431.102;  -98.800; -499.000; -422.000
431.226; -128.625; -874.000; -815.000
431.350;   13.525;  345.000;  422.000
431.474;  -89.025; -661.000; -373.000
431.597; -162.850;-1060.000; -848.000
431.721;  -93.925; -276.000; -267.000
431.845; -136.050; -704.000; -472.000
431.969;  -85.625; -304.000; -349.000
432.093; -101.550; -395.000; -317.000
432.217;  -23.725;   32.000;   82.000
432.341;  -78.700; -523.000; -518.000
432.464;   -4.700;   96.000;   40.000
432.588;  211.000; -401.000; -329.000
432.712;  102.875;  -52.000;  -52.000
432.836;   39.525;  213.000;  263.000
432.959;    3.275; -372.000; -311.000
433.083;   81.525;   11.000;    2.000
433.207;  369.500;  285.000;  930.000
433.330; 5213.350; -391.000; -200.000
433.454; 6164.050; -654.000; -638.000
433.578; 3602.900;  583.000;  278.000
433.701;  628.950; -623.000; -675.000
433.825;  128.250; -292.000; -299.000
433.949;  180.400;   28.000;  -72.000
434.072;   49.175; -410.000; -323.000
434.196;  -12.325; -309.000; -117.000
434.319; 3892.775;25482.000;25124.000
434.443;  781.300; -656.000; -603.000
434.566; 2671.375;  281.000;   62.000
434.690;  427.125; -637.000; -383.000
434.813;   48.075; -251.000; -173.000
434.937;  -95.925; -569.000; -696.000
435.060;  -50.975; -423.000; -332.000
435.184;  319.000; -492.000; -217.000
435.307;  156.225;  159.000;  102.000
435.431;    0.825;  -40.000;   24.000
435.554;  -81.175; -399.000; -240.000
435.677;  -73.175; -350.000; -258.000
435.801;  -38.000;  -25.000;   49.000
435.924;  -22.725;    1.000;  -67.000
436.048; -119.125;-1019.000; -732.000
436.171;  -80.175; -240.000;  -66.000
436.294;  -23.800; -248.000; -229.000
436.417;  101.250; -963.000; -849.000
436.541;  -88.250; -814.000; -840.000
436.664;  -60.500; -242.000; -316.000
436.787;  -17.175;   13.000;  113.000
436.910; -118.625; -792.000; -422.000
437.034;   10.325;  142.000;  143.000
437.157;   52.875;  -11.000;    0.000
437.280;  -49.300; -392.000; -292.000
437.403;  -85.050; -982.000; -869.000
437.526;  650.025; -903.000; -865.000
437.649; 2306.550; -505.000; -332.000
437.772;  316.350; -692.000; -540.000
437.896;  114.725;  700.000;  544.000
438.019;  -97.550; -758.000; -503.000
438.142;  -92.300; -596.000; -506.000
438.265;  -19.875; -639.000; -670.000
438.388;  583.400; -520.000; -410.000
438.511;   93.675; -597.000; -394.000
438.634;  -50.650; -247.000; -125.000
438.757; -143.350; -693.000; -619.000
438.880;  -26.125;  -34.000;  -57.000
439.003;  -86.525; -417.000; -437.000
439.126;  -71.125; -287.000; -167.000
439.248;  -64.225;  -98.000; -139.000
439.371;  -51.400;    9.000;  -53.000
439.494;   32.275;  510.000;  439.000
439.617;  -54.225;   65.000;  -88.000
439.740; -185.075; -968.000; -816.000
439.863; -150.900; -755.000; -595.000
439.986; -123.625; -476.000; -431.000
440.108;  -49.675; -161.000; -112.000
440.231; -165.500; -950.000; -836.000
440.354;  -36.700;  -64.000; -150.000
440.477;   27.350; -566.000; -542.000
440.599;   -9.600; -200.000; -225.000
440.722; -131.100; -709.000; -586.000
440.845;   63.750;  751.000;  928.000
440.968; -117.700; -415.000; -311.000
441.090;  -58.650; -199.000;  -33.000
441.213; -180.375;-1021.000; -825.000
441.336;  -52.525; -159.000;   -5.000
441.458;  -75.300; -549.000; -396.000
441.581;  -77.000; -628.000; -629.000
441.703;  -88.975; -152.000;   13.000
441.826; -115.625; -557.000; -400.000
441.948;  -46.000;   56.000;   51.000
442.071;   41.775;  555.000;  424.000
442.193; -116.200; -531.000; -485.000
442.316;   17.350;  152.000;   97.000
442.438;   46.475; -233.000;  -10.000
442.561;   70.175;  272.000;  262.000
442.683;  544.050; -809.000; -522.000
442.806; 1180.900;   -8.000;   74.000
442.928;   15.050; -859.000; -604.000
443.051;  -70.875; -577.000; -373.000
443.173;  -92.425; -341.000; -339.000
443.295;  -76.150; -263.000; -371.000
443.418;  -66.700; -321.000;  -29.000
443.540;   -3.250; -106.000;   -4.000
443.662; -121.300; -563.000; -465.000
443.785;   -3.450;  335.000;  199.000
443.907; -130.225; -362.000; -208.000
444.029; -130.725; -767.000; -494.000
444.152; -137.650; -644.000; -554.000
444.274;  -30.525;  -18.000;  -24.000
444.396; -103.100; -461.000; -221.000
444.518; -135.925; -691.000; -454.000
444.640; -105.750; -268.000; -111.000
444.763;  -26.400;  388.000;  249.000
444.885; -114.975; -432.000; -392.000
445.007;  -24.300;   35.000;   86.000
445.129; -114.500; -610.000; -515.000
445.251;  -91.075; -372.000; -439.000
445.373; -144.050; -537.000; -386.000
445.495;    5.375;  242.000;  350.000
445.617;   55.275;  853.000;  753.000
445.739;  -69.725; -215.000;  -97.000
445.861;  -36.925; -245.000; -112.000
445.984;  -27.300; -267.000; -101.000
446.105;  201.975; -418.000; -251.000
446.227;  633.275; -176.000;  -19.000
446.349;  -17.100; -358.000; -249.000
446.471; -101.950; -615.000; -448.000
446.593;  -64.725; -316.000;   19.000
446.715;    7.375;  -67.000;   41.000
446.837;   55.050;  697.000;  832.000
446.959; -107.900; -457.000; -478.000
447.081; -140.425; -628.000; -518.000
447.203;   59.925;  862.000;  834.000
447.325;  -75.875; -270.000;   42.000
447.446;   -0.950;  286.000;  530.000
447.568; -157.200; -921.000; -803.000
447.690;  -87.400; -236.000; -245.000
447.812; -157.150; -798.000; -519.000
447.933;  -34.100;  155.000;  127.000
448.055;  -71.500; -306.000; -261.000
448.177;  143.325;   31.000;   79.000
448.299;   82.050; -935.000; -727.000
448.420;   32.675;  -25.000;  159.000
448.542;  -56.100;   -3.000;   33.000
448.664;  -19.825;  109.000;  322.000
448.785;  -41.350;  265.000;   83.000
448.907;  -79.250; -614.000; -353.000
449.028;  -25.600; -771.000; -471.000
449.150;   62.775;  492.000;  589.000
449.272; -198.750;-1044.000; -913.000
449.393;   25.675;  612.000;  694.000
449.515; -156.550; -634.000; -581.000
449.636;  -53.075; -264.000; -155.000
449.758;   72.100;  763.000;  622.000
449.879;  -90.125; -498.000; -396.000
450.001;  -81.325; -149.000;  -49.000
450.122;  -42.075;  -95.000;  162.000
450.244;  -27.475;   37.000;  364.000
450.365; -107.675; -495.000; -301.000
450.486;  -32.200;   80.000;  268.000
450.608;   23.900;  393.000;  326.000
450.729;   74.950;  578.000;  645.000
450.850;    8.525; -574.000; -466.000
450.972;  766.750; -552.000; -389.000
451.093; 4968.725;  190.000;  588.000
451.214; 2064.925; -516.000; -337.000
451.336;  390.725;  773.000;  579.000
451.457;   60.775;  264.000;  393.000
451.578;  -36.850; -118.000;  -74.000
451.699; -128.225; -546.000; -540.000
451.821;  -60.125; -284.000;  -50.000
451.942;   -3.750;  278.000;  285.000
452.063;   37.075;  228.000;  419.000
452.184;  564.625;  -54.000;  -49.000
452.305; 1089.625;  103.000;  170.000
452.427;  108.125; -549.000; -301.000
452.548;  -23.675;   23.000;   79.000
452.669;  -53.150; -257.000;  -89.000
452.790;  -39.425;    3.000;  -18.000
452.911;   -3.400;  195.000;  259.000
453.032;  -58.000; -289.000;  -60.000
453.153;  -50.075;  -29.000;   81.000
453.274;   67.375;  737.000;  868.000
453.395;  -59.775;  -51.000;  175.000
453.516;  135.425; 1317.000; 1388.000
453.637;  -72.100; -205.000; -150.000
453.758;  -48.625;   15.000;   69.000
453.879; -131.200; -462.000; -250.000
454.000;   79.875; 1086.000;  948.000
454.121; -116.800; -554.000; -326.000
454.242; -131.325; -599.000; -383.000
454.362;  -48.500;  -99.000;  114.000
454.483;  -36.600; -309.000; -229.000
454.604;   47.700;  512.000;  580.000
454.725; -133.150; -627.000; -555.000
454.846; -116.600; -474.000; -406.000
454.967;  -14.625;  230.000;  539.000
455.087;  -54.400;  179.000;  153.000
455.208;   22.700;  554.000;  856.000
455.329;  -58.675;  -22.000;   82.000
455.450;   48.050;  473.000;  633.000
455.570;  -79.525; -234.000; -211.000
455.691;  -45.250;  201.000;  407.000
455.812; -114.450; -270.000;  -92.000
455.932;  -45.375;  107.000;  -97.000
456.053;  -90.725;   36.000;   24.000
456.173; -113.150; -433.000; -355.000
456.294; -146.175; -476.000; -303.000
456.415;  -70.950;  -73.000;   70.000
456.535;  -36.075;  297.000;  273.000
456.656;  -47.825;  132.000;  240.000
456.776;  -79.875;    3.000;  298.000
456.897;   -4.625;  308.000;  513.000
457.017;  -81.775; -153.000;   -3.000
457.138; -107.750; -402.000; -249.000
457.258;  -48.225;  263.000;  224.000
457.379;    6.050;  509.000;  521.000
457.499;  -25.000;  443.000;  432.000
457.620; -131.175; -407.000; -231.000
457.740; -108.200; -132.000;  -11.000
457.860;  -55.000;   87.000;   44.000
457.981;  -43.600;  132.000;  124.000
458.101;  -69.500;  -89.000;   40.000
458.221;  -15.325;  336.000;  402.000
458.342;  -58.075;   -4.000;  -37.000
458.462;    8.900;  617.000;  352.000
458.582;  -42.750; -302.000; -294.000
458.703;   -1.625;  303.000;  154.000
458.823;  -27.400;   22.000;  163.000
458.943;   20.950;  341.000;  467.000
459.063;  -18.275; 1124.000;  192.000
459.183;  -37.025;  328.000;  313.000
459.304;   -2.500;  315.000;  517.000
459.424;  -67.575; -246.000;  -89.000
459.544;  348.600;  388.000;  764.000
459.664;  828.650;  499.000;  506.000
459.784;  310.175; 1004.000; 1175.000
459.904;   58.900;  867.000;  744.000
460.024;   82.975;  867.000;  684.000
460.144;    3.700;  449.000;  554.000
460.264;  -14.450;  515.000;  327.000
460.385; -108.300; -145.000; -119.000
460.505;   31.300;  905.000;  858.000
460.625;  -89.275;  -17.000;  -68.000
460.745;  -10.350;  396.000;  541.000
460.864;  -52.925;  153.000;  469.000
460.984;    5.925;  499.000;  573.000
461.104;  146.350; 1656.000; 1775.000
461.224;   20.175;  657.000;  650.000
461.344;  -44.600;  431.000;  360.000
461.464;  -43.350;  258.000;  513.000
461.584;  -19.900;  283.000;  466.000
461.704;  -44.450;   58.000;  108.000
461.824;  -64.725;  238.000;  259.000
461.943;  -42.000;  191.000;  130.000
462.063;  -90.200;    2.000;  324.000
462.183;   29.925;  639.000;  717.000
462.303;  103.250; 1678.000; 1230.000
462.422;   27.800;  781.000;  840.000
462.542;  -34.950;  271.000;  391.000
462.662;   54.375;  353.000;  380.000
462.782;  247.975;  833.000;  572.000
462.901;  474.200;  545.000;  717.000
463.021;  285.875; 1702.000; 1638.000
463.141;    2.350;  337.000;  770.000
463.260;  -11.425;  614.000;  474.000
463.380;   23.300;  902.000;  884.000
463.499;  -34.225;  342.000;  332.000
463.619;  -30.150;  581.000;  559.000
463.738;  120.750; 1644.000;  903.000
463.858;   27.600;  657.000;  811.000
463.978;  -39.275;  542.000;  396.000
464.097;   42.100;  921.000; 1114.000
464.217;  115.125; 1196.000; 1143.000
464.336;   97.000; 1068.000; 1130.000
464.455;  -43.725;  328.000;  659.000
464.575;   34.200;  597.000;  602.000
464.694;  169.300; 1204.000; 1179.000
464.814;  120.500; 1190.000; 1138.000
464.933;   75.600; 1095.000; 1027.000
465.052;  100.350; 1412.000; 1054.000
465.172;   95.675;  922.000;  799.000
465.291;  146.825; 1376.000; 1320.000
465.410;   18.225;  462.000;  735.000
465.530;   93.850; 1355.000; 1310.000
465.649;   52.400; 1209.000; 1273.000
465.768;  153.475; 1673.000; 1508.000
465.888;   45.025;  941.000; 1174.000
466.007;  102.325; 1335.000; 1440.000
466.126;  -11.275;  721.000;  641.000
466.245;   48.975; 1176.000; 1187.000
466.364;   14.450;  950.000; 1060.000
466.484;   58.075; 1024.000; 1213.000
466.603;   33.725; 1101.000; 1222.000
466.722;  130.250; 1490.000; 1769.000
466.841;   77.125; 1151.000; 1401.000
466.960;   39.275; 1069.000;  972.000
467.079;  131.025; 1971.000; 1786.000
467.198;   44.525; 1238.000; 1181.000
467.317;   79.500; 1768.000; 1162.000
467.436;   70.525; 1709.000; 1261.000
467.555;  115.700; 1796.000; 1746.000
467.674;   92.650; 1227.000; 1329.000
467.793;   48.875; 1376.000; 1374.000
467.912;  101.075; 1658.000; 1539.000
468.031;  128.175; 2038.000; 1930.000
468.150;  157.825; 1842.000; 1837.000
468.269;  194.875; 2313.000; 2090.000
468.388;  187.300; 2168.000; 2339.000
468.507;  261.925; 2884.000; 2903.000
468.626;  288.925; 2555.000; 2541.000
468.744;  136.600; 2018.000; 2174.000
468.863;  210.250; 2312.000; 2523.000
468.982;   79.475; 1503.000; 1555.000
469.101;  226.450; 2788.000; 2692.000
469.220;  144.650; 2333.000; 2176.000
469.338;  251.550; 2935.000; 3051.000
469.457;  194.150; 2719.000; 2545.000
469.576;  348.350; 3953.000; 3784.000
469.695;  253.175; 2877.000; 3066.000
469.813;  433.800; 4148.000; 4192.000
469.932;  412.375; 4255.000; 4485.000
470.051;  435.950; 4075.000; 4161.000
470.169;  851.875; 4470.000; 4338.000
470.288; 1454.950; 4700.000; 4809.000
470.406;  859.000; 5059.000; 5194.000
470.525;  617.275; 6101.000; 5787.000
470.644;  668.825; 6847.000; 6794.000
470.762;  813.950; 8397.000; 7873.000
470.881;  913.400; 8651.000; 8464.000
470.999; 1060.175; 9685.000; 9151.000
471.118; 1137.650;11174.000;10711.000

