
Integration time [ms]: 100.000
Averaging Nr. [scans]: 40
Smoothing Nr. [pixels]: 0
Data measured with spectrometer [name]: 2101012U2
Wave   ;Sample   ;Dark     ;Reference
[nm]   ;[counts] ;[counts] ;[counts] 

197.733;   63.475;  516.000;  404.000
197.879;  -85.725; -610.000; -634.000
198.025;  -50.275; -475.000; -420.000
198.171;  -83.500; -602.000; -612.000
198.317;  -30.150; -401.000; -316.000
198.463;  -56.025; -655.000; -404.000
198.609;   33.950;  181.000; -137.000
198.755; -102.550; -644.000; -410.000
198.901;  -67.375; -505.000; -424.000
199.047;  -66.700; -615.000; -488.000
199.193;  -43.800; -230.000; -468.000
199.339;  -48.700; -222.000; -369.000
199.485;   56.700;  330.000;  271.000
199.631;   11.575;  227.000;  310.000
199.777;  -53.200; -466.000; -398.000
199.923;  -72.575; -610.000; -424.000
200.069;    9.950; -141.000;  -58.000
200.215;   43.350;  128.000;  453.000
200.361;   49.575;  243.000;  477.000
200.507;  -80.900; -600.000; -373.000
200.653;  -16.025; -371.000; -194.000
200.798;  -32.600; -215.000; -125.000
200.944;    1.700; -146.000;  -41.000
201.090;   27.775;   61.000;  222.000
201.236;    7.925; -116.000; -158.000
201.382;  126.675;  874.000;  903.000
201.528;   13.850;  -58.000;  -48.000
201.674;  -64.650; -386.000; -293.000
201.819;  -58.975; -540.000; -439.000
201.965;  -77.100; -699.000; -447.000
202.111;   -9.125; -273.000; -226.000
202.257;  -45.950; -250.000; -238.000
202.402;   18.075;   13.000;  -36.000
202.548;  -34.125; -169.000; -116.000
202.694;  101.775;  410.000; -183.000
202.840;  -74.875; -603.000; -531.000
202.985;  -93.625; -681.000; -639.000
203.131; -107.075; -832.000; -666.000
203.277;  -28.000; -199.000; -262.000
203.423;  -49.400; -434.000; -520.000
203.568;  -31.475; -462.000; -237.000
203.714;  -72.250; -535.000; -542.000
203.860;  -70.100; -682.000; -641.000
204.005;    7.825;  112.000;  167.000
204.151;   92.175;  561.000;  556.000
204.296;  -66.650; -354.000; -221.000
204.442;  -67.200; -600.000; -547.000
204.588;  -86.825; -592.000; -579.000
204.733;   14.950;  178.000;  168.000
204.879; -136.775;-1018.000; -822.000
205.025;   18.075;  -99.000;  126.000
205.170;   -5.250;  -17.000;   94.000
205.316;   99.850;  438.000;  661.000
205.461;  -91.025; -698.000; -554.000
205.607;   86.050;  609.000;  665.000
205.752;  -83.450; -626.000; -551.000
205.898;  -45.750; -501.000; -391.000
206.043;  -67.300; -578.000; -506.000
206.189;  -45.375; -243.000; -285.000
206.334;   67.450;  554.000;  606.000
206.480;   77.550;  409.000;  239.000
206.625;  -86.225; -529.000; -552.000
206.771;  -40.225; -451.000; -373.000
206.916;  -39.750; -210.000; -537.000
207.062;  -71.725; -545.000; -591.000
207.207;  -59.050; -546.000; -443.000
207.353;   54.450;  185.000;  460.000
207.498;    6.350;  196.000;   85.000
207.643;  -48.200; -501.000; -370.000
207.789; -132.650;-1069.000; -910.000
207.934;  -97.825; -665.000; -713.000
208.080;  -31.125; -154.000;   66.000
208.225;   -9.975;  -22.000;  -57.000
208.370;  -99.700; -727.000; -619.000
208.516;  -71.500; -741.000; -487.000
208.661;  -38.000; -127.000;  -69.000
208.806;   -7.425; -165.000; -171.000
208.952; -127.500;-1044.000; -731.000
209.097;   71.450;  378.000;  349.000
209.242;  -53.450; -307.000; -382.000
209.387;   66.100;  392.000;  350.000
209.533;  -56.550; -321.000; -350.000
209.678;   90.825;  472.000;  543.000
209.823;  -73.750; -408.000; -310.000
209.969; -101.700; -860.000; -757.000
210.114; -120.400; -907.000; -719.000
210.259; -104.875; -939.000; -889.000
210.404;  -19.475; -171.000;  103.000
210.549;    7.125;  108.000;    3.000
210.695;  -24.425;   -3.000;  -95.000
210.840;   42.725;   94.000;   67.000
210.985;  -74.200; -484.000; -303.000
211.130;   88.250;  268.000;  406.000
211.275;    9.025;  207.000;  199.000
211.420;  -55.450; -300.000; -289.000
211.566;  -79.975; -536.000; -489.000
211.711;   35.450;  218.000;  157.000
211.856;  -82.975; -545.000; -519.000
212.001;   12.500;  151.000;   44.000
212.146;   19.400;  153.000;   49.000
212.291;  -25.225; -210.000; -186.000
212.436;  -35.175; -280.000;   -6.000
212.581;  -75.925; -685.000; -653.000
212.726;  -95.350; -487.000; -538.000
212.871;  -38.400; -552.000; -217.000
213.016; -156.050;-1172.000;-1029.000
213.161;   79.325;  406.000;  291.000
213.306;  -80.825; -435.000; -577.000
213.451;  -91.800; -778.000; -689.000
213.596;  -57.925; -455.000; -347.000
213.741;  -66.100; -448.000; -538.000
213.886;  -83.150; -498.000; -517.000
214.031;  -13.675; -294.000; -124.000
214.176;  -66.225; -408.000; -341.000
214.321;  -11.250; -296.000; -157.000
214.466;  -53.650; -163.000;  -43.000
214.611;   -3.475;  -61.000;  -10.000
214.756; -126.975; -948.000; -858.000
214.901;  -19.350; -388.000; -226.000
215.046; -130.075; -797.000; -825.000
215.191;   16.500;  128.000;   35.000
215.336;  -14.400; -157.000;  -19.000
215.480;  -51.825; -684.000; -505.000
215.625;  -23.275; -175.000;  -19.000
215.770;  -77.350; -757.000; -662.000
215.915;  -16.775;   -5.000;  -97.000
216.060;    7.400; -113.000;  -21.000
216.205; -121.875; -731.000; -779.000
216.349;  -68.150; -470.000; -533.000
216.494; -147.275; -939.000; -867.000
216.639; -106.175; -823.000; -888.000
216.784;  -91.150; -577.000; -525.000
216.929;   51.250;  392.000;  281.000
217.073;  -31.950; -244.000;  -31.000
217.218;    8.425;   78.000;  -47.000
217.363;  -91.625; -656.000; -618.000
217.507;  -81.725; -623.000; -588.000
217.652; -144.025; -845.000; -874.000
217.797;  -86.775; -708.000; -659.000
217.942; -126.325; -856.000; -720.000
218.086;   74.925;  608.000;  539.000
218.231;  -27.000; -174.000;  -26.000
218.376;  -28.900; -337.000; -229.000
218.520;    0.250;  -41.000;   96.000
218.665;  -13.675; -338.000; -204.000
218.810;  -42.625; -275.000; -233.000
218.954;   25.975;  201.000;   35.000
219.099; -116.100; -713.000; -963.000
219.243;  -67.450; -589.000; -554.000
219.388;  -34.575; -264.000; -136.000
219.532;   -3.050; -116.000; -116.000
219.677;  -89.075; -564.000; -521.000
219.822;    4.875;   33.000;   89.000
219.966;    2.650;   17.000;  -99.000
220.111;  -30.550; -328.000;  -40.000
220.255; -103.825; -797.000; -750.000
220.400;  -20.900; -180.000; -146.000
220.544;  -86.125; -516.000; -450.000
220.689;  -53.950; -422.000; -451.000
220.833;  -29.550; -123.000;  -58.000
220.978;  -34.125; -393.000; -563.000
221.122;   13.050;  319.000;  307.000
221.267; -115.675; -906.000; -837.000
221.411;  -74.375; -478.000; -394.000
221.555;   -2.650; -104.000;  -23.000
221.700;  -54.475; -329.000; -222.000
221.844;   56.350;  255.000;  272.000
221.989;  -46.875; -328.000; -311.000
222.133;  -32.450; -289.000; -307.000
222.277;  -12.525;    5.000;   78.000
222.422;   30.650;  227.000;  113.000
222.566;  -43.800; -381.000; -214.000
222.711;  -50.625; -414.000; -479.000
222.855;  -92.075; -643.000; -586.000
222.999;  -80.125; -642.000; -717.000
223.144;  -42.800; -195.000; -194.000
223.288;   50.200;  423.000;  251.000
223.432;   20.200;  184.000;  230.000
223.576;   21.025;  152.000;  -21.000
223.721;   36.125;  364.000;  273.000
223.865;  -45.750; -472.000; -475.000
224.009;  251.150; 1673.000; 1631.000
224.153;  -85.875; -660.000; -671.000
224.298;  -76.050; -531.000; -489.000
224.442;    5.550;  -74.000;  -33.000
224.586;  -22.200; -169.000; -106.000
224.730;  -92.425; -858.000; -670.000
224.875; -112.400; -739.000; -688.000
225.019;   15.500;  102.000;  188.000
225.163;   38.325;  208.000;  341.000
225.307;   23.600;   97.000;  -91.000
225.451;   41.625;  360.000;  481.000
225.595;   30.200;  264.000;  176.000
225.739;  -32.950; -170.000;  -94.000
225.884;    6.025;   86.000;    5.000
226.028; -108.525; -760.000; -626.000
226.172;  -40.400; -260.000; -273.000
226.316; -131.925; -941.000; -902.000
226.460;  -61.650; -645.000; -493.000
226.604;  -69.425; -406.000; -400.000
226.748; -104.200; -836.000; -733.000
226.892;  -49.025; -227.000; -181.000
227.036;  -40.075; -537.000; -447.000
227.180;  -70.825; -551.000; -375.000
227.324;  -70.675; -561.000; -580.000
227.468; -119.950; -819.000; -717.000
227.612;   27.175;  242.000;  -28.000
227.756; -113.625; -845.000; -698.000
227.900;   65.450;  342.000;  441.000
228.044;  -62.700; -509.000; -290.000
228.188;   75.075;  448.000;  568.000
228.332; -101.050; -546.000; -472.000
228.476;  -26.725; -223.000; -149.000
228.620;  -33.475; -210.000; -150.000
228.764;   78.250;  431.000;  349.000
228.908;  -23.300; -155.000;   30.000
229.052;  -59.375; -615.000; -528.000
229.195;  -24.825; -172.000;   13.000
229.339;  -25.925; -235.000; -305.000
229.483;  -37.200;    5.000; -162.000
229.627;   11.800; -156.000;  139.000
229.771;  -54.125; -218.000; -294.000
229.915;   20.600;  230.000;   79.000
230.059;  -98.375; -648.000; -663.000
230.202;  -37.325; -370.000; -317.000
230.346;  -34.525; -107.000;  107.000
230.490;  -53.225; -489.000; -521.000
230.634; -125.525; -736.000; -553.000
230.777;   80.675;  478.000;  509.000
230.921;  -61.550; -450.000; -359.000
231.065;  -32.425; -246.000; -286.000
231.209;   19.425;  261.000;  265.000
231.352;   19.325;   54.000;   40.000
231.496;   21.350;  568.000;  188.000
231.640;  -79.050; -693.000; -621.000
231.783;   50.950;  546.000;  525.000
231.927;  -33.225; -294.000; -365.000
232.071; -132.275; -962.000; -736.000
232.214; -111.225; -980.000; -764.000
232.358; -104.325; -683.000; -599.000
232.502;   17.400;  -19.000;    7.000
232.645; -139.125;-1090.000; -927.000
232.789;  -15.650; -257.000; -218.000
232.933;  -50.000; -407.000; -224.000
233.076; -121.625;-1038.000; -897.000
233.220; -115.275; -752.000; -777.000
233.363;  -71.375; -669.000; -477.000
233.507;   48.275;  371.000;  129.000
233.650; -100.775; -764.000; -834.000
233.794;   32.250;  438.000;  461.000
233.938;  -70.575; -530.000; -362.000
234.081;  -31.225;  -93.000;   31.000
234.225;  -57.925; -631.000; -539.000
234.368; -127.400; -773.000; -723.000
234.512;  -41.050; -385.000; -299.000
234.655;  -99.275; -582.000; -555.000
234.798;  -65.350; -493.000; -466.000
234.942; -146.525; -884.000;-1002.000
235.085;  -73.750; -651.000; -443.000
235.229;  -64.125; -405.000; -410.000
235.372;  -36.100; -247.000; -191.000
235.516;  -73.250; -397.000; -321.000
235.659;   30.950;   92.000;  121.000
235.802;  -13.900;  -38.000;  -22.000
235.946;   32.300;  335.000;  215.000
236.089;    3.300;  126.000;  250.000
236.233;   64.775;  275.000;  298.000
236.376;  -51.275; -235.000; -378.000
236.519;  -45.000; -297.000; -319.000
236.663;  -18.600; -215.000; -117.000
236.806; -130.125;-1029.000; -999.000
236.949;   38.275;  543.000;  431.000
237.092;   73.925;  412.000;  391.000
237.236; -101.500; -589.000; -502.000
237.379;   64.150;  352.000;  428.000
237.522; -137.825; -879.000; -768.000
237.666;  -20.550; -271.000;   18.000
237.809; -138.450; -851.000; -823.000
237.952;   35.525;  469.000;  271.000
238.095;  -73.275; -447.000; -442.000
238.238;   90.250;  688.000;  700.000
238.382;   -5.525;  166.000;  103.000
238.525;  -64.700; -598.000; -511.000
238.668; -145.050;-1060.000; -985.000
238.811;  -80.500; -638.000; -643.000
238.954;  -63.150; -483.000; -334.000
239.097;  111.125;  617.000;  664.000
239.241;   23.550;  394.000;  326.000
239.384;  -30.600; -254.000; -214.000
239.527;  -67.975; -424.000; -224.000
239.670; -142.375; -994.000;-1091.000
239.813; -129.425; -696.000; -658.000
239.956;   98.525;  579.000;  473.000
240.099; -115.875; -778.000; -725.000
240.242;   63.500;  428.000;  432.000
240.385;   37.775;  466.000;  450.000
240.528;  -81.450; -706.000; -473.000
240.671;    9.900;  189.000;  134.000
240.814;  -41.025; -441.000; -158.000
240.957; -109.500; -767.000; -578.000
241.100;  -89.225; -779.000; -755.000
241.243; -151.325;-1234.000; -893.000
241.386;  -55.875; -508.000; -379.000
241.529; -126.550; -735.000; -547.000
241.672;  -54.450; -566.000; -495.000
241.815; -140.750; -832.000; -808.000
241.958;  -21.400; -125.000; -182.000
242.101;  -90.300; -545.000; -390.000
242.244;  -24.100; -270.000; -325.000
242.387;  -57.200; -304.000; -246.000
242.530;   60.775;  470.000;  134.000
242.673;  -50.250; -381.000; -309.000
242.815; -117.500; -925.000; -899.000
242.958;  -79.475; -482.000; -381.000
243.101;    3.075;  132.000;  187.000
243.244;  -89.850; -564.000; -521.000
243.387;  -37.900; -313.000; -316.000
243.530; -114.700; -657.000; -674.000
243.672;    7.650;   43.000;  -92.000
243.815;  -55.000; -355.000; -283.000
243.958;   -2.225;   98.000;  -26.000
244.101;   -9.350;   59.000;  -16.000
244.243;  -17.700;  -47.000;  101.000
244.386; -116.750; -761.000; -630.000
244.529;  -23.150; -132.000; -139.000
244.672; -170.175;-1154.000; -951.000
244.814; -106.500; -621.000; -794.000
244.957;  -46.375; -380.000; -304.000
245.100;  -72.775; -489.000; -489.000
245.242;  -72.650; -387.000; -374.000
245.385;    2.925;  -59.000;  -39.000
245.528; -134.700; -871.000; -705.000
245.670;   90.550;  612.000;  634.000
245.813;  -94.000; -599.000; -547.000
245.956;  -30.975; -324.000; -275.000
246.098;  -96.650; -508.000; -650.000
246.241;   12.950;  194.000;   48.000
246.383;  -37.050; -119.000;  -73.000
246.526;  -64.900; -454.000; -525.000
246.669; -120.325; -889.000; -780.000
246.811;   23.125;  172.000;   -1.000
246.954;  -57.850; -512.000; -426.000
247.096;  -21.700;  -84.000;   -6.000
247.239;  -84.100; -482.000; -445.000
247.381;  -77.425; -647.000; -488.000
247.524;   69.075;  645.000;  679.000
247.666;   15.725;   58.000;   11.000
247.809; -124.925; -887.000; -691.000
247.951;   -6.625;  -75.000;  138.000
248.094;   23.425;  432.000;  308.000
248.236; -162.275;-1262.000;-1238.000
248.378;    4.250; -356.000;  -81.000
248.521;  -21.175; -334.000; -337.000
248.663;  -56.275; -236.000; -267.000
248.806;  -15.875; -300.000; -266.000
248.948;  -98.175; -886.000; -763.000
249.090;  -47.400; -428.000; -398.000
249.233;  -58.250; -344.000; -381.000
249.375;  -69.775; -474.000; -451.000
249.518;  -28.725;  -83.000; -133.000
249.660;  -18.775; -103.000;    3.000
249.802; -183.425;-1303.000;-1189.000
249.945;  -70.400; -612.000; -540.000
250.087; -119.300; -834.000; -768.000
250.229;  -38.300; -362.000; -480.000
250.371;  -76.175; -494.000; -439.000
250.514;  -49.800; -310.000; -244.000
250.656;  -17.125;   69.000;  102.000
250.798; -112.250; -849.000; -800.000
250.940;  -71.200; -322.000; -322.000
251.083;  -37.075; -335.000; -111.000
251.225;   60.100;  338.000;  310.000
251.367;  -37.375; -274.000; -373.000
251.509;  -42.075; -265.000; -210.000
251.651;  -97.725; -731.000; -671.000
251.794;   47.900;  538.000;  632.000
251.936; -108.300; -821.000; -747.000
252.078;  -97.150; -540.000; -461.000
252.220;  -62.750; -645.000; -477.000
252.362;   85.425;  344.000;  462.000
252.504;  -66.325; -677.000; -584.000
252.646; -117.675; -875.000; -722.000
252.788;   -1.400;   14.000; -128.000
252.931;  -36.900; -257.000; -253.000
253.073;  -30.900; -376.000; -317.000
253.215;  -17.125;  141.000;  122.000
253.357;   -9.550;   82.000; -153.000
253.499;  -66.475; -374.000; -234.000
253.641;  -77.175; -749.000; -594.000
253.783; -112.075; -609.000; -527.000
253.925;  -85.800; -586.000; -591.000
254.067; -125.900; -744.000; -667.000
254.209;  -30.325; -391.000; -259.000
254.351; -151.500; -865.000; -883.000
254.493;  -54.600; -441.000; -417.000
254.635; -148.150; -936.000; -818.000
254.777;  -85.650; -752.000; -687.000
254.918;  -83.475; -512.000; -430.000
255.060;  -62.100; -551.000; -395.000
255.202;  -69.075; -473.000; -261.000
255.344;  -80.775; -658.000; -455.000
255.486;  -86.175; -471.000; -406.000
255.628; -100.400; -780.000; -781.000
255.770;  -98.075; -676.000; -536.000
255.912;  -68.900; -559.000; -468.000
256.053; -101.325; -730.000; -508.000
256.195;  168.100; 1008.000;  903.000
256.337; -107.025; -861.000; -595.000
256.479;   76.925;  532.000;  416.000
256.621;  -43.125; -394.000; -212.000
256.762;  -95.975; -789.000; -742.000
256.904;   41.525;  485.000;  487.000
257.046;  -48.100; -381.000; -271.000
257.188;  -46.275; -351.000; -264.000
257.329;  -63.375; -525.000; -464.000
257.471; -126.150; -939.000; -807.000
257.613;  -64.175; -584.000; -498.000
257.755; -153.575;-1073.000; -982.000
257.896;   45.375;  286.000;  392.000
258.038;  -85.675; -403.000; -352.000
258.180;  -30.825; -354.000; -279.000
258.321;  -92.125; -581.000; -457.000
258.463;   12.225;  -71.000;  133.000
258.605;  -95.125; -562.000; -570.000
258.746;  -99.550; -886.000; -772.000
258.888; -154.700;-1026.000;-1020.000
259.029;   23.050;  121.000;   -8.000
259.171;  -96.625; -614.000; -550.000
259.313;    8.950;  -49.000;  -47.000
259.454;  -91.475; -536.000; -414.000
259.596;  -57.025; -483.000; -390.000
259.737;  -85.875; -590.000; -474.000
259.879;   34.575;  217.000;  311.000
260.020;   93.250;  901.000;  636.000
260.162;  -18.200; -146.000; -253.000
260.303; -134.800; -768.000; -687.000
260.445;  -65.675; -609.000; -613.000
260.586;   11.700;  392.000;  157.000
260.728;  -37.175; -360.000; -248.000
260.869; -134.500; -350.000; -343.000
261.011;   82.050;  706.000;  537.000
261.152;  -60.850; -479.000; -319.000
261.293;  -78.725; -576.000; -595.000
261.435;  -29.000; -219.000; -184.000
261.576;  -53.175; -455.000; -325.000
261.718;   43.950;  420.000;  470.000
261.859; -122.800; -940.000; -949.000
262.000; -134.975; -951.000;-1016.000
262.142;  -16.000;  -52.000;  -60.000
262.283; -109.725; -808.000; -691.000
262.424;  -74.675; -666.000; -625.000
262.566; -165.675;-1161.000; -983.000
262.707; -112.025; -840.000; -830.000
262.848; -146.225; -769.000; -726.000
262.990;  -51.875; -362.000; -345.000
263.131;   73.125;  650.000;  681.000
263.272;   -0.850;  -61.000;  -41.000
263.413; -104.225; -589.000; -561.000
263.555;  -67.250; -669.000; -143.000
263.696;  -94.600; -550.000; -641.000
263.837;  -51.850; -449.000; -551.000
263.978;   -8.475;   -5.000;  -77.000
264.119;  -46.275; -283.000; -264.000
264.261; -118.475; -847.000; -630.000
264.402;   -0.400;   33.000;   40.000
264.543;  -77.100; -509.000; -524.000
264.684;   -0.850;   61.000;  -50.000
264.825;  -79.975; -816.000; -538.000
264.966;   -0.475;  -84.000;  -67.000
265.107; -142.600; -646.000; -670.000
265.248; -117.175; -825.000; -812.000
265.390;  -18.025;  152.000;   -9.000
265.531;  -28.225; -238.000; -107.000
265.672; -104.325; -557.000; -630.000
265.813;   70.775;  563.000;  439.000
265.954; -162.300; -959.000; -940.000
266.095;  -11.975; -372.000; -322.000
266.236; -100.050; -686.000; -548.000
266.377;  -37.900; -243.000; -297.000
266.518;  -84.900; -619.000; -547.000
266.659;   31.350;  170.000;  268.000
266.800;   -5.700;   83.000;   85.000
266.941;  -80.000; -487.000; -478.000
267.082;   27.725;  354.000;   99.000
267.223;  -42.850; -344.000; -273.000
267.364; -122.075; -892.000; -686.000
267.504;   -1.700;    3.000;  135.000
267.645;   -9.675;  160.000;   67.000
267.786;  -36.500; -147.000;  -86.000
267.927;  -77.475; -473.000; -379.000
268.068;  -25.900; -186.000;  -61.000
268.209;  -59.800; -175.000; -413.000
268.350;  -56.825; -388.000; -532.000
268.490;  -95.050; -648.000; -521.000
268.631;   43.450;  127.000;  225.000
268.772; -120.950; -874.000; -647.000
268.913;  -42.325; -328.000; -476.000
269.054;  -34.375; -117.000;   12.000
269.194;  -44.825; -418.000; -402.000
269.335; -177.325;-1137.000;-1074.000
269.476;  -13.575;   33.000;  -35.000
269.617;  -51.775; -347.000; -392.000
269.757;  -86.175; -713.000; -646.000
269.898; -114.550; -856.000; -613.000
270.039;  -59.725; -415.000; -405.000
270.180; -152.275; -952.000; -816.000
270.320;  -16.275; -190.000; -250.000
270.461;  -47.525; -277.000; -249.000
270.602;   -3.450; -186.000; -156.000
270.742; -125.725; -868.000; -943.000
270.883;  -40.400; -442.000; -390.000
271.023;  -53.725; -358.000; -357.000
271.164;  -73.800; -607.000; -528.000
271.305;  -95.700; -666.000; -654.000
271.445;  -82.125; -722.000; -683.000
271.586;  -80.350; -462.000; -283.000
271.726;  -42.025; -397.000; -322.000
271.867;  -74.275; -594.000; -534.000
272.008;  194.750; -473.000; -285.000
272.148;  133.875;  462.000;  468.000
272.289;   29.400; -113.000; -181.000
272.429;    9.300;   19.000;  185.000
272.570;  -89.625; -633.000; -737.000
272.710; -107.400; -825.000; -775.000
272.851;  -12.575;  113.000; -130.000
272.991; -184.325;-1173.000;-1077.000
273.131;  -61.175; -419.000; -459.000
273.272; -106.500; -683.000; -723.000
273.412;   21.900; -143.000;  -31.000
273.553;  -73.800; -488.000; -507.000
273.693;  146.250;  913.000;  858.000
273.834;  -86.150; -894.000; -692.000
273.974;  -73.600; -664.000; -615.000
274.114; -112.525; -772.000; -560.000
274.255;   90.300;  414.000;  373.000
274.395;   -0.300; -180.000; -125.000
274.535;   55.375;  199.000;  350.000
274.676;   21.050;  225.000;   94.000
274.816;   16.700;  110.000;   34.000
274.956;  -96.000; -624.000; -690.000
275.097;  -42.425;-1014.000; -922.000
275.237; -115.100; -913.000; -803.000
275.377;  -87.700; -778.000; -689.000
275.517; -151.950; -878.000; -937.000
275.658;  -53.375; -590.000; -555.000
275.798;  -81.350; -606.000; -413.000
275.938;   22.700;  215.000;  323.000
276.078; -114.400; -626.000; -395.000
276.218;   14.650;   99.000;  104.000
276.359; -135.525;-1026.000;-1024.000
276.499;  -63.150; -605.000; -446.000
276.639;  -31.375; -305.000; -151.000
276.779;  -49.125; -475.000; -357.000
276.919; -108.250; -783.000; -624.000
277.059;  -12.925; -261.000; -212.000
277.199;  -58.375; -357.000; -259.000
277.340;   57.075;  287.000;  175.000
277.480; -122.200; -840.000; -693.000
277.620;   38.175;  192.000;   16.000
277.760; -206.450;-1533.000;-1294.000
277.900;   26.325;  113.000;   33.000
278.040;   19.825;  137.000;  159.000
278.180;   40.650;  270.000;  170.000
278.320;   -7.700;   21.000;   56.000
278.460;  -67.775; -443.000; -469.000
278.600;  -88.975; -708.000; -598.000
278.740;   47.850;  448.000;  224.000
278.880;  -52.250; -768.000; -791.000
279.020;    3.375; -194.000; -144.000
279.160; -104.125; -672.000; -595.000
279.300; -117.875; -926.000; -873.000
279.440; -102.625; -709.000; -622.000
279.579;   -2.275;-1014.000; -929.000
279.719;  -48.375; -410.000; -394.000
279.859;   87.075;   -4.000;   41.000
279.999;   27.600; -208.000;  101.000
280.139;  -10.125; -435.000; -387.000
280.279;  -90.050; -708.000; -745.000
280.419;   -1.150; -229.000; -147.000
280.559;  -44.875; -259.000; -180.000
280.698;  -81.975; -790.000; -639.000
280.838;  -92.325; -778.000; -800.000
280.978;  -92.850; -846.000; -790.000
281.118; -117.150; -811.000; -704.000
281.257;   26.325;   24.000;    6.000
281.397; -115.425;-1094.000; -960.000
281.537;  -81.875; -599.000; -712.000
281.677;  -42.575; -150.000; -101.000
281.816;  -88.675; -700.000; -630.000
281.956;  -44.775; -193.000; -257.000
282.096;  -57.525; -539.000; -396.000
282.235; -125.975; -672.000; -638.000
282.375;  -15.800; -243.000;  -98.000
282.515; -121.500; -715.000; -707.000
282.654;   23.625;   29.000;  106.000
282.794;   21.800;  388.000;  244.000
282.934;  -56.125; -530.000; -491.000
283.073; -138.875;-1030.000; -857.000
283.213;  -54.375; -460.000; -467.000
283.353;  -47.575; -408.000; -349.000
283.492;  -24.275; -264.000; -296.000
283.632;  -40.750; -254.000; -168.000
283.771; -104.450; -859.000; -730.000
283.911;  -63.475; -369.000; -260.000
284.050; -111.950; -794.000; -748.000
284.190; -160.525;-1229.000;-1096.000
284.329; -139.825;-1055.000; -964.000
284.469;  -73.725; -516.000; -591.000
284.608;  -30.800; -559.000; -598.000
284.748;  -92.100; -614.000; -570.000
284.887;    1.125;  -87.000;  -20.000
285.027; -117.900; -844.000; -892.000
285.166;  -16.625; -192.000; -249.000
285.306;   -9.150; -116.000;  -33.000
285.445;  -43.650; -229.000; -343.000
285.584; -108.775; -630.000; -494.000
285.724;  -42.825; -282.000; -322.000
285.863; -120.600; -857.000; -507.000
286.002;  -48.350; -366.000; -276.000
286.142; -119.100; -715.000; -622.000
286.281;  -66.450; -525.000; -493.000
286.420;  -86.800; -554.000; -417.000
286.560;  113.175;  653.000;  623.000
286.699; -144.575; -958.000; -912.000
286.838;  -76.900; -590.000; -591.000
286.978; -101.400; -533.000; -537.000
287.117; -132.025;-1085.000; -950.000
287.256;  -39.225; -228.000; -211.000
287.395;  -32.275; -197.000; -378.000
287.535;  -58.625; -370.000; -298.000
287.674;  -75.900; -509.000; -484.000
287.813;   45.075;  661.000;  533.000
287.952; -128.675;-1010.000; -871.000
288.091; -158.750;-1049.000; -915.000
288.231;   21.050;   13.000;   15.000
288.370; -190.675;-1217.000;-1200.000
288.509;  -89.175; -728.000; -645.000
288.648; -101.050; -770.000; -548.000
288.787;  -35.750; -243.000;  -87.000
288.926;  -63.000; -454.000; -475.000
289.065;  116.250;  859.000;  672.000
289.204;  -62.175; -377.000; -217.000
289.344;  -91.775; -791.000; -690.000
289.483;   10.400;  416.000;  304.000
289.622;  -12.300; -291.000; -149.000
289.761;  -26.175; -309.000; -166.000
289.900;  -98.675; -785.000; -626.000
290.039;  -31.925;  -12.000;  -95.000
290.178;  -34.975; -274.000; -180.000
290.317;  -82.075; -618.000; -479.000
290.456;  -58.800; -463.000; -451.000
290.595; -145.000; -961.000; -833.000
290.734; -133.700; -904.000; -891.000
290.873;  -70.600; -456.000; -420.000
291.011; -102.125; -833.000; -843.000
291.150; -111.250; -770.000; -682.000
291.289;  -10.900; -343.000; -110.000
291.428; -104.500; -599.000; -480.000
291.567;  -47.950; -370.000; -442.000
291.706;  -10.450;  109.000;  154.000
291.845;  -86.250; -597.000; -505.000
291.984; -184.975;-1234.000;-1061.000
292.122;   72.975;  602.000;  582.000
292.261;   37.025;  620.000;  463.000
292.400;   19.700; -144.000;  211.000
292.539; -130.300; -959.000; -813.000
292.678;  -22.750; -325.000; -300.000
292.816; -156.750;-1136.000; -965.000
292.955;  -77.600; -844.000; -684.000
293.094;  -40.775; -173.000; -337.000
293.233;  -48.125; -556.000; -400.000
293.371;  -37.300; -225.000;  -84.000
293.510; -116.250; -866.000; -780.000
293.649; -129.075; -959.000; -924.000
293.787;  -48.650;-1083.000;-1012.000
293.926;    3.100; -113.000;  -32.000
294.065;  -45.600; -379.000; -290.000
294.203;   38.600;  298.000;  406.000
294.342;   28.675;   74.000;  156.000
294.481; 5879.575;51180.000; -836.000
294.619;  -19.075; -425.000; -582.000
294.758; -146.400;-1230.000;-1137.000
294.896;   83.975; -125.000;    5.000
295.035; -138.225;-1040.000;-1006.000
295.174; -109.350;-1082.000; -954.000
295.312;  -57.125; -323.000; -203.000
295.451;   -4.000; -307.000; -428.000
295.589;  -64.925; -389.000; -518.000
295.728;   26.850; -292.000; -165.000
295.866;   -2.450;  -36.000;  -51.000
296.005;  -57.475; -584.000; -341.000
296.143;  -73.875; -558.000; -596.000
296.282;  -86.800; -957.000; -881.000
296.420; -103.750; -657.000; -557.000
296.559;  -85.050; -892.000; -633.000
296.697;   34.750; -847.000; -665.000
296.835;   95.275;-1141.000;-1002.000
296.974;   49.150;  -23.000;   39.000
297.112;   14.400; -443.000; -504.000
297.251;  -78.900; -815.000; -755.000
297.389;  116.350; -576.000; -438.000
297.527;   35.975; -145.000;  -83.000
297.666;  -41.050; -486.000; -438.000
297.804;  -66.225; -404.000; -264.000
297.942;    0.375; -136.000; -161.000
298.081;   -7.050; -183.000;   63.000
298.219;   83.125;  -17.000;  -19.000
298.357;   54.750; -144.000;  -71.000
298.495;   70.600; -810.000; -812.000
298.634;   77.525;  245.000;  219.000
298.772;   88.550; -220.000; -338.000
298.910;  -40.100; -309.000; -182.000
299.048;    0.075; -130.000; -153.000
299.187;  -13.075; -350.000; -250.000
299.325;   33.075;   52.000;  122.000
299.463;   69.275; -389.000; -299.000
299.601;  157.450; -327.000; -271.000
299.739; -104.950; -908.000; -883.000
299.877;  -72.000; -791.000; -703.000
300.016;  -36.700;-1095.000; -935.000
300.154;  195.125;  -19.000; -161.000
300.292;   59.475; -428.000; -348.000
300.430;   36.675; -408.000; -291.000
300.568; -103.825; -940.000; -874.000
300.706;  -47.225; -366.000; -469.000
300.844;  -73.775;-1108.000; -979.000
300.982;  119.425;  246.000;  282.000
301.120; -118.950; -965.000; -866.000
301.258;  -61.825; -812.000; -705.000
301.396;   34.175;  104.000;  -41.000
301.534;  109.925; -218.000; -293.000
301.672;   10.850; -664.000; -521.000
301.810;   51.175; -613.000; -545.000
301.948;  142.400;   53.000;  149.000
302.086;  686.975; -250.000;  -32.000
302.224; 1103.775; -610.000; -585.000
302.362;   69.150; -558.000; -622.000
302.500;   -8.450; -923.000; -893.000
302.638;  135.850;  128.000;  245.000
302.776;    2.875; -352.000; -408.000
302.913;   55.650;  447.000;  236.000
303.051;   -4.400;  -86.000;  -23.000
303.189;   69.750;   90.000;  118.000
303.327;  -35.275; -341.000; -256.000
303.465;  -90.600; -832.000; -588.000
303.603;  -92.950; -805.000; -604.000
303.740;  112.075;  417.000;  241.000
303.878;   34.400; -800.000; -759.000
304.016;  -92.975; -915.000; -790.000
304.154; -131.275;-1123.000;-1152.000
304.291;  -22.625; -505.000; -554.000
304.429;    5.350;  102.000;   74.000
304.567; -132.600; -908.000; -893.000
304.705;  -53.275; -408.000; -515.000
304.842;  120.275; -616.000; -540.000
304.980;   64.375;  215.000;   35.000
305.118;   53.950; -367.000; -365.000
305.255;  -67.050; -945.000; -927.000
305.393;   74.225;  178.000;  239.000
305.531;  -88.625;-1173.000; -956.000
305.668;  -63.950; -663.000; -582.000
305.806;  110.475; -358.000; -439.000
305.943;  139.425; -629.000; -637.000
306.081;   70.450; -378.000; -267.000
306.219;  -96.350; -863.000; -748.000
306.356;   -4.575;  158.000;   27.000
306.494;  131.425;  981.000;  761.000
306.631;  -13.550;  -11.000;  -55.000
306.769;   21.975; -613.000; -485.000
306.906;  -11.900; -284.000; -258.000
307.044;  -62.800; -473.000; -488.000
307.181;  -69.150; -410.000; -332.000
307.319;    9.100;  112.000;   87.000
307.456; -176.575;-1191.000;-1153.000
307.594;  -90.400; -980.000; -727.000
307.731;  -14.300; -371.000; -164.000
307.868;   17.400;  -15.000;   20.000
308.006; -143.825; -961.000; -847.000
308.143;  -53.250; -618.000; -330.000
308.281;  148.025;  -37.000; -254.000
308.418;   -8.475; -748.000; -640.000
308.555;  -80.375; -400.000; -250.000
308.693;  -76.825; -577.000; -573.000
308.830; -113.050; -712.000; -657.000
308.967;   -6.625; -215.000;  -95.000
309.105;  -64.000; -507.000; -396.000
309.242;   27.150; -468.000; -367.000
309.379;  278.350; -577.000; -655.000
309.517;  -73.650; -936.000; -948.000
309.654; -115.700; -910.000; -734.000
309.791;  -70.125; -662.000; -580.000
309.928; -109.925; -977.000; -914.000
310.065;  198.875;  819.000;  697.000
310.203;   -4.475; -825.000; -850.000
310.340;   14.425; -465.000; -321.000
310.477;  -87.875; -412.000; -516.000
310.614;  -60.575; -383.000; -473.000
310.751;  -82.850; -427.000; -518.000
310.889;    5.550;    1.000;   11.000
311.026; -157.275;-1161.000; -939.000
311.163;  -43.675; -386.000; -380.000
311.300;  -82.075; -512.000; -479.000
311.437;  -83.075; -658.000; -619.000
311.574; -165.175;-1226.000; -985.000
311.711;  -58.575; -595.000; -433.000
311.848;  -53.625; -380.000; -388.000
311.985;   11.025;  270.000;   93.000
312.122; -127.225; -932.000; -762.000
312.259; -125.425; -941.000; -994.000
312.396;  -94.025; -508.000; -551.000
312.533;  -83.475; -812.000; -790.000
312.670; -136.300;-1070.000; -898.000
312.807;  -26.900; -352.000; -367.000
312.944;  -85.125; -513.000; -611.000
313.081;  -17.500; -150.000; -415.000
313.218; -112.850;-1111.000; -867.000
313.355;   25.025; -531.000; -449.000
313.492;    6.800; -455.000; -292.000
313.629;  149.375;  815.000;  735.000
313.766; -166.075;-1176.000;-1008.000
313.902;  -11.350; -186.000;   21.000
314.039;  -55.350; -372.000; -289.000
314.176;   37.650;  286.000;  192.000
314.313;  -84.675; -569.000; -473.000
314.450;  -76.675; -788.000; -684.000
314.587;  -70.150; -468.000; -480.000
314.723;   16.875;  -78.000;  130.000
314.860;   35.050;  318.000;  332.000
314.997;   38.375;  223.000;  142.000
315.134;  -40.300; -385.000; -368.000
315.270;  -18.225; -480.000; -496.000
315.407; -123.900;-1094.000; -967.000
315.544;  -38.675; -657.000; -538.000
315.681;  -73.425; -681.000; -565.000
315.817;   44.700; -133.000; -176.000
315.954;   25.850; -613.000; -392.000
316.091; -119.425;-1045.000;-1023.000
316.227;  -26.950;  -71.000; -179.000
316.364;    0.975;   23.000;    6.000
316.500;  -51.350; -113.000; -300.000
316.637;  -36.900; -181.000; -302.000
316.774;  -97.350; -625.000; -358.000
316.910;  -91.675; -598.000; -629.000
317.047;  -76.575; -487.000; -351.000
317.183;  -46.900; -435.000; -566.000
317.320;  -27.275; -367.000; -321.000
317.456;  -69.100; -733.000; -805.000
317.593;  -96.950; -598.000; -641.000
317.729;   19.325;  168.000;  -67.000
317.866; -203.675;-1434.000;-1285.000
318.002;  -81.550; -708.000; -948.000
318.139;  -92.225; -883.000; -867.000
318.275;  -96.350;-1003.000; -738.000
318.412;  -68.475; -517.000; -336.000
318.548;  -19.350; -751.000; -720.000
318.685;  -99.700; -985.000; -888.000
318.821;  -88.275; -762.000; -735.000
318.957;  -19.425;   34.000;  -23.000
319.094;   58.775;  297.000;  154.000
319.230;  -78.100; -756.000; -742.000
319.367;  155.950; -471.000; -520.000
319.503;   55.525; -538.000; -436.000
319.639;  -90.775; -877.000; -793.000
319.775;  -72.075; -750.000; -685.000
319.912;  -49.250; -424.000; -519.000
320.048;  -99.025;-1184.000;-1184.000
320.184;   86.475;   59.000;   70.000
320.321;  -74.500; -497.000; -467.000
320.457;   61.650;  475.000;  662.000
320.593;  -66.200; -375.000; -382.000
320.729; -105.925; -732.000; -734.000
320.866;  -79.975; -577.000; -635.000
321.002;  -70.125; -759.000; -809.000
321.138;  -28.100; -135.000; -211.000
321.274;   88.800; -148.000; -115.000
321.410;  -21.625; -585.000; -353.000
321.546;   -9.900;-1011.000; -911.000
321.683;   45.050;  400.000;  185.000
321.819;   11.825;  -48.000; -117.000
321.955; -122.725; -743.000; -722.000
322.091;  -44.200; -585.000; -540.000
322.227;  -19.175; -382.000; -202.000
322.363;   -0.700; -320.000; -215.000
322.499;  -48.950; -343.000; -331.000
322.635;  188.700;  636.000;  443.000
322.771;   14.325; -139.000;   12.000
322.907;  103.450;  129.000;  327.000
323.043;  -34.050; -115.000; -206.000
323.179;  -26.975; -394.000; -363.000
323.315;   28.500; -401.000; -371.000
323.451;  119.300; -328.000; -236.000
323.587;   72.475;  -60.000;  -77.000
323.723;   28.650; -682.000; -601.000
323.859;  -18.525; -258.000;  -76.000
323.995;  -17.850; -467.000; -409.000
324.131; -126.375; -967.000; -892.000
324.267;  -32.300; -254.000; -276.000
324.402; -140.250; -960.000; -983.000
324.538;   -1.925; -279.000; -104.000
324.674;   15.250;  164.000;   77.000
324.810;  160.575;  226.000;  308.000
324.946;   10.325; -810.000; -658.000
325.082;  -74.175; -568.000; -475.000
325.217;   -7.000;  -62.000;   16.000
325.353;  -89.300; -764.000; -659.000
325.489;  -92.050; -540.000; -506.000
325.625;  -74.000; -579.000; -525.000
325.760;   51.825;  517.000;  376.000
325.896;  -28.325; -515.000; -702.000
326.032;  -57.450; -403.000; -352.000
326.168;  -58.775; -462.000; -369.000
326.303;  -67.350; -352.000; -461.000
326.439;  -26.675; -336.000; -276.000
326.575;    6.300; -190.000;  -29.000
326.710;    7.625; -156.000;  -30.000
326.846;  -15.425;  146.000;  103.000
326.982;  -83.600; -530.000; -548.000
327.117;  -88.375; -481.000; -442.000
327.253;  -83.850; -745.000; -742.000
327.388; -157.100;-1137.000;-1153.000
327.524;  -29.825; -811.000; -578.000
327.659;  -31.250;  -58.000;  -22.000
327.795;  -12.950;   69.000;   45.000
327.931;  -93.550; -723.000; -499.000
328.066;  -26.750; -417.000; -276.000
328.202;  -29.025;   12.000; -129.000
328.337;  112.000;  957.000;  713.000
328.473;   31.925;  -12.000;  -74.000
328.608;  -15.375; -256.000; -267.000
328.743;  -83.325; -799.000; -664.000
328.879;   27.500;  214.000;  114.000
329.014;  -51.200; -102.000; -122.000
329.150;  -72.475; -358.000; -483.000
329.285;  -87.175; -465.000; -466.000
329.421;  -51.100; -548.000; -246.000
329.556;  -34.975;  -36.000;   85.000
329.691; -105.800; -633.000; -615.000
329.827;  -90.600; -626.000; -480.000
329.962;  -26.025;  131.000; -301.000
330.097;  -94.050; -673.000; -585.000
330.233;  -56.650; -410.000; -223.000
330.368; -135.250; -839.000; -628.000
330.503;   -1.525;    3.000;   98.000
330.638;   21.350;  -93.000; -125.000
330.774;  -43.125; -609.000; -530.000
330.909;  -56.225; -434.000; -244.000
331.044;  -84.625; -714.000; -708.000
331.179; -187.975;-1217.000;-1109.000
331.315;   15.575;   77.000;   20.000
331.450;   -3.575;  157.000;  285.000
331.585;  -82.475; -805.000; -706.000
331.720; -102.275; -510.000; -460.000
331.855;  -11.350;  -35.000; -102.000
331.990;  215.075;   62.000;  138.000
332.126;  131.975; -110.000;   71.000
332.261;  -22.525; -379.000; -265.000
332.396;    5.975; -135.000; -242.000
332.531; -105.700;-1074.000;-1031.000
332.666;   24.050; -519.000; -363.000
332.801; -108.400; -726.000; -807.000
332.936;  -16.475; -192.000; -122.000
333.071; -157.900; -870.000; -817.000
333.206;   22.275;  307.000;  379.000
333.341;   16.675;  344.000;  418.000
333.476;  -80.250; -627.000; -623.000
333.611;  -30.050; -251.000; -173.000
333.746;  -40.500; -381.000; -464.000
333.881; -133.200; -973.000; -935.000
334.016; -118.200; -936.000; -917.000
334.151; -127.150; -746.000; -702.000
334.286;   33.725;  152.000;  186.000
334.421;  -22.800; -125.000; -178.000
334.556;  -59.675; -611.000; -567.000
334.690;  -94.150; -631.000; -577.000
334.825;   59.100;  381.000;   83.000
334.960;  -60.050; -285.000; -413.000
335.095;   13.475;  135.000;  -91.000
335.230;  -94.525; -722.000; -738.000
335.365; -124.825;-1084.000; -990.000
335.499; -129.175;-1108.000;-1037.000
335.634;   35.550;    9.000;  534.000
335.769; -103.075; -755.000; -720.000
335.904;  -51.950; -603.000; -561.000
336.038;  -66.550; -735.000; -657.000
336.173; -103.250;-1206.000;-1194.000
336.308;   15.750; -116.000; -189.000
336.443;   41.225; -544.000; -634.000
336.577;  -74.975; -936.000; -787.000
336.712;   82.800;   -4.000;  -12.000
336.847;  -35.100; -724.000; -607.000
336.981;   86.125; -272.000; -208.000
337.116;  309.550;  615.000;  501.000
337.250;  197.850; -434.000; -421.000
337.385;  220.700; -297.000; -208.000
337.520;   81.050; -632.000; -603.000
337.654;  -45.725; -215.000; -126.000
337.789; -127.525; -989.000; -933.000
337.923;  -41.175; -104.000; -205.000
338.058;  -75.300; -673.000; -738.000
338.192;  -42.525; -611.000; -488.000
338.327;    2.750;  -18.000; -155.000
338.461;  -61.100; -299.000; -469.000
338.596;  -82.850; -780.000; -638.000
338.730; -121.200; -767.000; -803.000
338.865;   81.850;  -46.000; -140.000
338.999;  -60.700; -846.000; -702.000
339.134;  -27.450; -634.000; -536.000
339.268;   -2.600; -741.000; -603.000
339.403;  362.600; -740.000; -775.000
339.537;   86.825; -894.000; -820.000
339.671; -115.025; -829.000; -813.000
339.806;  -70.875; -556.000; -512.000
339.940;   13.325; -261.000; -235.000
340.074;  -94.950; -685.000; -510.000
340.209;  -39.825; -351.000; -230.000
340.343; -102.775; -517.000; -573.000
340.477;  148.625;  998.000; 1036.000
340.612;  -80.425;-1033.000; -900.000
340.746;  122.900; -199.000; -243.000
340.880;  -71.125; -924.000; -785.000
341.014;  -18.450;  -45.000; -154.000
341.149; -127.350; -756.000; -718.000
341.283; -101.800; -839.000; -754.000
341.417;  -86.500;-1124.000; -938.000
341.551;  164.100; -768.000; -708.000
341.685;  -41.400; -633.000; -611.000
341.820;  -61.275; -562.000; -493.000
341.954;  -56.300; -218.000; -349.000
342.088; -151.325;-1102.000;-1019.000
342.222;   37.150;  565.000;  618.000
342.356;  -48.375; -395.000; -335.000
342.490;  -99.925; -880.000; -841.000
342.624;  -32.400; -339.000; -242.000
342.758;   -3.625; -364.000; -312.000
342.892;  -44.275; -710.000; -585.000
343.026;  -35.975;  -58.000; -116.000
343.160;  -53.825; -426.000; -376.000
343.294;  -78.200; -474.000; -337.000
343.428;   -9.700; -488.000; -448.000
343.562;  -26.450; -172.000;  -23.000
343.696;  -19.550; -385.000; -314.000
343.830;  -21.800; -362.000; -356.000
343.964;   32.500; -231.000; -168.000
344.098; 1083.800;  199.000;   70.000
344.232;  885.000; -266.000; -127.000
344.366;   77.350; -567.000; -453.000
344.500;   93.025; -665.000; -744.000
344.634;   38.150; -324.000; -164.000
344.768;   -2.800; -531.000; -341.000
344.902;   21.050;  278.000;  256.000
345.035;  -75.900; -556.000; -496.000
345.169; -136.475; -933.000; -656.000
345.303;  -12.700; -308.000; -482.000
345.437;  -80.300; -826.000; -717.000
345.571;  -68.025; -675.000; -594.000
345.704;  -66.950; -309.000; -532.000
345.838;   -7.225; -331.000; -284.000
345.972;  -30.825; -543.000; -495.000
346.106;  152.675; -179.000; -190.000
346.239;  428.275; -312.000; -243.000
346.373;   21.600; -343.000; -302.000
346.507; -156.275; -950.000; -962.000
346.640;  181.575;  -30.000;   13.000
346.774;  -29.700; -650.000; -797.000
346.908;  -11.275; -138.000;  -11.000
347.041; -103.650; -646.000; -593.000
347.175;   12.525;  259.000;   27.000
347.309;  -78.550; -698.000; -628.000
347.442;  -95.650; -883.000; -732.000
347.576;  317.900;  670.000;  668.000
347.709;  229.175; -123.000;  -52.000
347.843;  -98.925; -933.000; -825.000
347.976;   42.325;  235.000;  294.000
348.110; -189.025;-1268.000;-1186.000
348.243; -101.875; -679.000; -772.000
348.377;  -11.350;  -26.000;   60.000
348.510;   57.025;  403.000;  540.000
348.644;  -35.900;  -37.000; -159.000
348.777;   11.150;  180.000;  191.000
348.911;  -58.750; -142.000; -112.000
349.044;  191.650;  471.000;  448.000
349.178;  192.700;-1069.000;-1006.000
349.311;  130.500;  141.000;  255.000
349.444;  -23.450; -927.000; -813.000
349.578;  -10.625; -347.000; -200.000
349.711; -110.150; -959.000; -862.000
349.845;   24.975; -661.000; -591.000
349.978; -149.925;-1224.000;-1137.000
350.111;  -86.450; -546.000; -612.000
350.244;  -80.175; -596.000; -700.000
350.378;   36.025; -392.000; -393.000
350.511;  -73.825; -393.000; -426.000
350.644;  -87.100; -808.000; -806.000
350.778;   -2.525;  168.000;  104.000
350.911;    6.450;  134.000;  140.000
351.044; -101.150; -685.000; -615.000
351.177;  -27.725; -321.000; -281.000
351.310;  -19.575;    3.000; -131.000
351.444;  -69.975; -888.000; -788.000
351.577;  132.575;  140.000;   90.000
351.710;  116.325;  593.000;  417.000
351.843;  -37.775; -165.000;  -77.000
351.976;    3.725;  149.000;  -79.000
352.109;  -91.800; -621.000; -612.000
352.242;  -15.425; -464.000; -419.000
352.376;  -61.150; -580.000; -636.000
352.509;  215.050; -437.000; -356.000
352.642;   18.150; -654.000; -604.000
352.775;   85.450; -141.000;  -98.000
352.908; -117.850; -933.000; -904.000
353.041;  -84.675; -814.000; -824.000
353.174;  -59.000; -551.000; -424.000
353.307;  -81.025; -753.000; -764.000
353.440;   67.525;  541.000;  453.000
353.573; -114.550; -957.000;-1008.000
353.706;  -22.150; -384.000; -558.000
353.839;  -19.700; -264.000; -220.000
353.971;  -95.150; -657.000; -512.000
354.104;  -61.075; -896.000; -835.000
354.237;  -31.225; -627.000; -662.000
354.370;  -77.050; -846.000; -879.000
354.503; -196.100;-1231.000;-1308.000
354.636;  -32.175; -529.000; -348.000
354.769; -133.600; -937.000; -860.000
354.902;   -1.875; -230.000; -139.000
355.034;   -9.125; -164.000; -220.000
355.167;   -6.175; -262.000; -162.000
355.300; -100.625;-1061.000; -880.000
355.433;  929.725;  -71.000;  -14.000
355.565; 1435.825; -402.000; -384.000
355.698;  370.775; -356.000; -296.000
355.831;   -1.600; -882.000; -801.000
355.964;   99.300; -285.000; -170.000
356.096;  -88.800; -856.000; -843.000
356.229;   19.550; -523.000; -530.000
356.362;  309.700; -373.000; -266.000
356.494;  582.575; -229.000; -162.000
356.627;  520.975;  269.000;  377.000
356.760;  657.000;  120.000;   53.000
356.892;  904.650; -286.000; -601.000
357.025;  740.950;  403.000;  389.000
357.157;  698.875; -167.000; -179.000
357.290;  642.575; -856.000; -713.000
357.423;  185.725; -667.000; -556.000
357.555;  138.425; -217.000; -228.000
357.688;  154.800; -483.000; -364.000
357.820;  523.250; -870.000; -877.000
357.953; 4208.100; -563.000; -589.000
358.085;  927.900; -632.000; -612.000
358.218; 1379.350;-1131.000; -932.000
358.350;  258.275;  -58.000;  312.000
358.483; -117.100;-1300.000;-1187.000
358.615;   28.775;-1182.000;-1078.000
358.747;  -56.675;-1187.000;-1058.000
358.880;   51.350; -810.000; -744.000
359.012;  -12.575; -376.000; -202.000
359.145;  -41.675; -480.000; -511.000
359.277;   77.900; -962.000; -913.000
359.409; 3468.300;  536.000;  231.000
359.542;  894.025; -738.000; -688.000
359.674;   81.425;   46.000;   13.000
359.806;  -65.875; -565.000; -438.000
359.939;  -24.800; -617.000; -516.000
360.071;  -28.525; -583.000; -579.000
360.203;  -11.850; -411.000; -364.000
360.335;   41.275;  164.000;  -16.000
360.468;  224.025; -249.000; -307.000
360.600; 2740.025; -547.000; -454.000
360.732; 2729.800; -546.000; -423.000
360.864;  351.825;-1216.000;-1044.000
360.996;  351.325; -516.000; -554.000
361.129;   57.450; -389.000; -598.000
361.261;   27.750;  110.000; -113.000
361.393;  -38.450; -252.000; -214.000
361.525;   46.250;   94.000;  244.000
361.657;  -37.050; -821.000; -703.000
361.789;   16.275; -139.000; -155.000
361.921;  292.650; -642.000; -593.000
362.053;  293.975;  524.000;  541.000
362.185;   58.100;  288.000;   72.000
362.318;  -70.000; -709.000; -705.000
362.450;  132.500;  294.000;  444.000
362.582;  150.850; -913.000; -870.000
362.714;  -36.275; -353.000; -332.000
362.846;  -82.750; -606.000; -490.000
362.978; -151.850; -941.000; -811.000
363.109;   60.150; -161.000; -260.000
363.241;  515.175; -739.000; -749.000
363.373;  436.425; -649.000; -564.000
363.505;  603.775; -186.000;  -91.000
363.637;  149.550; -787.000; -601.000
363.769; -139.050;-1067.000;-1080.000
363.901;  -64.475; -596.000; -654.000
364.033; -129.750;-1103.000;-1062.000
364.165;   -2.100; -283.000; -283.000
364.296;   70.825; -316.000; -177.000
364.428;   60.725;-1344.000;-1220.000
364.560;  -71.400; -679.000; -661.000
364.692;  -38.350; -738.000; -835.000
364.824;  318.000; -588.000; -456.000
364.955;  469.000; -402.000; -564.000
365.087;  843.125;-1097.000; -852.000
365.219;   28.475; -686.000; -816.000
365.351;  -85.575; -526.000; -572.000
365.482;   66.375;  300.000;  240.000
365.614;  -53.725; -402.000; -314.000
365.746; -100.675; -729.000; -752.000
365.877; -102.000; -706.000; -672.000
366.009;  252.700;  -35.000;  -62.000
366.141; -106.425;-1249.000;-1134.000
366.272; -108.550; -803.000; -719.000
366.404; -124.525;-1005.000; -874.000
366.535;   -2.550; -139.000;  -12.000
366.667; -117.575; -644.000; -649.000
366.799;   54.575;  353.000;  203.000
366.930; -119.850; -862.000; -996.000
367.062;  128.125; -639.000; -613.000
367.193;  114.100; -872.000; -842.000
367.325;  -59.100; -580.000; -684.000
367.456;   76.850; -246.000;   31.000
367.588;  167.150; -371.000; -318.000
367.719;   17.275;  -44.000;  -45.000
367.851;   -4.275; -222.000; -241.000
367.982;  -39.775; -875.000; -732.000
368.113;  132.600; -475.000; -358.000
368.245; -115.375; -960.000; -841.000
368.376;   -7.925; -254.000; -302.000
368.508;  -47.100; -188.000; -263.000
368.639; -126.275;-1166.000;-1034.000
368.770;    8.975; -670.000; -589.000
368.902;  -40.300; -836.000; -926.000
369.033; -117.750; -906.000; -855.000
369.164;  -40.875; -720.000; -653.000
369.296; -115.125; -452.000; -601.000
369.427;    3.800; -209.000; -144.000
369.558;  -63.675; -593.000; -377.000
369.689;  -76.475; -721.000; -569.000
369.821; -139.650; -951.000; -845.000
369.952;   -7.325;   42.000; -108.000
370.083;  -65.575; -229.000; -108.000
370.214;  -81.825; -735.000; -650.000
370.345;  -19.175;   65.000;   81.000
370.477;  -75.775; -810.000; -790.000
370.608;  276.125; -328.000; -264.000
370.739;  -21.000;-1233.000;-1292.000
370.870;  -30.725;-1102.000; -923.000
371.001;  135.550; -378.000; -467.000
371.132;  -75.450; -754.000; -735.000
371.263;  -10.925;  -42.000; -148.000
371.394; -154.850; -841.000; -748.000
371.525;   34.175;  345.000;  225.000
371.657;  -92.150; -808.000; -670.000
371.788;   85.025;  103.000;  199.000
371.919;  197.775; -384.000; -304.000
372.050; 4201.275;  -91.000; -156.000
372.181; 1226.475; -188.000; -294.000
372.311;  459.625;   42.000; -127.000
372.442;   51.450; -457.000; -451.000
372.573;  -11.075; -444.000; -340.000
372.704; -122.550;-1008.000; -980.000
372.835;   99.425; -228.000; -289.000
372.966;  -57.050; -646.000; -554.000
373.097;  -53.850; -575.000; -711.000
373.228;  -38.200; -717.000; -542.000
373.359;  184.425; -824.000; -536.000
373.490; 1106.600; -881.000; -727.000
373.620; 1361.300;-1001.000; -803.000
373.751; 2121.250; -332.000; -396.000
373.882;  930.500; -663.000; -733.000
374.013;   76.050; -449.000; -262.000
374.143;  -33.525; -581.000; -659.000
374.274; -105.650; -987.000; -908.000
374.405;  216.900; -388.000; -276.000
374.536;  536.175; -526.000; -387.000
374.666; 1342.450; -759.000; -807.000
374.797;  276.900; -817.000; -868.000
374.928; 1055.800; -710.000; -560.000
375.058; 1032.250; -535.000; -500.000
375.189;   89.075;  -59.000;  -93.000
375.320; -121.875; -928.000;-1034.000
375.450;  -25.175; -625.000; -616.000
375.581;  -51.975; -526.000; -436.000
375.712;  -27.000; -574.000; -250.000
375.842;  359.975; -438.000; -415.000
375.973;  262.825; -554.000; -513.000
376.103;  -34.675; -665.000; -648.000
376.234;  -54.100; -531.000; -552.000
376.364;  -28.400; -944.000; -867.000
376.495;  363.525;  925.000;  529.000
376.625;   -2.925; -472.000; -485.000
376.756;   88.925; -709.000; -678.000
376.886;  -77.900;-1178.000;-1026.000
377.017;   46.300;-1048.000;-1061.000
377.147;  312.800; -786.000; -782.000
377.278;   57.125;  174.000;  228.000
377.408; -146.300; -801.000; -815.000
377.538;  -94.375; -707.000; -693.000
377.669;  -82.500; -537.000; -613.000
377.799;  -80.850; -645.000; -635.000
377.929;  -71.050; -610.000; -428.000
378.060; -127.950; -781.000; -847.000
378.190;  -62.275; -726.000; -531.000
378.320;  -42.350; -401.000; -406.000
378.451;  -13.650; -131.000;  -22.000
378.581;    9.650;  -67.000; -110.000
378.711;  165.750; 1035.000;  866.000
378.841;   -5.725; -533.000; -675.000
378.972;  -69.425; -871.000; -751.000
379.102;   15.350; -652.000; -579.000
379.232;  -18.175; -126.000;  -73.000
379.362; -100.175;-1001.000; -885.000
379.492;   18.275; -373.000; -424.000
379.623;  133.400;    0.000;  111.000
379.753; -102.175;-1107.000; -974.000
379.883;  228.650;   59.000;  156.000
380.013;   37.675;-1081.000;-1017.000
380.143;  -85.350;-1097.000;-1056.000
380.273;  -98.850; -985.000; -861.000
380.403;    1.600; -344.000; -257.000
380.533;  -24.375; -651.000; -664.000
380.663;   88.075;  173.000;  128.000
380.793;  -96.925;-1027.000;-1074.000
380.923;  -23.525; -103.000;  -34.000
381.053;  -97.675; -613.000; -623.000
381.183;  -27.225; -106.000; -248.000
381.313;   51.600; -656.000; -470.000
381.443;   60.100; -692.000; -473.000
381.573;  258.500; -402.000; -409.000
381.703;  358.150;-1249.000;-1095.000
381.833; -134.475;-1454.000;-1336.000
381.963;  134.725; -134.000;  -87.000
382.093; 1595.750; -925.000; -909.000
382.223;  494.325; -713.000; -602.000
382.353;  -10.725; -801.000; -608.000
382.482;  460.000;-1091.000; -964.000
382.612;  917.150; -872.000; -644.000
382.742;  500.050; -695.000; -622.000
382.872;  326.375; -565.000; -551.000
383.002;   82.050;  347.000; -132.000
383.131;   -8.350; -226.000; -160.000
383.261;  -32.450; -706.000; -768.000
383.391;  284.375; -552.000; -377.000
383.521; 3060.600;  451.000;  263.000
383.650;  682.125; -947.000; -904.000
383.780;  -25.125; -783.000; -656.000
383.910;  106.800;  880.000;  802.000
384.039;   66.125; -794.000; -656.000
384.169;  257.275;-1205.000;-1017.000
384.299;    6.950; -650.000; -662.000
384.428;  -97.975; -764.000; -680.000
384.558;  -44.125; -308.000; -275.000
384.687;  -51.425; -414.000; -334.000
384.817;   29.900;   75.000;   -2.000
384.947;   25.350; -234.000; -141.000
385.076;  322.525;  982.000;  912.000
385.206;  114.050;  369.000;  480.000
385.335;  -16.625; -549.000; -417.000
385.465;  -83.825; -655.000; -663.000
385.594;  157.800;  -53.000;  -44.000
385.724;  510.125; -868.000; -838.000
385.853;  142.575; -296.000; -270.000
385.982; 1646.300; -743.000; -787.000
386.112; 2527.950;-1052.000; -871.000
386.241;  163.825; -307.000; -312.000
386.371;   15.175; -174.000;  -87.000
386.500;   -4.325; -825.000; -789.000
386.629;   38.775; -874.000; -817.000
386.759;   47.700;  -43.000;   68.000
386.888;    5.425; -170.000; -250.000
387.017;  -83.450; -648.000; -620.000
387.147;  -76.975; -771.000; -798.000
387.276;   11.400; -410.000; -397.000
387.405;   35.825; -398.000; -342.000
387.535;  -51.875; -452.000; -361.000
387.664;  -60.900; -692.000; -620.000
387.793;   64.025; -198.000; -113.000
387.922;  622.175;  255.000;  200.000
388.052;   27.600; -576.000; -423.000
388.181;   42.050; -342.000; -472.000
388.310;   10.800; -889.000; -710.000
388.439;  -36.575; -749.000; -742.000
388.568;  213.650;  365.000;  244.000
388.697; 1270.725; -756.000; -653.000
388.826;  270.100; -768.000; -666.000
388.956;   84.450; -285.000; -307.000
389.085;  -42.500; -347.000; -287.000
389.214; -100.500; -842.000; -872.000
389.343;  -65.175; -645.000; -413.000
389.472;  391.525;  126.000;  149.000
389.601;  529.225;   91.000;    0.000
389.730;   39.025; -568.000; -687.000
389.859;   68.325;  226.000;   46.000
389.988;  232.350; -423.000; -408.000
390.117;  135.075; -168.000; -146.000
390.246;    5.900; -331.000; -320.000
390.375;  138.150; -673.000; -626.000
390.504;  -44.475; -703.000; -621.000
390.633; -100.150; -672.000; -726.000
390.761;  -55.275; -732.000; -645.000
390.890;   21.550;   -4.000; -130.000
391.019;  -23.350; -421.000; -441.000
391.148; -140.625; -826.000; -855.000
391.277;  -46.050; -576.000; -493.000
391.406;  -80.150; -821.000; -805.000
391.534;   32.600;  574.000; -301.000
391.663;  -71.175; -583.000; -645.000
391.792;  -78.975; -673.000; -701.000
391.921;  114.775;   -3.000;   15.000
392.050;  240.475; -287.000; -228.000
392.178;  -42.475;-1206.000;-1061.000
392.307;  191.750; -758.000; -712.000
392.436;   86.225; -427.000; -641.000
392.564;   15.875;  166.000;   -6.000
392.693;  -94.450; -860.000; -682.000
392.822;  267.750; -529.000; -534.000
392.950;  118.900; -880.000; -714.000
393.079;  398.250; -188.000; -328.000
393.208;   36.350; -488.000; -511.000
393.336;   -6.375; -170.000; -145.000
393.465;  -71.500; -317.000; -199.000
393.593;    0.700;   62.000;   79.000
393.722; -166.825;-1121.000; -916.000
393.850;  -43.575; -188.000;  -61.000
393.979; -172.150; -926.000; -805.000
394.107;  -62.425; -517.000; -537.000
394.236;  -28.400; -570.000; -507.000
394.364;  198.100;  383.000;  206.000
394.493;  285.975; -911.000; -767.000
394.621;  -15.950; -955.000; -916.000
394.750;  648.225; -873.000; -923.000
394.878; 2849.525; -247.000; -149.000
395.007; 3794.350; -721.000; -807.000
395.135;  276.950; -790.000; -721.000
395.263;  -92.350;-1038.000;-1040.000
395.392;   -7.875;  -25.000; -107.000
395.520; -147.150; -818.000; -679.000
395.648;  -82.750; -865.000; -915.000
395.777;  -20.075; -366.000; -405.000
395.905;  -32.775; -449.000; -564.000
396.033;   -0.250;  217.000;  172.000
396.162;  501.250; -399.000; -453.000
396.290;  442.150;  -17.000;   -2.000
396.418;  130.125; -555.000; -514.000
396.546;  -71.550; -571.000; -466.000
396.674;  -92.800; -850.000; -878.000
396.803;   -4.750;  -72.000;  -23.000
396.931;  120.725; -179.000; -199.000
397.059;   76.175;-1026.000; -989.000
397.187; -100.425;-1026.000; -975.000
397.315; -144.750; -884.000; -649.000
397.443;  -89.325; -592.000; -443.000
397.572;  -99.225; -578.000; -424.000
397.700;    8.325; -607.000; -614.000
397.828;   38.050;  120.000;  -90.000
397.956;  -37.050; -508.000; -478.000
398.084;  -93.275; -767.000; -626.000
398.212;   42.450;  137.000;  124.000
398.340;   -3.450;  -56.000;  159.000
398.468;   60.825; -390.000; -169.000
398.596; -148.050; -993.000; -953.000
398.724; -112.550; -762.000; -767.000
398.852; -169.650;-1024.000; -976.000
398.980;  -59.550; -560.000; -560.000
399.108;  -55.325; -982.000; -735.000
399.236;   29.350;   13.000;    8.000
399.363;    1.800;  222.000;  196.000
399.491;  -59.475; -404.000; -398.000
399.619; -136.825; -829.000; -800.000
399.747;  -94.200; -859.000; -771.000
399.875;   67.175;  220.000;  234.000
400.003;  -52.150; -359.000; -284.000
400.130;  -98.525; -421.000; -341.000
400.258;  -18.275;  -83.000;   38.000
400.386;  -72.050; -352.000; -168.000
400.514;  -41.250; -526.000; -587.000
400.641;  -85.175; -928.000; -802.000
400.769; -147.900; -979.000; -888.000
400.897; -107.850; -838.000; -793.000
401.025;  -21.025; -166.000; -152.000
401.152;  -12.600;  220.000;   38.000
401.280;  -85.575; -430.000; -429.000
401.408; -131.850; -712.000; -576.000
401.535; -106.275; -735.000; -758.000
401.663; -198.925;-1134.000;-1054.000
401.790;  -78.325; -514.000; -525.000
401.918;   26.375;  436.000;  405.000
402.046;  -12.025;  134.000;  122.000
402.173;  -50.450;  -18.000;    7.000
402.301;  -68.175; -519.000; -397.000
402.428;   23.975;  528.000;  383.000
402.556; -136.325;-1188.000; -913.000
402.683;  -42.650;  -20.000;   -1.000
402.811;  -20.250;  -37.000; -206.000
402.938;  -20.825;   20.000;   27.000
403.066;  255.175; -574.000; -558.000
403.193;  388.600;  299.000;  239.000
403.321;  323.450; -396.000; -574.000
403.448;  356.600;   83.000;   27.000
403.575;  174.725;  -90.000;  -46.000
403.703; -102.900; -732.000; -557.000
403.830;  -57.675; -531.000; -496.000
403.957; -151.700;-1117.000;-1023.000
404.085;   19.300;  -61.000; -172.000
404.212;   98.375;  -50.000;   63.000
404.339;  267.500; -566.000; -306.000
404.467; 5571.800; -612.000; -524.000
404.594; 3771.950; -287.000; -227.000
404.721;  914.400; -869.000; -764.000
404.848;   70.075; -113.000; -202.000
404.976; -106.775; -856.000; -783.000
405.103;  -20.775;  -14.000;  -82.000
405.230;    4.900;  190.000;  226.000
405.357;   24.950;  117.000;   44.000
405.484;  247.275;  -49.000;    5.000
405.612;   34.400; -548.000; -563.000
405.739;  -71.800; -488.000; -243.000
405.866;   93.650;  669.000;  385.000
405.993;  -51.800; -398.000; -102.000
406.120; -131.050; -801.000; -887.000
406.247;  -71.275; -323.000; -342.000
406.374;  521.250;  540.000;  629.000
406.501;  142.300; -632.000; -702.000
406.628;  -67.250; -621.000; -589.000
406.755; -111.375; -803.000; -620.000
406.882;  -35.175; -228.000; -277.000
407.009; -111.650; -719.000; -628.000
407.136;   72.475; -480.000; -401.000
407.263;  171.350; -939.000; -829.000
407.390;  -69.250; -692.000; -614.000
407.517; -183.650;-1139.000;-1187.000
407.644;  -51.400; -332.000; -256.000
407.771; -150.975; -249.000; -287.000
407.898;   12.700;  168.000;  328.000
408.025;  -70.375; -421.000; -313.000
408.151;  -16.800;   82.000;  153.000
408.278;  -67.350; -267.000; -216.000
408.405;  -97.175; -931.000; -899.000
408.532;  -82.850; -549.000; -542.000
408.659; -116.250; -677.000; -648.000
408.785; -205.200;-1298.000;-1170.000
408.912;  -59.875; -412.000; -296.000
409.039; -122.475; -610.000; -686.000
409.166; -104.775; -591.000; -555.000
409.292; -129.350; -571.000; -534.000
409.419; -115.050; -665.000; -649.000
409.546;  -94.425; -431.000; -192.000
409.672; -116.350; -713.000; -545.000
409.799;  -34.750;  -36.000;   34.000
409.926;  -38.675; -180.000; -179.000
410.052; -183.175;-1127.000;-1091.000
410.179;  -49.975; -368.000; -392.000
410.305; -102.025; -375.000; -493.000
410.432;  -48.875; -220.000; -333.000
410.558; -105.475; -305.000; -380.000
410.685; -102.675; -688.000; -431.000
410.812; -109.325; -409.000; -588.000
410.938; -142.250; -964.000; -808.000
411.065;  -98.450; -671.000; -645.000
411.191;   -1.775; -189.000; -174.000
411.317; -128.750; -823.000; -742.000
411.444;  -69.475; -317.000; -246.000
411.570;  -86.925; -339.000; -294.000
411.697; -124.000; -758.000; -752.000
411.823; -186.625; -989.000; -999.000
411.949;  -18.650;  -56.000;   17.000
412.076; -132.375; -539.000; -519.000
412.202; -118.250; -758.000; -757.000
412.329; -139.800; -798.000; -752.000
412.455; -103.925; -821.000; -657.000
412.581;  -33.600;  -15.000;  172.000
412.707;  -59.175; -540.000; -457.000
412.834;   12.975;  156.000;  219.000
412.960;  -70.950; -785.000; -784.000
413.086; -110.300; -743.000; -701.000
413.212;  176.025;  604.000;  578.000
413.339;  -56.850; -685.000; -701.000
413.465;   22.825; -364.000; -310.000
413.591; -106.650; -757.000; -474.000
413.717;  -49.500; -358.000; -366.000
413.843; -152.425; -839.000; -861.000
413.969;  -52.925;  -47.000; -292.000
414.096; -104.600; -679.000; -679.000
414.222;  -11.350;  -33.000;   85.000
414.348;  -27.700; -652.000; -385.000
414.474;  123.225;   38.000;  -52.000
414.600;  -31.800; -126.000; -144.000
414.726;   -7.000;  -96.000;  -55.000
414.852;  -79.575; -365.000; -342.000
414.978;   29.550;  104.000;  -18.000
415.104;   18.950;   38.000;   80.000
415.230;   21.175; -329.000; -330.000
415.356;   38.850; -409.000; -514.000
415.482;  204.100;   13.000;  -35.000
415.608;  255.100; -247.000; -323.000
415.734;  966.675;   67.000;   38.000
415.860;19871.475; -875.000; -767.000
415.986;13883.825; -685.000; -607.000
416.111; 1164.300; -798.000; -652.000
416.237;  235.750; -424.000; -571.000
416.363; 1097.175; -765.000; -733.000
416.489; 3971.075; -324.000; -251.000
416.615;  400.050; -707.000; -742.000
416.741;  -35.900; -677.000; -784.000
416.866; -106.400; -673.000; -736.000
416.992; -117.150; -801.000; -818.000
417.118;  -32.775;  -41.000;  -80.000
417.244;  -54.950; -798.000; -531.000
417.369; -101.950; -801.000; -612.000
417.495;   -5.375; -325.000; -254.000
417.621;  -91.050;-1015.000; -803.000
417.746;    0.725; -579.000; -572.000
417.872;   48.500; -254.000; -144.000
417.998;   43.475; -515.000; -530.000
418.123; 1048.000;-1073.000; -845.000
418.249; 5217.575; -512.000; -601.000
418.374;  669.175; -916.000; -824.000
418.500;  110.250; -383.000; -482.000
418.626;   99.775;   70.000;  -59.000
418.751;  114.100; -549.000; -448.000
418.877;  171.275; -637.000; -643.000
419.002; 1799.250; -688.000; -560.000
419.128;12139.700; -930.000; -721.000
419.253; 2859.450; -967.000; -837.000
419.379;  360.300; -391.000; -338.000
419.504;  368.400;  325.000;  415.000
419.629;  477.625; -393.000; -212.000
419.755; 3491.825; -317.000; -254.000
419.880;20044.075;  -98.000;   67.000
420.006;11058.625; -280.000; -221.000
420.131;28429.100; -662.000; -775.000
420.256; 3977.625; -315.000; -316.000
420.382;  507.600; -665.000; -687.000
420.507;   58.400; -649.000; -778.000
420.632;  145.575; -337.000; -339.000
420.758;  305.600; -251.000; -425.000
420.883;  -85.825; -876.000; -672.000
421.008;  -93.750; -775.000; -619.000
421.133;  -89.800; -509.000; -467.000
421.259;  -44.725; -325.000; -259.000
421.384; -113.000; -834.000; -693.000
421.509;  -21.400;-1052.000; -862.000
421.634; 1419.475; -936.000; -820.000
421.759;  612.400; -359.000; -327.000
421.885;  -48.500; -717.000; -656.000
422.010;  -66.600; -673.000; -542.000
422.135; -148.950; -695.000; -727.000
422.260;   45.325;  340.000;  280.000
422.385;  -49.875;   12.000;  -98.000
422.510;    5.650;  151.000;  -26.000
422.635;    7.275;  -87.000;  -43.000
422.760;  134.125; -766.000; -791.000
422.885;   50.025;  -57.000;  -80.000
423.010;  -44.675; -112.000; -169.000
423.135;  -97.375; -481.000; -561.000
423.260;   11.025; -150.000; -245.000
423.385;   85.550;  476.000;  222.000
423.510;   37.775;   71.000;  -22.000
423.635;   91.325;  133.000;   45.000
423.760;   63.650;  383.000;  328.000
423.885;   39.050;  336.000;  391.000
424.010;   26.225;  -68.000;  -13.000
424.135;  -24.500;    5.000;  -33.000
424.259;  -85.075; -654.000; -457.000
424.384;  -78.400; -279.000; -272.000
424.509;  -24.475; -260.000; -186.000
424.634; -119.800; -761.000; -623.000
424.759;  -31.950; -688.000; -544.000
424.883;  -34.500; -506.000; -527.000
425.008;  181.900; -502.000; -410.000
425.133; 1938.775; -679.000; -653.000
425.258;  880.675; -517.000; -381.000
425.382; 1173.450; -867.000; -774.000
425.507; 2997.025; -487.000; -543.000
425.632;  449.375; -802.000; -663.000
425.756;  442.575; -256.000; -146.000
425.881; 6309.750; -831.000; -857.000
426.006;16500.525; -604.000; -355.000
426.130; 2525.875; -696.000; -508.000
426.255;  326.125; -611.000; -491.000
426.379;  136.800; -189.000; -577.000
426.504;  376.375;  660.000;  544.000
426.629; 4002.775; -519.000; -466.000
426.753; 2663.225;   64.000;  -46.000
426.878;  274.650; -252.000; -288.000
427.002;  189.800; -651.000; -668.000
427.127; 1604.025;  -35.000; -158.000
427.251;11165.150;  372.000;  401.000
427.375; 3079.275; -191.000; -173.000
427.500; 2627.475; -616.000; -610.000
427.624;  868.775; -234.000; -400.000
427.749;  107.375; -216.000; -225.000
427.873;  -36.025; -499.000; -412.000
427.997;  -38.400; -222.000; -230.000
428.122;   76.100;  795.000;  703.000
428.246;   73.475;  433.000;  434.000
428.371; -127.050; -869.000; -773.000
428.495;  -98.450; -624.000; -646.000
428.619;  -25.625; -186.000; -117.000
428.743;   27.375;   65.000;  132.000
428.868;   23.750; -732.000; -643.000
428.992; 1670.750; -219.000; -326.000
429.116;  660.075; -329.000; -357.000
429.240;  315.975;  419.000;  426.000
429.365;  -16.100; -454.000; -574.000
429.489;  -32.500; -638.000; -647.000
429.613;    4.875; -236.000; -177.000
429.737;   40.550; -563.000; -432.000
429.861;  250.900; -247.000; -133.000
429.985; 5489.925; -425.000; -305.000
430.109; 5848.375; -770.000; -908.000
430.234;  651.775;   76.000;  -50.000
430.358;   41.725; -250.000; -160.000
430.482;  -73.125; -672.000; -564.000
430.606;  -76.850; -655.000; -375.000
430.730;   28.500; -437.000; -388.000
430.854;  153.175; -909.000; -835.000
430.978;  -64.725; -795.000; -764.000
431.102;  -93.950; -499.000; -422.000
431.226; -112.575; -874.000; -815.000
431.350;   12.900;  345.000;  422.000
431.474;  -63.400; -661.000; -373.000
431.597; -164.450;-1060.000; -848.000
431.721;  -78.200; -276.000; -267.000
431.845; -150.950; -704.000; -472.000
431.969;  -76.200; -304.000; -349.000
432.093;  -98.900; -395.000; -317.000
432.217;  -15.550;   32.000;   82.000
432.341; -105.900; -523.000; -518.000
432.464;   11.075;   96.000;   40.000
432.588;  243.800; -401.000; -329.000
432.712;  115.575;  -52.000;  -52.000
432.836;   38.475;  213.000;  263.000
432.959;  -33.800; -372.000; -311.000
433.083;   49.300;   11.000;    2.000
433.207;  373.875;  285.000;  930.000
433.330; 4943.525; -391.000; -200.000
433.454; 5905.850; -654.000; -638.000
433.578; 3414.350;  583.000;  278.000
433.701;  631.700; -623.000; -675.000
433.825;  134.550; -292.000; -299.000
433.949;  223.475;   28.000;  -72.000
434.072;   78.725; -410.000; -323.000
434.196;  -13.975; -309.000; -117.000
434.319; 3837.475;25482.000;25124.000
434.443;  770.025; -656.000; -603.000
434.566; 2567.500;  281.000;   62.000
434.690;  385.575; -637.000; -383.000
434.813;   19.950; -251.000; -173.000
434.937;  -85.675; -569.000; -696.000
435.060;  -47.450; -423.000; -332.000
435.184;  406.900; -492.000; -217.000
435.307;  194.200;  159.000;  102.000
435.431;   -8.150;  -40.000;   24.000
435.554;  -91.950; -399.000; -240.000
435.677;  -83.925; -350.000; -258.000
435.801;  -52.875;  -25.000;   49.000
435.924;   14.825;    1.000;  -67.000
436.048; -114.175;-1019.000; -732.000
436.171;  -79.725; -240.000;  -66.000
436.294;  -35.125; -248.000; -229.000
436.417;   74.100; -963.000; -849.000
436.541; -100.050; -814.000; -840.000
436.664;  -61.250; -242.000; -316.000
436.787;  -38.325;   13.000;  113.000
436.910; -112.100; -792.000; -422.000
437.034;   -0.200;  142.000;  143.000
437.157;   83.325;  -11.000;    0.000
437.280;  -52.475; -392.000; -292.000
437.403;  -74.975; -982.000; -869.000
437.526;  814.325; -903.000; -865.000
437.649; 2790.200; -505.000; -332.000
437.772;  391.625; -692.000; -540.000
437.896;  141.025;  700.000;  544.000
438.019; -108.925; -758.000; -503.000
438.142;  -75.975; -596.000; -506.000
438.265;  -11.000; -639.000; -670.000
438.388;  697.900; -520.000; -410.000
438.511;  118.775; -597.000; -394.000
438.634;  -35.600; -247.000; -125.000
438.757; -140.650; -693.000; -619.000
438.880;  -14.825;  -34.000;  -57.000
439.003;  -92.500; -417.000; -437.000
439.126;  -67.750; -287.000; -167.000
439.248;  -76.575;  -98.000; -139.000
439.371;  -41.300;    9.000;  -53.000
439.494;   11.875;  510.000;  439.000
439.617;  -53.075;   65.000;  -88.000
439.740; -202.300; -968.000; -816.000
439.863; -143.525; -755.000; -595.000
439.986; -133.875; -476.000; -431.000
440.108;  -50.400; -161.000; -112.000
440.231; -179.650; -950.000; -836.000
440.354;  -45.750;  -64.000; -150.000
440.477;   36.150; -566.000; -542.000
440.599;   21.675; -200.000; -225.000
440.722; -137.325; -709.000; -586.000
440.845;   80.925;  751.000;  928.000
440.968; -121.025; -415.000; -311.000
441.090;  -80.450; -199.000;  -33.000
441.213; -176.050;-1021.000; -825.000
441.336;  -43.725; -159.000;   -5.000
441.458;  -96.100; -549.000; -396.000
441.581;  -80.325; -628.000; -629.000
441.703;  -83.700; -152.000;   13.000
441.826; -107.075; -557.000; -400.000
441.948;  -56.800;   56.000;   51.000
442.071;   38.125;  555.000;  424.000
442.193; -134.525; -531.000; -485.000
442.316;   28.825;  152.000;   97.000
442.438;   18.350; -233.000;  -10.000
442.561;   68.975;  272.000;  262.000
442.683;  664.750; -809.000; -522.000
442.806; 1429.625;   -8.000;   74.000
442.928;   53.475; -859.000; -604.000
443.051;  -71.400; -577.000; -373.000
443.173;  -95.500; -341.000; -339.000
443.295;  -76.600; -263.000; -371.000
443.418;  -89.175; -321.000;  -29.000
443.540;   -1.250; -106.000;   -4.000
443.662; -140.200; -563.000; -465.000
443.785;  -13.200;  335.000;  199.000
443.907; -138.475; -362.000; -208.000
444.029; -132.525; -767.000; -494.000
444.152; -160.750; -644.000; -554.000
444.274;  -34.300;  -18.000;  -24.000
444.396; -113.025; -461.000; -221.000
444.518; -132.600; -691.000; -454.000
444.640; -120.075; -268.000; -111.000
444.763;  -18.800;  388.000;  249.000
444.885; -124.100; -432.000; -392.000
445.007;  -42.150;   35.000;   86.000
445.129; -129.925; -610.000; -515.000
445.251; -107.875; -372.000; -439.000
445.373; -152.025; -537.000; -386.000
445.495;   14.300;  242.000;  350.000
445.617;   39.750;  853.000;  753.000
445.739;  -74.325; -215.000;  -97.000
445.861;  -34.075; -245.000; -112.000
445.984;  -16.650; -267.000; -101.000
446.105;  264.025; -418.000; -251.000
446.227;  732.525; -176.000;  -19.000
446.349;   14.900; -358.000; -249.000
446.471;  -95.700; -615.000; -448.000
446.593;  -58.875; -316.000;   19.000
446.715;   10.700;  -67.000;   41.000
446.837;   53.450;  697.000;  832.000
446.959;  -92.100; -457.000; -478.000
447.081; -165.450; -628.000; -518.000
447.203;   50.025;  862.000;  834.000
447.325; -102.425; -270.000;   42.000
447.446;  -25.400;  286.000;  530.000
447.568; -182.200; -921.000; -803.000
447.690;  -81.550; -236.000; -245.000
447.812; -157.875; -798.000; -519.000
447.933;  -35.600;  155.000;  127.000
448.055;  -93.175; -306.000; -261.000
448.177;  164.650;   31.000;   79.000
448.299;  118.775; -935.000; -727.000
448.420;   25.325;  -25.000;  159.000
448.542;  -62.575;   -3.000;   33.000
448.664;  -25.325;  109.000;  322.000
448.785;  -50.600;  265.000;   83.000
448.907;  -70.475; -614.000; -353.000
449.028;  -38.950; -771.000; -471.000
449.150;   75.800;  492.000;  589.000
449.272; -196.700;-1044.000; -913.000
449.393;   24.425;  612.000;  694.000
449.515; -165.200; -634.000; -581.000
449.636;  -51.950; -264.000; -155.000
449.758;   61.550;  763.000;  622.000
449.879;  -98.950; -498.000; -396.000
450.001;  -87.525; -149.000;  -49.000
450.122;  -32.425;  -95.000;  162.000
450.244;  -27.075;   37.000;  364.000
450.365;  -85.800; -495.000; -301.000
450.486;  -40.075;   80.000;  268.000
450.608;   19.075;  393.000;  326.000
450.729;   54.775;  578.000;  645.000
450.850;    4.200; -574.000; -466.000
450.972;  711.925; -552.000; -389.000
451.093; 4701.475;  190.000;  588.000
451.214; 1936.525; -516.000; -337.000
451.336;  358.375;  773.000;  579.000
451.457;   42.525;  264.000;  393.000
451.578;  -44.575; -118.000;  -74.000
451.699; -128.625; -546.000; -540.000
451.821;  -62.825; -284.000;  -50.000
451.942;  -19.475;  278.000;  285.000
452.063;   36.850;  228.000;  419.000
452.184;  507.100;  -54.000;  -49.000
452.305; 1046.575;  103.000;  170.000
452.427;   91.175; -549.000; -301.000
452.548;  -17.825;   23.000;   79.000
452.669;  -62.925; -257.000;  -89.000
452.790;  -46.900;    3.000;  -18.000
452.911;   -6.175;  195.000;  259.000
453.032;  -69.000; -289.000;  -60.000
453.153;  -60.500;  -29.000;   81.000
453.274;   55.525;  737.000;  868.000
453.395;  -61.025;  -51.000;  175.000
453.516;  140.350; 1317.000; 1388.000
453.637;  -73.100; -205.000; -150.000
453.758;  -50.525;   15.000;   69.000
453.879; -133.175; -462.000; -250.000
454.000;   85.275; 1086.000;  948.000
454.121; -122.450; -554.000; -326.000
454.242; -114.625; -599.000; -383.000
454.362;  -79.000;  -99.000;  114.000
454.483;  -45.475; -309.000; -229.000
454.604;   42.750;  512.000;  580.000
454.725; -134.900; -627.000; -555.000
454.846; -131.625; -474.000; -406.000
454.967;  -27.975;  230.000;  539.000
455.087;  -51.325;  179.000;  153.000
455.208;   23.000;  554.000;  856.000
455.329;  -67.250;  -22.000;   82.000
455.450;   27.850;  473.000;  633.000
455.570; -104.450; -234.000; -211.000
455.691;  -35.550;  201.000;  407.000
455.812; -116.650; -270.000;  -92.000
455.932;  -52.675;  107.000;  -97.000
456.053;  -86.875;   36.000;   24.000
456.173; -115.775; -433.000; -355.000
456.294; -154.675; -476.000; -303.000
456.415;  -68.775;  -73.000;   70.000
456.535;  -62.275;  297.000;  273.000
456.656;  -43.400;  132.000;  240.000
456.776;  -84.075;    3.000;  298.000
456.897;  -15.475;  308.000;  513.000
457.017;  -88.175; -153.000;   -3.000
457.138; -115.850; -402.000; -249.000
457.258;  -42.775;  263.000;  224.000
457.379;   -4.125;  509.000;  521.000
457.499;  -42.350;  443.000;  432.000
457.620; -109.100; -407.000; -231.000
457.740; -114.375; -132.000;  -11.000
457.860;  -59.350;   87.000;   44.000
457.981;  -62.775;  132.000;  124.000
458.101;  -81.150;  -89.000;   40.000
458.221;  -22.400;  336.000;  402.000
458.342;  -55.975;   -4.000;  -37.000
458.462;   -0.900;  617.000;  352.000
458.582;  -44.650; -302.000; -294.000
458.703;  -16.575;  303.000;  154.000
458.823;  -27.500;   22.000;  163.000
458.943;    0.900;  341.000;  467.000
459.063;  -11.925; 1124.000;  192.000
459.183;  -49.100;  328.000;  313.000
459.304;   -6.300;  315.000;  517.000
459.424;  -77.200; -246.000;  -89.000
459.544;  321.775;  388.000;  764.000
459.664;  790.125;  499.000;  506.000
459.784;  290.200; 1004.000; 1175.000
459.904;   46.100;  867.000;  744.000
460.024;   67.775;  867.000;  684.000
460.144;   -4.150;  449.000;  554.000
460.264;   -7.400;  515.000;  327.000
460.385; -102.400; -145.000; -119.000
460.505;   45.075;  905.000;  858.000
460.625; -109.975;  -17.000;  -68.000
460.745;  -22.700;  396.000;  541.000
460.864;  -54.950;  153.000;  469.000
460.984;   13.275;  499.000;  573.000
461.104;  120.800; 1656.000; 1775.000
461.224;   28.775;  657.000;  650.000
461.344;  -45.700;  431.000;  360.000
461.464;  -35.325;  258.000;  513.000
461.584;  -20.050;  283.000;  466.000
461.704;  -62.175;   58.000;  108.000
461.824;  -70.300;  238.000;  259.000
461.943;  -37.975;  191.000;  130.000
462.063;  -86.425;    2.000;  324.000
462.183;   40.800;  639.000;  717.000
462.303;  104.575; 1678.000; 1230.000
462.422;   36.975;  781.000;  840.000
462.542;  -60.625;  271.000;  391.000
462.662;   29.725;  353.000;  380.000
462.782;  235.000;  833.000;  572.000
462.901;  457.725;  545.000;  717.000
463.021;  258.925; 1702.000; 1638.000
463.141;  -13.950;  337.000;  770.000
463.260;  -38.375;  614.000;  474.000
463.380;   14.775;  902.000;  884.000
463.499;  -59.875;  342.000;  332.000
463.619;  -33.875;  581.000;  559.000
463.738;  111.400; 1644.000;  903.000
463.858;   17.700;  657.000;  811.000
463.978;  -46.475;  542.000;  396.000
464.097;   55.000;  921.000; 1114.000
464.217;   98.575; 1196.000; 1143.000
464.336;  102.650; 1068.000; 1130.000
464.455;  -45.425;  328.000;  659.000
464.575;   57.150;  597.000;  602.000
464.694;  178.500; 1204.000; 1179.000
464.814;  108.175; 1190.000; 1138.000
464.933;   54.950; 1095.000; 1027.000
465.052;  101.875; 1412.000; 1054.000
465.172;   90.175;  922.000;  799.000
465.291;  148.825; 1376.000; 1320.000
465.410;    1.425;  462.000;  735.000
465.530;   93.025; 1355.000; 1310.000
465.649;   50.300; 1209.000; 1273.000
465.768;  149.125; 1673.000; 1508.000
465.888;   41.750;  941.000; 1174.000
466.007;   97.125; 1335.000; 1440.000
466.126;  -24.475;  721.000;  641.000
466.245;   39.275; 1176.000; 1187.000
466.364;   15.625;  950.000; 1060.000
466.484;   58.250; 1024.000; 1213.000
466.603;   37.050; 1101.000; 1222.000
466.722;  128.175; 1490.000; 1769.000
466.841;   67.125; 1151.000; 1401.000
466.960;   34.450; 1069.000;  972.000
467.079;  124.975; 1971.000; 1786.000
467.198;   51.150; 1238.000; 1181.000
467.317;   71.650; 1768.000; 1162.000
467.436;   68.275; 1709.000; 1261.000
467.555;  121.800; 1796.000; 1746.000
467.674;   67.600; 1227.000; 1329.000
467.793;   41.700; 1376.000; 1374.000
467.912;   78.500; 1658.000; 1539.000
468.031;  117.450; 2038.000; 1930.000
468.150;  135.375; 1842.000; 1837.000
468.269;  194.175; 2313.000; 2090.000
468.388;  187.925; 2168.000; 2339.000
468.507;  235.425; 2884.000; 2903.000
468.626;  234.350; 2555.000; 2541.000
468.744;  125.050; 2018.000; 2174.000
468.863;  207.550; 2312.000; 2523.000
468.982;   77.350; 1503.000; 1555.000
469.101;  220.600; 2788.000; 2692.000
469.220;  138.225; 2333.000; 2176.000
469.338;  233.575; 2935.000; 3051.000
469.457;  172.275; 2719.000; 2545.000
469.576;  354.125; 3953.000; 3784.000
469.695;  229.900; 2877.000; 3066.000
469.813;  433.700; 4148.000; 4192.000
469.932;  416.400; 4255.000; 4485.000
470.051;  429.025; 4075.000; 4161.000
470.169;  843.700; 4470.000; 4338.000
470.288; 1434.125; 4700.000; 4809.000
470.406;  859.525; 5059.000; 5194.000
470.525;  623.075; 6101.000; 5787.000
470.644;  657.850; 6847.000; 6794.000
470.762;  805.250; 8397.000; 7873.000
470.881;  889.025; 8651.000; 8464.000
470.999; 1049.550; 9685.000; 9151.000
471.118; 1120.850;11174.000;10711.000

