
Integration time [ms]: 100.000
Averaging Nr. [scans]: 40
Smoothing Nr. [pixels]: 0
Data measured with spectrometer [name]: 2101012U2
Wave   ;Sample   ;Dark     ;Reference
[nm]   ;[counts] ;[counts] ;[counts] 

197.733;   47.325;  516.000;  404.000
197.879;  -85.575; -610.000; -634.000
198.025;  -45.250; -475.000; -420.000
198.171;  -63.200; -602.000; -612.000
198.317;  -32.950; -401.000; -316.000
198.463;  -62.275; -655.000; -404.000
198.609;   26.075;  181.000; -137.000
198.755;  -78.800; -644.000; -410.000
198.901;  -65.275; -505.000; -424.000
199.047;  -61.350; -615.000; -488.000
199.193;  -39.950; -230.000; -468.000
199.339;  -48.150; -222.000; -369.000
199.485;   34.400;  330.000;  271.000
199.631;    8.750;  227.000;  310.000
199.777;  -57.500; -466.000; -398.000
199.923;  -60.775; -610.000; -424.000
200.069;  -16.475; -141.000;  -58.000
200.215;   61.925;  128.000;  453.000
200.361;   39.550;  243.000;  477.000
200.507;  -79.200; -600.000; -373.000
200.653;  -12.100; -371.000; -194.000
200.798;  -31.950; -215.000; -125.000
200.944;   10.025; -146.000;  -41.000
201.090;   25.000;   61.000;  222.000
201.236;   -1.475; -116.000; -158.000
201.382;  116.900;  874.000;  903.000
201.528;    7.950;  -58.000;  -48.000
201.674;  -27.650; -386.000; -293.000
201.819;  -64.250; -540.000; -439.000
201.965;  -88.175; -699.000; -447.000
202.111;  -31.475; -273.000; -226.000
202.257;  -43.700; -250.000; -238.000
202.402;   14.175;   13.000;  -36.000
202.548;  -33.650; -169.000; -116.000
202.694;   76.925;  410.000; -183.000
202.840;  -78.925; -603.000; -531.000
202.985;  -77.625; -681.000; -639.000
203.131; -106.850; -832.000; -666.000
203.277;  -22.050; -199.000; -262.000
203.423;  -58.100; -434.000; -520.000
203.568;  -31.500; -462.000; -237.000
203.714;  -68.900; -535.000; -542.000
203.860;  -74.700; -682.000; -641.000
204.005;    5.675;  112.000;  167.000
204.151;   78.300;  561.000;  556.000
204.296;  -44.225; -354.000; -221.000
204.442;  -64.200; -600.000; -547.000
204.588;  -75.750; -592.000; -579.000
204.733;   18.975;  178.000;  168.000
204.879; -130.800;-1018.000; -822.000
205.025;    4.275;  -99.000;  126.000
205.170;    5.900;  -17.000;   94.000
205.316;   76.650;  438.000;  661.000
205.461;  -66.775; -698.000; -554.000
205.607;   69.875;  609.000;  665.000
205.752;  -66.550; -626.000; -551.000
205.898;  -56.950; -501.000; -391.000
206.043;  -58.775; -578.000; -506.000
206.189;  -45.850; -243.000; -285.000
206.334;   64.550;  554.000;  606.000
206.480;   72.650;  409.000;  239.000
206.625; -102.200; -529.000; -552.000
206.771;  -39.575; -451.000; -373.000
206.916;  -32.425; -210.000; -537.000
207.062;  -63.125; -545.000; -591.000
207.207;  -66.300; -546.000; -443.000
207.353;   45.625;  185.000;  460.000
207.498;    2.450;  196.000;   85.000
207.643;  -48.100; -501.000; -370.000
207.789; -136.925;-1069.000; -910.000
207.934;  -94.725; -665.000; -713.000
208.080;  -34.575; -154.000;   66.000
208.225;   -6.400;  -22.000;  -57.000
208.370;  -89.500; -727.000; -619.000
208.516;  -79.975; -741.000; -487.000
208.661;  -32.175; -127.000;  -69.000
208.806;  -16.850; -165.000; -171.000
208.952; -134.975;-1044.000; -731.000
209.097;   72.200;  378.000;  349.000
209.242;  -41.425; -307.000; -382.000
209.387;   65.675;  392.000;  350.000
209.533;  -52.375; -321.000; -350.000
209.678;   67.400;  472.000;  543.000
209.823;  -59.425; -408.000; -310.000
209.969; -103.100; -860.000; -757.000
210.114; -113.200; -907.000; -719.000
210.259; -106.850; -939.000; -889.000
210.404;  -22.200; -171.000;  103.000
210.549;   15.925;  108.000;    3.000
210.695;  -23.050;   -3.000;  -95.000
210.840;   25.225;   94.000;   67.000
210.985;  -68.875; -484.000; -303.000
211.130;   48.600;  268.000;  406.000
211.275;    6.000;  207.000;  199.000
211.420;  -62.550; -300.000; -289.000
211.566;  -63.850; -536.000; -489.000
211.711;   14.125;  218.000;  157.000
211.856;  -65.250; -545.000; -519.000
212.001;    7.925;  151.000;   44.000
212.146;   13.525;  153.000;   49.000
212.291;  -28.650; -210.000; -186.000
212.436;  -26.800; -280.000;   -6.000
212.581;  -82.475; -685.000; -653.000
212.726;  -77.100; -487.000; -538.000
212.871;  -41.600; -552.000; -217.000
213.016; -138.875;-1172.000;-1029.000
213.161;   61.300;  406.000;  291.000
213.306;  -77.575; -435.000; -577.000
213.451;  -90.900; -778.000; -689.000
213.596;  -49.325; -455.000; -347.000
213.741;  -57.500; -448.000; -538.000
213.886;  -82.275; -498.000; -517.000
214.031;  -21.400; -294.000; -124.000
214.176;  -52.775; -408.000; -341.000
214.321;  -24.225; -296.000; -157.000
214.466;  -38.400; -163.000;  -43.000
214.611;    5.550;  -61.000;  -10.000
214.756; -131.175; -948.000; -858.000
214.901;  -20.900; -388.000; -226.000
215.046; -123.325; -797.000; -825.000
215.191;   16.550;  128.000;   35.000
215.336;  -30.375; -157.000;  -19.000
215.480;  -74.775; -684.000; -505.000
215.625;  -10.450; -175.000;  -19.000
215.770;  -81.475; -757.000; -662.000
215.915;  -13.975;   -5.000;  -97.000
216.060;    0.375; -113.000;  -21.000
216.205; -124.525; -731.000; -779.000
216.349;  -72.075; -470.000; -533.000
216.494; -152.350; -939.000; -867.000
216.639; -116.750; -823.000; -888.000
216.784;  -84.400; -577.000; -525.000
216.929;   41.400;  392.000;  281.000
217.073;  -19.400; -244.000;  -31.000
217.218;    3.950;   78.000;  -47.000
217.363;  -93.450; -656.000; -618.000
217.507;  -78.075; -623.000; -588.000
217.652; -117.825; -845.000; -874.000
217.797;  -94.200; -708.000; -659.000
217.942; -116.875; -856.000; -720.000
218.086;   74.375;  608.000;  539.000
218.231;  -22.200; -174.000;  -26.000
218.376;  -29.350; -337.000; -229.000
218.520;  -20.500;  -41.000;   96.000
218.665;  -34.775; -338.000; -204.000
218.810;  -60.625; -275.000; -233.000
218.954;   24.925;  201.000;   35.000
219.099; -107.325; -713.000; -963.000
219.243;  -68.350; -589.000; -554.000
219.388;  -33.775; -264.000; -136.000
219.532;  -10.925; -116.000; -116.000
219.677;  -69.700; -564.000; -521.000
219.822;   -4.850;   33.000;   89.000
219.966;   14.850;   17.000;  -99.000
220.111;  -26.175; -328.000;  -40.000
220.255; -103.625; -797.000; -750.000
220.400;  -34.775; -180.000; -146.000
220.544;  -78.825; -516.000; -450.000
220.689;  -52.000; -422.000; -451.000
220.833;  -16.150; -123.000;  -58.000
220.978;  -37.725; -393.000; -563.000
221.122;    8.225;  319.000;  307.000
221.267; -105.325; -906.000; -837.000
221.411;  -64.875; -478.000; -394.000
221.555;  -14.300; -104.000;  -23.000
221.700;  -55.750; -329.000; -222.000
221.844;   22.500;  255.000;  272.000
221.989;  -46.000; -328.000; -311.000
222.133;  -36.650; -289.000; -307.000
222.277;  -13.375;    5.000;   78.000
222.422;   13.150;  227.000;  113.000
222.566;  -39.725; -381.000; -214.000
222.711;  -51.125; -414.000; -479.000
222.855;  -82.575; -643.000; -586.000
222.999;  -72.900; -642.000; -717.000
223.144;  -35.700; -195.000; -194.000
223.288;   54.200;  423.000;  251.000
223.432;    1.400;  184.000;  230.000
223.576;    1.900;  152.000;  -21.000
223.721;   19.575;  364.000;  273.000
223.865;  -44.550; -472.000; -475.000
224.009;  232.350; 1673.000; 1631.000
224.153;  -82.325; -660.000; -671.000
224.298;  -67.650; -531.000; -489.000
224.442;  -16.400;  -74.000;  -33.000
224.586;  -13.875; -169.000; -106.000
224.730;  -91.100; -858.000; -670.000
224.875; -119.950; -739.000; -688.000
225.019;   13.350;  102.000;  188.000
225.163;   48.075;  208.000;  341.000
225.307;   13.175;   97.000;  -91.000
225.451;   36.600;  360.000;  481.000
225.595;   25.625;  264.000;  176.000
225.739;  -17.850; -170.000;  -94.000
225.884;   12.625;   86.000;    5.000
226.028; -104.100; -760.000; -626.000
226.172;  -34.500; -260.000; -273.000
226.316; -120.650; -941.000; -902.000
226.460;  -76.000; -645.000; -493.000
226.604;  -44.125; -406.000; -400.000
226.748;  -96.275; -836.000; -733.000
226.892;  -37.400; -227.000; -181.000
227.036;  -53.125; -537.000; -447.000
227.180;  -57.425; -551.000; -375.000
227.324;  -73.475; -561.000; -580.000
227.468; -115.125; -819.000; -717.000
227.612;    0.075;  242.000;  -28.000
227.756; -101.325; -845.000; -698.000
227.900;   40.175;  342.000;  441.000
228.044;  -64.975; -509.000; -290.000
228.188;   53.300;  448.000;  568.000
228.332;  -86.750; -546.000; -472.000
228.476;  -30.400; -223.000; -149.000
228.620;  -30.225; -210.000; -150.000
228.764;   54.925;  431.000;  349.000
228.908;  -27.450; -155.000;   30.000
229.052;  -80.150; -615.000; -528.000
229.195;  -18.800; -172.000;   13.000
229.339;  -20.875; -235.000; -305.000
229.483;  -25.250;    5.000; -162.000
229.627;  -10.975; -156.000;  139.000
229.771;  -45.750; -218.000; -294.000
229.915;    4.400;  230.000;   79.000
230.059;  -93.575; -648.000; -663.000
230.202;  -51.075; -370.000; -317.000
230.346;  -21.575; -107.000;  107.000
230.490;  -62.100; -489.000; -521.000
230.634; -112.075; -736.000; -553.000
230.777;   68.125;  478.000;  509.000
230.921;  -49.775; -450.000; -359.000
231.065;  -42.175; -246.000; -286.000
231.209;   26.325;  261.000;  265.000
231.352;   18.300;   54.000;   40.000
231.496;    6.750;  568.000;  188.000
231.640;  -81.400; -693.000; -621.000
231.783;   50.100;  546.000;  525.000
231.927;  -45.050; -294.000; -365.000
232.071; -129.625; -962.000; -736.000
232.214; -110.050; -980.000; -764.000
232.358; -109.400; -683.000; -599.000
232.502;   -2.700;  -19.000;    7.000
232.645; -135.025;-1090.000; -927.000
232.789;  -26.300; -257.000; -218.000
232.933;  -37.200; -407.000; -224.000
233.076; -131.025;-1038.000; -897.000
233.220; -118.425; -752.000; -777.000
233.363;  -78.250; -669.000; -477.000
233.507;   50.050;  371.000;  129.000
233.650;  -98.800; -764.000; -834.000
233.794;   40.875;  438.000;  461.000
233.938;  -51.675; -530.000; -362.000
234.081;  -15.400;  -93.000;   31.000
234.225;  -69.575; -631.000; -539.000
234.368;  -98.775; -773.000; -723.000
234.512;  -47.700; -385.000; -299.000
234.655; -100.400; -582.000; -555.000
234.798;  -73.050; -493.000; -466.000
234.942; -136.225; -884.000;-1002.000
235.085;  -80.025; -651.000; -443.000
235.229;  -88.200; -405.000; -410.000
235.372;  -38.725; -247.000; -191.000
235.516;  -68.575; -397.000; -321.000
235.659;   22.750;   92.000;  121.000
235.802;  -23.350;  -38.000;  -22.000
235.946;   17.325;  335.000;  215.000
236.089;   20.275;  126.000;  250.000
236.233;   45.325;  275.000;  298.000
236.376;  -55.500; -235.000; -378.000
236.519;  -54.575; -297.000; -319.000
236.663;  -22.400; -215.000; -117.000
236.806; -138.050;-1029.000; -999.000
236.949;   41.750;  543.000;  431.000
237.092;   34.100;  412.000;  391.000
237.236;  -94.925; -589.000; -502.000
237.379;   68.025;  352.000;  428.000
237.522; -113.825; -879.000; -768.000
237.666;   -5.525; -271.000;   18.000
237.809; -141.050; -851.000; -823.000
237.952;   29.300;  469.000;  271.000
238.095;  -75.650; -447.000; -442.000
238.238;   73.650;  688.000;  700.000
238.382;  -11.875;  166.000;  103.000
238.525;  -68.975; -598.000; -511.000
238.668; -143.375;-1060.000; -985.000
238.811;  -78.375; -638.000; -643.000
238.954;  -66.800; -483.000; -334.000
239.097;   88.275;  617.000;  664.000
239.241;   15.300;  394.000;  326.000
239.384;  -32.350; -254.000; -214.000
239.527;  -62.250; -424.000; -224.000
239.670; -148.425; -994.000;-1091.000
239.813; -108.800; -696.000; -658.000
239.956;   67.625;  579.000;  473.000
240.099; -119.700; -778.000; -725.000
240.242;   52.475;  428.000;  432.000
240.385;   26.950;  466.000;  450.000
240.528;  -69.500; -706.000; -473.000
240.671;   -1.350;  189.000;  134.000
240.814;  -41.525; -441.000; -158.000
240.957; -104.100; -767.000; -578.000
241.100;  -84.250; -779.000; -755.000
241.243; -136.200;-1234.000; -893.000
241.386;  -60.825; -508.000; -379.000
241.529; -113.100; -735.000; -547.000
241.672;  -62.550; -566.000; -495.000
241.815; -126.250; -832.000; -808.000
241.958;  -15.725; -125.000; -182.000
242.101;  -85.050; -545.000; -390.000
242.244;  -26.425; -270.000; -325.000
242.387;  -41.550; -304.000; -246.000
242.530;   57.475;  470.000;  134.000
242.673;  -50.050; -381.000; -309.000
242.815; -118.750; -925.000; -899.000
242.958;  -68.875; -482.000; -381.000
243.101;    2.800;  132.000;  187.000
243.244;  -86.150; -564.000; -521.000
243.387;  -40.400; -313.000; -316.000
243.530; -105.250; -657.000; -674.000
243.672;   10.725;   43.000;  -92.000
243.815;  -63.350; -355.000; -283.000
243.958;   -3.150;   98.000;  -26.000
244.101;   -9.075;   59.000;  -16.000
244.243;  -11.925;  -47.000;  101.000
244.386; -113.750; -761.000; -630.000
244.529;  -18.850; -132.000; -139.000
244.672; -153.875;-1154.000; -951.000
244.814;  -98.975; -621.000; -794.000
244.957;  -49.800; -380.000; -304.000
245.100;  -71.750; -489.000; -489.000
245.242;  -54.575; -387.000; -374.000
245.385;   -9.750;  -59.000;  -39.000
245.528; -116.000; -871.000; -705.000
245.670;   84.500;  612.000;  634.000
245.813;  -94.250; -599.000; -547.000
245.956;  -35.075; -324.000; -275.000
246.098;  -90.025; -508.000; -650.000
246.241;    9.625;  194.000;   48.000
246.383;  -12.375; -119.000;  -73.000
246.526;  -81.750; -454.000; -525.000
246.669; -118.775; -889.000; -780.000
246.811;   15.250;  172.000;   -1.000
246.954;  -79.475; -512.000; -426.000
247.096;  -27.275;  -84.000;   -6.000
247.239;  -60.675; -482.000; -445.000
247.381;  -59.250; -647.000; -488.000
247.524;   72.625;  645.000;  679.000
247.666;  -11.050;   58.000;   11.000
247.809; -113.225; -887.000; -691.000
247.951;  -16.200;  -75.000;  138.000
248.094;   16.925;  432.000;  308.000
248.236; -154.100;-1262.000;-1238.000
248.378;    9.725; -356.000;  -81.000
248.521;  -12.675; -334.000; -337.000
248.663;  -39.075; -236.000; -267.000
248.806;  -28.550; -300.000; -266.000
248.948;  -95.875; -886.000; -763.000
249.090;  -40.800; -428.000; -398.000
249.233;  -44.650; -344.000; -381.000
249.375;  -71.500; -474.000; -451.000
249.518;  -24.375;  -83.000; -133.000
249.660;  -14.050; -103.000;    3.000
249.802; -168.125;-1303.000;-1189.000
249.945;  -77.450; -612.000; -540.000
250.087; -107.150; -834.000; -768.000
250.229;  -47.325; -362.000; -480.000
250.371;  -72.400; -494.000; -439.000
250.514;  -43.250; -310.000; -244.000
250.656;  -71.975;   69.000;  102.000
250.798; -120.800; -849.000; -800.000
250.940;  -75.200; -322.000; -322.000
251.083;  -24.300; -335.000; -111.000
251.225;   55.950;  338.000;  310.000
251.367;  -35.300; -274.000; -373.000
251.509;  -37.500; -265.000; -210.000
251.651;  -93.325; -731.000; -671.000
251.794;   42.900;  538.000;  632.000
251.936; -103.350; -821.000; -747.000
252.078;  -79.425; -540.000; -461.000
252.220;  -54.300; -645.000; -477.000
252.362;   84.975;  344.000;  462.000
252.504;  -73.050; -677.000; -584.000
252.646; -120.850; -875.000; -722.000
252.788;    4.725;   14.000; -128.000
252.931;  -58.700; -257.000; -253.000
253.073;  -51.050; -376.000; -317.000
253.215;  -14.475;  141.000;  122.000
253.357;  -19.025;   82.000; -153.000
253.499;  -67.875; -374.000; -234.000
253.641;  -78.225; -749.000; -594.000
253.783;  -87.625; -609.000; -527.000
253.925;  -94.725; -586.000; -591.000
254.067; -114.025; -744.000; -667.000
254.209;  -17.500; -391.000; -259.000
254.351; -137.675; -865.000; -883.000
254.493;  -62.925; -441.000; -417.000
254.635; -132.225; -936.000; -818.000
254.777;  -81.500; -752.000; -687.000
254.918;  -72.475; -512.000; -430.000
255.060;  -64.625; -551.000; -395.000
255.202;  -69.225; -473.000; -261.000
255.344;  -67.525; -658.000; -455.000
255.486;  -79.450; -471.000; -406.000
255.628; -110.850; -780.000; -781.000
255.770;  -89.975; -676.000; -536.000
255.912;  -63.475; -559.000; -468.000
256.053;  -95.625; -730.000; -508.000
256.195;  144.825; 1008.000;  903.000
256.337;  -97.825; -861.000; -595.000
256.479;   56.500;  532.000;  416.000
256.621;  -50.350; -394.000; -212.000
256.762; -100.425; -789.000; -742.000
256.904;   45.175;  485.000;  487.000
257.046;  -47.225; -381.000; -271.000
257.188;  -54.875; -351.000; -264.000
257.329;  -75.300; -525.000; -464.000
257.471; -122.375; -939.000; -807.000
257.613;  -64.425; -584.000; -498.000
257.755; -142.600;-1073.000; -982.000
257.896;   36.200;  286.000;  392.000
258.038;  -74.525; -403.000; -352.000
258.180;  -49.625; -354.000; -279.000
258.321;  -80.850; -581.000; -457.000
258.463;  -10.625;  -71.000;  133.000
258.605;  -83.350; -562.000; -570.000
258.746;  -99.650; -886.000; -772.000
258.888; -147.475;-1026.000;-1020.000
259.029;    8.700;  121.000;   -8.000
259.171;  -85.900; -614.000; -550.000
259.313;   -5.075;  -49.000;  -47.000
259.454;  -87.825; -536.000; -414.000
259.596;  -67.650; -483.000; -390.000
259.737;  -76.400; -590.000; -474.000
259.879;   28.675;  217.000;  311.000
260.020;   79.850;  901.000;  636.000
260.162;  -26.300; -146.000; -253.000
260.303; -134.125; -768.000; -687.000
260.445;  -90.950; -609.000; -613.000
260.586;   28.075;  392.000;  157.000
260.728;  -42.075; -360.000; -248.000
260.869; -123.475; -350.000; -343.000
261.011;   76.750;  706.000;  537.000
261.152;  -62.425; -479.000; -319.000
261.293;  -80.850; -576.000; -595.000
261.435;  -44.075; -219.000; -184.000
261.576;  -53.525; -455.000; -325.000
261.718;   33.400;  420.000;  470.000
261.859; -122.875; -940.000; -949.000
262.000; -136.825; -951.000;-1016.000
262.142;  -15.125;  -52.000;  -60.000
262.283; -109.075; -808.000; -691.000
262.424;  -83.025; -666.000; -625.000
262.566; -145.700;-1161.000; -983.000
262.707; -117.525; -840.000; -830.000
262.848; -111.950; -769.000; -726.000
262.990;  -52.375; -362.000; -345.000
263.131;   64.475;  650.000;  681.000
263.272;   -8.325;  -61.000;  -41.000
263.413;  -81.425; -589.000; -561.000
263.555;  -62.075; -669.000; -143.000
263.696; -100.650; -550.000; -641.000
263.837;  -53.325; -449.000; -551.000
263.978;   -2.950;   -5.000;  -77.000
264.119;  -50.800; -283.000; -264.000
264.261; -118.825; -847.000; -630.000
264.402;   -2.600;   33.000;   40.000
264.543;  -75.650; -509.000; -524.000
264.684;  -20.225;   61.000;  -50.000
264.825;  -74.975; -816.000; -538.000
264.966;   -8.625;  -84.000;  -67.000
265.107; -115.525; -646.000; -670.000
265.248; -125.650; -825.000; -812.000
265.390;  -13.675;  152.000;   -9.000
265.531;  -29.175; -238.000; -107.000
265.672;  -87.250; -557.000; -630.000
265.813;   49.975;  563.000;  439.000
265.954; -146.850; -959.000; -940.000
266.095;   -9.900; -372.000; -322.000
266.236; -109.375; -686.000; -548.000
266.377;  -42.300; -243.000; -297.000
266.518;  -88.525; -619.000; -547.000
266.659;   12.075;  170.000;  268.000
266.800;   -2.100;   83.000;   85.000
266.941;  -72.675; -487.000; -478.000
267.082;   -4.850;  354.000;   99.000
267.223;  -46.325; -344.000; -273.000
267.364; -119.975; -892.000; -686.000
267.504;  -12.625;    3.000;  135.000
267.645;  -15.725;  160.000;   67.000
267.786;  -31.525; -147.000;  -86.000
267.927;  -74.500; -473.000; -379.000
268.068;  -14.450; -186.000;  -61.000
268.209;  -45.575; -175.000; -413.000
268.350;  -60.700; -388.000; -532.000
268.490;  -82.775; -648.000; -521.000
268.631;   35.075;  127.000;  225.000
268.772; -107.925; -874.000; -647.000
268.913;  -56.075; -328.000; -476.000
269.054;  -20.700; -117.000;   12.000
269.194;  -39.725; -418.000; -402.000
269.335; -161.725;-1137.000;-1074.000
269.476;  -13.675;   33.000;  -35.000
269.617;  -48.850; -347.000; -392.000
269.757;  -94.575; -713.000; -646.000
269.898; -108.475; -856.000; -613.000
270.039;  -60.925; -415.000; -405.000
270.180; -141.300; -952.000; -816.000
270.320;  -16.850; -190.000; -250.000
270.461;  -36.625; -277.000; -249.000
270.602;  -18.050; -186.000; -156.000
270.742; -123.375; -868.000; -943.000
270.883;  -64.575; -442.000; -390.000
271.023;  -59.350; -358.000; -357.000
271.164;  -68.550; -607.000; -528.000
271.305; -103.875; -666.000; -654.000
271.445;  -85.725; -722.000; -683.000
271.586;  -67.500; -462.000; -283.000
271.726;  -32.125; -397.000; -322.000
271.867;  -49.950; -594.000; -534.000
272.008;  204.925; -473.000; -285.000
272.148;  129.800;  462.000;  468.000
272.289;    4.975; -113.000; -181.000
272.429;   19.725;   19.000;  185.000
272.570;  -81.600; -633.000; -737.000
272.710; -103.600; -825.000; -775.000
272.851;  -30.875;  113.000; -130.000
272.991; -164.525;-1173.000;-1077.000
273.131;  -59.800; -419.000; -459.000
273.272;  -99.350; -683.000; -723.000
273.412;   17.250; -143.000;  -31.000
273.553;  -47.125; -488.000; -507.000
273.693;  134.075;  913.000;  858.000
273.834;  -74.450; -894.000; -692.000
273.974;  -77.475; -664.000; -615.000
274.114; -101.875; -772.000; -560.000
274.255;   77.550;  414.000;  373.000
274.395;    7.675; -180.000; -125.000
274.535;   37.900;  199.000;  350.000
274.676;   10.775;  225.000;   94.000
274.816;   -1.575;  110.000;   34.000
274.956;  -85.000; -624.000; -690.000
275.097;  -50.100;-1014.000; -922.000
275.237; -116.850; -913.000; -803.000
275.377;  -95.750; -778.000; -689.000
275.517; -148.075; -878.000; -937.000
275.658;  -45.325; -590.000; -555.000
275.798;  -56.400; -606.000; -413.000
275.938;   27.575;  215.000;  323.000
276.078;  -81.700; -626.000; -395.000
276.218;    9.025;   99.000;  104.000
276.359; -121.750;-1026.000;-1024.000
276.499;  -76.600; -605.000; -446.000
276.639;  -35.100; -305.000; -151.000
276.779;  -52.050; -475.000; -357.000
276.919;  -96.125; -783.000; -624.000
277.059;  -13.375; -261.000; -212.000
277.199;  -38.875; -357.000; -259.000
277.340;   44.875;  287.000;  175.000
277.480; -104.325; -840.000; -693.000
277.620;   23.900;  192.000;   16.000
277.760; -205.400;-1533.000;-1294.000
277.900;   24.175;  113.000;   33.000
278.040;   30.775;  137.000;  159.000
278.180;   32.350;  270.000;  170.000
278.320;    2.850;   21.000;   56.000
278.460;  -58.125; -443.000; -469.000
278.600;  -87.700; -708.000; -598.000
278.740;   41.550;  448.000;  224.000
278.880;  -45.325; -768.000; -791.000
279.020;    2.025; -194.000; -144.000
279.160;  -90.900; -672.000; -595.000
279.300; -117.450; -926.000; -873.000
279.440;  -94.350; -709.000; -622.000
279.579;    0.425;-1014.000; -929.000
279.719;  -67.050; -410.000; -394.000
279.859;   75.475;   -4.000;   41.000
279.999;   34.450; -208.000;  101.000
280.139;  -29.300; -435.000; -387.000
280.279;  -74.450; -708.000; -745.000
280.419;   -9.625; -229.000; -147.000
280.559;  -23.575; -259.000; -180.000
280.698;  -74.150; -790.000; -639.000
280.838;  -83.850; -778.000; -800.000
280.978;  -96.525; -846.000; -790.000
281.118; -103.900; -811.000; -704.000
281.257;   17.375;   24.000;    6.000
281.397; -106.900;-1094.000; -960.000
281.537;  -73.675; -599.000; -712.000
281.677;  -16.925; -150.000; -101.000
281.816;  -91.425; -700.000; -630.000
281.956;  -33.125; -193.000; -257.000
282.096;  -61.500; -539.000; -396.000
282.235; -114.975; -672.000; -638.000
282.375;  -18.450; -243.000;  -98.000
282.515;  -95.600; -715.000; -707.000
282.654;   27.100;   29.000;  106.000
282.794;   20.925;  388.000;  244.000
282.934;  -57.400; -530.000; -491.000
283.073; -144.550;-1030.000; -857.000
283.213;  -61.325; -460.000; -467.000
283.353;  -25.200; -408.000; -349.000
283.492;  -39.450; -264.000; -296.000
283.632;  -48.000; -254.000; -168.000
283.771;  -95.225; -859.000; -730.000
283.911;  -67.550; -369.000; -260.000
284.050; -116.875; -794.000; -748.000
284.190; -152.375;-1229.000;-1096.000
284.329; -133.550;-1055.000; -964.000
284.469;  -64.500; -516.000; -591.000
284.608;  -50.550; -559.000; -598.000
284.748;  -86.825; -614.000; -570.000
284.887;   -6.400;  -87.000;  -20.000
285.027; -128.825; -844.000; -892.000
285.166;  -38.550; -192.000; -249.000
285.306;   11.125; -116.000;  -33.000
285.445;  -33.600; -229.000; -343.000
285.584;  -92.275; -630.000; -494.000
285.724;  -32.350; -282.000; -322.000
285.863; -111.400; -857.000; -507.000
286.002;  -50.725; -366.000; -276.000
286.142; -113.975; -715.000; -622.000
286.281;  -73.575; -525.000; -493.000
286.420;  -78.025; -554.000; -417.000
286.560;   99.225;  653.000;  623.000
286.699; -133.550; -958.000; -912.000
286.838;  -67.700; -590.000; -591.000
286.978;  -82.125; -533.000; -537.000
287.117; -130.700;-1085.000; -950.000
287.256;  -24.475; -228.000; -211.000
287.395;  -36.275; -197.000; -378.000
287.535;  -54.950; -370.000; -298.000
287.674;  -69.650; -509.000; -484.000
287.813;   48.700;  661.000;  533.000
287.952; -121.825;-1010.000; -871.000
288.091; -149.450;-1049.000; -915.000
288.231;   28.100;   13.000;   15.000
288.370; -162.900;-1217.000;-1200.000
288.509;  -93.850; -728.000; -645.000
288.648;  -97.650; -770.000; -548.000
288.787;  -31.500; -243.000;  -87.000
288.926;  -64.525; -454.000; -475.000
289.065;  121.525;  859.000;  672.000
289.204;  -56.550; -377.000; -217.000
289.344;  -92.800; -791.000; -690.000
289.483;   27.375;  416.000;  304.000
289.622;  -30.475; -291.000; -149.000
289.761;  -25.750; -309.000; -166.000
289.900; -119.100; -785.000; -626.000
290.039;  -31.225;  -12.000;  -95.000
290.178;  -34.525; -274.000; -180.000
290.317;  -80.650; -618.000; -479.000
290.456;  -63.975; -463.000; -451.000
290.595; -134.425; -961.000; -833.000
290.734; -128.750; -904.000; -891.000
290.873;  -70.500; -456.000; -420.000
291.011; -103.550; -833.000; -843.000
291.150; -108.475; -770.000; -682.000
291.289;  -23.075; -343.000; -110.000
291.428;  -90.550; -599.000; -480.000
291.567;  -59.825; -370.000; -442.000
291.706;  -23.875;  109.000;  154.000
291.845;  -85.325; -597.000; -505.000
291.984; -160.000;-1234.000;-1061.000
292.122;   54.800;  602.000;  582.000
292.261;   33.525;  620.000;  463.000
292.400;    6.500; -144.000;  211.000
292.539; -118.925; -959.000; -813.000
292.678;  -28.800; -325.000; -300.000
292.816; -155.025;-1136.000; -965.000
292.955;  -78.800; -844.000; -684.000
293.094;  -17.525; -173.000; -337.000
293.233;  -58.650; -556.000; -400.000
293.371;  -43.925; -225.000;  -84.000
293.510; -101.075; -866.000; -780.000
293.649; -121.475; -959.000; -924.000
293.787;  -32.925;-1083.000;-1012.000
293.926;   -2.700; -113.000;  -32.000
294.065;  -44.400; -379.000; -290.000
294.203;   36.300;  298.000;  406.000
294.342;   32.450;   74.000;  156.000
294.481; 5437.675;51180.000; -836.000
294.619;  -25.125; -425.000; -582.000
294.758; -141.825;-1230.000;-1137.000
294.896;   84.000; -125.000;    5.000
295.035; -124.400;-1040.000;-1006.000
295.174; -115.250;-1082.000; -954.000
295.312;  -49.125; -323.000; -203.000
295.451;    8.275; -307.000; -428.000
295.589;  -50.100; -389.000; -518.000
295.728;   24.300; -292.000; -165.000
295.866;   -3.650;  -36.000;  -51.000
296.005;  -56.700; -584.000; -341.000
296.143;  -63.850; -558.000; -596.000
296.282;  -94.700; -957.000; -881.000
296.420;  -94.300; -657.000; -557.000
296.559;  -72.975; -892.000; -633.000
296.697;   54.800; -847.000; -665.000
296.835;  100.825;-1141.000;-1002.000
296.974;   48.500;  -23.000;   39.000
297.112;   33.050; -443.000; -504.000
297.251;  -57.750; -815.000; -755.000
297.389;  129.975; -576.000; -438.000
297.527;   56.750; -145.000;  -83.000
297.666;  -37.350; -486.000; -438.000
297.804;  -43.050; -404.000; -264.000
297.942;    0.900; -136.000; -161.000
298.081;   -6.800; -183.000;   63.000
298.219;   77.400;  -17.000;  -19.000
298.357;   65.550; -144.000;  -71.000
298.495;   43.950; -810.000; -812.000
298.634;   93.875;  245.000;  219.000
298.772;   88.900; -220.000; -338.000
298.910;  -32.750; -309.000; -182.000
299.048;   -5.125; -130.000; -153.000
299.187;  -19.175; -350.000; -250.000
299.325;   21.925;   52.000;  122.000
299.463;   80.575; -389.000; -299.000
299.601;  147.550; -327.000; -271.000
299.739; -103.425; -908.000; -883.000
299.877;  -68.550; -791.000; -703.000
300.016;  -32.950;-1095.000; -935.000
300.154;  212.475;  -19.000; -161.000
300.292;   80.300; -428.000; -348.000
300.430;   43.500; -408.000; -291.000
300.568;  -95.725; -940.000; -874.000
300.706;  -39.325; -366.000; -469.000
300.844;  -53.200;-1108.000; -979.000
300.982;  134.325;  246.000;  282.000
301.120; -104.625; -965.000; -866.000
301.258;  -60.225; -812.000; -705.000
301.396;   37.775;  104.000;  -41.000
301.534;  111.325; -218.000; -293.000
301.672;   14.600; -664.000; -521.000
301.810;   71.425; -613.000; -545.000
301.948;  133.975;   53.000;  149.000
302.086;  763.175; -250.000;  -32.000
302.224; 1105.600; -610.000; -585.000
302.362;   61.850; -558.000; -622.000
302.500;   17.675; -923.000; -893.000
302.638;  124.650;  128.000;  245.000
302.776;    4.175; -352.000; -408.000
302.913;   38.700;  447.000;  236.000
303.051;   10.075;  -86.000;  -23.000
303.189;   57.725;   90.000;  118.000
303.327;  -32.075; -341.000; -256.000
303.465;  -65.925; -832.000; -588.000
303.603;  -84.675; -805.000; -604.000
303.740;  124.750;  417.000;  241.000
303.878;   49.925; -800.000; -759.000
304.016;  -87.675; -915.000; -790.000
304.154; -112.375;-1123.000;-1152.000
304.291;  -23.500; -505.000; -554.000
304.429;    5.075;  102.000;   74.000
304.567; -127.625; -908.000; -893.000
304.705;  -53.800; -408.000; -515.000
304.842;  134.525; -616.000; -540.000
304.980;   52.275;  215.000;   35.000
305.118;   66.400; -367.000; -365.000
305.255;  -48.500; -945.000; -927.000
305.393;   50.650;  178.000;  239.000
305.531; -100.525;-1173.000; -956.000
305.668;  -72.975; -663.000; -582.000
305.806;  120.550; -358.000; -439.000
305.943;  123.900; -629.000; -637.000
306.081;   66.900; -378.000; -267.000
306.219; -102.175; -863.000; -748.000
306.356;   -5.900;  158.000;   27.000
306.494;  105.275;  981.000;  761.000
306.631;    5.075;  -11.000;  -55.000
306.769;   10.500; -613.000; -485.000
306.906;   -2.775; -284.000; -258.000
307.044;  -59.475; -473.000; -488.000
307.181;  -67.200; -410.000; -332.000
307.319;   31.450;  112.000;   87.000
307.456; -162.725;-1191.000;-1153.000
307.594;  -89.125; -980.000; -727.000
307.731;  -21.175; -371.000; -164.000
307.868;   -6.875;  -15.000;   20.000
308.006; -128.025; -961.000; -847.000
308.143;  -55.525; -618.000; -330.000
308.281;  228.000;  -37.000; -254.000
308.418;   17.650; -748.000; -640.000
308.555;  -59.800; -400.000; -250.000
308.693;  -72.900; -577.000; -573.000
308.830; -109.025; -712.000; -657.000
308.967;  -12.050; -215.000;  -95.000
309.105;  -45.800; -507.000; -396.000
309.242;   59.500; -468.000; -367.000
309.379;  431.425; -577.000; -655.000
309.517;  -40.300; -936.000; -948.000
309.654; -108.325; -910.000; -734.000
309.791;  -63.325; -662.000; -580.000
309.928; -109.175; -977.000; -914.000
310.065;  193.775;  819.000;  697.000
310.203;   20.025; -825.000; -850.000
310.340;    9.050; -465.000; -321.000
310.477;  -86.875; -412.000; -516.000
310.614;  -57.650; -383.000; -473.000
310.751;  -75.550; -427.000; -518.000
310.889;  -26.375;    1.000;   11.000
311.026; -149.875;-1161.000; -939.000
311.163;  -39.425; -386.000; -380.000
311.300;  -76.450; -512.000; -479.000
311.437;  -76.400; -658.000; -619.000
311.574; -155.400;-1226.000; -985.000
311.711;  -56.825; -595.000; -433.000
311.848;  -40.550; -380.000; -388.000
311.985;   16.375;  270.000;   93.000
312.122; -121.975; -932.000; -762.000
312.259; -115.250; -941.000; -994.000
312.396;  -79.300; -508.000; -551.000
312.533;  -77.625; -812.000; -790.000
312.670; -124.700;-1070.000; -898.000
312.807;  -29.475; -352.000; -367.000
312.944;  -76.900; -513.000; -611.000
313.081;  -26.525; -150.000; -415.000
313.218;  -92.075;-1111.000; -867.000
313.355;   21.800; -531.000; -449.000
313.492;   -0.425; -455.000; -292.000
313.629;  134.900;  815.000;  735.000
313.766; -158.475;-1176.000;-1008.000
313.902;   -8.525; -186.000;   21.000
314.039;  -47.350; -372.000; -289.000
314.176;   23.700;  286.000;  192.000
314.313;  -78.000; -569.000; -473.000
314.450;  -69.200; -788.000; -684.000
314.587;  -53.250; -468.000; -480.000
314.723;    1.200;  -78.000;  130.000
314.860;   13.425;  318.000;  332.000
314.997;   30.650;  223.000;  142.000
315.134;  -31.625; -385.000; -368.000
315.270;  -32.025; -480.000; -496.000
315.407; -121.850;-1094.000; -967.000
315.544;  -41.725; -657.000; -538.000
315.681;  -46.975; -681.000; -565.000
315.817;   45.400; -133.000; -176.000
315.954;   16.750; -613.000; -392.000
316.091; -108.050;-1045.000;-1023.000
316.227;   -8.275;  -71.000; -179.000
316.364;   -2.725;   23.000;    6.000
316.500;  -38.175; -113.000; -300.000
316.637;  -36.800; -181.000; -302.000
316.774;  -78.350; -625.000; -358.000
316.910; -100.075; -598.000; -629.000
317.047;  -63.425; -487.000; -351.000
317.183;  -51.250; -435.000; -566.000
317.320;  -21.250; -367.000; -321.000
317.456;  -76.025; -733.000; -805.000
317.593;  -81.875; -598.000; -641.000
317.729;   -3.725;  168.000;  -67.000
317.866; -193.950;-1434.000;-1285.000
318.002;  -82.425; -708.000; -948.000
318.139;  -81.900; -883.000; -867.000
318.275;  -96.325;-1003.000; -738.000
318.412;  -67.925; -517.000; -336.000
318.548;  -23.325; -751.000; -720.000
318.685; -101.675; -985.000; -888.000
318.821;  -92.725; -762.000; -735.000
318.957;  -17.500;   34.000;  -23.000
319.094;   43.150;  297.000;  154.000
319.230;  -45.100; -756.000; -742.000
319.367;  159.800; -471.000; -520.000
319.503;   70.550; -538.000; -436.000
319.639; -105.800; -877.000; -793.000
319.775;  -49.350; -750.000; -685.000
319.912;  -48.825; -424.000; -519.000
320.048;  -76.000;-1184.000;-1184.000
320.184;   81.825;   59.000;   70.000
320.321;  -50.150; -497.000; -467.000
320.457;   56.025;  475.000;  662.000
320.593;  -66.950; -375.000; -382.000
320.729;  -90.050; -732.000; -734.000
320.866;  -56.200; -577.000; -635.000
321.002;  -78.375; -759.000; -809.000
321.138;  -16.500; -135.000; -211.000
321.274;   75.650; -148.000; -115.000
321.410;  -17.325; -585.000; -353.000
321.546;    0.900;-1011.000; -911.000
321.683;   53.625;  400.000;  185.000
321.819;   10.475;  -48.000; -117.000
321.955; -113.150; -743.000; -722.000
322.091;  -52.750; -585.000; -540.000
322.227;  -16.200; -382.000; -202.000
322.363;   -9.725; -320.000; -215.000
322.499;  -52.025; -343.000; -331.000
322.635;  179.375;  636.000;  443.000
322.771;   25.025; -139.000;   12.000
322.907;   86.800;  129.000;  327.000
323.043;  -23.575; -115.000; -206.000
323.179;  -37.950; -394.000; -363.000
323.315;   46.450; -401.000; -371.000
323.451;  133.500; -328.000; -236.000
323.587;   65.350;  -60.000;  -77.000
323.723;   39.875; -682.000; -601.000
323.859;   -9.900; -258.000;  -76.000
323.995;  -22.200; -467.000; -409.000
324.131; -129.275; -967.000; -892.000
324.267;  -37.425; -254.000; -276.000
324.402; -126.575; -960.000; -983.000
324.538;   -4.625; -279.000; -104.000
324.674;   19.700;  164.000;   77.000
324.810;  146.675;  226.000;  308.000
324.946;   27.275; -810.000; -658.000
325.082;  -69.950; -568.000; -475.000
325.217;  -10.200;  -62.000;   16.000
325.353;  -98.400; -764.000; -659.000
325.489;  -84.650; -540.000; -506.000
325.625;  -72.450; -579.000; -525.000
325.760;   45.025;  517.000;  376.000
325.896;  -37.100; -515.000; -702.000
326.032;  -59.875; -403.000; -352.000
326.168;  -53.350; -462.000; -369.000
326.303;  -69.175; -352.000; -461.000
326.439;  -19.800; -336.000; -276.000
326.575;   -9.725; -190.000;  -29.000
326.710;   -6.000; -156.000;  -30.000
326.846;  -13.275;  146.000;  103.000
326.982;  -89.975; -530.000; -548.000
327.117;  -74.775; -481.000; -442.000
327.253;  -86.850; -745.000; -742.000
327.388; -157.600;-1137.000;-1153.000
327.524;  -33.675; -811.000; -578.000
327.659;  -25.100;  -58.000;  -22.000
327.795;  -20.875;   69.000;   45.000
327.931;  -78.625; -723.000; -499.000
328.066;  -12.275; -417.000; -276.000
328.202;    9.050;   12.000; -129.000
328.337;   99.700;  957.000;  713.000
328.473;   39.825;  -12.000;  -74.000
328.608;  -29.025; -256.000; -267.000
328.743;  -73.950; -799.000; -664.000
328.879;   24.075;  214.000;  114.000
329.014;  -50.550; -102.000; -122.000
329.150;  -67.200; -358.000; -483.000
329.285;  -73.500; -465.000; -466.000
329.421;  -50.700; -548.000; -246.000
329.556;  -33.250;  -36.000;   85.000
329.691;  -86.600; -633.000; -615.000
329.827;  -77.500; -626.000; -480.000
329.962;  -47.975;  131.000; -301.000
330.097;  -89.200; -673.000; -585.000
330.233;  -54.100; -410.000; -223.000
330.368; -125.900; -839.000; -628.000
330.503;  -12.875;    3.000;   98.000
330.638;   27.175;  -93.000; -125.000
330.774;  -62.250; -609.000; -530.000
330.909;  -33.775; -434.000; -244.000
331.044;  -88.800; -714.000; -708.000
331.179; -175.000;-1217.000;-1109.000
331.315;    7.300;   77.000;   20.000
331.450;   -4.075;  157.000;  285.000
331.585;  -82.200; -805.000; -706.000
331.720;  -91.075; -510.000; -460.000
331.855;   -2.825;  -35.000; -102.000
331.990;  234.500;   62.000;  138.000
332.126;  113.775; -110.000;   71.000
332.261;  -31.650; -379.000; -265.000
332.396;  -10.525; -135.000; -242.000
332.531;  -93.825;-1074.000;-1031.000
332.666;   40.575; -519.000; -363.000
332.801; -104.825; -726.000; -807.000
332.936;  -31.550; -192.000; -122.000
333.071; -172.275; -870.000; -817.000
333.206;    9.175;  307.000;  379.000
333.341;   26.000;  344.000;  418.000
333.476;  -77.450; -627.000; -623.000
333.611;  -33.050; -251.000; -173.000
333.746;  -38.925; -381.000; -464.000
333.881; -115.325; -973.000; -935.000
334.016; -126.650; -936.000; -917.000
334.151; -127.575; -746.000; -702.000
334.286;   25.750;  152.000;  186.000
334.421;  -23.950; -125.000; -178.000
334.556;  -73.725; -611.000; -567.000
334.690;  -80.850; -631.000; -577.000
334.825;   62.825;  381.000;   83.000
334.960;  -53.975; -285.000; -413.000
335.095;   23.925;  135.000;  -91.000
335.230;  -96.550; -722.000; -738.000
335.365; -136.950;-1084.000; -990.000
335.499; -126.225;-1108.000;-1037.000
335.634;   17.450;    9.000;  534.000
335.769;  -85.175; -755.000; -720.000
335.904;  -40.500; -603.000; -561.000
336.038;  -58.775; -735.000; -657.000
336.173; -106.425;-1206.000;-1194.000
336.308;   12.475; -116.000; -189.000
336.443;   32.100; -544.000; -634.000
336.577;  -70.650; -936.000; -787.000
336.712;   71.250;   -4.000;  -12.000
336.847;  -28.900; -724.000; -607.000
336.981;   92.525; -272.000; -208.000
337.116;  320.575;  615.000;  501.000
337.250;  195.850; -434.000; -421.000
337.385;  229.725; -297.000; -208.000
337.520;   71.725; -632.000; -603.000
337.654;  -33.525; -215.000; -126.000
337.789; -130.700; -989.000; -933.000
337.923;  -22.375; -104.000; -205.000
338.058;  -84.150; -673.000; -738.000
338.192;  -30.150; -611.000; -488.000
338.327;    8.750;  -18.000; -155.000
338.461;  -52.225; -299.000; -469.000
338.596; -101.675; -780.000; -638.000
338.730;  -96.150; -767.000; -803.000
338.865;   69.950;  -46.000; -140.000
338.999;  -75.800; -846.000; -702.000
339.134;  -23.175; -634.000; -536.000
339.268;   33.950; -741.000; -603.000
339.403;  353.750; -740.000; -775.000
339.537;   83.200; -894.000; -820.000
339.671; -118.850; -829.000; -813.000
339.806;  -61.225; -556.000; -512.000
339.940;    2.550; -261.000; -235.000
340.074;  -96.750; -685.000; -510.000
340.209;  -49.575; -351.000; -230.000
340.343;  -95.975; -517.000; -573.000
340.477;  148.425;  998.000; 1036.000
340.612;  -59.700;-1033.000; -900.000
340.746;  103.800; -199.000; -243.000
340.880;  -57.925; -924.000; -785.000
341.014;  -14.050;  -45.000; -154.000
341.149; -116.625; -756.000; -718.000
341.283;  -98.600; -839.000; -754.000
341.417;  -70.650;-1124.000; -938.000
341.551;  186.750; -768.000; -708.000
341.685;  -15.125; -633.000; -611.000
341.820;  -54.950; -562.000; -493.000
341.954;  -44.550; -218.000; -349.000
342.088; -146.850;-1102.000;-1019.000
342.222;   49.825;  565.000;  618.000
342.356;  -53.675; -395.000; -335.000
342.490;  -87.700; -880.000; -841.000
342.624;  -33.575; -339.000; -242.000
342.758;    3.200; -364.000; -312.000
342.892;  -57.475; -710.000; -585.000
343.026;  -28.725;  -58.000; -116.000
343.160;  -49.125; -426.000; -376.000
343.294;  -66.550; -474.000; -337.000
343.428;    0.400; -488.000; -448.000
343.562;   -3.550; -172.000;  -23.000
343.696;  -28.850; -385.000; -314.000
343.830;  -16.025; -362.000; -356.000
343.964;   39.625; -231.000; -168.000
344.098; 1108.350;  199.000;   70.000
344.232;  927.200; -266.000; -127.000
344.366;  103.325; -567.000; -453.000
344.500;  101.150; -665.000; -744.000
344.634;   48.550; -324.000; -164.000
344.768;   -2.275; -531.000; -341.000
344.902;   18.175;  278.000;  256.000
345.035;  -68.500; -556.000; -496.000
345.169; -120.400; -933.000; -656.000
345.303;  -11.650; -308.000; -482.000
345.437;  -56.175; -826.000; -717.000
345.571;  -75.325; -675.000; -594.000
345.704;  -73.900; -309.000; -532.000
345.838;   -1.250; -331.000; -284.000
345.972;  -30.575; -543.000; -495.000
346.106;  154.650; -179.000; -190.000
346.239;  449.950; -312.000; -243.000
346.373;   14.850; -343.000; -302.000
346.507; -131.250; -950.000; -962.000
346.640;  170.325;  -30.000;   13.000
346.774;  -27.900; -650.000; -797.000
346.908;  -19.050; -138.000;  -11.000
347.041;  -82.175; -646.000; -593.000
347.175;    2.100;  259.000;   27.000
347.309;  -76.525; -698.000; -628.000
347.442;  -89.725; -883.000; -732.000
347.576;  317.725;  670.000;  668.000
347.709;  255.175; -123.000;  -52.000
347.843;  -78.250; -933.000; -825.000
347.976;   39.125;  235.000;  294.000
348.110; -172.350;-1268.000;-1186.000
348.243;  -99.150; -679.000; -772.000
348.377;   -1.050;  -26.000;   60.000
348.510;   55.050;  403.000;  540.000
348.644;  -32.525;  -37.000; -159.000
348.777;    3.750;  180.000;  191.000
348.911;  -48.675; -142.000; -112.000
349.044;  191.875;  471.000;  448.000
349.178;  209.975;-1069.000;-1006.000
349.311;  124.000;  141.000;  255.000
349.444;   -7.175; -927.000; -813.000
349.578;  -14.700; -347.000; -200.000
349.711;  -89.975; -959.000; -862.000
349.845;   27.525; -661.000; -591.000
349.978; -137.375;-1224.000;-1137.000
350.111;  -79.825; -546.000; -612.000
350.244;  -59.400; -596.000; -700.000
350.378;    9.725; -392.000; -393.000
350.511;  -69.800; -393.000; -426.000
350.644;  -93.775; -808.000; -806.000
350.778;   -0.350;  168.000;  104.000
350.911;  -13.325;  134.000;  140.000
351.044;  -81.850; -685.000; -615.000
351.177;  -28.025; -321.000; -281.000
351.310;  -30.700;    3.000; -131.000
351.444;  -58.775; -888.000; -788.000
351.577;  142.600;  140.000;   90.000
351.710;   89.575;  593.000;  417.000
351.843;  -32.200; -165.000;  -77.000
351.976;   -3.325;  149.000;  -79.000
352.109;  -71.950; -621.000; -612.000
352.242;  -21.800; -464.000; -419.000
352.376;  -51.525; -580.000; -636.000
352.509;  239.250; -437.000; -356.000
352.642;   43.250; -654.000; -604.000
352.775;   76.375; -141.000;  -98.000
352.908; -115.600; -933.000; -904.000
353.041; -100.475; -814.000; -824.000
353.174;  -56.800; -551.000; -424.000
353.307;  -84.575; -753.000; -764.000
353.440;   64.450;  541.000;  453.000
353.573; -103.450; -957.000;-1008.000
353.706;  -11.600; -384.000; -558.000
353.839;  -14.000; -264.000; -220.000
353.971;  -97.400; -657.000; -512.000
354.104;  -70.850; -896.000; -835.000
354.237;  -22.000; -627.000; -662.000
354.370;  -75.050; -846.000; -879.000
354.503; -189.400;-1231.000;-1308.000
354.636;  -29.000; -529.000; -348.000
354.769; -110.900; -937.000; -860.000
354.902;   -1.350; -230.000; -139.000
355.034;  -21.550; -164.000; -220.000
355.167;  -15.425; -262.000; -162.000
355.300;  -80.025;-1061.000; -880.000
355.433;  923.125;  -71.000;  -14.000
355.565; 1437.175; -402.000; -384.000
355.698;  361.375; -356.000; -296.000
355.831;   15.575; -882.000; -801.000
355.964;  113.000; -285.000; -170.000
356.096;  -62.300; -856.000; -843.000
356.229;   36.300; -523.000; -530.000
356.362;  300.600; -373.000; -266.000
356.494;  571.725; -229.000; -162.000
356.627;  572.850;  269.000;  377.000
356.760;  633.625;  120.000;   53.000
356.892;  917.675; -286.000; -601.000
357.025;  760.475;  403.000;  389.000
357.157;  736.875; -167.000; -179.000
357.290;  616.425; -856.000; -713.000
357.423;  188.125; -667.000; -556.000
357.555;  134.675; -217.000; -228.000
357.688;  160.125; -483.000; -364.000
357.820;  559.575; -870.000; -877.000
357.953; 4185.475; -563.000; -589.000
358.085;  979.800; -632.000; -612.000
358.218; 1494.350;-1131.000; -932.000
358.350;  284.650;  -58.000;  312.000
358.483; -102.425;-1300.000;-1187.000
358.615;   25.675;-1182.000;-1078.000
358.747;  -22.125;-1187.000;-1058.000
358.880;   70.350; -810.000; -744.000
359.012;   -2.400; -376.000; -202.000
359.145;  -28.850; -480.000; -511.000
359.277;   93.575; -962.000; -913.000
359.409; 3480.700;  536.000;  231.000
359.542;  960.275; -738.000; -688.000
359.674;   89.650;   46.000;   13.000
359.806;  -63.125; -565.000; -438.000
359.939;  -44.150; -617.000; -516.000
360.071;  -15.725; -583.000; -579.000
360.203;  -20.625; -411.000; -364.000
360.335;   70.975;  164.000;  -16.000
360.468;  216.875; -249.000; -307.000
360.600; 2741.125; -547.000; -454.000
360.732; 2663.125; -546.000; -423.000
360.864;  382.075;-1216.000;-1044.000
360.996;  386.050; -516.000; -554.000
361.129;   71.750; -389.000; -598.000
361.261;   29.950;  110.000; -113.000
361.393;  -35.450; -252.000; -214.000
361.525;   36.050;   94.000;  244.000
361.657;  -31.400; -821.000; -703.000
361.789;   23.000; -139.000; -155.000
361.921;  316.900; -642.000; -593.000
362.053;  305.250;  524.000;  541.000
362.185;   53.300;  288.000;   72.000
362.318;  -65.125; -709.000; -705.000
362.450;  135.200;  294.000;  444.000
362.582;  205.650; -913.000; -870.000
362.714;  -16.800; -353.000; -332.000
362.846;  -74.250; -606.000; -490.000
362.978; -149.150; -941.000; -811.000
363.109;   80.925; -161.000; -260.000
363.241;  562.700; -739.000; -749.000
363.373;  427.825; -649.000; -564.000
363.505;  611.725; -186.000;  -91.000
363.637;  158.675; -787.000; -601.000
363.769; -117.975;-1067.000;-1080.000
363.901;  -62.700; -596.000; -654.000
364.033; -108.700;-1103.000;-1062.000
364.165;   12.400; -283.000; -283.000
364.296;   75.725; -316.000; -177.000
364.428;   64.375;-1344.000;-1220.000
364.560;  -67.025; -679.000; -661.000
364.692;  -46.125; -738.000; -835.000
364.824;  348.575; -588.000; -456.000
364.955;  473.625; -402.000; -564.000
365.087;  825.075;-1097.000; -852.000
365.219;   33.350; -686.000; -816.000
365.351;  -70.625; -526.000; -572.000
365.482;   66.875;  300.000;  240.000
365.614;  -48.700; -402.000; -314.000
365.746;  -99.525; -729.000; -752.000
365.877; -102.025; -706.000; -672.000
366.009;  221.750;  -35.000;  -62.000
366.141;  -82.875;-1249.000;-1134.000
366.272;  -91.200; -803.000; -719.000
366.404; -111.025;-1005.000; -874.000
366.535;   -5.850; -139.000;  -12.000
366.667;  -96.575; -644.000; -649.000
366.799;   28.000;  353.000;  203.000
366.930; -111.900; -862.000; -996.000
367.062;  129.250; -639.000; -613.000
367.193;  140.100; -872.000; -842.000
367.325;  -65.000; -580.000; -684.000
367.456;   83.400; -246.000;   31.000
367.588;  164.025; -371.000; -318.000
367.719;   29.825;  -44.000;  -45.000
367.851;   -7.425; -222.000; -241.000
367.982;  -48.675; -875.000; -732.000
368.113;  147.600; -475.000; -358.000
368.245; -103.875; -960.000; -841.000
368.376;  -10.125; -254.000; -302.000
368.508;  -30.675; -188.000; -263.000
368.639; -128.325;-1166.000;-1034.000
368.770;   -3.875; -670.000; -589.000
368.902;  -46.325; -836.000; -926.000
369.033; -101.775; -906.000; -855.000
369.164;  -48.250; -720.000; -653.000
369.296; -115.150; -452.000; -601.000
369.427;    7.750; -209.000; -144.000
369.558;  -45.050; -593.000; -377.000
369.689;  -87.750; -721.000; -569.000
369.821; -124.375; -951.000; -845.000
369.952;  -18.750;   42.000; -108.000
370.083;  -49.425; -229.000; -108.000
370.214;  -63.475; -735.000; -650.000
370.345;   -5.775;   65.000;   81.000
370.477;  -72.300; -810.000; -790.000
370.608;  283.350; -328.000; -264.000
370.739;  -13.050;-1233.000;-1292.000
370.870;   -7.675;-1102.000; -923.000
371.001;  137.850; -378.000; -467.000
371.132;  -63.125; -754.000; -735.000
371.263;  -12.675;  -42.000; -148.000
371.394; -126.600; -841.000; -748.000
371.525;   19.425;  345.000;  225.000
371.657;  -84.275; -808.000; -670.000
371.788;   83.875;  103.000;  199.000
371.919;  212.525; -384.000; -304.000
372.050; 4210.650;  -91.000; -156.000
372.181; 1326.100; -188.000; -294.000
372.311;  449.750;   42.000; -127.000
372.442;   43.125; -457.000; -451.000
372.573;  -12.375; -444.000; -340.000
372.704; -109.550;-1008.000; -980.000
372.835;  110.025; -228.000; -289.000
372.966;  -55.300; -646.000; -554.000
373.097;  -51.625; -575.000; -711.000
373.228;  -23.150; -717.000; -542.000
373.359;  193.650; -824.000; -536.000
373.490; 1128.500; -881.000; -727.000
373.620; 1486.700;-1001.000; -803.000
373.751; 2151.300; -332.000; -396.000
373.882; 1023.825; -663.000; -733.000
374.013;  100.700; -449.000; -262.000
374.143;  -19.475; -581.000; -659.000
374.274;  -87.375; -987.000; -908.000
374.405;  236.375; -388.000; -276.000
374.536;  558.025; -526.000; -387.000
374.666; 1411.100; -759.000; -807.000
374.797;  299.375; -817.000; -868.000
374.928; 1084.200; -710.000; -560.000
375.058; 1105.350; -535.000; -500.000
375.189;  124.050;  -59.000;  -93.000
375.320;  -96.150; -928.000;-1034.000
375.450;  -26.600; -625.000; -616.000
375.581;  -40.775; -526.000; -436.000
375.712;  -21.725; -574.000; -250.000
375.842;  399.800; -438.000; -415.000
375.973;  266.750; -554.000; -513.000
376.103;  -14.950; -665.000; -648.000
376.234;  -72.275; -531.000; -552.000
376.364;  -22.650; -944.000; -867.000
376.495;  370.475;  925.000;  529.000
376.625;   19.125; -472.000; -485.000
376.756;  102.850; -709.000; -678.000
376.886;  -48.875;-1178.000;-1026.000
377.017;   37.700;-1048.000;-1061.000
377.147;  321.875; -786.000; -782.000
377.278;   76.950;  174.000;  228.000
377.408; -124.175; -801.000; -815.000
377.538; -100.400; -707.000; -693.000
377.669;  -82.775; -537.000; -613.000
377.799;  -78.700; -645.000; -635.000
377.929;  -53.975; -610.000; -428.000
378.060; -131.950; -781.000; -847.000
378.190;  -75.025; -726.000; -531.000
378.320;  -41.025; -401.000; -406.000
378.451;  -11.500; -131.000;  -22.000
378.581;  -10.550;  -67.000; -110.000
378.711;  154.175; 1035.000;  866.000
378.841;   12.200; -533.000; -675.000
378.972;  -54.300; -871.000; -751.000
379.102;   33.100; -652.000; -579.000
379.232;  -16.175; -126.000;  -73.000
379.362;  -83.100;-1001.000; -885.000
379.492;   19.075; -373.000; -424.000
379.623;  122.875;    0.000;  111.000
379.753;  -87.325;-1107.000; -974.000
379.883;  224.250;   59.000;  156.000
380.013;   57.750;-1081.000;-1017.000
380.143;  -80.700;-1097.000;-1056.000
380.273;  -94.400; -985.000; -861.000
380.403;    1.400; -344.000; -257.000
380.533;  -17.900; -651.000; -664.000
380.663;   79.550;  173.000;  128.000
380.793;  -68.350;-1027.000;-1074.000
380.923;  -24.950; -103.000;  -34.000
381.053;  -90.850; -613.000; -623.000
381.183;  -22.775; -106.000; -248.000
381.313;   72.675; -656.000; -470.000
381.443;   70.050; -692.000; -473.000
381.573;  260.375; -402.000; -409.000
381.703;  418.225;-1249.000;-1095.000
381.833; -102.025;-1454.000;-1336.000
381.963;  134.350; -134.000;  -87.000
382.093; 1641.800; -925.000; -909.000
382.223;  561.325; -713.000; -602.000
382.353;   13.750; -801.000; -608.000
382.482;  487.875;-1091.000; -964.000
382.612;  948.400; -872.000; -644.000
382.742;  547.000; -695.000; -622.000
382.872;  354.000; -565.000; -551.000
383.002;   84.750;  347.000; -132.000
383.131;   -6.625; -226.000; -160.000
383.261;  -30.425; -706.000; -768.000
383.391;  292.675; -552.000; -377.000
383.521; 2927.025;  451.000;  263.000
383.650;  711.575; -947.000; -904.000
383.780;   -5.525; -783.000; -656.000
383.910;  119.775;  880.000;  802.000
384.039;   64.650; -794.000; -656.000
384.169;  321.300;-1205.000;-1017.000
384.299;   15.875; -650.000; -662.000
384.428;  -76.225; -764.000; -680.000
384.558;  -39.625; -308.000; -275.000
384.687;  -31.650; -414.000; -334.000
384.817;   32.950;   75.000;   -2.000
384.947;   36.050; -234.000; -141.000
385.076;  325.425;  982.000;  912.000
385.206;  122.025;  369.000;  480.000
385.335;   -7.650; -549.000; -417.000
385.465;  -70.200; -655.000; -663.000
385.594;  180.025;  -53.000;  -44.000
385.724;  569.800; -868.000; -838.000
385.853;  166.725; -296.000; -270.000
385.982; 1652.750; -743.000; -787.000
386.112; 2632.650;-1052.000; -871.000
386.241;  213.500; -307.000; -312.000
386.371;   37.375; -174.000;  -87.000
386.500;   29.875; -825.000; -789.000
386.629;   50.475; -874.000; -817.000
386.759;   64.575;  -43.000;   68.000
386.888;    7.000; -170.000; -250.000
387.017;  -67.800; -648.000; -620.000
387.147;  -49.175; -771.000; -798.000
387.276;   35.700; -410.000; -397.000
387.405;   46.900; -398.000; -342.000
387.535;  -29.900; -452.000; -361.000
387.664;  -54.750; -692.000; -620.000
387.793;   83.450; -198.000; -113.000
387.922;  626.250;  255.000;  200.000
388.052;   58.050; -576.000; -423.000
388.181;   41.625; -342.000; -472.000
388.310;   64.200; -889.000; -710.000
388.439;   -0.875; -749.000; -742.000
388.568;  222.025;  365.000;  244.000
388.697; 1297.350; -756.000; -653.000
388.826;  311.650; -768.000; -666.000
388.956;   85.775; -285.000; -307.000
389.085;  -34.350; -347.000; -287.000
389.214;  -89.350; -842.000; -872.000
389.343;  -62.650; -645.000; -413.000
389.472;  368.150;  126.000;  149.000
389.601;  514.325;   91.000;    0.000
389.730;   47.100; -568.000; -687.000
389.859;   80.650;  226.000;   46.000
389.988;  238.775; -423.000; -408.000
390.117;  203.175; -168.000; -146.000
390.246;    3.275; -331.000; -320.000
390.375;  163.200; -673.000; -626.000
390.504;  -41.975; -703.000; -621.000
390.633;  -85.975; -672.000; -726.000
390.761;  -44.825; -732.000; -645.000
390.890;   29.475;   -4.000; -130.000
391.019;  -17.000; -421.000; -441.000
391.148; -130.675; -826.000; -855.000
391.277;  -60.650; -576.000; -493.000
391.406;  -63.975; -821.000; -805.000
391.534;   33.675;  574.000; -301.000
391.663;  -66.150; -583.000; -645.000
391.792;  -74.925; -673.000; -701.000
391.921;  132.925;   -3.000;   15.000
392.050;  254.175; -287.000; -228.000
392.178;    0.900;-1206.000;-1061.000
392.307;  188.525; -758.000; -712.000
392.436;  122.900; -427.000; -641.000
392.564;   42.525;  166.000;   -6.000
392.693;  -73.275; -860.000; -682.000
392.822;  244.575; -529.000; -534.000
392.950;  151.500; -880.000; -714.000
393.079;  410.500; -188.000; -328.000
393.208;   65.500; -488.000; -511.000
393.336;   -6.375; -170.000; -145.000
393.465;  -42.475; -317.000; -199.000
393.593;    0.250;   62.000;   79.000
393.722; -150.175;-1121.000; -916.000
393.850;  -37.650; -188.000;  -61.000
393.979; -152.025; -926.000; -805.000
394.107;  -64.850; -517.000; -537.000
394.236;  -14.200; -570.000; -507.000
394.364;  244.975;  383.000;  206.000
394.493;  488.725; -911.000; -767.000
394.621;    9.075; -955.000; -916.000
394.750;  653.975; -873.000; -923.000
394.878; 2755.900; -247.000; -149.000
395.007; 3896.200; -721.000; -807.000
395.135;  307.475; -790.000; -721.000
395.263;  -87.900;-1038.000;-1040.000
395.392;   10.400;  -25.000; -107.000
395.520; -139.275; -818.000; -679.000
395.648;  -81.950; -865.000; -915.000
395.777;   -1.400; -366.000; -405.000
395.905;  -39.200; -449.000; -564.000
396.033;   27.350;  217.000;  172.000
396.162;  712.400; -399.000; -453.000
396.290;  663.950;  -17.000;   -2.000
396.418;  161.775; -555.000; -514.000
396.546;  -57.675; -571.000; -466.000
396.674;  -89.850; -850.000; -878.000
396.803;   19.550;  -72.000;  -23.000
396.931;  114.250; -179.000; -199.000
397.059;  129.075;-1026.000; -989.000
397.187;  -99.175;-1026.000; -975.000
397.315; -120.400; -884.000; -649.000
397.443;  -96.950; -592.000; -443.000
397.572;  -92.025; -578.000; -424.000
397.700;   21.800; -607.000; -614.000
397.828;   40.400;  120.000;  -90.000
397.956;  -52.775; -508.000; -478.000
398.084;  -63.575; -767.000; -626.000
398.212;   36.275;  137.000;  124.000
398.340;   28.325;  -56.000;  159.000
398.468;   50.925; -390.000; -169.000
398.596; -128.625; -993.000; -953.000
398.724; -118.100; -762.000; -767.000
398.852; -153.225;-1024.000; -976.000
398.980;  -61.675; -560.000; -560.000
399.108;  -35.225; -982.000; -735.000
399.236;   33.300;   13.000;    8.000
399.363;    6.800;  222.000;  196.000
399.491;  -74.675; -404.000; -398.000
399.619; -127.600; -829.000; -800.000
399.747;  -98.350; -859.000; -771.000
399.875;   83.850;  220.000;  234.000
400.003;  -51.900; -359.000; -284.000
400.130; -108.575; -421.000; -341.000
400.258;  -58.850;  -83.000;   38.000
400.386;  -78.375; -352.000; -168.000
400.514;  -35.225; -526.000; -587.000
400.641;  -52.675; -928.000; -802.000
400.769; -134.075; -979.000; -888.000
400.897; -101.750; -838.000; -793.000
401.025;  -16.150; -166.000; -152.000
401.152;   -2.525;  220.000;   38.000
401.280;  -81.025; -430.000; -429.000
401.408; -125.225; -712.000; -576.000
401.535;  -96.000; -735.000; -758.000
401.663; -179.825;-1134.000;-1054.000
401.790;  -77.975; -514.000; -525.000
401.918;   34.100;  436.000;  405.000
402.046;  -15.500;  134.000;  122.000
402.173;  -48.750;  -18.000;    7.000
402.301;  -67.725; -519.000; -397.000
402.428;   39.275;  528.000;  383.000
402.556; -144.925;-1188.000; -913.000
402.683;  -33.050;  -20.000;   -1.000
402.811;  -32.075;  -37.000; -206.000
402.938;  -17.600;   20.000;   27.000
403.066;  237.875; -574.000; -558.000
403.193;  409.400;  299.000;  239.000
403.321;  322.075; -396.000; -574.000
403.448;  403.450;   83.000;   27.000
403.575;  188.475;  -90.000;  -46.000
403.703;  -92.550; -732.000; -557.000
403.830;  -59.500; -531.000; -496.000
403.957; -134.075;-1117.000;-1023.000
404.085;    9.150;  -61.000; -172.000
404.212;  103.050;  -50.000;   63.000
404.339;  263.000; -566.000; -306.000
404.467; 5418.825; -612.000; -524.000
404.594; 4018.625; -287.000; -227.000
404.721; 1061.925; -869.000; -764.000
404.848;   99.600; -113.000; -202.000
404.976;  -90.600; -856.000; -783.000
405.103;  -17.100;  -14.000;  -82.000
405.230;  -21.450;  190.000;  226.000
405.357;   26.950;  117.000;   44.000
405.484;  240.200;  -49.000;    5.000
405.612;   61.875; -548.000; -563.000
405.739;  -58.000; -488.000; -243.000
405.866;   94.900;  669.000;  385.000
405.993;  -42.800; -398.000; -102.000
406.120; -125.100; -801.000; -887.000
406.247;  -53.650; -323.000; -342.000
406.374;  510.150;  540.000;  629.000
406.501;  192.050; -632.000; -702.000
406.628;  -61.375; -621.000; -589.000
406.755;  -95.525; -803.000; -620.000
406.882;  -39.175; -228.000; -277.000
407.009; -108.975; -719.000; -628.000
407.136;   63.300; -480.000; -401.000
407.263;  230.650; -939.000; -829.000
407.390;  -70.500; -692.000; -614.000
407.517; -153.250;-1139.000;-1187.000
407.644;  -62.150; -332.000; -256.000
407.771;  -51.450; -249.000; -287.000
407.898;   11.500;  168.000;  328.000
408.025;  -68.175; -421.000; -313.000
408.151;  -19.575;   82.000;  153.000
408.278;  -78.275; -267.000; -216.000
408.405; -114.700; -931.000; -899.000
408.532;  -74.825; -549.000; -542.000
408.659; -114.675; -677.000; -648.000
408.785; -207.800;-1298.000;-1170.000
408.912;  -76.975; -412.000; -296.000
409.039; -115.125; -610.000; -686.000
409.166; -107.875; -591.000; -555.000
409.292; -118.425; -571.000; -534.000
409.419; -119.850; -665.000; -649.000
409.546;  -88.700; -431.000; -192.000
409.672; -114.250; -713.000; -545.000
409.799;  -22.175;  -36.000;   34.000
409.926;  -43.600; -180.000; -179.000
410.052; -174.000;-1127.000;-1091.000
410.179;  -58.700; -368.000; -392.000
410.305;  -82.375; -375.000; -493.000
410.432;  -45.525; -220.000; -333.000
410.558;  -89.875; -305.000; -380.000
410.685; -110.775; -688.000; -431.000
410.812; -102.250; -409.000; -588.000
410.938; -132.800; -964.000; -808.000
411.065;  -92.900; -671.000; -645.000
411.191;  -11.850; -189.000; -174.000
411.317; -116.575; -823.000; -742.000
411.444;  -60.275; -317.000; -246.000
411.570;  -89.025; -339.000; -294.000
411.697; -121.925; -758.000; -752.000
411.823; -169.975; -989.000; -999.000
411.949;  -37.050;  -56.000;   17.000
412.076; -110.975; -539.000; -519.000
412.202; -116.600; -758.000; -757.000
412.329; -127.600; -798.000; -752.000
412.455;  -96.350; -821.000; -657.000
412.581;  -27.000;  -15.000;  172.000
412.707;  -70.625; -540.000; -457.000
412.834;   22.725;  156.000;  219.000
412.960;  -82.150; -785.000; -784.000
413.086; -101.600; -743.000; -701.000
413.212;  160.050;  604.000;  578.000
413.339;  -45.550; -685.000; -701.000
413.465;   21.325; -364.000; -310.000
413.591;  -89.750; -757.000; -474.000
413.717;  -46.600; -358.000; -366.000
413.843; -144.150; -839.000; -861.000
413.969;  -58.375;  -47.000; -292.000
414.096;  -88.200; -679.000; -679.000
414.222;  -10.750;  -33.000;   85.000
414.348;  -18.350; -652.000; -385.000
414.474;  134.275;   38.000;  -52.000
414.600;  -15.825; -126.000; -144.000
414.726;   -9.150;  -96.000;  -55.000
414.852;  -61.275; -365.000; -342.000
414.978;   24.400;  104.000;  -18.000
415.104;   33.425;   38.000;   80.000
415.230;   19.900; -329.000; -330.000
415.356;   22.625; -409.000; -514.000
415.482;  208.250;   13.000;  -35.000
415.608;  277.200; -247.000; -323.000
415.734;  925.625;   67.000;   38.000
415.860;19055.350; -875.000; -767.000
415.986;15096.150; -685.000; -607.000
416.111; 1338.725; -798.000; -652.000
416.237;  259.750; -424.000; -571.000
416.363; 1007.075; -765.000; -733.000
416.489; 4046.975; -324.000; -251.000
416.615;  488.100; -707.000; -742.000
416.741;  -32.400; -677.000; -784.000
416.866;  -83.975; -673.000; -736.000
416.992; -123.325; -801.000; -818.000
417.118;  -38.750;  -41.000;  -80.000
417.244;  -61.950; -798.000; -531.000
417.369;  -77.650; -801.000; -612.000
417.495;    4.425; -325.000; -254.000
417.621;  -73.325;-1015.000; -803.000
417.746;    2.050; -579.000; -572.000
417.872;   52.450; -254.000; -144.000
417.998;   57.000; -515.000; -530.000
418.123;  887.500;-1073.000; -845.000
418.249; 5242.100; -512.000; -601.000
418.374;  790.225; -916.000; -824.000
418.500;  125.725; -383.000; -482.000
418.626;  123.025;   70.000;  -59.000
418.751;  117.625; -549.000; -448.000
418.877;  202.125; -637.000; -643.000
419.002; 1600.325; -688.000; -560.000
419.128;12036.000; -930.000; -721.000
419.253; 3226.375; -967.000; -837.000
419.379;  415.125; -391.000; -338.000
419.504;  373.400;  325.000;  415.000
419.629;  487.925; -393.000; -212.000
419.755; 3085.050; -317.000; -254.000
419.880;19637.575;  -98.000;   67.000
420.006;10940.800; -280.000; -221.000
420.131;28927.400; -662.000; -775.000
420.256; 4562.600; -315.000; -316.000
420.382;  607.650; -665.000; -687.000
420.507;   88.425; -649.000; -778.000
420.632;  141.700; -337.000; -339.000
420.758;  343.450; -251.000; -425.000
420.883;  -72.725; -876.000; -672.000
421.008;  -96.725; -775.000; -619.000
421.133;  -88.400; -509.000; -467.000
421.259;  -46.700; -325.000; -259.000
421.384; -108.350; -834.000; -693.000
421.509;  -29.925;-1052.000; -862.000
421.634; 1463.025; -936.000; -820.000
421.759;  692.425; -359.000; -327.000
421.885;  -33.850; -717.000; -656.000
422.010;  -68.875; -673.000; -542.000
422.135; -144.625; -695.000; -727.000
422.260;   27.525;  340.000;  280.000
422.385;  -38.725;   12.000;  -98.000
422.510;   17.100;  151.000;  -26.000
422.635;   21.650;  -87.000;  -43.000
422.760;  126.400; -766.000; -791.000
422.885;   63.425;  -57.000;  -80.000
423.010;  -41.800; -112.000; -169.000
423.135;  -90.275; -481.000; -561.000
423.260;   -8.050; -150.000; -245.000
423.385;   60.425;  476.000;  222.000
423.510;   31.725;   71.000;  -22.000
423.635;  105.475;  133.000;   45.000
423.760;   60.700;  383.000;  328.000
423.885;   44.775;  336.000;  391.000
424.010;   21.750;  -68.000;  -13.000
424.135;  -18.400;    5.000;  -33.000
424.259;  -74.250; -654.000; -457.000
424.384;  -63.150; -279.000; -272.000
424.509;  -25.900; -260.000; -186.000
424.634;  -84.100; -761.000; -623.000
424.759;  -22.675; -688.000; -544.000
424.883;  -10.725; -506.000; -527.000
425.008;  160.400; -502.000; -410.000
425.133; 1921.325; -679.000; -653.000
425.258;  997.150; -517.000; -381.000
425.382; 1114.400; -867.000; -774.000
425.507; 3126.100; -487.000; -543.000
425.632;  552.900; -802.000; -663.000
425.756;  445.175; -256.000; -146.000
425.881; 5625.050; -831.000; -857.000
426.006;16535.050; -604.000; -355.000
426.130; 2868.000; -696.000; -508.000
426.255;  368.425; -611.000; -491.000
426.379;  159.300; -189.000; -577.000
426.504;  363.850;  660.000;  544.000
426.629; 3836.575; -519.000; -466.000
426.753; 2929.950;   64.000;  -46.000
426.878;  337.575; -252.000; -288.000
427.002;  184.500; -651.000; -668.000
427.127; 1427.025;  -35.000; -158.000
427.251;10828.325;  372.000;  401.000
427.375; 3464.825; -191.000; -173.000
427.500; 2607.650; -616.000; -610.000
427.624;  979.150; -234.000; -400.000
427.749;  128.075; -216.000; -225.000
427.873;  -26.125; -499.000; -412.000
427.997;  -31.000; -222.000; -230.000
428.122;   76.225;  795.000;  703.000
428.246;   95.750;  433.000;  434.000
428.371; -125.875; -869.000; -773.000
428.495; -100.100; -624.000; -646.000
428.619;  -26.675; -186.000; -117.000
428.743;   24.725;   65.000;  132.000
428.868;   32.300; -732.000; -643.000
428.992; 1629.750; -219.000; -326.000
429.116;  710.825; -329.000; -357.000
429.240;  355.525;  419.000;  426.000
429.365;   -7.125; -454.000; -574.000
429.489;  -29.775; -638.000; -647.000
429.613;   18.150; -236.000; -177.000
429.737;   24.000; -563.000; -432.000
429.861;  257.350; -247.000; -133.000
429.985; 5147.975; -425.000; -305.000
430.109; 6221.850; -770.000; -908.000
430.234;  750.250;   76.000;  -50.000
430.358;   70.000; -250.000; -160.000
430.482;  -46.875; -672.000; -564.000
430.606;  -55.100; -655.000; -375.000
430.730;   28.175; -437.000; -388.000
430.854;  196.875; -909.000; -835.000
430.978;  -38.350; -795.000; -764.000
431.102;  -89.650; -499.000; -422.000
431.226;  -99.000; -874.000; -815.000
431.350;   31.050;  345.000;  422.000
431.474;  -75.575; -661.000; -373.000
431.597; -141.125;-1060.000; -848.000
431.721;  -83.750; -276.000; -267.000
431.845; -136.125; -704.000; -472.000
431.969;  -79.550; -304.000; -349.000
432.093;  -94.250; -395.000; -317.000
432.217;  -23.375;   32.000;   82.000
432.341;  -87.800; -523.000; -518.000
432.464;    8.100;   96.000;   40.000
432.588;  272.650; -401.000; -329.000
432.712;  148.000;  -52.000;  -52.000
432.836;   31.575;  213.000;  263.000
432.959;  -24.075; -372.000; -311.000
433.083;   75.300;   11.000;    2.000
433.207;  362.800;  285.000;  930.000
433.330; 4581.675; -391.000; -200.000
433.454; 6143.000; -654.000; -638.000
433.578; 3527.025;  583.000;  278.000
433.701;  738.925; -623.000; -675.000
433.825;  192.300; -292.000; -299.000
433.949;  226.900;   28.000;  -72.000
434.072;   96.725; -410.000; -323.000
434.196;   -7.050; -309.000; -117.000
434.319; 3601.850;25482.000;25124.000
434.443;  715.225; -656.000; -603.000
434.566; 2577.375;  281.000;   62.000
434.690;  493.400; -637.000; -383.000
434.813;   65.675; -251.000; -173.000
434.937;  -72.925; -569.000; -696.000
435.060;  -25.325; -423.000; -332.000
435.184;  407.075; -492.000; -217.000
435.307;  251.350;  159.000;  102.000
435.431;   -1.375;  -40.000;   24.000
435.554;  -65.550; -399.000; -240.000
435.677;  -86.000; -350.000; -258.000
435.801;  -56.575;  -25.000;   49.000
435.924;   -5.800;    1.000;  -67.000
436.048;  -96.525;-1019.000; -732.000
436.171;  -64.525; -240.000;  -66.000
436.294;  -38.950; -248.000; -229.000
436.417;   88.675; -963.000; -849.000
436.541;  -79.175; -814.000; -840.000
436.664;  -48.750; -242.000; -316.000
436.787;  -42.925;   13.000;  113.000
436.910; -101.275; -792.000; -422.000
437.034;   15.075;  142.000;  143.000
437.157;   66.175;  -11.000;    0.000
437.280;  -28.250; -392.000; -292.000
437.403;  -71.925; -982.000; -869.000
437.526;  770.025; -903.000; -865.000
437.649; 2946.975; -505.000; -332.000
437.772;  535.450; -692.000; -540.000
437.896;  154.325;  700.000;  544.000
438.019;  -94.950; -758.000; -503.000
438.142;  -79.975; -596.000; -506.000
438.265;    3.200; -639.000; -670.000
438.388;  707.925; -520.000; -410.000
438.511;  178.775; -597.000; -394.000
438.634;  -33.725; -247.000; -125.000
438.757; -144.300; -693.000; -619.000
438.880;  -15.275;  -34.000;  -57.000
439.003;  -56.575; -417.000; -437.000
439.126;  -68.525; -287.000; -167.000
439.248;  -70.725;  -98.000; -139.000
439.371;  -49.675;    9.000;  -53.000
439.494;   15.075;  510.000;  439.000
439.617;  -51.875;   65.000;  -88.000
439.740; -171.950; -968.000; -816.000
439.863; -138.675; -755.000; -595.000
439.986; -116.050; -476.000; -431.000
440.108;  -51.575; -161.000; -112.000
440.231; -156.575; -950.000; -836.000
440.354;  -33.700;  -64.000; -150.000
440.477;   63.150; -566.000; -542.000
440.599;   31.075; -200.000; -225.000
440.722; -101.200; -709.000; -586.000
440.845;   68.800;  751.000;  928.000
440.968; -108.950; -415.000; -311.000
441.090;  -69.550; -199.000;  -33.000
441.213; -161.025;-1021.000; -825.000
441.336;  -59.550; -159.000;   -5.000
441.458;  -87.650; -549.000; -396.000
441.581;  -65.125; -628.000; -629.000
441.703;  -67.375; -152.000;   13.000
441.826; -125.850; -557.000; -400.000
441.948;  -56.225;   56.000;   51.000
442.071;   14.275;  555.000;  424.000
442.193; -118.575; -531.000; -485.000
442.316;    5.025;  152.000;   97.000
442.438;   38.300; -233.000;  -10.000
442.561;   78.475;  272.000;  262.000
442.683;  654.250; -809.000; -522.000
442.806; 1506.850;   -8.000;   74.000
442.928;  112.475; -859.000; -604.000
443.051;  -40.925; -577.000; -373.000
443.173; -100.800; -341.000; -339.000
443.295;  -91.575; -263.000; -371.000
443.418;  -81.725; -321.000;  -29.000
443.540;    3.475; -106.000;   -4.000
443.662; -114.150; -563.000; -465.000
443.785;  -20.875;  335.000;  199.000
443.907; -100.150; -362.000; -208.000
444.029; -134.775; -767.000; -494.000
444.152; -134.925; -644.000; -554.000
444.274;  -26.975;  -18.000;  -24.000
444.396; -120.900; -461.000; -221.000
444.518; -130.525; -691.000; -454.000
444.640; -118.925; -268.000; -111.000
444.763;  -25.875;  388.000;  249.000
444.885; -120.850; -432.000; -392.000
445.007;  -30.775;   35.000;   86.000
445.129; -117.800; -610.000; -515.000
445.251;  -92.575; -372.000; -439.000
445.373; -135.950; -537.000; -386.000
445.495;    7.725;  242.000;  350.000
445.617;   41.925;  853.000;  753.000
445.739;  -68.250; -215.000;  -97.000
445.861;  -40.525; -245.000; -112.000
445.984;  -28.925; -267.000; -101.000
446.105;  241.275; -418.000; -251.000
446.227;  775.650; -176.000;  -19.000
446.349;   38.900; -358.000; -249.000
446.471;  -83.425; -615.000; -448.000
446.593;  -60.550; -316.000;   19.000
446.715;   24.500;  -67.000;   41.000
446.837;   50.025;  697.000;  832.000
446.959;  -95.150; -457.000; -478.000
447.081; -138.850; -628.000; -518.000
447.203;   42.325;  862.000;  834.000
447.325;  -89.075; -270.000;   42.000
447.446;  -22.600;  286.000;  530.000
447.568; -149.050; -921.000; -803.000
447.690;  -58.525; -236.000; -245.000
447.812; -145.150; -798.000; -519.000
447.933;  -37.200;  155.000;  127.000
448.055;  -62.650; -306.000; -261.000
448.177;  156.600;   31.000;   79.000
448.299;  144.875; -935.000; -727.000
448.420;   31.475;  -25.000;  159.000
448.542;  -57.775;   -3.000;   33.000
448.664;  -18.975;  109.000;  322.000
448.785;  -37.550;  265.000;   83.000
448.907;  -75.500; -614.000; -353.000
449.028;   -7.200; -771.000; -471.000
449.150;   56.025;  492.000;  589.000
449.272; -172.925;-1044.000; -913.000
449.393;   16.475;  612.000;  694.000
449.515; -150.075; -634.000; -581.000
449.636;  -62.075; -264.000; -155.000
449.758;   72.425;  763.000;  622.000
449.879;  -91.675; -498.000; -396.000
450.001;  -80.800; -149.000;  -49.000
450.122;  -51.175;  -95.000;  162.000
450.244;  -16.700;   37.000;  364.000
450.365;  -97.125; -495.000; -301.000
450.486;  -37.275;   80.000;  268.000
450.608;   14.875;  393.000;  326.000
450.729;   58.050;  578.000;  645.000
450.850;   -1.475; -574.000; -466.000
450.972;  614.550; -552.000; -389.000
451.093; 4485.550;  190.000;  588.000
451.214; 2182.850; -516.000; -337.000
451.336;  401.825;  773.000;  579.000
451.457;   50.750;  264.000;  393.000
451.578;  -32.950; -118.000;  -74.000
451.699; -121.000; -546.000; -540.000
451.821;  -65.300; -284.000;  -50.000
451.942;  -22.050;  278.000;  285.000
452.063;   31.850;  228.000;  419.000
452.184;  491.325;  -54.000;  -49.000
452.305; 1088.825;  103.000;  170.000
452.427;  156.025; -549.000; -301.000
452.548;  -17.025;   23.000;   79.000
452.669;  -53.650; -257.000;  -89.000
452.790;  -40.325;    3.000;  -18.000
452.911;  -11.800;  195.000;  259.000
453.032;  -43.950; -289.000;  -60.000
453.153;  -37.125;  -29.000;   81.000
453.274;   66.300;  737.000;  868.000
453.395;  -39.800;  -51.000;  175.000
453.516;  142.975; 1317.000; 1388.000
453.637;  -72.200; -205.000; -150.000
453.758;  -54.725;   15.000;   69.000
453.879; -114.000; -462.000; -250.000
454.000;   72.450; 1086.000;  948.000
454.121; -121.825; -554.000; -326.000
454.242; -122.625; -599.000; -383.000
454.362;  -71.500;  -99.000;  114.000
454.483;  -42.975; -309.000; -229.000
454.604;   62.875;  512.000;  580.000
454.725; -123.775; -627.000; -555.000
454.846; -119.650; -474.000; -406.000
454.967;  -37.450;  230.000;  539.000
455.087;  -53.350;  179.000;  153.000
455.208;   20.825;  554.000;  856.000
455.329;  -59.450;  -22.000;   82.000
455.450;   24.825;  473.000;  633.000
455.570;  -88.100; -234.000; -211.000
455.691;  -43.225;  201.000;  407.000
455.812; -111.275; -270.000;  -92.000
455.932;  -54.625;  107.000;  -97.000
456.053;  -86.375;   36.000;   24.000
456.173; -106.575; -433.000; -355.000
456.294; -130.425; -476.000; -303.000
456.415;  -62.750;  -73.000;   70.000
456.535;  -55.800;  297.000;  273.000
456.656;  -49.275;  132.000;  240.000
456.776;  -75.775;    3.000;  298.000
456.897;  -15.750;  308.000;  513.000
457.017;  -87.325; -153.000;   -3.000
457.138; -113.325; -402.000; -249.000
457.258;  -32.875;  263.000;  224.000
457.379;   -9.300;  509.000;  521.000
457.499;  -27.300;  443.000;  432.000
457.620; -107.750; -407.000; -231.000
457.740;  -96.350; -132.000;  -11.000
457.860;  -57.650;   87.000;   44.000
457.981;  -40.125;  132.000;  124.000
458.101;  -67.400;  -89.000;   40.000
458.221;   -9.850;  336.000;  402.000
458.342;  -60.750;   -4.000;  -37.000
458.462;    7.175;  617.000;  352.000
458.582;  -36.750; -302.000; -294.000
458.703;   -9.625;  303.000;  154.000
458.823;  -25.975;   22.000;  163.000
458.943;   27.375;  341.000;  467.000
459.063;  -10.800; 1124.000;  192.000
459.183;  -24.850;  328.000;  313.000
459.304;    4.275;  315.000;  517.000
459.424;  -66.150; -246.000;  -89.000
459.544;  273.575;  388.000;  764.000
459.664;  792.475;  499.000;  506.000
459.784;  315.275; 1004.000; 1175.000
459.904;   46.650;  867.000;  744.000
460.024;   71.050;  867.000;  684.000
460.144;    9.150;  449.000;  554.000
460.264;   -8.550;  515.000;  327.000
460.385;  -92.725; -145.000; -119.000
460.505;   36.175;  905.000;  858.000
460.625;  -94.150;  -17.000;  -68.000
460.745;  -21.375;  396.000;  541.000
460.864;  -59.225;  153.000;  469.000
460.984;   17.050;  499.000;  573.000
461.104;  132.550; 1656.000; 1775.000
461.224;   -0.075;  657.000;  650.000
461.344;  -23.550;  431.000;  360.000
461.464;  -34.325;  258.000;  513.000
461.584;  -21.650;  283.000;  466.000
461.704;  -37.500;   58.000;  108.000
461.824;  -47.550;  238.000;  259.000
461.943;  -46.475;  191.000;  130.000
462.063;  -79.775;    2.000;  324.000
462.183;   34.000;  639.000;  717.000
462.303;   89.475; 1678.000; 1230.000
462.422;   37.900;  781.000;  840.000
462.542;  -46.350;  271.000;  391.000
462.662;   43.050;  353.000;  380.000
462.782;  215.400;  833.000;  572.000
462.901;  440.375;  545.000;  717.000
463.021;  285.950; 1702.000; 1638.000
463.141;   -2.050;  337.000;  770.000
463.260;  -28.275;  614.000;  474.000
463.380;   21.825;  902.000;  884.000
463.499;  -46.475;  342.000;  332.000
463.619;  -27.775;  581.000;  559.000
463.738;   99.850; 1644.000;  903.000
463.858;   15.825;  657.000;  811.000
463.978;  -35.975;  542.000;  396.000
464.097;   57.150;  921.000; 1114.000
464.217;  101.300; 1196.000; 1143.000
464.336;  103.675; 1068.000; 1130.000
464.455;  -25.600;  328.000;  659.000
464.575;   31.250;  597.000;  602.000
464.694;  187.000; 1204.000; 1179.000
464.814;  134.625; 1190.000; 1138.000
464.933;   70.625; 1095.000; 1027.000
465.052;   93.200; 1412.000; 1054.000
465.172;   77.125;  922.000;  799.000
465.291;  160.300; 1376.000; 1320.000
465.410;   23.925;  462.000;  735.000
465.530;   79.700; 1355.000; 1310.000
465.649;   46.225; 1209.000; 1273.000
465.768;  124.925; 1673.000; 1508.000
465.888;   54.375;  941.000; 1174.000
466.007;   84.100; 1335.000; 1440.000
466.126;  -13.050;  721.000;  641.000
466.245;   51.025; 1176.000; 1187.000
466.364;   22.850;  950.000; 1060.000
466.484;   51.675; 1024.000; 1213.000
466.603;   39.975; 1101.000; 1222.000
466.722;  107.025; 1490.000; 1769.000
466.841;   91.300; 1151.000; 1401.000
466.960;   47.525; 1069.000;  972.000
467.079;  128.025; 1971.000; 1786.000
467.198;   57.125; 1238.000; 1181.000
467.317;   75.950; 1768.000; 1162.000
467.436;   64.750; 1709.000; 1261.000
467.555;  120.200; 1796.000; 1746.000
467.674;   61.675; 1227.000; 1329.000
467.793;   52.225; 1376.000; 1374.000
467.912;   87.300; 1658.000; 1539.000
468.031;  136.750; 2038.000; 1930.000
468.150;  140.300; 1842.000; 1837.000
468.269;  192.400; 2313.000; 2090.000
468.388;  188.075; 2168.000; 2339.000
468.507;  239.050; 2884.000; 2903.000
468.626;  274.200; 2555.000; 2541.000
468.744;  143.200; 2018.000; 2174.000
468.863;  190.325; 2312.000; 2523.000
468.982;   91.575; 1503.000; 1555.000
469.101;  220.400; 2788.000; 2692.000
469.220;  163.475; 2333.000; 2176.000
469.338;  254.500; 2935.000; 3051.000
469.457;  190.600; 2719.000; 2545.000
469.576;  336.975; 3953.000; 3784.000
469.695;  234.925; 2877.000; 3066.000
469.813;  433.800; 4148.000; 4192.000
469.932;  385.750; 4255.000; 4485.000
470.051;  427.200; 4075.000; 4161.000
470.169;  817.100; 4470.000; 4338.000
470.288; 1422.100; 4700.000; 4809.000
470.406;  883.550; 5059.000; 5194.000
470.525;  614.925; 6101.000; 5787.000
470.644;  652.550; 6847.000; 6794.000
470.762;  814.750; 8397.000; 7873.000
470.881;  900.025; 8651.000; 8464.000
470.999; 1027.650; 9685.000; 9151.000
471.118; 1108.075;11174.000;10711.000

