
Integration time [ms]: 200.000
Averaging Nr. [scans]: 10
Smoothing Nr. [pixels]: 0
Data measured with spectrometer [name]: 2101012U2
Wave   ;Sample   ;Dark     ;Reference
[nm]   ;[counts] ;[counts] ;[counts] 

197.733;  119.300;  516.000;  404.000
197.879; -190.100; -610.000; -634.000
198.025; -113.300; -475.000; -420.000
198.171; -154.700; -602.000; -612.000
198.317;  -91.700; -401.000; -316.000
198.463; -132.500; -655.000; -404.000
198.609;   48.000;  181.000; -137.000
198.755; -172.700; -644.000; -410.000
198.901; -152.200; -505.000; -424.000
199.047; -152.200; -615.000; -488.000
199.193;  -82.600; -230.000; -468.000
199.339; -108.500; -222.000; -369.000
199.485;   56.100;  330.000;  271.000
199.631;   19.600;  227.000;  310.000
199.777; -120.700; -466.000; -398.000
199.923; -148.700; -610.000; -424.000
200.069;   17.200; -141.000;  -58.000
200.215;  112.000;  128.000;  453.000
200.361;   85.500;  243.000;  477.000
200.507; -154.300; -600.000; -373.000
200.653;  -44.000; -371.000; -194.000
200.798;  -74.700; -215.000; -125.000
200.944;    0.300; -146.000;  -41.000
201.090;   85.600;   61.000;  222.000
201.236;    9.500; -116.000; -158.000
201.382;  253.400;  874.000;  903.000
201.528;   -0.100;  -58.000;  -48.000
201.674; -133.400; -386.000; -293.000
201.819; -147.800; -540.000; -439.000
201.965; -169.800; -699.000; -447.000
202.111;  -42.000; -273.000; -226.000
202.257;  -77.200; -250.000; -238.000
202.402;  -14.200;   13.000;  -36.000
202.548;  -67.100; -169.000; -116.000
202.694;  205.600;  410.000; -183.000
202.840; -168.800; -603.000; -531.000
202.985; -158.500; -681.000; -639.000
203.131; -222.600; -832.000; -666.000
203.277;  -39.700; -199.000; -262.000
203.423; -102.100; -434.000; -520.000
203.568;  -69.700; -462.000; -237.000
203.714; -124.900; -535.000; -542.000
203.860; -179.900; -682.000; -641.000
204.005;   29.200;  112.000;  167.000
204.151;  162.100;  561.000;  556.000
204.296; -106.800; -354.000; -221.000
204.442; -156.300; -600.000; -547.000
204.588; -164.500; -592.000; -579.000
204.733;   40.000;  178.000;  168.000
204.879; -266.100;-1018.000; -822.000
205.025;   30.700;  -99.000;  126.000
205.170;   -1.500;  -17.000;   94.000
205.316;  173.100;  438.000;  661.000
205.461; -179.000; -698.000; -554.000
205.607;  194.700;  609.000;  665.000
205.752; -179.500; -626.000; -551.000
205.898;  -95.300; -501.000; -391.000
206.043; -153.800; -578.000; -506.000
206.189;  -62.500; -243.000; -285.000
206.334;  150.600;  554.000;  606.000
206.480;  167.800;  409.000;  239.000
206.625; -192.200; -529.000; -552.000
206.771;  -71.600; -451.000; -373.000
206.916;  -63.600; -210.000; -537.000
207.062; -175.900; -545.000; -591.000
207.207; -137.500; -546.000; -443.000
207.353;   89.900;  185.000;  460.000
207.498;   37.500;  196.000;   85.000
207.643; -110.400; -501.000; -370.000
207.789; -284.400;-1069.000; -910.000
207.934; -213.500; -665.000; -713.000
208.080;  -66.200; -154.000;   66.000
208.225;  -13.900;  -22.000;  -57.000
208.370; -204.900; -727.000; -619.000
208.516; -147.900; -741.000; -487.000
208.661;  -79.300; -127.000;  -69.000
208.806;  -57.100; -165.000; -171.000
208.952; -268.600;-1044.000; -731.000
209.097;  170.200;  378.000;  349.000
209.242; -122.100; -307.000; -382.000
209.387;  113.300;  392.000;  350.000
209.533; -104.300; -321.000; -350.000
209.678;  187.100;  472.000;  543.000
209.823; -130.700; -408.000; -310.000
209.969; -201.500; -860.000; -757.000
210.114; -204.200; -907.000; -719.000
210.259; -261.600; -939.000; -889.000
210.404;   -6.100; -171.000;  103.000
210.549;   48.000;  108.000;    3.000
210.695;  -47.200;   -3.000;  -95.000
210.840;   84.200;   94.000;   67.000
210.985; -150.100; -484.000; -303.000
211.130;  158.300;  268.000;  406.000
211.275;   46.400;  207.000;  199.000
211.420; -115.400; -300.000; -289.000
211.566; -139.000; -536.000; -489.000
211.711;   60.600;  218.000;  157.000
211.856; -138.600; -545.000; -519.000
212.001;   32.700;  151.000;   44.000
212.146;   -3.700;  153.000;   49.000
212.291;  -46.000; -210.000; -186.000
212.436;  -67.400; -280.000;   -6.000
212.581; -181.800; -685.000; -653.000
212.726; -154.700; -487.000; -538.000
212.871; -114.700; -552.000; -217.000
213.016; -331.800;-1172.000;-1029.000
213.161;  170.700;  406.000;  291.000
213.306; -148.500; -435.000; -577.000
213.451; -200.600; -778.000; -689.000
213.596;  -67.200; -455.000; -347.000
213.741; -125.900; -448.000; -538.000
213.886; -183.000; -498.000; -517.000
214.031;  -59.600; -294.000; -124.000
214.176; -116.900; -408.000; -341.000
214.321;  -15.000; -296.000; -157.000
214.466;  -40.000; -163.000;  -43.000
214.611;   -0.800;  -61.000;  -10.000
214.756; -262.500; -948.000; -858.000
214.901;  -52.900; -388.000; -226.000
215.046; -271.600; -797.000; -825.000
215.191;   41.400;  128.000;   35.000
215.336;  -31.100; -157.000;  -19.000
215.480; -150.700; -684.000; -505.000
215.625;  -24.300; -175.000;  -19.000
215.770; -179.600; -757.000; -662.000
215.915;  -22.100;   -5.000;  -97.000
216.060;   20.600; -113.000;  -21.000
216.205; -224.200; -731.000; -779.000
216.349; -119.900; -470.000; -533.000
216.494; -308.600; -939.000; -867.000
216.639; -225.900; -823.000; -888.000
216.784; -157.500; -577.000; -525.000
216.929;  119.100;  392.000;  281.000
217.073;  -47.200; -244.000;  -31.000
217.218;   24.300;   78.000;  -47.000
217.363; -156.000; -656.000; -618.000
217.507; -157.700; -623.000; -588.000
217.652; -257.800; -845.000; -874.000
217.797; -171.600; -708.000; -659.000
217.942; -225.700; -856.000; -720.000
218.086;  148.400;  608.000;  539.000
218.231;  -54.400; -174.000;  -26.000
218.376;  -35.400; -337.000; -229.000
218.520;   -2.400;  -41.000;   96.000
218.665;  -67.400; -338.000; -204.000
218.810;  -97.100; -275.000; -233.000
218.954;   54.200;  201.000;   35.000
219.099; -245.800; -713.000; -963.000
219.243; -136.200; -589.000; -554.000
219.388;  -45.400; -264.000; -136.000
219.532;  -22.300; -116.000; -116.000
219.677; -165.600; -564.000; -521.000
219.822;    9.600;   33.000;   89.000
219.966;  -30.400;   17.000;  -99.000
220.111;  -61.200; -328.000;  -40.000
220.255; -185.100; -797.000; -750.000
220.400;  -38.900; -180.000; -146.000
220.544; -175.300; -516.000; -450.000
220.689; -121.600; -422.000; -451.000
220.833;  -28.700; -123.000;  -58.000
220.978;  -52.500; -393.000; -563.000
221.122;   44.600;  319.000;  307.000
221.267; -245.300; -906.000; -837.000
221.411; -118.200; -478.000; -394.000
221.555;   -7.200; -104.000;  -23.000
221.700;  -92.000; -329.000; -222.000
221.844;  113.500;  255.000;  272.000
221.989;  -90.900; -328.000; -311.000
222.133;  -79.300; -289.000; -307.000
222.277;    3.400;    5.000;   78.000
222.422;   66.200;  227.000;  113.000
222.566;  -71.400; -381.000; -214.000
222.711; -123.400; -414.000; -479.000
222.855; -189.400; -643.000; -586.000
222.999; -180.700; -642.000; -717.000
223.144;  -61.100; -195.000; -194.000
223.288;  101.300;  423.000;  251.000
223.432;   63.100;  184.000;  230.000
223.576;   45.000;  152.000;  -21.000
223.721;   87.900;  364.000;  273.000
223.865; -133.000; -472.000; -475.000
224.009;  556.200; 1673.000; 1631.000
224.153; -171.700; -660.000; -671.000
224.298; -135.000; -531.000; -489.000
224.442;   -9.700;  -74.000;  -33.000
224.586;  -43.500; -169.000; -106.000
224.730; -202.300; -858.000; -670.000
224.875; -198.100; -739.000; -688.000
225.019;   22.800;  102.000;  188.000
225.163;   91.300;  208.000;  341.000
225.307;   22.000;   97.000;  -91.000
225.451;  105.100;  360.000;  481.000
225.595;   73.000;  264.000;  176.000
225.739;  -25.300; -170.000;  -94.000
225.884;   37.300;   86.000;    5.000
226.028; -193.400; -760.000; -626.000
226.172;  -84.600; -260.000; -273.000
226.316; -249.100; -941.000; -902.000
226.460; -126.200; -645.000; -493.000
226.604; -126.400; -406.000; -400.000
226.748; -221.200; -836.000; -733.000
226.892;  -59.200; -227.000; -181.000
227.036;  -85.600; -537.000; -447.000
227.180; -143.800; -551.000; -375.000
227.324; -146.100; -561.000; -580.000
227.468; -241.600; -819.000; -717.000
227.612;   76.200;  242.000;  -28.000
227.756; -219.600; -845.000; -698.000
227.900;  112.600;  342.000;  441.000
228.044; -121.400; -509.000; -290.000
228.188;  149.200;  448.000;  568.000
228.332; -154.600; -546.000; -472.000
228.476;  -32.200; -223.000; -149.000
228.620;  -34.300; -210.000; -150.000
228.764;  159.000;  431.000;  349.000
228.908;  -49.700; -155.000;   30.000
229.052; -141.900; -615.000; -528.000
229.195;  -24.400; -172.000;   13.000
229.339;  -50.800; -235.000; -305.000
229.483;  -39.200;    5.000; -162.000
229.627;   -4.300; -156.000;  139.000
229.771;  -87.000; -218.000; -294.000
229.915;   55.400;  230.000;   79.000
230.059; -178.800; -648.000; -663.000
230.202;  -45.100; -370.000; -317.000
230.346;  -10.200; -107.000;  107.000
230.490; -111.000; -489.000; -521.000
230.634; -224.800; -736.000; -553.000
230.777;  160.500;  478.000;  509.000
230.921; -104.900; -450.000; -359.000
231.065; -114.700; -246.000; -286.000
231.209;   44.000;  261.000;  265.000
231.352;   34.300;   54.000;   40.000
231.496;   52.400;  568.000;  188.000
231.640; -162.100; -693.000; -621.000
231.783;  149.900;  546.000;  525.000
231.927;  -83.100; -294.000; -365.000
232.071; -259.300; -962.000; -736.000
232.214; -227.100; -980.000; -764.000
232.358; -195.000; -683.000; -599.000
232.502;   25.400;  -19.000;    7.000
232.645; -296.300;-1090.000; -927.000
232.789;  -21.000; -257.000; -218.000
232.933;  -77.000; -407.000; -224.000
233.076; -250.900;-1038.000; -897.000
233.220; -198.500; -752.000; -777.000
233.363; -175.200; -669.000; -477.000
233.507;  126.200;  371.000;  129.000
233.650; -213.900; -764.000; -834.000
233.794;  121.300;  438.000;  461.000
233.938; -107.400; -530.000; -362.000
234.081;  -28.900;  -93.000;   31.000
234.225; -127.800; -631.000; -539.000
234.368; -219.700; -773.000; -723.000
234.512;  -98.700; -385.000; -299.000
234.655; -182.900; -582.000; -555.000
234.798; -132.400; -493.000; -466.000
234.942; -277.600; -884.000;-1002.000
235.085; -126.800; -651.000; -443.000
235.229; -163.000; -405.000; -410.000
235.372;  -86.500; -247.000; -191.000
235.516; -135.300; -397.000; -321.000
235.659;   66.400;   92.000;  121.000
235.802;  -27.400;  -38.000;  -22.000
235.946;   84.700;  335.000;  215.000
236.089;   72.400;  126.000;  250.000
236.233;   98.300;  275.000;  298.000
236.376; -115.500; -235.000; -378.000
236.519;  -81.900; -297.000; -319.000
236.663;  -46.700; -215.000; -117.000
236.806; -264.100;-1029.000; -999.000
236.949;  140.500;  543.000;  431.000
237.092;  128.700;  412.000;  391.000
237.236; -203.400; -589.000; -502.000
237.379;  126.800;  352.000;  428.000
237.522; -257.300; -879.000; -768.000
237.666;  -30.300; -271.000;   18.000
237.809; -265.100; -851.000; -823.000
237.952;   99.200;  469.000;  271.000
238.095; -140.300; -447.000; -442.000
238.238;  201.800;  688.000;  700.000
238.382;   15.000;  166.000;  103.000
238.525; -132.400; -598.000; -511.000
238.668; -294.500;-1060.000; -985.000
238.811; -185.300; -638.000; -643.000
238.954; -110.300; -483.000; -334.000
239.097;  189.500;  617.000;  664.000
239.241;   76.200;  394.000;  326.000
239.384;  -58.800; -254.000; -214.000
239.527; -120.400; -424.000; -224.000
239.670; -270.200; -994.000;-1091.000
239.813; -217.800; -696.000; -658.000
239.956;  176.100;  579.000;  473.000
240.099; -236.200; -778.000; -725.000
240.242;  142.300;  428.000;  432.000
240.385;  120.500;  466.000;  450.000
240.528; -150.000; -706.000; -473.000
240.671;   26.800;  189.000;  134.000
240.814;  -72.200; -441.000; -158.000
240.957; -205.900; -767.000; -578.000
241.100; -219.200; -779.000; -755.000
241.243; -311.800;-1234.000; -893.000
241.386; -157.200; -508.000; -379.000
241.529; -176.400; -735.000; -547.000
241.672; -114.000; -566.000; -495.000
241.815; -221.100; -832.000; -808.000
241.958;  -59.600; -125.000; -182.000
242.101; -199.500; -545.000; -390.000
242.244;  -40.300; -270.000; -325.000
242.387;  -75.700; -304.000; -246.000
242.530;  135.800;  470.000;  134.000
242.673;  -85.700; -381.000; -309.000
242.815; -229.100; -925.000; -899.000
242.958; -114.400; -482.000; -381.000
243.101;   22.200;  132.000;  187.000
243.244; -142.200; -564.000; -521.000
243.387;  -68.600; -313.000; -316.000
243.530; -196.000; -657.000; -674.000
243.672;  -11.900;   43.000;  -92.000
243.815;  -92.700; -355.000; -283.000
243.958;   11.000;   98.000;  -26.000
244.101;   -2.900;   59.000;  -16.000
244.243;  -31.100;  -47.000;  101.000
244.386; -220.800; -761.000; -630.000
244.529;  -35.000; -132.000; -139.000
244.672; -323.000;-1154.000; -951.000
244.814; -203.500; -621.000; -794.000
244.957; -123.700; -380.000; -304.000
245.100; -123.100; -489.000; -489.000
245.242;  -82.500; -387.000; -374.000
245.385;  -26.500;  -59.000;  -39.000
245.528; -252.500; -871.000; -705.000
245.670;  207.600;  612.000;  634.000
245.813; -189.600; -599.000; -547.000
245.956;  -56.100; -324.000; -275.000
246.098; -155.000; -508.000; -650.000
246.241;   39.800;  194.000;   48.000
246.383;  -56.500; -119.000;  -73.000
246.526; -159.900; -454.000; -525.000
246.669; -224.000; -889.000; -780.000
246.811;   57.400;  172.000;   -1.000
246.954; -121.500; -512.000; -426.000
247.096;  -31.500;  -84.000;   -6.000
247.239; -133.800; -482.000; -445.000
247.381; -139.100; -647.000; -488.000
247.524;  174.000;  645.000;  679.000
247.666;   24.400;   58.000;   11.000
247.809; -261.300; -887.000; -691.000
247.951;  -32.400;  -75.000;  138.000
248.094;   96.100;  432.000;  308.000
248.236; -322.000;-1262.000;-1238.000
248.378;    4.800; -356.000;  -81.000
248.521;  -40.500; -334.000; -337.000
248.663;  -68.400; -236.000; -267.000
248.806;  -51.200; -300.000; -266.000
248.948; -199.500; -886.000; -763.000
249.090;  -97.100; -428.000; -398.000
249.233;  -93.200; -344.000; -381.000
249.375; -132.300; -474.000; -451.000
249.518;  -56.200;  -83.000; -133.000
249.660;   14.800; -103.000;    3.000
249.802; -342.400;-1303.000;-1189.000
249.945; -127.400; -612.000; -540.000
250.087; -239.200; -834.000; -768.000
250.229;  -89.000; -362.000; -480.000
250.371; -167.600; -494.000; -439.000
250.514;  -77.300; -310.000; -244.000
250.656;    4.500;   69.000;  102.000
250.798; -247.700; -849.000; -800.000
250.940; -138.400; -322.000; -322.000
251.083;  -61.700; -335.000; -111.000
251.225;  129.900;  338.000;  310.000
251.367;  -61.800; -274.000; -373.000
251.509;  -72.800; -265.000; -210.000
251.651; -175.300; -731.000; -671.000
251.794;  101.600;  538.000;  632.000
251.936; -209.700; -821.000; -747.000
252.078; -171.000; -540.000; -461.000
252.220; -122.600; -645.000; -477.000
252.362;  189.800;  344.000;  462.000
252.504; -134.500; -677.000; -584.000
252.646; -222.700; -875.000; -722.000
252.788;   41.900;   14.000; -128.000
252.931;  -87.500; -257.000; -253.000
253.073;  -72.900; -376.000; -317.000
253.215;    0.800;  141.000;  122.000
253.357;   -9.300;   82.000; -153.000
253.499;  -99.400; -374.000; -234.000
253.641; -168.600; -749.000; -594.000
253.783; -193.900; -609.000; -527.000
253.925; -162.800; -586.000; -591.000
254.067; -230.100; -744.000; -667.000
254.209;  -58.500; -391.000; -259.000
254.351; -275.600; -865.000; -883.000
254.493;  -97.500; -441.000; -417.000
254.635; -212.900; -936.000; -818.000
254.777; -170.700; -752.000; -687.000
254.918; -161.200; -512.000; -430.000
255.060;  -92.200; -551.000; -395.000
255.202;  -99.900; -473.000; -261.000
255.344; -159.500; -658.000; -455.000
255.486; -138.500; -471.000; -406.000
255.628; -195.400; -780.000; -781.000
255.770; -180.900; -676.000; -536.000
255.912; -116.800; -559.000; -468.000
256.053; -185.600; -730.000; -508.000
256.195;  305.100; 1008.000;  903.000
256.337; -205.300; -861.000; -595.000
256.479;  154.500;  532.000;  416.000
256.621;  -77.100; -394.000; -212.000
256.762; -185.900; -789.000; -742.000
256.904;  135.400;  485.000;  487.000
257.046;  -87.500; -381.000; -271.000
257.188;  -93.500; -351.000; -264.000
257.329; -159.900; -525.000; -464.000
257.471; -236.000; -939.000; -807.000
257.613; -124.500; -584.000; -498.000
257.755; -312.800;-1073.000; -982.000
257.896;   94.400;  286.000;  392.000
258.038; -136.100; -403.000; -352.000
258.180;  -63.800; -354.000; -279.000
258.321; -151.200; -581.000; -457.000
258.463;    9.000;  -71.000;  133.000
258.605; -180.900; -562.000; -570.000
258.746; -205.200; -886.000; -772.000
258.888; -281.400;-1026.000;-1020.000
259.029;   57.200;  121.000;   -8.000
259.171; -184.000; -614.000; -550.000
259.313;    5.100;  -49.000;  -47.000
259.454; -127.500; -536.000; -414.000
259.596; -119.200; -483.000; -390.000
259.737; -120.200; -590.000; -474.000
259.879;   74.300;  217.000;  311.000
260.020;  224.300;  901.000;  636.000
260.162;  -69.900; -146.000; -253.000
260.303; -229.600; -768.000; -687.000
260.445; -157.800; -609.000; -613.000
260.586;   59.700;  392.000;  157.000
260.728;  -77.900; -360.000; -248.000
260.869; -116.900; -350.000; -343.000
261.011;  202.300;  706.000;  537.000
261.152; -122.200; -479.000; -319.000
261.293; -152.700; -576.000; -595.000
261.435;  -44.200; -219.000; -184.000
261.576;  -88.000; -455.000; -325.000
261.718;  108.300;  420.000;  470.000
261.859; -252.100; -940.000; -949.000
262.000; -260.600; -951.000;-1016.000
262.142;  -25.000;  -52.000;  -60.000
262.283; -239.600; -808.000; -691.000
262.424; -184.200; -666.000; -625.000
262.566; -316.500;-1161.000; -983.000
262.707; -216.900; -840.000; -830.000
262.848; -251.900; -769.000; -726.000
262.990;  -71.500; -362.000; -345.000
263.131;  171.900;  650.000;  681.000
263.272;    3.000;  -61.000;  -41.000
263.413; -161.900; -589.000; -561.000
263.555; -120.200; -669.000; -143.000
263.696; -163.400; -550.000; -641.000
263.837; -106.000; -449.000; -551.000
263.978;   -6.700;   -5.000;  -77.000
264.119;  -90.500; -283.000; -264.000
264.261; -233.900; -847.000; -630.000
264.402;   14.300;   33.000;   40.000
264.543; -134.500; -509.000; -524.000
264.684;   -4.900;   61.000;  -50.000
264.825; -140.400; -816.000; -538.000
264.966;   36.200;  -84.000;  -67.000
265.107; -225.600; -646.000; -670.000
265.248; -229.000; -825.000; -812.000
265.390;  -26.100;  152.000;   -9.000
265.531;  -49.700; -238.000; -107.000
265.672; -157.900; -557.000; -630.000
265.813;  146.400;  563.000;  439.000
265.954; -282.500; -959.000; -940.000
266.095;   -1.700; -372.000; -322.000
266.236; -160.200; -686.000; -548.000
266.377;  -78.000; -243.000; -297.000
266.518; -150.000; -619.000; -547.000
266.659;   71.200;  170.000;  268.000
266.800;   64.000;   83.000;   85.000
266.941; -137.000; -487.000; -478.000
267.082;   42.700;  354.000;   99.000
267.223;  -45.400; -344.000; -273.000
267.364; -242.300; -892.000; -686.000
267.504;  -30.300;    3.000;  135.000
267.645;   25.800;  160.000;   67.000
267.786;  -39.300; -147.000;  -86.000
267.927; -131.900; -473.000; -379.000
268.068;    5.600; -186.000;  -61.000
268.209;  -96.700; -175.000; -413.000
268.350; -121.500; -388.000; -532.000
268.490; -142.900; -648.000; -521.000
268.631;   85.600;  127.000;  225.000
268.772; -237.900; -874.000; -647.000
268.913;  -82.000; -328.000; -476.000
269.054;   11.600; -117.000;   12.000
269.194;  -95.500; -418.000; -402.000
269.335; -315.200;-1137.000;-1074.000
269.476;    7.800;   33.000;  -35.000
269.617;  -71.900; -347.000; -392.000
269.757; -161.900; -713.000; -646.000
269.898; -201.400; -856.000; -613.000
270.039; -107.100; -415.000; -405.000
270.180; -276.300; -952.000; -816.000
270.320;  -44.900; -190.000; -250.000
270.461;  -72.900; -277.000; -249.000
270.602;  -22.100; -186.000; -156.000
270.742; -252.200; -868.000; -943.000
270.883; -108.500; -442.000; -390.000
271.023; -123.200; -358.000; -357.000
271.164; -151.300; -607.000; -528.000
271.305; -199.800; -666.000; -654.000
271.445; -172.300; -722.000; -683.000
271.586; -108.300; -462.000; -283.000
271.726;  -83.200; -397.000; -322.000
271.867; -139.000; -594.000; -534.000
272.008;  343.800; -473.000; -285.000
272.148;  244.800;  462.000;  468.000
272.289;   49.700; -113.000; -181.000
272.429;   52.000;   19.000;  185.000
272.570; -166.700; -633.000; -737.000
272.710; -172.400; -825.000; -775.000
272.851;  -11.800;  113.000; -130.000
272.991; -313.600;-1173.000;-1077.000
273.131; -109.100; -419.000; -459.000
273.272; -211.800; -683.000; -723.000
273.412;   42.600; -143.000;  -31.000
273.553;  -99.000; -488.000; -507.000
273.693;  278.300;  913.000;  858.000
273.834; -182.300; -894.000; -692.000
273.974; -124.100; -664.000; -615.000
274.114; -189.900; -772.000; -560.000
274.255;  165.600;  414.000;  373.000
274.395;    0.300; -180.000; -125.000
274.535;  132.000;  199.000;  350.000
274.676;  103.200;  225.000;   94.000
274.816;   31.700;  110.000;   34.000
274.956; -155.900; -624.000; -690.000
275.097; -121.000;-1014.000; -922.000
275.237; -236.000; -913.000; -803.000
275.377; -176.600; -778.000; -689.000
275.517; -303.000; -878.000; -937.000
275.658;  -90.200; -590.000; -555.000
275.798; -152.100; -606.000; -413.000
275.938;   85.100;  215.000;  323.000
276.078; -151.300; -626.000; -395.000
276.218;   21.400;   99.000;  104.000
276.359; -263.200;-1026.000;-1024.000
276.499; -138.500; -605.000; -446.000
276.639;  -44.700; -305.000; -151.000
276.779;  -96.000; -475.000; -357.000
276.919; -200.300; -783.000; -624.000
277.059;  -14.600; -261.000; -212.000
277.199;  -86.000; -357.000; -259.000
277.340;  101.200;  287.000;  175.000
277.480; -191.000; -840.000; -693.000
277.620;   89.200;  192.000;   16.000
277.760; -380.400;-1533.000;-1294.000
277.900;   78.100;  113.000;   33.000
278.040;  108.500;  137.000;  159.000
278.180;  111.300;  270.000;  170.000
278.320;   37.900;   21.000;   56.000
278.460; -110.600; -443.000; -469.000
278.600; -159.600; -708.000; -598.000
278.740;  144.100;  448.000;  224.000
278.880; -101.100; -768.000; -791.000
279.020;   44.000; -194.000; -144.000
279.160; -188.700; -672.000; -595.000
279.300; -198.200; -926.000; -873.000
279.440; -154.300; -709.000; -622.000
279.579;  -58.900;-1014.000; -929.000
279.719;  -67.700; -410.000; -394.000
279.859;  116.300;   -4.000;   41.000
279.999;   40.200; -208.000;  101.000
280.139;  -26.600; -435.000; -387.000
280.279; -147.800; -708.000; -745.000
280.419;  -22.000; -229.000; -147.000
280.559;  -37.800; -259.000; -180.000
280.698; -139.300; -790.000; -639.000
280.838; -190.200; -778.000; -800.000
280.978; -216.400; -846.000; -790.000
281.118; -200.700; -811.000; -704.000
281.257;   45.800;   24.000;    6.000
281.397; -221.000;-1094.000; -960.000
281.537; -155.800; -599.000; -712.000
281.677;  -26.900; -150.000; -101.000
281.816; -139.100; -700.000; -630.000
281.956;  -43.700; -193.000; -257.000
282.096; -105.100; -539.000; -396.000
282.235; -210.600; -672.000; -638.000
282.375;  -18.400; -243.000;  -98.000
282.515; -186.100; -715.000; -707.000
282.654;   78.100;   29.000;  106.000
282.794;   86.700;  388.000;  244.000
282.934;  -95.500; -530.000; -491.000
283.073; -251.900;-1030.000; -857.000
283.213;  -70.000; -460.000; -467.000
283.353;  -23.500; -408.000; -349.000
283.492;  -36.300; -264.000; -296.000
283.632; -123.200; -254.000; -168.000
283.771; -189.600; -859.000; -730.000
283.911;  -80.800; -369.000; -260.000
284.050; -210.500; -794.000; -748.000
284.190; -318.200;-1229.000;-1096.000
284.329; -291.500;-1055.000; -964.000
284.469; -132.600; -516.000; -591.000
284.608;  -99.600; -559.000; -598.000
284.748; -166.100; -614.000; -570.000
284.887;   46.400;  -87.000;  -20.000
285.027; -202.700; -844.000; -892.000
285.166;  -33.500; -192.000; -249.000
285.306;   55.100; -116.000;  -33.000
285.445;  -59.000; -229.000; -343.000
285.584; -163.600; -630.000; -494.000
285.724;  -85.000; -282.000; -322.000
285.863; -202.300; -857.000; -507.000
286.002;  -78.300; -366.000; -276.000
286.142; -190.000; -715.000; -622.000
286.281; -128.200; -525.000; -493.000
286.420; -144.200; -554.000; -417.000
286.560;  223.100;  653.000;  623.000
286.699; -256.600; -958.000; -912.000
286.838; -165.600; -590.000; -591.000
286.978; -162.700; -533.000; -537.000
287.117; -242.400;-1085.000; -950.000
287.256;  -77.000; -228.000; -211.000
287.395;  -60.000; -197.000; -378.000
287.535;  -90.700; -370.000; -298.000
287.674; -158.500; -509.000; -484.000
287.813;  135.800;  661.000;  533.000
287.952; -223.100;-1010.000; -871.000
288.091; -297.700;-1049.000; -915.000
288.231;   56.500;   13.000;   15.000
288.370; -368.500;-1217.000;-1200.000
288.509; -146.000; -728.000; -645.000
288.648; -204.900; -770.000; -548.000
288.787;  -20.000; -243.000;  -87.000
288.926; -112.900; -454.000; -475.000
289.065;  271.600;  859.000;  672.000
289.204;  -77.800; -377.000; -217.000
289.344; -165.000; -791.000; -690.000
289.483;   79.300;  416.000;  304.000
289.622;   10.800; -291.000; -149.000
289.761;   -0.600; -309.000; -166.000
289.900; -208.900; -785.000; -626.000
290.039;  -21.600;  -12.000;  -95.000
290.178;  -66.700; -274.000; -180.000
290.317; -179.600; -618.000; -479.000
290.456; -104.800; -463.000; -451.000
290.595; -267.300; -961.000; -833.000
290.734; -270.800; -904.000; -891.000
290.873; -134.800; -456.000; -420.000
291.011; -236.100; -833.000; -843.000
291.150; -219.600; -770.000; -682.000
291.289;  -34.400; -343.000; -110.000
291.428; -185.200; -599.000; -480.000
291.567;  -77.800; -370.000; -442.000
291.706;   44.000;  109.000;  154.000
291.845; -185.000; -597.000; -505.000
291.984; -322.300;-1234.000;-1061.000
292.122;  179.400;  602.000;  582.000
292.261;  123.600;  620.000;  463.000
292.400;   62.200; -144.000;  211.000
292.539; -244.300; -959.000; -813.000
292.678;  -42.500; -325.000; -300.000
292.816; -312.800;-1136.000; -965.000
292.955; -161.300; -844.000; -684.000
293.094;  -43.000; -173.000; -337.000
293.233;  -97.600; -556.000; -400.000
293.371;  -50.500; -225.000;  -84.000
293.510; -192.300; -866.000; -780.000
293.649; -237.000; -959.000; -924.000
293.787;  -83.900;-1083.000;-1012.000
293.926;   33.200; -113.000;  -32.000
294.065;  -41.300; -379.000; -290.000
294.203;  126.800;  298.000;  406.000
294.342;   75.100;   74.000;  156.000
294.481;11719.700;51180.000; -836.000
294.619;  -40.300; -425.000; -582.000
294.758; -291.600;-1230.000;-1137.000
294.896;  191.700; -125.000;    5.000
295.035; -259.900;-1040.000;-1006.000
295.174; -213.700;-1082.000; -954.000
295.312;  -76.600; -323.000; -203.000
295.451;   -2.800; -307.000; -428.000
295.589;  -68.700; -389.000; -518.000
295.728;   53.400; -292.000; -165.000
295.866;   51.600;  -36.000;  -51.000
296.005; -108.500; -584.000; -341.000
296.143; -110.500; -558.000; -596.000
296.282; -204.500; -957.000; -881.000
296.420; -163.400; -657.000; -557.000
296.559; -140.400; -892.000; -633.000
296.697;   25.600; -847.000; -665.000
296.835;  141.500;-1141.000;-1002.000
296.974;  104.500;  -23.000;   39.000
297.112;   77.200; -443.000; -504.000
297.251; -158.100; -815.000; -755.000
297.389;  202.000; -576.000; -438.000
297.527;  139.000; -145.000;  -83.000
297.666;  -81.200; -486.000; -438.000
297.804; -110.300; -404.000; -264.000
297.942;   28.900; -136.000; -161.000
298.081;   -0.200; -183.000;   63.000
298.219;  154.400;  -17.000;  -19.000
298.357;  108.700; -144.000;  -71.000
298.495;   79.800; -810.000; -812.000
298.634;  140.000;  245.000;  219.000
298.772;  126.300; -220.000; -338.000
298.910;  -61.200; -309.000; -182.000
299.048;    7.700; -130.000; -153.000
299.187;  -72.500; -350.000; -250.000
299.325;   69.600;   52.000;  122.000
299.463;   64.900; -389.000; -299.000
299.601;  239.600; -327.000; -271.000
299.739; -187.300; -908.000; -883.000
299.877; -143.200; -791.000; -703.000
300.016; -121.500;-1095.000; -935.000
300.154;  311.700;  -19.000; -161.000
300.292;  138.600; -428.000; -348.000
300.430;   66.000; -408.000; -291.000
300.568; -174.000; -940.000; -874.000
300.706;  -64.400; -366.000; -469.000
300.844; -148.300;-1108.000; -979.000
300.982;  275.600;  246.000;  282.000
301.120; -206.000; -965.000; -866.000
301.258; -100.600; -812.000; -705.000
301.396;  101.600;  104.000;  -41.000
301.534;  164.700; -218.000; -293.000
301.672;   15.400; -664.000; -521.000
301.810;   96.100; -613.000; -545.000
301.948;  278.600;   53.000;  149.000
302.086; 1135.800; -250.000;  -32.000
302.224; 1824.600; -610.000; -585.000
302.362;  146.500; -558.000; -622.000
302.500;  -23.600; -923.000; -893.000
302.638;  242.000;  128.000;  245.000
302.776;   24.500; -352.000; -408.000
302.913;  135.200;  447.000;  236.000
303.051;   -6.100;  -86.000;  -23.000
303.189;  167.900;   90.000;  118.000
303.327;  -65.600; -341.000; -256.000
303.465; -165.400; -832.000; -588.000
303.603; -175.700; -805.000; -604.000
303.740;  257.700;  417.000;  241.000
303.878;   33.900; -800.000; -759.000
304.016; -146.700; -915.000; -790.000
304.154; -258.000;-1123.000;-1152.000
304.291;  -35.200; -505.000; -554.000
304.429;   50.800;  102.000;   74.000
304.567; -244.800; -908.000; -893.000
304.705;  -83.200; -408.000; -515.000
304.842;  219.800; -616.000; -540.000
304.980;  123.500;  215.000;   35.000
305.118;  104.100; -367.000; -365.000
305.255; -105.900; -945.000; -927.000
305.393;  136.400;  178.000;  239.000
305.531; -199.000;-1173.000; -956.000
305.668; -123.100; -663.000; -582.000
305.806;  179.200; -358.000; -439.000
305.943;  219.100; -629.000; -637.000
306.081;  137.500; -378.000; -267.000
306.219; -203.100; -863.000; -748.000
306.356;   15.200;  158.000;   27.000
306.494;  278.600;  981.000;  761.000
306.631;   31.000;  -11.000;  -55.000
306.769;    0.400; -613.000; -485.000
306.906;   25.100; -284.000; -258.000
307.044;  -93.300; -473.000; -488.000
307.181; -108.500; -410.000; -332.000
307.319;  127.600;  112.000;   87.000
307.456; -329.100;-1191.000;-1153.000
307.594; -195.500; -980.000; -727.000
307.731;   13.200; -371.000; -164.000
307.868;   59.500;  -15.000;   20.000
308.006; -230.300; -961.000; -847.000
308.143;  -65.600; -618.000; -330.000
308.281;  423.900;  -37.000; -254.000
308.418;   49.800; -748.000; -640.000
308.555; -108.300; -400.000; -250.000
308.693; -107.100; -577.000; -573.000
308.830; -194.400; -712.000; -657.000
308.967;   14.000; -215.000;  -95.000
309.105;  -52.400; -507.000; -396.000
309.242;  120.400; -468.000; -367.000
309.379;  844.700; -577.000; -655.000
309.517;  -48.400; -936.000; -948.000
309.654; -163.500; -910.000; -734.000
309.791; -102.100; -662.000; -580.000
309.928; -217.700; -977.000; -914.000
310.065;  400.600;  819.000;  697.000
310.203;   -8.700; -825.000; -850.000
310.340;   48.000; -465.000; -321.000
310.477;  -99.800; -412.000; -516.000
310.614;  -88.300; -383.000; -473.000
310.751; -123.800; -427.000; -518.000
310.889;  -16.300;    1.000;   11.000
311.026; -283.400;-1161.000; -939.000
311.163;  -59.700; -386.000; -380.000
311.300;  -98.200; -512.000; -479.000
311.437; -106.600; -658.000; -619.000
311.574; -295.500;-1226.000; -985.000
311.711;  -92.900; -595.000; -433.000
311.848;  -50.800; -380.000; -388.000
311.985;   49.600;  270.000;   93.000
312.122; -220.100; -932.000; -762.000
312.259; -173.900; -941.000; -994.000
312.396; -140.900; -508.000; -551.000
312.533; -150.500; -812.000; -790.000
312.670; -248.100;-1070.000; -898.000
312.807;  -35.300; -352.000; -367.000
312.944; -138.100; -513.000; -611.000
313.081;    1.400; -150.000; -415.000
313.218; -190.400;-1111.000; -867.000
313.355;   47.400; -531.000; -449.000
313.492;   34.000; -455.000; -292.000
313.629;  300.700;  815.000;  735.000
313.766; -287.400;-1176.000;-1008.000
313.902;    6.600; -186.000;   21.000
314.039;  -90.900; -372.000; -289.000
314.176;   85.400;  286.000;  192.000
314.313; -122.500; -569.000; -473.000
314.450; -112.500; -788.000; -684.000
314.587; -107.800; -468.000; -480.000
314.723;   71.200;  -78.000;  130.000
314.860;   92.000;  318.000;  332.000
314.997;   97.800;  223.000;  142.000
315.134;  -36.600; -385.000; -368.000
315.270;  -47.800; -480.000; -496.000
315.407; -260.700;-1094.000; -967.000
315.544;  -68.100; -657.000; -538.000
315.681; -110.400; -681.000; -565.000
315.817;  107.500; -133.000; -176.000
315.954;   64.200; -613.000; -392.000
316.091; -218.200;-1045.000;-1023.000
316.227;   11.100;  -71.000; -179.000
316.364;   21.600;   23.000;    6.000
316.500;  -39.000; -113.000; -300.000
316.637;  -41.800; -181.000; -302.000
316.774; -142.000; -625.000; -358.000
316.910; -164.300; -598.000; -629.000
317.047;  -74.800; -487.000; -351.000
317.183;  -33.900; -435.000; -566.000
317.320;  -25.500; -367.000; -321.000
317.456; -102.300; -733.000; -805.000
317.593; -136.800; -598.000; -641.000
317.729;   58.600;  168.000;  -67.000
317.866; -402.900;-1434.000;-1285.000
318.002; -126.700; -708.000; -948.000
318.139; -161.000; -883.000; -867.000
318.275; -180.700;-1003.000; -738.000
318.412;  -84.300; -517.000; -336.000
318.548;  -35.800; -751.000; -720.000
318.685; -175.800; -985.000; -888.000
318.821; -157.100; -762.000; -735.000
318.957;   10.500;   34.000;  -23.000
319.094;  107.700;  297.000;  154.000
319.230;  -79.000; -756.000; -742.000
319.367;  273.900; -471.000; -520.000
319.503;  153.800; -538.000; -436.000
319.639; -146.000; -877.000; -793.000
319.775; -137.800; -750.000; -685.000
319.912;  -73.000; -424.000; -519.000
320.048; -155.600;-1184.000;-1184.000
320.184;  194.600;   59.000;   70.000
320.321;  -78.000; -497.000; -467.000
320.457;  156.000;  475.000;  662.000
320.593; -104.100; -375.000; -382.000
320.729; -189.000; -732.000; -734.000
320.866;  -89.800; -577.000; -635.000
321.002; -131.400; -759.000; -809.000
321.138;    2.800; -135.000; -211.000
321.274;  156.500; -148.000; -115.000
321.410;    0.400; -585.000; -353.000
321.546;  -57.300;-1011.000; -911.000
321.683;  165.700;  400.000;  185.000
321.819;   54.500;  -48.000; -117.000
321.955; -191.900; -743.000; -722.000
322.091;  -48.600; -585.000; -540.000
322.227;    1.100; -382.000; -202.000
322.363;   12.700; -320.000; -215.000
322.499;  -77.500; -343.000; -331.000
322.635;  354.500;  636.000;  443.000
322.771;   72.500; -139.000;   12.000
322.907;  222.100;  129.000;  327.000
323.043;   -8.200; -115.000; -206.000
323.179;  -35.900; -394.000; -363.000
323.315;   58.800; -401.000; -371.000
323.451;  209.900; -328.000; -236.000
323.587;  142.700;  -60.000;  -77.000
323.723;   59.500; -682.000; -601.000
323.859;    8.600; -258.000;  -76.000
323.995;  -29.400; -467.000; -409.000
324.131; -227.200; -967.000; -892.000
324.267;  -34.000; -254.000; -276.000
324.402; -251.400; -960.000; -983.000
324.538;   -1.200; -279.000; -104.000
324.674;   82.000;  164.000;   77.000
324.810;  352.400;  226.000;  308.000
324.946;   41.200; -810.000; -658.000
325.082; -125.400; -568.000; -475.000
325.217;   -4.800;  -62.000;   16.000
325.353; -171.700; -764.000; -659.000
325.489; -157.300; -540.000; -506.000
325.625;  -94.700; -579.000; -525.000
325.760;  130.200;  517.000;  376.000
325.896;  -55.900; -515.000; -702.000
326.032;  -73.500; -403.000; -352.000
326.168;  -85.900; -462.000; -369.000
326.303;  -96.300; -352.000; -461.000
326.439;   -0.800; -336.000; -276.000
326.575;   45.400; -190.000;  -29.000
326.710;   15.000; -156.000;  -30.000
326.846;   63.700;  146.000;  103.000
326.982; -148.600; -530.000; -548.000
327.117; -100.900; -481.000; -442.000
327.253; -137.300; -745.000; -742.000
327.388; -316.600;-1137.000;-1153.000
327.524;  -53.300; -811.000; -578.000
327.659;    4.200;  -58.000;  -22.000
327.795;   20.500;   69.000;   45.000
327.931; -161.400; -723.000; -499.000
328.066;  -10.900; -417.000; -276.000
328.202;    7.200;   12.000; -129.000
328.337;  247.000;  957.000;  713.000
328.473;   14.300;  -12.000;  -74.000
328.608;  -25.800; -256.000; -267.000
328.743; -118.900; -799.000; -664.000
328.879;   66.500;  214.000;  114.000
329.014;  -91.600; -102.000; -122.000
329.150; -121.800; -358.000; -483.000
329.285; -119.600; -465.000; -466.000
329.421;  -60.400; -548.000; -246.000
329.556;  -24.700;  -36.000;   85.000
329.691; -151.800; -633.000; -615.000
329.827; -189.300; -626.000; -480.000
329.962;  -44.700;  131.000; -301.000
330.097; -120.700; -673.000; -585.000
330.233;  -54.500; -410.000; -223.000
330.368; -201.800; -839.000; -628.000
330.503;    8.700;    3.000;   98.000
330.638;   38.700;  -93.000; -125.000
330.774;  -89.600; -609.000; -530.000
330.909;  -76.900; -434.000; -244.000
331.044; -145.600; -714.000; -708.000
331.179; -303.100;-1217.000;-1109.000
331.315;   69.700;   77.000;   20.000
331.450;   77.400;  157.000;  285.000
331.585; -158.100; -805.000; -706.000
331.720; -137.500; -510.000; -460.000
331.855;   12.100;  -35.000; -102.000
331.990;  477.400;   62.000;  138.000
332.126;  242.200; -110.000;   71.000
332.261;   -7.500; -379.000; -265.000
332.396;   42.900; -135.000; -242.000
332.531; -164.300;-1074.000;-1031.000
332.666;   81.900; -519.000; -363.000
332.801; -179.100; -726.000; -807.000
332.936;   11.100; -192.000; -122.000
333.071; -239.300; -870.000; -817.000
333.206;   59.100;  307.000;  379.000
333.341;  113.700;  344.000;  418.000
333.476; -137.700; -627.000; -623.000
333.611;  -32.400; -251.000; -173.000
333.746;  -30.100; -381.000; -464.000
333.881; -230.000; -973.000; -935.000
334.016; -219.400; -936.000; -917.000
334.151; -238.700; -746.000; -702.000
334.286;   89.500;  152.000;  186.000
334.421;   -9.800; -125.000; -178.000
334.556; -144.100; -611.000; -567.000
334.690; -150.600; -631.000; -577.000
334.825;  169.400;  381.000;   83.000
334.960;  -65.700; -285.000; -413.000
335.095;   37.600;  135.000;  -91.000
335.230; -157.200; -722.000; -738.000
335.365; -242.400;-1084.000; -990.000
335.499; -225.500;-1108.000;-1037.000
335.634;   60.900;    9.000;  534.000
335.769; -180.200; -755.000; -720.000
335.904;  -83.700; -603.000; -561.000
336.038;  -93.400; -735.000; -657.000
336.173; -218.500;-1206.000;-1194.000
336.308;   43.400; -116.000; -189.000
336.443;   38.700; -544.000; -634.000
336.577; -126.500; -936.000; -787.000
336.712;  148.300;   -4.000;  -12.000
336.847;  -60.500; -724.000; -607.000
336.981;  152.700; -272.000; -208.000
337.116;  582.600;  615.000;  501.000
337.250;  344.200; -434.000; -421.000
337.385;  439.200; -297.000; -208.000
337.520;  149.900; -632.000; -603.000
337.654;   -6.300; -215.000; -126.000
337.789; -219.300; -989.000; -933.000
337.923;   -3.400; -104.000; -205.000
338.058; -138.100; -673.000; -738.000
338.192;  -98.200; -611.000; -488.000
338.327;   12.000;  -18.000; -155.000
338.461; -110.900; -299.000; -469.000
338.596; -152.400; -780.000; -638.000
338.730; -178.800; -767.000; -803.000
338.865;  190.900;  -46.000; -140.000
338.999; -105.100; -846.000; -702.000
339.134;  -50.000; -634.000; -536.000
339.268;   43.900; -741.000; -603.000
339.403;  654.800; -740.000; -775.000
339.537;  170.400; -894.000; -820.000
339.671; -189.200; -829.000; -813.000
339.806;  -76.600; -556.000; -512.000
339.940;   40.100; -261.000; -235.000
340.074; -137.900; -685.000; -510.000
340.209;  -60.800; -351.000; -230.000
340.343; -157.900; -517.000; -573.000
340.477;  360.000;  998.000; 1036.000
340.612;  -68.500;-1033.000; -900.000
340.746;  251.000; -199.000; -243.000
340.880; -135.700; -924.000; -785.000
341.014;   23.100;  -45.000; -154.000
341.149; -210.300; -756.000; -718.000
341.283; -186.700; -839.000; -754.000
341.417; -179.800;-1124.000; -938.000
341.551;  262.500; -768.000; -708.000
341.685;  -43.800; -633.000; -611.000
341.820;  -79.700; -562.000; -493.000
341.954;  -47.900; -218.000; -349.000
342.088; -273.100;-1102.000;-1019.000
342.222;  117.600;  565.000;  618.000
342.356;  -94.400; -395.000; -335.000
342.490; -200.000; -880.000; -841.000
342.624;  -21.000; -339.000; -242.000
342.758;   41.000; -364.000; -312.000
342.892;  -75.200; -710.000; -585.000
343.026;    2.300;  -58.000; -116.000
343.160;  -70.300; -426.000; -376.000
343.294; -115.600; -474.000; -337.000
343.428;   -1.600; -488.000; -448.000
343.562;   26.700; -172.000;  -23.000
343.696;   -1.200; -385.000; -314.000
343.830;   21.900; -362.000; -356.000
343.964;   65.500; -231.000; -168.000
344.098; 1745.500;  199.000;   70.000
344.232; 1469.900; -266.000; -127.000
344.366;  150.100; -567.000; -453.000
344.500;  170.700; -665.000; -744.000
344.634;  109.300; -324.000; -164.000
344.768;  -15.200; -531.000; -341.000
344.902;   77.800;  278.000;  256.000
345.035;  -90.400; -556.000; -496.000
345.169; -258.300; -933.000; -656.000
345.303;  -14.800; -308.000; -482.000
345.437; -149.300; -826.000; -717.000
345.571; -125.500; -675.000; -594.000
345.704; -105.000; -309.000; -532.000
345.838;   23.500; -331.000; -284.000
345.972;  -47.300; -543.000; -495.000
346.106;  362.600; -179.000; -190.000
346.239;  808.200; -312.000; -243.000
346.373;   62.800; -343.000; -302.000
346.507; -260.000; -950.000; -962.000
346.640;  305.300;  -30.000;   13.000
346.774;  -61.700; -650.000; -797.000
346.908;  -11.300; -138.000;  -11.000
347.041; -174.900; -646.000; -593.000
347.175;   55.100;  259.000;   27.000
347.309; -127.600; -698.000; -628.000
347.442; -187.500; -883.000; -732.000
347.576;  601.800;  670.000;  668.000
347.709;  414.600; -123.000;  -52.000
347.843; -150.500; -933.000; -825.000
347.976;  104.000;  235.000;  294.000
348.110; -327.700;-1268.000;-1186.000
348.243; -181.500; -679.000; -772.000
348.377;   45.700;  -26.000;   60.000
348.510;  163.100;  403.000;  540.000
348.644;  -27.000;  -37.000; -159.000
348.777;   54.500;  180.000;  191.000
348.911;  -21.600; -142.000; -112.000
349.044;  397.900;  471.000;  448.000
349.178;  282.700;-1069.000;-1006.000
349.311;  232.600;  141.000;  255.000
349.444;   -2.200; -927.000; -813.000
349.578;   19.200; -347.000; -200.000
349.711; -150.500; -959.000; -862.000
349.845;   27.000; -661.000; -591.000
349.978; -263.200;-1224.000;-1137.000
350.111; -129.100; -546.000; -612.000
350.244; -110.300; -596.000; -700.000
350.378;   34.500; -392.000; -393.000
350.511; -104.500; -393.000; -426.000
350.644; -214.100; -808.000; -806.000
350.778;   74.400;  168.000;  104.000
350.911;   27.500;  134.000;  140.000
351.044; -134.500; -685.000; -615.000
351.177;  -11.100; -321.000; -281.000
351.310;   -0.900;    3.000; -131.000
351.444; -132.500; -888.000; -788.000
351.577;  301.700;  140.000;   90.000
351.710;  242.100;  593.000;  417.000
351.843;  -36.900; -165.000;  -77.000
351.976;   62.800;  149.000;  -79.000
352.109; -141.600; -621.000; -612.000
352.242;   -3.700; -464.000; -419.000
352.376; -105.300; -580.000; -636.000
352.509;  404.000; -437.000; -356.000
352.642;   39.300; -654.000; -604.000
352.775;  161.500; -141.000;  -98.000
352.908; -217.800; -933.000; -904.000
353.041; -174.500; -814.000; -824.000
353.174; -101.300; -551.000; -424.000
353.307; -123.600; -753.000; -764.000
353.440;  189.600;  541.000;  453.000
353.573; -189.700; -957.000;-1008.000
353.706;  -84.900; -384.000; -558.000
353.839;    0.900; -264.000; -220.000
353.971; -166.600; -657.000; -512.000
354.104; -141.000; -896.000; -835.000
354.237;  -59.800; -627.000; -662.000
354.370; -144.700; -846.000; -879.000
354.503; -299.400;-1231.000;-1308.000
354.636;  -17.300; -529.000; -348.000
354.769; -196.200; -937.000; -860.000
354.902;   28.400; -230.000; -139.000
355.034;   12.500; -164.000; -220.000
355.167;   10.100; -262.000; -162.000
355.300; -139.100;-1061.000; -880.000
355.433; 1781.900;  -71.000;  -14.000
355.565; 2757.000; -402.000; -384.000
355.698;  729.100; -356.000; -296.000
355.831;    3.200; -882.000; -801.000
355.964;  207.100; -285.000; -170.000
356.096; -153.800; -856.000; -843.000
356.229;   47.700; -523.000; -530.000
356.362;  616.500; -373.000; -266.000
356.494; 1140.100; -229.000; -162.000
356.627;  937.300;  269.000;  377.000
356.760; 1250.400;  120.000;   53.000
356.892; 1780.700; -286.000; -601.000
357.025; 1300.600;  403.000;  389.000
357.157; 1208.500; -167.000; -179.000
357.290; 1219.800; -856.000; -713.000
357.423;  341.200; -667.000; -556.000
357.555;  260.600; -217.000; -228.000
357.688;  251.700; -483.000; -364.000
357.820;  785.900; -870.000; -877.000
357.953; 6726.800; -563.000; -589.000
358.085; 1504.000; -632.000; -612.000
358.218; 2231.500;-1131.000; -932.000
358.350;  451.100;  -58.000;  312.000
358.483; -234.500;-1300.000;-1187.000
358.615;   11.900;-1182.000;-1078.000
358.747;  -94.700;-1187.000;-1058.000
358.880;   50.200; -810.000; -744.000
359.012;    6.500; -376.000; -202.000
359.145;  -27.000; -480.000; -511.000
359.277;  113.000; -962.000; -913.000
359.409; 5617.200;  536.000;  231.000
359.542; 1405.800; -738.000; -688.000
359.674;  141.800;   46.000;   13.000
359.806;  -96.200; -565.000; -438.000
359.939;  -25.600; -617.000; -516.000
360.071;  -14.900; -583.000; -579.000
360.203;   -9.800; -411.000; -364.000
360.335;  123.400;  164.000;  -16.000
360.468;  382.000; -249.000; -307.000
360.600; 4433.100; -547.000; -454.000
360.732; 5037.400; -546.000; -423.000
360.864;  683.000;-1216.000;-1044.000
360.996;  603.000; -516.000; -554.000
361.129;  121.000; -389.000; -598.000
361.261;   91.200;  110.000; -113.000
361.393;    9.100; -252.000; -214.000
361.525;  107.900;   94.000;  244.000
361.657;  -10.200; -821.000; -703.000
361.789;   62.200; -139.000; -155.000
361.921;  500.600; -642.000; -593.000
362.053;  604.200;  524.000;  541.000
362.185;  127.400;  288.000;   72.000
362.318; -129.800; -709.000; -705.000
362.450;  275.000;  294.000;  444.000
362.582;  233.300; -913.000; -870.000
362.714;  -31.600; -353.000; -332.000
362.846; -129.100; -606.000; -490.000
362.978; -242.100; -941.000; -811.000
363.109;  159.900; -161.000; -260.000
363.241;  894.800; -739.000; -749.000
363.373;  839.400; -649.000; -564.000
363.505; 1219.700; -186.000;  -91.000
363.637;  277.900; -787.000; -601.000
363.769; -203.000;-1067.000;-1080.000
363.901; -104.200; -596.000; -654.000
364.033; -176.600;-1103.000;-1062.000
364.165;   61.700; -283.000; -283.000
364.296;  167.700; -316.000; -177.000
364.428;  130.000;-1344.000;-1220.000
364.560; -122.200; -679.000; -661.000
364.692;  -76.000; -738.000; -835.000
364.824;  550.300; -588.000; -456.000
364.955;  851.500; -402.000; -564.000
365.087; 1645.600;-1097.000; -852.000
365.219;   60.900; -686.000; -816.000
365.351;  -67.800; -526.000; -572.000
365.482;  201.000;  300.000;  240.000
365.614;  -30.600; -402.000; -314.000
365.746; -148.600; -729.000; -752.000
365.877; -175.200; -706.000; -672.000
366.009;  540.800;  -35.000;  -62.000
366.141; -159.300;-1249.000;-1134.000
366.272; -183.200; -803.000; -719.000
366.404; -171.600;-1005.000; -874.000
366.535;   30.800; -139.000;  -12.000
366.667; -173.000; -644.000; -649.000
366.799;  140.800;  353.000;  203.000
366.930; -193.100; -862.000; -996.000
367.062;  281.600; -639.000; -613.000
367.193;  307.300; -872.000; -842.000
367.325; -103.700; -580.000; -684.000
367.456;  152.900; -246.000;   31.000
367.588;  355.400; -371.000; -318.000
367.719;   54.700;  -44.000;  -45.000
367.851;   10.200; -222.000; -241.000
367.982;  -84.800; -875.000; -732.000
368.113;  225.100; -475.000; -358.000
368.245; -183.900; -960.000; -841.000
368.376;   -1.700; -254.000; -302.000
368.508;  -16.300; -188.000; -263.000
368.639; -239.900;-1166.000;-1034.000
368.770;   -3.400; -670.000; -589.000
368.902;  -84.700; -836.000; -926.000
369.033; -153.300; -906.000; -855.000
369.164;  -52.100; -720.000; -653.000
369.296; -197.800; -452.000; -601.000
369.427;   52.800; -209.000; -144.000
369.558;  -43.600; -593.000; -377.000
369.689; -152.500; -721.000; -569.000
369.821; -232.500; -951.000; -845.000
369.952;   -4.500;   42.000; -108.000
370.083;  -60.500; -229.000; -108.000
370.214; -140.500; -735.000; -650.000
370.345;   60.300;   65.000;   81.000
370.477; -115.600; -810.000; -790.000
370.608;  472.800; -328.000; -264.000
370.739; -100.400;-1233.000;-1292.000
370.870;  -58.800;-1102.000; -923.000
371.001;  216.100; -378.000; -467.000
371.132; -103.300; -754.000; -735.000
371.263;    6.400;  -42.000; -148.000
371.394; -229.800; -841.000; -748.000
371.525;   99.900;  345.000;  225.000
371.657; -160.100; -808.000; -670.000
371.788;  153.300;  103.000;  199.000
371.919;  367.400; -384.000; -304.000
372.050; 6787.600;  -91.000; -156.000
372.181; 1959.300; -188.000; -294.000
372.311;  756.000;   42.000; -127.000
372.442;  121.300; -457.000; -451.000
372.573;   40.600; -444.000; -340.000
372.704; -209.300;-1008.000; -980.000
372.835;  218.200; -228.000; -289.000
372.966;  -82.800; -646.000; -554.000
373.097; -100.100; -575.000; -711.000
373.228;  -37.200; -717.000; -542.000
373.359;  226.400; -824.000; -536.000
373.490; 1839.900; -881.000; -727.000
373.620; 2177.800;-1001.000; -803.000
373.751; 3410.400; -332.000; -396.000
373.882; 1449.000; -663.000; -733.000
374.013;  146.100; -449.000; -262.000
374.143;  -64.300; -581.000; -659.000
374.274; -199.100; -987.000; -908.000
374.405;  387.100; -388.000; -276.000
374.536;  824.100; -526.000; -387.000
374.666; 2204.600; -759.000; -807.000
374.797;  442.100; -817.000; -868.000
374.928; 1641.400; -710.000; -560.000
375.058; 1727.200; -535.000; -500.000
375.189;  184.500;  -59.000;  -93.000
375.320; -189.900; -928.000;-1034.000
375.450;  -45.000; -625.000; -616.000
375.581;  -66.100; -526.000; -436.000
375.712;   -9.800; -574.000; -250.000
375.842;  635.200; -438.000; -415.000
375.973;  478.900; -554.000; -513.000
376.103;  -37.600; -665.000; -648.000
376.234; -119.500; -531.000; -552.000
376.364;   -9.600; -944.000; -867.000
376.495;  716.500;  925.000;  529.000
376.625;   11.800; -472.000; -485.000
376.756;  183.000; -709.000; -678.000
376.886; -135.100;-1178.000;-1026.000
377.017;  113.200;-1048.000;-1061.000
377.147;  632.500; -786.000; -782.000
377.278;  205.300;  174.000;  228.000
377.408; -205.200; -801.000; -815.000
377.538; -159.200; -707.000; -693.000
377.669; -125.200; -537.000; -613.000
377.799; -132.600; -645.000; -635.000
377.929;  -82.800; -610.000; -428.000
378.060; -237.300; -781.000; -847.000
378.190;  -65.700; -726.000; -531.000
378.320;  -76.300; -401.000; -406.000
378.451;   27.000; -131.000;  -22.000
378.581;   47.800;  -67.000; -110.000
378.711;  337.200; 1035.000;  866.000
378.841;   -7.100; -533.000; -675.000
378.972; -126.000; -871.000; -751.000
379.102;   33.200; -652.000; -579.000
379.232;   21.100; -126.000;  -73.000
379.362; -200.000;-1001.000; -885.000
379.492;   65.700; -373.000; -424.000
379.623;  260.500;    0.000;  111.000
379.753; -171.600;-1107.000; -974.000
379.883;  432.300;   59.000;  156.000
380.013;   71.700;-1081.000;-1017.000
380.143; -169.700;-1097.000;-1056.000
380.273; -166.800; -985.000; -861.000
380.403;   66.200; -344.000; -257.000
380.533;  -14.700; -651.000; -664.000
380.663;  199.500;  173.000;  128.000
380.793; -143.600;-1027.000;-1074.000
380.923;   48.800; -103.000;  -34.000
381.053; -140.700; -613.000; -623.000
381.183;   -0.200; -106.000; -248.000
381.313;   99.300; -656.000; -470.000
381.443;   96.000; -692.000; -473.000
381.573;  494.900; -402.000; -409.000
381.703;  579.600;-1249.000;-1095.000
381.833; -237.800;-1454.000;-1336.000
381.963;  307.900; -134.000;  -87.000
382.093; 2670.800; -925.000; -909.000
382.223;  753.700; -713.000; -602.000
382.353;  -15.100; -801.000; -608.000
382.482;  757.100;-1091.000; -964.000
382.612; 1511.400; -872.000; -644.000
382.742;  798.900; -695.000; -622.000
382.872;  557.800; -565.000; -551.000
383.002;  168.800;  347.000; -132.000
383.131;   36.100; -226.000; -160.000
383.261;  -41.000; -706.000; -768.000
383.391;  606.400; -552.000; -377.000
383.521; 5933.400;  451.000;  263.000
383.650; 1295.800; -947.000; -904.000
383.780;   35.800; -783.000; -656.000
383.910;  320.000;  880.000;  802.000
384.039;   86.900; -794.000; -656.000
384.169;  397.500;-1205.000;-1017.000
384.299;   27.800; -650.000; -662.000
384.428; -124.700; -764.000; -680.000
384.558;   -5.200; -308.000; -275.000
384.687;  -43.000; -414.000; -334.000
384.817;  108.500;   75.000;   -2.000
384.947;   61.400; -234.000; -141.000
385.076;  624.600;  982.000;  912.000
385.206;  272.600;  369.000;  480.000
385.335;  -12.200; -549.000; -417.000
385.465; -134.900; -655.000; -663.000
385.594;  304.700;  -53.000;  -44.000
385.724;  830.500; -868.000; -838.000
385.853;  263.300; -296.000; -270.000
385.982; 2666.400; -743.000; -787.000
386.112; 3985.900;-1052.000; -871.000
386.241;  273.000; -307.000; -312.000
386.371;   79.200; -174.000;  -87.000
386.500;   52.000; -825.000; -789.000
386.629;  106.300; -874.000; -817.000
386.759;  159.000;  -43.000;   68.000
386.888;  105.000; -170.000; -250.000
387.017;  -98.500; -648.000; -620.000
387.147;  -89.700; -771.000; -798.000
387.276;   56.600; -410.000; -397.000
387.405;   77.600; -398.000; -342.000
387.535;  -42.200; -452.000; -361.000
387.664;  -59.100; -692.000; -620.000
387.793;  210.000; -198.000; -113.000
387.922; 1097.300;  255.000;  200.000
388.052;   99.900; -576.000; -423.000
388.181;  115.900; -342.000; -472.000
388.310;   85.500; -889.000; -710.000
388.439;  -39.600; -749.000; -742.000
388.568;  443.500;  365.000;  244.000
388.697; 1999.300; -756.000; -653.000
388.826;  371.700; -768.000; -666.000
388.956;  178.100; -285.000; -307.000
389.085;   11.500; -347.000; -287.000
389.214; -159.900; -842.000; -872.000
389.343;  -83.300; -645.000; -413.000
389.472;  825.400;  126.000;  149.000
389.601;  939.800;   91.000;    0.000
389.730;   59.700; -568.000; -687.000
389.859;  178.400;  226.000;   46.000
389.988;  415.400; -423.000; -408.000
390.117;  307.600; -168.000; -146.000
390.246;   70.000; -331.000; -320.000
390.375;  231.100; -673.000; -626.000
390.504; -105.800; -703.000; -621.000
390.633; -141.800; -672.000; -726.000
390.761;  -92.400; -732.000; -645.000
390.890;  108.600;   -4.000; -130.000
391.019;   -8.800; -421.000; -441.000
391.148; -210.800; -826.000; -855.000
391.277;  -67.400; -576.000; -493.000
391.406; -125.000; -821.000; -805.000
391.534;   99.900;  574.000; -301.000
391.663; -107.300; -583.000; -645.000
391.792; -121.500; -673.000; -701.000
391.921;  247.200;   -3.000;   15.000
392.050;  368.700; -287.000; -228.000
392.178;  -63.000;-1206.000;-1061.000
392.307;  291.400; -758.000; -712.000
392.436;  170.500; -427.000; -641.000
392.564;   83.300;  166.000;   -6.000
392.693; -142.200; -860.000; -682.000
392.822;  463.300; -529.000; -534.000
392.950;  206.900; -880.000; -714.000
393.079;  681.700; -188.000; -328.000
393.208;   80.500; -488.000; -511.000
393.336;   22.900; -170.000; -145.000
393.465;  -31.000; -317.000; -199.000
393.593;   59.800;   62.000;   79.000
393.722; -250.400;-1121.000; -916.000
393.850;    8.300; -188.000;  -61.000
393.979; -235.000; -926.000; -805.000
394.107;  -90.100; -517.000; -537.000
394.236;  -28.200; -570.000; -507.000
394.364;  574.600;  383.000;  206.000
394.493;  865.100; -911.000; -767.000
394.621;   22.800; -955.000; -916.000
394.750; 1355.700; -873.000; -923.000
394.878; 5696.300; -247.000; -149.000
395.007; 7252.700; -721.000; -807.000
395.135;  563.900; -790.000; -721.000
395.263; -161.800;-1038.000;-1040.000
395.392;   46.200;  -25.000; -107.000
395.520; -144.000; -818.000; -679.000
395.648; -130.500; -865.000; -915.000
395.777;   21.200; -366.000; -405.000
395.905;  -41.800; -449.000; -564.000
396.033;  100.800;  217.000;  172.000
396.162; 1525.700; -399.000; -453.000
396.290; 1318.500;  -17.000;   -2.000
396.418;  270.000; -555.000; -514.000
396.546; -133.700; -571.000; -466.000
396.674; -161.000; -850.000; -878.000
396.803;   41.800;  -72.000;  -23.000
396.931;  243.600; -179.000; -199.000
397.059;  102.900;-1026.000; -989.000
397.187; -182.100;-1026.000; -975.000
397.315; -232.600; -884.000; -649.000
397.443; -129.500; -592.000; -443.000
397.572; -132.500; -578.000; -424.000
397.700;   23.500; -607.000; -614.000
397.828;  122.700;  120.000;  -90.000
397.956;  -38.300; -508.000; -478.000
398.084;  -93.500; -767.000; -626.000
398.212;  116.400;  137.000;  124.000
398.340;   83.500;  -56.000;  159.000
398.468;   94.800; -390.000; -169.000
398.596; -213.400; -993.000; -953.000
398.724; -177.700; -762.000; -767.000
398.852; -238.300;-1024.000; -976.000
398.980;  -61.200; -560.000; -560.000
399.108;  -46.100; -982.000; -735.000
399.236;  130.100;   13.000;    8.000
399.363;   87.800;  222.000;  196.000
399.491;  -84.000; -404.000; -398.000
399.619; -195.600; -829.000; -800.000
399.747; -148.400; -859.000; -771.000
399.875;  239.100;  220.000;  234.000
400.003;  -46.000; -359.000; -284.000
400.130; -124.000; -421.000; -341.000
400.258;    4.900;  -83.000;   38.000
400.386;  -88.200; -352.000; -168.000
400.514;  -47.800; -526.000; -587.000
400.641; -144.400; -928.000; -802.000
400.769; -234.500; -979.000; -888.000
400.897; -159.800; -838.000; -793.000
401.025;   47.800; -166.000; -152.000
401.152;   52.600;  220.000;   38.000
401.280; -100.600; -430.000; -429.000
401.408; -161.600; -712.000; -576.000
401.535; -136.300; -735.000; -758.000
401.663; -335.900;-1134.000;-1054.000
401.790; -111.100; -514.000; -525.000
401.918;  113.400;  436.000;  405.000
402.046;   26.500;  134.000;  122.000
402.173;  -15.400;  -18.000;    7.000
402.301;  -85.400; -519.000; -397.000
402.428;  138.300;  528.000;  383.000
402.556; -220.100;-1188.000; -913.000
402.683;   15.700;  -20.000;   -1.000
402.811;   29.100;  -37.000; -206.000
402.938;   51.800;   20.000;   27.000
403.066;  425.500; -574.000; -558.000
403.193;  625.400;  299.000;  239.000
403.321;  505.700; -396.000; -574.000
403.448;  612.500;   83.000;   27.000
403.575;  311.800;  -90.000;  -46.000
403.703; -135.800; -732.000; -557.000
403.830;  -68.300; -531.000; -496.000
403.957; -215.900;-1117.000;-1023.000
404.085;   87.700;  -61.000; -172.000
404.212;  263.000;  -50.000;   63.000
404.339;  561.200; -566.000; -306.000
404.467;11092.500; -612.000; -524.000
404.594; 6992.000; -287.000; -227.000
404.721; 1617.500; -869.000; -764.000
404.848;  167.100; -113.000; -202.000
404.976; -174.100; -856.000; -783.000
405.103;   22.100;  -14.000;  -82.000
405.230;   88.800;  190.000;  226.000
405.357;  137.800;  117.000;   44.000
405.484;  561.700;  -49.000;    5.000
405.612;  119.100; -548.000; -563.000
405.739;  -59.700; -488.000; -243.000
405.866;  230.100;  669.000;  385.000
405.993;  -23.900; -398.000; -102.000
406.120; -220.600; -801.000; -887.000
406.247;  -47.600; -323.000; -342.000
406.374;  962.100;  540.000;  629.000
406.501;  214.500; -632.000; -702.000
406.628;  -82.500; -621.000; -589.000
406.755; -169.300; -803.000; -620.000
406.882;  -47.400; -228.000; -277.000
407.009; -172.500; -719.000; -628.000
407.136;  170.600; -480.000; -401.000
407.263;  297.200; -939.000; -829.000
407.390; -112.700; -692.000; -614.000
407.517; -273.700;-1139.000;-1187.000
407.644;  -56.700; -332.000; -256.000
407.771;  -91.500; -249.000; -287.000
407.898;   55.500;  168.000;  328.000
408.025;  -77.100; -421.000; -313.000
408.151;   31.600;   82.000;  153.000
408.278;  -89.200; -267.000; -216.000
408.405; -177.200; -931.000; -899.000
408.532;  -81.900; -549.000; -542.000
408.659; -189.100; -677.000; -648.000
408.785; -382.200;-1298.000;-1170.000
408.912;  -91.800; -412.000; -296.000
409.039; -172.700; -610.000; -686.000
409.166; -175.900; -591.000; -555.000
409.292; -190.900; -571.000; -534.000
409.419; -189.600; -665.000; -649.000
409.546; -114.800; -431.000; -192.000
409.672; -134.200; -713.000; -545.000
409.799;   -7.000;  -36.000;   34.000
409.926;  -22.000; -180.000; -179.000
410.052; -305.400;-1127.000;-1091.000
410.179;  -55.500; -368.000; -392.000
410.305; -116.700; -375.000; -493.000
410.432;   -9.200; -220.000; -333.000
410.558; -119.000; -305.000; -380.000
410.685; -124.300; -688.000; -431.000
410.812; -118.800; -409.000; -588.000
410.938; -219.000; -964.000; -808.000
411.065; -133.100; -671.000; -645.000
411.191;   12.000; -189.000; -174.000
411.317; -172.300; -823.000; -742.000
411.444;  -58.400; -317.000; -246.000
411.570;  -74.000; -339.000; -294.000
411.697; -203.600; -758.000; -752.000
411.823; -289.200; -989.000; -999.000
411.949;  -37.600;  -56.000;   17.000
412.076; -159.300; -539.000; -519.000
412.202; -207.600; -758.000; -757.000
412.329; -217.700; -798.000; -752.000
412.455; -195.400; -821.000; -657.000
412.581;   16.800;  -15.000;  172.000
412.707;  -83.300; -540.000; -457.000
412.834;   81.400;  156.000;  219.000
412.960; -120.200; -785.000; -784.000
413.086; -184.900; -743.000; -701.000
413.212;  379.100;  604.000;  578.000
413.339;  -84.100; -685.000; -701.000
413.465;   61.500; -364.000; -310.000
413.591; -111.600; -757.000; -474.000
413.717;  -65.300; -358.000; -366.000
413.843; -216.000; -839.000; -861.000
413.969;  -48.100;  -47.000; -292.000
414.096; -142.700; -679.000; -679.000
414.222;   49.600;  -33.000;   85.000
414.348;   12.400; -652.000; -385.000
414.474;  241.600;   38.000;  -52.000
414.600;    0.800; -126.000; -144.000
414.726;    8.700;  -96.000;  -55.000
414.852;  -80.300; -365.000; -342.000
414.978;  141.700;  104.000;  -18.000
415.104;  142.500;   38.000;   80.000
415.230;   97.000; -329.000; -330.000
415.356;   79.600; -409.000; -514.000
415.482;  442.100;   13.000;  -35.000
415.608;  535.800; -247.000; -323.000
415.734; 1970.100;   67.000;   38.000
415.860;39497.600; -875.000; -767.000
415.986;25811.200; -685.000; -607.000
416.111; 2199.100; -798.000; -652.000
416.237;  508.700; -424.000; -571.000
416.363; 2334.900; -765.000; -733.000
416.489; 7717.300; -324.000; -251.000
416.615;  767.100; -707.000; -742.000
416.741;    3.600; -677.000; -784.000
416.866; -134.000; -673.000; -736.000
416.992; -192.500; -801.000; -818.000
417.118;   16.500;  -41.000;  -80.000
417.244;  -86.000; -798.000; -531.000
417.369;  -86.800; -801.000; -612.000
417.495;   53.800; -325.000; -254.000
417.621; -129.100;-1015.000; -803.000
417.746;   45.400; -579.000; -572.000
417.872;  121.600; -254.000; -144.000
417.998;  145.600; -515.000; -530.000
418.123; 2200.500;-1073.000; -845.000
418.249;10074.900; -512.000; -601.000
418.374; 1313.400; -916.000; -824.000
418.500;  249.600; -383.000; -482.000
418.626;  249.900;   70.000;  -59.000
418.751;  293.100; -549.000; -448.000
418.877;  393.200; -637.000; -643.000
419.002; 3769.000; -688.000; -560.000
419.128;23818.700; -930.000; -721.000
419.253; 5185.500; -967.000; -837.000
419.379;  727.000; -391.000; -338.000
419.504;  809.800;  325.000;  415.000
419.629; 1006.700; -393.000; -212.000
419.755; 7279.300; -317.000; -254.000
419.880;38544.500;  -98.000;   67.000
420.006;21844.900; -280.000; -221.000
420.131;53295.700; -662.000; -775.000
420.256; 6948.000; -315.000; -316.000
420.382;  984.900; -665.000; -687.000
420.507;  132.900; -649.000; -778.000
420.632;  304.200; -337.000; -339.000
420.758;  535.200; -251.000; -425.000
420.883; -116.100; -876.000; -672.000
421.008; -140.800; -775.000; -619.000
421.133; -100.000; -509.000; -467.000
421.259;   -2.800; -325.000; -259.000
421.384; -189.800; -834.000; -693.000
421.509;  -43.800;-1052.000; -862.000
421.634; 2349.400; -936.000; -820.000
421.759;  851.000; -359.000; -327.000
421.885;  -65.200; -717.000; -656.000
422.010; -114.600; -673.000; -542.000
422.135; -232.800; -695.000; -727.000
422.260;  117.800;  340.000;  280.000
422.385;  -18.400;   12.000;  -98.000
422.510;   77.400;  151.000;  -26.000
422.635;   76.500;  -87.000;  -43.000
422.760;  272.700; -766.000; -791.000
422.885;  152.400;  -57.000;  -80.000
423.010;   -9.000; -112.000; -169.000
423.135; -118.600; -481.000; -561.000
423.260;   47.500; -150.000; -245.000
423.385;  192.800;  476.000;  222.000
423.510;  138.400;   71.000;  -22.000
423.635;  207.400;  133.000;   45.000
423.760;  197.500;  383.000;  328.000
423.885;  140.600;  336.000;  391.000
424.010;   69.800;  -68.000;  -13.000
424.135;   16.000;    5.000;  -33.000
424.259; -128.900; -654.000; -457.000
424.384;  -48.800; -279.000; -272.000
424.509;   22.500; -260.000; -186.000
424.634; -142.000; -761.000; -623.000
424.759;  -11.500; -688.000; -544.000
424.883;  -10.200; -506.000; -527.000
425.008;  363.300; -502.000; -410.000
425.133; 3973.800; -679.000; -653.000
425.258; 1620.100; -517.000; -381.000
425.382; 2096.300; -867.000; -774.000
425.507; 4744.400; -487.000; -543.000
425.632;  732.600; -802.000; -663.000
425.756;  849.800; -256.000; -146.000
425.881;12906.100; -831.000; -857.000
426.006;31293.800; -604.000; -355.000
426.130; 4566.400; -696.000; -508.000
426.255;  615.100; -611.000; -491.000
426.379;  329.100; -189.000; -577.000
426.504;  827.400;  660.000;  544.000
426.629; 8041.600; -519.000; -466.000
426.753; 4941.100;   64.000;  -46.000
426.878;  612.700; -252.000; -288.000
427.002;  394.800; -651.000; -668.000
427.127; 3321.200;  -35.000; -158.000
427.251;21725.600;  372.000;  401.000
427.375; 5439.300; -191.000; -173.000
427.500; 4322.000; -616.000; -610.000
427.624; 1368.300; -234.000; -400.000
427.749;  182.800; -216.000; -225.000
427.873;  -40.300; -499.000; -412.000
427.997;   -2.400; -222.000; -230.000
428.122;  223.000;  795.000;  703.000
428.246;  190.700;  433.000;  434.000
428.371; -212.500; -869.000; -773.000
428.495; -153.600; -624.000; -646.000
428.619;   18.500; -186.000; -117.000
428.743;  102.300;   65.000;  132.000
428.868;   77.400; -732.000; -643.000
428.992; 2682.100; -219.000; -326.000
429.116; 1038.700; -329.000; -357.000
429.240;  585.500;  419.000;  426.000
429.365;    5.900; -454.000; -574.000
429.489;  -32.900; -638.000; -647.000
429.613;  108.500; -236.000; -177.000
429.737;  106.700; -563.000; -432.000
429.861;  602.900; -247.000; -133.000
429.985;11105.600; -425.000; -305.000
430.109;10972.100; -770.000; -908.000
430.234; 1229.100;   76.000;  -50.000
430.358;  186.500; -250.000; -160.000
430.482;  -63.000; -672.000; -564.000
430.606;  -62.700; -655.000; -375.000
430.730;  141.800; -437.000; -388.000
430.854;  283.200; -909.000; -835.000
430.978;  -68.300; -795.000; -764.000
431.102; -106.300; -499.000; -422.000
431.226; -148.500; -874.000; -815.000
431.350;  155.200;  345.000;  422.000
431.474;  -99.500; -661.000; -373.000
431.597; -256.600;-1060.000; -848.000
431.721;  -75.900; -276.000; -267.000
431.845; -180.600; -704.000; -472.000
431.969; -110.200; -304.000; -349.000
432.093; -134.400; -395.000; -317.000
432.217;   34.900;   32.000;   82.000
432.341; -146.000; -523.000; -518.000
432.464;   79.300;   96.000;   40.000
432.588;  458.400; -401.000; -329.000
432.712;  211.400;  -52.000;  -52.000
432.836;  153.400;  213.000;  263.000
432.959;   14.300; -372.000; -311.000
433.083;  210.500;   11.000;    2.000
433.207;  810.400;  285.000;  930.000
433.330;10115.000; -391.000; -200.000
433.454;11325.000; -654.000; -638.000
433.578; 6733.800;  583.000;  278.000
433.701; 1102.700; -623.000; -675.000
433.825;  323.300; -292.000; -299.000
433.949;  417.200;   28.000;  -72.000
434.072;  102.700; -410.000; -323.000
434.196;   10.500; -309.000; -117.000
434.319; 7860.100;25482.000;25124.000
434.443; 1532.800; -656.000; -603.000
434.566; 5064.900;  281.000;   62.000
434.690;  796.900; -637.000; -383.000
434.813;  137.100; -251.000; -173.000
434.937; -131.200; -569.000; -696.000
435.060;  -38.400; -423.000; -332.000
435.184;  680.600; -492.000; -217.000
435.307;  358.900;  159.000;  102.000
435.431;   18.100;  -40.000;   24.000
435.554; -109.700; -399.000; -240.000
435.677; -103.400; -350.000; -258.000
435.801;  -11.500;  -25.000;   49.000
435.924;   37.300;    1.000;  -67.000
436.048; -201.100;-1019.000; -732.000
436.171;  -89.600; -240.000;  -66.000
436.294;   24.600; -248.000; -229.000
436.417;  246.800; -963.000; -849.000
436.541; -138.700; -814.000; -840.000
436.664;  -48.900; -242.000; -316.000
436.787;   29.200;   13.000;  113.000
436.910; -181.300; -792.000; -422.000
437.034;   49.900;  142.000;  143.000
437.157;  187.400;  -11.000;    0.000
437.280;  -56.000; -392.000; -292.000
437.403;  -99.300; -982.000; -869.000
437.526; 1353.900; -903.000; -865.000
437.649; 4271.000; -505.000; -332.000
437.772;  533.900; -692.000; -540.000
437.896;  308.600;  700.000;  544.000
438.019; -136.300; -758.000; -503.000
438.142; -120.400; -596.000; -506.000
438.265;   -7.900; -639.000; -670.000
438.388; 1169.400; -520.000; -410.000
438.511;  220.800; -597.000; -394.000
438.634;  -46.300; -247.000; -125.000
438.757; -194.700; -693.000; -619.000
438.880;   29.800;  -34.000;  -57.000
439.003;  -92.900; -417.000; -437.000
439.126;  -70.000; -287.000; -167.000
439.248;  -31.300;  -98.000; -139.000
439.371;  -31.000;    9.000;  -53.000
439.494;   96.600;  510.000;  439.000
439.617;  -38.100;   65.000;  -88.000
439.740; -323.400; -968.000; -816.000
439.863; -225.300; -755.000; -595.000
439.986; -186.900; -476.000; -431.000
440.108;  -48.500; -161.000; -112.000
440.231; -258.100; -950.000; -836.000
440.354;   -8.500;  -64.000; -150.000
440.477;  120.200; -566.000; -542.000
440.599;   62.200; -200.000; -225.000
440.722; -174.300; -709.000; -586.000
440.845;  201.200;  751.000;  928.000
440.968; -168.900; -415.000; -311.000
441.090;  -66.200; -199.000;  -33.000
441.213; -318.800;-1021.000; -825.000
441.336;  -49.300; -159.000;   -5.000
441.458;  -91.300; -549.000; -396.000
441.581; -151.300; -628.000; -629.000
441.703; -101.200; -152.000;   13.000
441.826; -169.400; -557.000; -400.000
441.948;  -51.300;   56.000;   51.000
442.071;  107.000;  555.000;  424.000
442.193; -186.200; -531.000; -485.000
442.316;  108.500;  152.000;   97.000
442.438;  143.400; -233.000;  -10.000
442.561;  203.600;  272.000;  262.000
442.683; 1144.800; -809.000; -522.000
442.806; 2205.200;   -8.000;   74.000
442.928;   70.400; -859.000; -604.000
443.051;  -80.500; -577.000; -373.000
443.173; -112.900; -341.000; -339.000
443.295; -145.400; -263.000; -371.000
443.418;  -89.400; -321.000;  -29.000
443.540;   76.100; -106.000;   -4.000
443.662; -207.700; -563.000; -465.000
443.785;   39.400;  335.000;  199.000
443.907; -167.400; -362.000; -208.000
444.029; -190.100; -767.000; -494.000
444.152; -243.700; -644.000; -554.000
444.274;  -46.800;  -18.000;  -24.000
444.396; -207.700; -461.000; -221.000
444.518; -220.000; -691.000; -454.000
444.640; -146.200; -268.000; -111.000
444.763;   80.100;  388.000;  249.000
444.885; -185.600; -432.000; -392.000
445.007;   16.700;   35.000;   86.000
445.129; -173.200; -610.000; -515.000
445.251; -158.300; -372.000; -439.000
445.373; -230.300; -537.000; -386.000
445.495;   70.100;  242.000;  350.000
445.617;  160.000;  853.000;  753.000
445.739;  -72.800; -215.000;  -97.000
445.861;  -22.700; -245.000; -112.000
445.984;   -1.100; -267.000; -101.000
446.105;  481.900; -418.000; -251.000
446.227; 1163.500; -176.000;  -19.000
446.349;   17.700; -358.000; -249.000
446.471; -154.300; -615.000; -448.000
446.593;  -85.300; -316.000;   19.000
446.715;   36.100;  -67.000;   41.000
446.837;  180.700;  697.000;  832.000
446.959; -118.500; -457.000; -478.000
447.081; -218.800; -628.000; -518.000
447.203;  175.600;  862.000;  834.000
447.325; -122.600; -270.000;   42.000
447.446;   31.100;  286.000;  530.000
447.568; -254.200; -921.000; -803.000
447.690; -109.200; -236.000; -245.000
447.812; -210.500; -798.000; -519.000
447.933;  -17.000;  155.000;  127.000
448.055;  -51.800; -306.000; -261.000
448.177;  362.200;   31.000;   79.000
448.299;  207.300; -935.000; -727.000
448.420;  107.600;  -25.000;  159.000
448.542;  -42.200;   -3.000;   33.000
448.664;   41.000;  109.000;  322.000
448.785;    5.500;  265.000;   83.000
448.907;  -99.100; -614.000; -353.000
449.028;  -13.000; -771.000; -471.000
449.150;  162.300;  492.000;  589.000
449.272; -311.000;-1044.000; -913.000
449.393;  160.300;  612.000;  694.000
449.515; -231.000; -634.000; -581.000
449.636;  -51.500; -264.000; -155.000
449.758;  230.300;  763.000;  622.000
449.879;  -91.200; -498.000; -396.000
450.001;  -95.700; -149.000;  -49.000
450.122;   11.200;  -95.000;  162.000
450.244;   41.200;   37.000;  364.000
450.365; -140.500; -495.000; -301.000
450.486;   16.600;   80.000;  268.000
450.608;  111.500;  393.000;  326.000
450.729;  206.200;  578.000;  645.000
450.850;   63.600; -574.000; -466.000
450.972; 1567.100; -552.000; -389.000
451.093; 9444.300;  190.000;  588.000
451.214; 3591.000; -516.000; -337.000
451.336;  752.800;  773.000;  579.000
451.457;  165.100;  264.000;  393.000
451.578;  -36.400; -118.000;  -74.000
451.699; -181.400; -546.000; -540.000
451.821;  -38.500; -284.000;  -50.000
451.942;   37.100;  278.000;  285.000
452.063;  140.600;  228.000;  419.000
452.184; 1183.300;  -54.000;  -49.000
452.305; 2100.400;  103.000;  170.000
452.427;  262.800; -549.000; -301.000
452.548;   26.300;   23.000;   79.000
452.669;  -28.400; -257.000;  -89.000
452.790;  -11.000;    3.000;  -18.000
452.911;   59.000;  195.000;  259.000
453.032;  -79.500; -289.000;  -60.000
453.153;  -25.200;  -29.000;   81.000
453.274;  210.800;  737.000;  868.000
453.395;  -58.900;  -51.000;  175.000
453.516;  335.100; 1317.000; 1388.000
453.637;  -79.600; -205.000; -150.000
453.758;  -17.400;   15.000;   69.000
453.879; -195.200; -462.000; -250.000
454.000;  234.800; 1086.000;  948.000
454.121; -177.200; -554.000; -326.000
454.242; -187.500; -599.000; -383.000
454.362;  -40.400;  -99.000;  114.000
454.483;   15.300; -309.000; -229.000
454.604;  179.500;  512.000;  580.000
454.725; -196.700; -627.000; -555.000
454.846; -199.800; -474.000; -406.000
454.967;   36.600;  230.000;  539.000
455.087;    7.800;  179.000;  153.000
455.208;  113.500;  554.000;  856.000
455.329;  -60.400;  -22.000;   82.000
455.450;  132.700;  473.000;  633.000
455.570; -109.900; -234.000; -211.000
455.691;   -6.800;  201.000;  407.000
455.812; -189.400; -270.000;  -92.000
455.932;  -51.900;  107.000;  -97.000
456.053; -144.200;   36.000;   24.000
456.173; -144.600; -433.000; -355.000
456.294; -231.200; -476.000; -303.000
456.415;  -74.400;  -73.000;   70.000
456.535;  -38.300;  297.000;  273.000
456.656;  -31.100;  132.000;  240.000
456.776;  -90.400;    3.000;  298.000
456.897;   44.400;  308.000;  513.000
457.017; -105.400; -153.000;   -3.000
457.138; -122.400; -402.000; -249.000
457.258;   35.800;  263.000;  224.000
457.379;   13.000;  509.000;  521.000
457.499;   20.900;  443.000;  432.000
457.620; -180.600; -407.000; -231.000
457.740; -150.100; -132.000;  -11.000
457.860;  -39.400;   87.000;   44.000
457.981;  -48.000;  132.000;  124.000
458.101;  -87.800;  -89.000;   40.000
458.221;   37.000;  336.000;  402.000
458.342;  -64.700;   -4.000;  -37.000
458.462;   94.900;  617.000;  352.000
458.582;  -34.500; -302.000; -294.000
458.703;   90.800;  303.000;  154.000
458.823;   13.700;   22.000;  163.000
458.943;  129.700;  341.000;  467.000
459.063;   42.700; 1124.000;  192.000
459.183;    6.100;  328.000;  313.000
459.304;   71.600;  315.000;  517.000
459.424;  -72.800; -246.000;  -89.000
459.544;  758.200;  388.000;  764.000
459.664; 1602.500;  499.000;  506.000
459.784;  585.700; 1004.000; 1175.000
459.904;  165.000;  867.000;  744.000
460.024;  191.300;  867.000;  684.000
460.144;   69.100;  449.000;  554.000
460.264;   63.100;  515.000;  327.000
460.385; -128.100; -145.000; -119.000
460.505;  131.000;  905.000;  858.000
460.625; -123.600;  -17.000;  -68.000
460.745;   27.400;  396.000;  541.000
460.864;    8.200;  153.000;  469.000
460.984;  103.600;  499.000;  573.000
461.104;  363.900; 1656.000; 1775.000
461.224;   99.000;  657.000;  650.000
461.344;    3.700;  431.000;  360.000
461.464;  -12.900;  258.000;  513.000
461.584;   21.000;  283.000;  466.000
461.704;  -29.400;   58.000;  108.000
461.824;  -40.800;  238.000;  259.000
461.943;  -55.000;  191.000;  130.000
462.063; -107.500;    2.000;  324.000
462.183;  147.200;  639.000;  717.000
462.303;  280.900; 1678.000; 1230.000
462.422;  114.200;  781.000;  840.000
462.542;  -21.600;  271.000;  391.000
462.662;  174.100;  353.000;  380.000
462.782;  550.200;  833.000;  572.000
462.901;  974.800;  545.000;  717.000
463.021;  597.800; 1702.000; 1638.000
463.141;   69.800;  337.000;  770.000
463.260;   44.700;  614.000;  474.000
463.380;   93.800;  902.000;  884.000
463.499;   11.400;  342.000;  332.000
463.619;   11.900;  581.000;  559.000
463.738;  287.300; 1644.000;  903.000
463.858;  124.900;  657.000;  811.000
463.978;    9.700;  542.000;  396.000
464.097;  152.900;  921.000; 1114.000
464.217;  278.400; 1196.000; 1143.000
464.336;  286.000; 1068.000; 1130.000
464.455;    5.700;  328.000;  659.000
464.575;  150.900;  597.000;  602.000
464.694;  397.700; 1204.000; 1179.000
464.814;  307.500; 1190.000; 1138.000
464.933;  211.500; 1095.000; 1027.000
465.052;  306.800; 1412.000; 1054.000
465.172;  248.400;  922.000;  799.000
465.291;  352.500; 1376.000; 1320.000
465.410;   92.600;  462.000;  735.000
465.530;  265.300; 1355.000; 1310.000
465.649;  204.700; 1209.000; 1273.000
465.768;  365.300; 1673.000; 1508.000
465.888;  188.100;  941.000; 1174.000
466.007;  282.100; 1335.000; 1440.000
466.126;   58.000;  721.000;  641.000
466.245;  182.700; 1176.000; 1187.000
466.364;  114.100;  950.000; 1060.000
466.484;  198.000; 1024.000; 1213.000
466.603;  118.600; 1101.000; 1222.000
466.722;  330.100; 1490.000; 1769.000
466.841;  184.300; 1151.000; 1401.000
466.960;  159.800; 1069.000;  972.000
467.079;  343.000; 1971.000; 1786.000
467.198;  171.400; 1238.000; 1181.000
467.317;  263.300; 1768.000; 1162.000
467.436;  190.500; 1709.000; 1261.000
467.555;  361.200; 1796.000; 1746.000
467.674;  198.000; 1227.000; 1329.000
467.793;  154.900; 1376.000; 1374.000
467.912;  269.100; 1658.000; 1539.000
468.031;  357.800; 2038.000; 1930.000
468.150;  377.200; 1842.000; 1837.000
468.269;  457.800; 2313.000; 2090.000
468.388;  463.600; 2168.000; 2339.000
468.507;  577.800; 2884.000; 2903.000
468.626;  656.100; 2555.000; 2541.000
468.744;  371.900; 2018.000; 2174.000
468.863;  494.900; 2312.000; 2523.000
468.982;  266.200; 1503.000; 1555.000
469.101;  534.900; 2788.000; 2692.000
469.220;  418.500; 2333.000; 2176.000
469.338;  580.700; 2935.000; 3051.000
469.457;  493.900; 2719.000; 2545.000
469.576;  798.500; 3953.000; 3784.000
469.695;  564.300; 2877.000; 3066.000
469.813;  924.000; 4148.000; 4192.000
469.932;  912.900; 4255.000; 4485.000
470.051;  969.200; 4075.000; 4161.000
470.169; 1796.600; 4470.000; 4338.000
470.288; 2856.600; 4700.000; 4809.000
470.406; 1653.800; 5059.000; 5194.000
470.525; 1356.600; 6101.000; 5787.000
470.644; 1421.800; 6847.000; 6794.000
470.762; 1804.200; 8397.000; 7873.000
470.881; 1932.300; 8651.000; 8464.000
470.999; 2167.100; 9685.000; 9151.000
471.118; 2313.400;11174.000;10711.000

