
Integration time [ms]: 100.000
Averaging Nr. [scans]: 40
Smoothing Nr. [pixels]: 0
Data measured with spectrometer [name]: 2101012U2
Wave   ;Sample   ;Dark     ;Reference
[nm]   ;[counts] ;[counts] ;[counts] 

197.733;   56.700;  516.000;  404.000
197.879;  -74.550; -610.000; -634.000
198.025;  -34.425; -475.000; -420.000
198.171;  -74.000; -602.000; -612.000
198.317;  -26.075; -401.000; -316.000
198.463;  -70.325; -655.000; -404.000
198.609;   25.000;  181.000; -137.000
198.755;  -84.825; -644.000; -410.000
198.901;  -66.175; -505.000; -424.000
199.047;  -58.450; -615.000; -488.000
199.193;  -31.525; -230.000; -468.000
199.339;  -27.700; -222.000; -369.000
199.485;   43.400;  330.000;  271.000
199.631;    6.150;  227.000;  310.000
199.777;  -50.325; -466.000; -398.000
199.923;  -62.125; -610.000; -424.000
200.069;   -4.700; -141.000;  -58.000
200.215;   60.225;  128.000;  453.000
200.361;   45.650;  243.000;  477.000
200.507;  -58.425; -600.000; -373.000
200.653;  -14.900; -371.000; -194.000
200.798;  -28.475; -215.000; -125.000
200.944;  -10.900; -146.000;  -41.000
201.090;   41.400;   61.000;  222.000
201.236;    2.800; -116.000; -158.000
201.382;  138.775;  874.000;  903.000
201.528;   -3.000;  -58.000;  -48.000
201.674;  -30.175; -386.000; -293.000
201.819;  -62.525; -540.000; -439.000
201.965;  -68.675; -699.000; -447.000
202.111;  -25.775; -273.000; -226.000
202.257;  -46.075; -250.000; -238.000
202.402;    6.225;   13.000;  -36.000
202.548;  -24.100; -169.000; -116.000
202.694;   83.025;  410.000; -183.000
202.840;  -76.800; -603.000; -531.000
202.985;  -53.200; -681.000; -639.000
203.131; -108.100; -832.000; -666.000
203.277;  -19.525; -199.000; -262.000
203.423;  -37.525; -434.000; -520.000
203.568;  -34.000; -462.000; -237.000
203.714;  -62.050; -535.000; -542.000
203.860;  -77.400; -682.000; -641.000
204.005;   19.950;  112.000;  167.000
204.151;   82.050;  561.000;  556.000
204.296;  -62.025; -354.000; -221.000
204.442;  -76.450; -600.000; -547.000
204.588;  -72.750; -592.000; -579.000
204.733;   23.525;  178.000;  168.000
204.879; -132.100;-1018.000; -822.000
205.025;   30.575;  -99.000;  126.000
205.170;   -0.600;  -17.000;   94.000
205.316;   84.775;  438.000;  661.000
205.461;  -74.925; -698.000; -554.000
205.607;   93.725;  609.000;  665.000
205.752;  -86.750; -626.000; -551.000
205.898;  -54.525; -501.000; -391.000
206.043;  -49.950; -578.000; -506.000
206.189;  -45.875; -243.000; -285.000
206.334;   80.150;  554.000;  606.000
206.480;   83.000;  409.000;  239.000
206.625;  -82.500; -529.000; -552.000
206.771;  -41.475; -451.000; -373.000
206.916;  -19.500; -210.000; -537.000
207.062;  -75.550; -545.000; -591.000
207.207;  -53.125; -546.000; -443.000
207.353;   60.075;  185.000;  460.000
207.498;   15.950;  196.000;   85.000
207.643;  -54.475; -501.000; -370.000
207.789; -123.025;-1069.000; -910.000
207.934;  -97.425; -665.000; -713.000
208.080;  -26.575; -154.000;   66.000
208.225;   -4.550;  -22.000;  -57.000
208.370;  -80.800; -727.000; -619.000
208.516;  -60.200; -741.000; -487.000
208.661;  -21.275; -127.000;  -69.000
208.806;  -21.700; -165.000; -171.000
208.952; -113.750;-1044.000; -731.000
209.097;   84.175;  378.000;  349.000
209.242;  -48.950; -307.000; -382.000
209.387;   65.400;  392.000;  350.000
209.533;  -45.550; -321.000; -350.000
209.678;   86.725;  472.000;  543.000
209.823;  -48.200; -408.000; -310.000
209.969; -110.300; -860.000; -757.000
210.114; -102.275; -907.000; -719.000
210.259; -126.075; -939.000; -889.000
210.404;   -8.875; -171.000;  103.000
210.549;   24.750;  108.000;    3.000
210.695;  -27.775;   -3.000;  -95.000
210.840;   39.675;   94.000;   67.000
210.985;  -58.975; -484.000; -303.000
211.130;   80.000;  268.000;  406.000
211.275;   11.025;  207.000;  199.000
211.420;  -54.800; -300.000; -289.000
211.566;  -72.400; -536.000; -489.000
211.711;   14.750;  218.000;  157.000
211.856;  -63.450; -545.000; -519.000
212.001;   -1.175;  151.000;   44.000
212.146;   18.075;  153.000;   49.000
212.291;  -17.975; -210.000; -186.000
212.436;  -18.425; -280.000;   -6.000
212.581;  -87.575; -685.000; -653.000
212.726;  -69.550; -487.000; -538.000
212.871;  -54.350; -552.000; -217.000
213.016; -147.975;-1172.000;-1029.000
213.161;   66.275;  406.000;  291.000
213.306;  -72.475; -435.000; -577.000
213.451; -102.450; -778.000; -689.000
213.596;  -41.450; -455.000; -347.000
213.741;  -48.900; -448.000; -538.000
213.886;  -83.225; -498.000; -517.000
214.031;  -24.725; -294.000; -124.000
214.176;  -27.550; -408.000; -341.000
214.321;  -12.250; -296.000; -157.000
214.466;  -25.475; -163.000;  -43.000
214.611;    4.650;  -61.000;  -10.000
214.756; -122.875; -948.000; -858.000
214.901;  -15.250; -388.000; -226.000
215.046; -117.325; -797.000; -825.000
215.191;   23.350;  128.000;   35.000
215.336;  -12.950; -157.000;  -19.000
215.480;  -51.550; -684.000; -505.000
215.625;   -1.275; -175.000;  -19.000
215.770;  -76.025; -757.000; -662.000
215.915;    2.100;   -5.000;  -97.000
216.060;   -2.900; -113.000;  -21.000
216.205; -109.125; -731.000; -779.000
216.349;  -66.750; -470.000; -533.000
216.494; -136.500; -939.000; -867.000
216.639; -119.350; -823.000; -888.000
216.784;  -84.700; -577.000; -525.000
216.929;   60.000;  392.000;  281.000
217.073;  -12.800; -244.000;  -31.000
217.218;    7.450;   78.000;  -47.000
217.363;  -90.125; -656.000; -618.000
217.507;  -72.100; -623.000; -588.000
217.652; -117.475; -845.000; -874.000
217.797;  -83.675; -708.000; -659.000
217.942; -117.750; -856.000; -720.000
218.086;   77.900;  608.000;  539.000
218.231;  -17.650; -174.000;  -26.000
218.376;  -31.300; -337.000; -229.000
218.520;    2.575;  -41.000;   96.000
218.665;  -41.600; -338.000; -204.000
218.810;  -35.650; -275.000; -233.000
218.954;   20.150;  201.000;   35.000
219.099; -105.375; -713.000; -963.000
219.243;  -67.500; -589.000; -554.000
219.388;  -15.025; -264.000; -136.000
219.532;   -0.125; -116.000; -116.000
219.677;  -74.875; -564.000; -521.000
219.822;    9.100;   33.000;   89.000
219.966;    9.075;   17.000;  -99.000
220.111;  -16.725; -328.000;  -40.000
220.255;  -98.975; -797.000; -750.000
220.400;   -8.175; -180.000; -146.000
220.544;  -67.300; -516.000; -450.000
220.689;  -61.425; -422.000; -451.000
220.833;  -22.200; -123.000;  -58.000
220.978;  -52.575; -393.000; -563.000
221.122;   19.275;  319.000;  307.000
221.267; -110.150; -906.000; -837.000
221.411;  -50.500; -478.000; -394.000
221.555;   -4.675; -104.000;  -23.000
221.700;  -50.600; -329.000; -222.000
221.844;   36.425;  255.000;  272.000
221.989;  -42.175; -328.000; -311.000
222.133;  -34.100; -289.000; -307.000
222.277;   -7.850;    5.000;   78.000
222.422;   12.025;  227.000;  113.000
222.566;  -43.000; -381.000; -214.000
222.711;  -53.825; -414.000; -479.000
222.855;  -76.000; -643.000; -586.000
222.999;  -96.700; -642.000; -717.000
223.144;  -39.475; -195.000; -194.000
223.288;   58.325;  423.000;  251.000
223.432;   23.100;  184.000;  230.000
223.576;   11.275;  152.000;  -21.000
223.721;   38.350;  364.000;  273.000
223.865;  -43.325; -472.000; -475.000
224.009;  253.200; 1673.000; 1631.000
224.153;  -72.300; -660.000; -671.000
224.298;  -70.325; -531.000; -489.000
224.442;   -6.225;  -74.000;  -33.000
224.586;   -6.000; -169.000; -106.000
224.730;  -99.575; -858.000; -670.000
224.875; -102.275; -739.000; -688.000
225.019;   29.050;  102.000;  188.000
225.163;   54.175;  208.000;  341.000
225.307;   25.425;   97.000;  -91.000
225.451;   48.550;  360.000;  481.000
225.595;   33.275;  264.000;  176.000
225.739;  -10.925; -170.000;  -94.000
225.884;    8.350;   86.000;    5.000
226.028;  -92.650; -760.000; -626.000
226.172;  -32.125; -260.000; -273.000
226.316; -109.075; -941.000; -902.000
226.460;  -65.700; -645.000; -493.000
226.604;  -56.025; -406.000; -400.000
226.748;  -95.925; -836.000; -733.000
226.892;  -33.650; -227.000; -181.000
227.036;  -41.350; -537.000; -447.000
227.180;  -49.300; -551.000; -375.000
227.324;  -63.325; -561.000; -580.000
227.468; -113.475; -819.000; -717.000
227.612;    4.600;  242.000;  -28.000
227.756;  -95.125; -845.000; -698.000
227.900;   55.975;  342.000;  441.000
228.044;  -67.625; -509.000; -290.000
228.188;   60.125;  448.000;  568.000
228.332;  -84.025; -546.000; -472.000
228.476;  -23.175; -223.000; -149.000
228.620;  -33.425; -210.000; -150.000
228.764;   59.075;  431.000;  349.000
228.908;   -4.325; -155.000;   30.000
229.052;  -64.275; -615.000; -528.000
229.195;   -3.850; -172.000;   13.000
229.339;  -24.525; -235.000; -305.000
229.483;  -15.150;    5.000; -162.000
229.627;   -3.975; -156.000;  139.000
229.771;  -55.625; -218.000; -294.000
229.915;    6.325;  230.000;   79.000
230.059;  -97.275; -648.000; -663.000
230.202;  -42.850; -370.000; -317.000
230.346;  -18.600; -107.000;  107.000
230.490;  -59.000; -489.000; -521.000
230.634; -102.500; -736.000; -553.000
230.777;   74.825;  478.000;  509.000
230.921;  -56.775; -450.000; -359.000
231.065;  -43.875; -246.000; -286.000
231.209;   27.650;  261.000;  265.000
231.352;   20.175;   54.000;   40.000
231.496;   28.775;  568.000;  188.000
231.640;  -70.875; -693.000; -621.000
231.783;   59.375;  546.000;  525.000
231.927;  -39.575; -294.000; -365.000
232.071; -129.225; -962.000; -736.000
232.214; -104.775; -980.000; -764.000
232.358;  -98.450; -683.000; -599.000
232.502;    9.625;  -19.000;    7.000
232.645; -144.200;-1090.000; -927.000
232.789;  -14.050; -257.000; -218.000
232.933;  -27.475; -407.000; -224.000
233.076; -126.450;-1038.000; -897.000
233.220; -111.625; -752.000; -777.000
233.363;  -71.400; -669.000; -477.000
233.507;   61.500;  371.000;  129.000
233.650;  -91.900; -764.000; -834.000
233.794;   37.475;  438.000;  461.000
233.938;  -56.500; -530.000; -362.000
234.081;  -18.500;  -93.000;   31.000
234.225;  -66.650; -631.000; -539.000
234.368;  -99.200; -773.000; -723.000
234.512;  -29.425; -385.000; -299.000
234.655;  -80.775; -582.000; -555.000
234.798;  -53.650; -493.000; -466.000
234.942; -133.625; -884.000;-1002.000
235.085;  -73.775; -651.000; -443.000
235.229;  -76.175; -405.000; -410.000
235.372;  -39.025; -247.000; -191.000
235.516;  -63.900; -397.000; -321.000
235.659;   20.625;   92.000;  121.000
235.802;  -11.100;  -38.000;  -22.000
235.946;   22.325;  335.000;  215.000
236.089;   32.975;  126.000;  250.000
236.233;   40.875;  275.000;  298.000
236.376;  -56.500; -235.000; -378.000
236.519;  -51.950; -297.000; -319.000
236.663;  -24.025; -215.000; -117.000
236.806; -128.800;-1029.000; -999.000
236.949;   71.300;  543.000;  431.000
237.092;   57.325;  412.000;  391.000
237.236;  -88.825; -589.000; -502.000
237.379;   62.050;  352.000;  428.000
237.522; -111.375; -879.000; -768.000
237.666;  -25.550; -271.000;   18.000
237.809; -130.400; -851.000; -823.000
237.952;   44.975;  469.000;  271.000
238.095;  -59.025; -447.000; -442.000
238.238;   86.225;  688.000;  700.000
238.382;   -0.800;  166.000;  103.000
238.525;  -67.325; -598.000; -511.000
238.668; -142.900;-1060.000; -985.000
238.811;  -79.025; -638.000; -643.000
238.954;  -60.750; -483.000; -334.000
239.097;   86.550;  617.000;  664.000
239.241;   27.025;  394.000;  326.000
239.384;  -50.200; -254.000; -214.000
239.527;  -71.800; -424.000; -224.000
239.670; -137.200; -994.000;-1091.000
239.813; -109.075; -696.000; -658.000
239.956;   76.275;  579.000;  473.000
240.099; -106.825; -778.000; -725.000
240.242;   53.675;  428.000;  432.000
240.385;   55.150;  466.000;  450.000
240.528;  -73.125; -706.000; -473.000
240.671;   22.675;  189.000;  134.000
240.814;  -37.600; -441.000; -158.000
240.957;  -91.225; -767.000; -578.000
241.100; -103.025; -779.000; -755.000
241.243; -141.250;-1234.000; -893.000
241.386;  -70.750; -508.000; -379.000
241.529;  -70.850; -735.000; -547.000
241.672;  -64.225; -566.000; -495.000
241.815; -117.550; -832.000; -808.000
241.958;  -19.250; -125.000; -182.000
242.101;  -74.850; -545.000; -390.000
242.244;  -44.825; -270.000; -325.000
242.387;  -38.875; -304.000; -246.000
242.530;   64.075;  470.000;  134.000
242.673;  -53.725; -381.000; -309.000
242.815; -114.100; -925.000; -899.000
242.958;  -72.250; -482.000; -381.000
243.101;   11.900;  132.000;  187.000
243.244;  -84.850; -564.000; -521.000
243.387;  -37.225; -313.000; -316.000
243.530;  -82.950; -657.000; -674.000
243.672;    1.125;   43.000;  -92.000
243.815;  -46.025; -355.000; -283.000
243.958;   -7.325;   98.000;  -26.000
244.101;   -2.775;   59.000;  -16.000
244.243;   -9.125;  -47.000;  101.000
244.386; -109.575; -761.000; -630.000
244.529;  -11.450; -132.000; -139.000
244.672; -145.650;-1154.000; -951.000
244.814;  -92.500; -621.000; -794.000
244.957;  -61.075; -380.000; -304.000
245.100;  -75.025; -489.000; -489.000
245.242;  -51.900; -387.000; -374.000
245.385;    2.700;  -59.000;  -39.000
245.528; -117.750; -871.000; -705.000
245.670;   91.600;  612.000;  634.000
245.813;  -88.575; -599.000; -547.000
245.956;  -37.350; -324.000; -275.000
246.098;  -75.450; -508.000; -650.000
246.241;   12.500;  194.000;   48.000
246.383;  -12.425; -119.000;  -73.000
246.526;  -76.550; -454.000; -525.000
246.669; -123.825; -889.000; -780.000
246.811;    8.600;  172.000;   -1.000
246.954;  -54.475; -512.000; -426.000
247.096;  -14.250;  -84.000;   -6.000
247.239;  -71.675; -482.000; -445.000
247.381;  -63.625; -647.000; -488.000
247.524;   84.875;  645.000;  679.000
247.666;   -8.000;   58.000;   11.000
247.809; -120.000; -887.000; -691.000
247.951;  -12.550;  -75.000;  138.000
248.094;   32.750;  432.000;  308.000
248.236; -157.500;-1262.000;-1238.000
248.378;    8.325; -356.000;  -81.000
248.521;   -6.250; -334.000; -337.000
248.663;  -36.950; -236.000; -267.000
248.806;  -21.875; -300.000; -266.000
248.948;  -90.750; -886.000; -763.000
249.090;  -39.975; -428.000; -398.000
249.233;  -61.175; -344.000; -381.000
249.375;  -83.500; -474.000; -451.000
249.518;  -19.600;  -83.000; -133.000
249.660;   -3.925; -103.000;    3.000
249.802; -170.750;-1303.000;-1189.000
249.945;  -72.750; -612.000; -540.000
250.087; -116.750; -834.000; -768.000
250.229;  -55.100; -362.000; -480.000
250.371;  -68.300; -494.000; -439.000
250.514;  -47.875; -310.000; -244.000
250.656;  -12.500;   69.000;  102.000
250.798; -124.800; -849.000; -800.000
250.940;  -55.000; -322.000; -322.000
251.083;  -33.150; -335.000; -111.000
251.225;   44.925;  338.000;  310.000
251.367;  -44.125; -274.000; -373.000
251.509;  -51.050; -265.000; -210.000
251.651;  -84.925; -731.000; -671.000
251.794;   76.575;  538.000;  632.000
251.936; -113.325; -821.000; -747.000
252.078;  -67.775; -540.000; -461.000
252.220;  -69.450; -645.000; -477.000
252.362;   89.175;  344.000;  462.000
252.504;  -62.175; -677.000; -584.000
252.646; -109.750; -875.000; -722.000
252.788;   13.625;   14.000; -128.000
252.931;  -55.825; -257.000; -253.000
253.073;  -37.975; -376.000; -317.000
253.215;   -4.700;  141.000;  122.000
253.357;  -13.125;   82.000; -153.000
253.499;  -47.825; -374.000; -234.000
253.641;  -85.050; -749.000; -594.000
253.783; -101.225; -609.000; -527.000
253.925;  -87.775; -586.000; -591.000
254.067; -103.900; -744.000; -667.000
254.209;  -35.325; -391.000; -259.000
254.351; -137.500; -865.000; -883.000
254.493;  -51.850; -441.000; -417.000
254.635; -126.475; -936.000; -818.000
254.777;  -94.275; -752.000; -687.000
254.918;  -57.475; -512.000; -430.000
255.060;  -63.650; -551.000; -395.000
255.202;  -50.125; -473.000; -261.000
255.344;  -76.750; -658.000; -455.000
255.486;  -68.075; -471.000; -406.000
255.628; -103.525; -780.000; -781.000
255.770;  -95.175; -676.000; -536.000
255.912;  -62.075; -559.000; -468.000
256.053;  -71.825; -730.000; -508.000
256.195;  147.300; 1008.000;  903.000
256.337; -102.250; -861.000; -595.000
256.479;   68.825;  532.000;  416.000
256.621;  -49.775; -394.000; -212.000
256.762;  -90.575; -789.000; -742.000
256.904;   36.925;  485.000;  487.000
257.046;  -44.575; -381.000; -271.000
257.188;  -33.625; -351.000; -264.000
257.329;  -76.025; -525.000; -464.000
257.471; -115.200; -939.000; -807.000
257.613;  -66.475; -584.000; -498.000
257.755; -146.625;-1073.000; -982.000
257.896;   24.150;  286.000;  392.000
258.038;  -70.600; -403.000; -352.000
258.180;  -31.400; -354.000; -279.000
258.321;  -76.825; -581.000; -457.000
258.463;   -4.600;  -71.000;  133.000
258.605;  -75.550; -562.000; -570.000
258.746; -102.675; -886.000; -772.000
258.888; -144.900;-1026.000;-1020.000
259.029;   15.825;  121.000;   -8.000
259.171;  -98.525; -614.000; -550.000
259.313;   -5.500;  -49.000;  -47.000
259.454;  -70.600; -536.000; -414.000
259.596;  -58.075; -483.000; -390.000
259.737;  -80.300; -590.000; -474.000
259.879;   22.650;  217.000;  311.000
260.020;   87.675;  901.000;  636.000
260.162;  -41.675; -146.000; -253.000
260.303; -114.675; -768.000; -687.000
260.445;  -73.325; -609.000; -613.000
260.586;    9.750;  392.000;  157.000
260.728;  -43.575; -360.000; -248.000
260.869;  -66.025; -350.000; -343.000
261.011;   79.225;  706.000;  537.000
261.152;  -56.000; -479.000; -319.000
261.293;  -82.300; -576.000; -595.000
261.435;  -30.350; -219.000; -184.000
261.576;  -56.225; -455.000; -325.000
261.718;   54.625;  420.000;  470.000
261.859; -132.675; -940.000; -949.000
262.000; -136.975; -951.000;-1016.000
262.142;  -23.750;  -52.000;  -60.000
262.283; -111.025; -808.000; -691.000
262.424;  -88.575; -666.000; -625.000
262.566; -161.900;-1161.000; -983.000
262.707; -111.775; -840.000; -830.000
262.848; -121.725; -769.000; -726.000
262.990;  -39.625; -362.000; -345.000
263.131;   79.125;  650.000;  681.000
263.272;  -18.500;  -61.000;  -41.000
263.413;  -86.750; -589.000; -561.000
263.555;  -64.425; -669.000; -143.000
263.696; -101.700; -550.000; -641.000
263.837;  -47.175; -449.000; -551.000
263.978;   -1.375;   -5.000;  -77.000
264.119;  -36.750; -283.000; -264.000
264.261; -124.700; -847.000; -630.000
264.402;   -4.650;   33.000;   40.000
264.543;  -71.400; -509.000; -524.000
264.684;  -12.150;   61.000;  -50.000
264.825;  -70.000; -816.000; -538.000
264.966;   -9.050;  -84.000;  -67.000
265.107; -114.125; -646.000; -670.000
265.248; -122.150; -825.000; -812.000
265.390;  -18.625;  152.000;   -9.000
265.531;  -32.725; -238.000; -107.000
265.672;  -81.625; -557.000; -630.000
265.813;   54.975;  563.000;  439.000
265.954; -145.975; -959.000; -940.000
266.095;  -21.300; -372.000; -322.000
266.236;  -84.425; -686.000; -548.000
266.377;  -44.350; -243.000; -297.000
266.518;  -70.350; -619.000; -547.000
266.659;   18.675;  170.000;  268.000
266.800;   -1.575;   83.000;   85.000
266.941;  -88.750; -487.000; -478.000
267.082;   26.325;  354.000;   99.000
267.223;  -45.925; -344.000; -273.000
267.364; -111.900; -892.000; -686.000
267.504;  -11.850;    3.000;  135.000
267.645;    1.825;  160.000;   67.000
267.786;  -27.275; -147.000;  -86.000
267.927;  -82.725; -473.000; -379.000
268.068;  -19.225; -186.000;  -61.000
268.209;  -41.150; -175.000; -413.000
268.350;  -59.075; -388.000; -532.000
268.490;  -94.300; -648.000; -521.000
268.631;   28.175;  127.000;  225.000
268.772; -104.800; -874.000; -647.000
268.913;  -44.775; -328.000; -476.000
269.054;  -18.225; -117.000;   12.000
269.194;  -41.950; -418.000; -402.000
269.335; -152.225;-1137.000;-1074.000
269.476;  -21.550;   33.000;  -35.000
269.617;  -39.675; -347.000; -392.000
269.757;  -78.275; -713.000; -646.000
269.898; -108.400; -856.000; -613.000
270.039;  -56.425; -415.000; -405.000
270.180; -125.025; -952.000; -816.000
270.320;  -23.125; -190.000; -250.000
270.461;  -39.275; -277.000; -249.000
270.602;  -16.500; -186.000; -156.000
270.742; -123.975; -868.000; -943.000
270.883;  -63.750; -442.000; -390.000
271.023;  -52.650; -358.000; -357.000
271.164;  -68.125; -607.000; -528.000
271.305;  -89.250; -666.000; -654.000
271.445;  -92.325; -722.000; -683.000
271.586;  -80.150; -462.000; -283.000
271.726;  -45.500; -397.000; -322.000
271.867;  -56.500; -594.000; -534.000
272.008;  169.550; -473.000; -285.000
272.148;  121.575;  462.000;  468.000
272.289;   21.675; -113.000; -181.000
272.429;   10.225;   19.000;  185.000
272.570;  -99.750; -633.000; -737.000
272.710; -106.600; -825.000; -775.000
272.851;  -26.025;  113.000; -130.000
272.991; -164.025;-1173.000;-1077.000
273.131;  -56.425; -419.000; -459.000
273.272;  -99.225; -683.000; -723.000
273.412;   11.000; -143.000;  -31.000
273.553;  -45.825; -488.000; -507.000
273.693;  134.950;  913.000;  858.000
273.834; -103.025; -894.000; -692.000
273.974;  -65.200; -664.000; -615.000
274.114;  -99.225; -772.000; -560.000
274.255;   69.275;  414.000;  373.000
274.395;   21.625; -180.000; -125.000
274.535;   36.150;  199.000;  350.000
274.676;   25.950;  225.000;   94.000
274.816;   -5.925;  110.000;   34.000
274.956;  -89.000; -624.000; -690.000
275.097;  -66.625;-1014.000; -922.000
275.237; -108.700; -913.000; -803.000
275.377; -102.450; -778.000; -689.000
275.517; -153.750; -878.000; -937.000
275.658;  -65.900; -590.000; -555.000
275.798;  -57.800; -606.000; -413.000
275.938;   17.725;  215.000;  323.000
276.078; -108.450; -626.000; -395.000
276.218;   12.150;   99.000;  104.000
276.359; -124.375;-1026.000;-1024.000
276.499;  -73.350; -605.000; -446.000
276.639;  -29.475; -305.000; -151.000
276.779;  -41.500; -475.000; -357.000
276.919; -106.600; -783.000; -624.000
277.059;  -12.900; -261.000; -212.000
277.199;  -35.250; -357.000; -259.000
277.340;   62.325;  287.000;  175.000
277.480; -102.700; -840.000; -693.000
277.620;   38.200;  192.000;   16.000
277.760; -198.450;-1533.000;-1294.000
277.900;    3.875;  113.000;   33.000
278.040;   32.125;  137.000;  159.000
278.180;   43.300;  270.000;  170.000
278.320;    6.850;   21.000;   56.000
278.460;  -64.825; -443.000; -469.000
278.600;  -93.350; -708.000; -598.000
278.740;   41.375;  448.000;  224.000
278.880;  -62.475; -768.000; -791.000
279.020;  -10.500; -194.000; -144.000
279.160;  -78.675; -672.000; -595.000
279.300; -124.475; -926.000; -873.000
279.440;  -98.925; -709.000; -622.000
279.579;   -7.275;-1014.000; -929.000
279.719;  -39.650; -410.000; -394.000
279.859;   66.150;   -4.000;   41.000
279.999;   23.625; -208.000;  101.000
280.139;  -32.050; -435.000; -387.000
280.279;  -76.475; -708.000; -745.000
280.419;  -13.600; -229.000; -147.000
280.559;  -46.625; -259.000; -180.000
280.698;  -75.275; -790.000; -639.000
280.838;  -98.450; -778.000; -800.000
280.978; -106.000; -846.000; -790.000
281.118; -113.600; -811.000; -704.000
281.257;   -1.525;   24.000;    6.000
281.397; -116.050;-1094.000; -960.000
281.537;  -88.325; -599.000; -712.000
281.677;  -18.775; -150.000; -101.000
281.816;  -96.500; -700.000; -630.000
281.956;  -24.575; -193.000; -257.000
282.096;  -57.625; -539.000; -396.000
282.235; -104.925; -672.000; -638.000
282.375;   -8.625; -243.000;  -98.000
282.515;  -93.200; -715.000; -707.000
282.654;   26.325;   29.000;  106.000
282.794;   20.550;  388.000;  244.000
282.934;  -56.950; -530.000; -491.000
283.073; -130.125;-1030.000; -857.000
283.213;  -50.675; -460.000; -467.000
283.353;  -34.050; -408.000; -349.000
283.492;  -40.750; -264.000; -296.000
283.632;  -43.000; -254.000; -168.000
283.771;  -87.475; -859.000; -730.000
283.911;  -57.925; -369.000; -260.000
284.050; -103.750; -794.000; -748.000
284.190; -167.500;-1229.000;-1096.000
284.329; -138.650;-1055.000; -964.000
284.469;  -66.725; -516.000; -591.000
284.608;  -60.000; -559.000; -598.000
284.748;  -83.325; -614.000; -570.000
284.887;   -4.375;  -87.000;  -20.000
285.027; -120.425; -844.000; -892.000
285.166;  -29.225; -192.000; -249.000
285.306;    5.450; -116.000;  -33.000
285.445;  -39.575; -229.000; -343.000
285.584;  -93.450; -630.000; -494.000
285.724;  -47.675; -282.000; -322.000
285.863; -112.200; -857.000; -507.000
286.002;  -55.525; -366.000; -276.000
286.142; -107.575; -715.000; -622.000
286.281;  -82.150; -525.000; -493.000
286.420;  -73.025; -554.000; -417.000
286.560;   99.200;  653.000;  623.000
286.699; -148.000; -958.000; -912.000
286.838;  -83.800; -590.000; -591.000
286.978;  -90.250; -533.000; -537.000
287.117; -142.125;-1085.000; -950.000
287.256;  -28.000; -228.000; -211.000
287.395;  -54.200; -197.000; -378.000
287.535;  -40.550; -370.000; -298.000
287.674;  -77.325; -509.000; -484.000
287.813;   75.650;  661.000;  533.000
287.952; -130.375;-1010.000; -871.000
288.091; -143.200;-1049.000; -915.000
288.231;   14.575;   13.000;   15.000
288.370; -178.200;-1217.000;-1200.000
288.509;  -86.125; -728.000; -645.000
288.648; -107.500; -770.000; -548.000
288.787;  -28.850; -243.000;  -87.000
288.926;  -62.350; -454.000; -475.000
289.065;  123.600;  859.000;  672.000
289.204;  -59.375; -377.000; -217.000
289.344;  -92.375; -791.000; -690.000
289.483;   27.775;  416.000;  304.000
289.622;  -27.850; -291.000; -149.000
289.761;   -8.375; -309.000; -166.000
289.900;  -98.600; -785.000; -626.000
290.039;  -19.125;  -12.000;  -95.000
290.178;  -31.800; -274.000; -180.000
290.317;  -92.975; -618.000; -479.000
290.456;  -51.025; -463.000; -451.000
290.595; -133.150; -961.000; -833.000
290.734; -142.900; -904.000; -891.000
290.873;  -65.175; -456.000; -420.000
291.011; -103.000; -833.000; -843.000
291.150; -109.700; -770.000; -682.000
291.289;  -14.650; -343.000; -110.000
291.428;  -74.700; -599.000; -480.000
291.567;  -52.300; -370.000; -442.000
291.706;  -12.050;  109.000;  154.000
291.845;  -86.775; -597.000; -505.000
291.984; -166.600;-1234.000;-1061.000
292.122;   70.725;  602.000;  582.000
292.261;   34.800;  620.000;  463.000
292.400;   15.200; -144.000;  211.000
292.539; -120.100; -959.000; -813.000
292.678;  -48.950; -325.000; -300.000
292.816; -160.625;-1136.000; -965.000
292.955; -103.550; -844.000; -684.000
293.094;  -28.000; -173.000; -337.000
293.233;  -48.950; -556.000; -400.000
293.371;  -35.850; -225.000;  -84.000
293.510; -110.925; -866.000; -780.000
293.649; -123.125; -959.000; -924.000
293.787;  -63.450;-1083.000;-1012.000
293.926;    6.025; -113.000;  -32.000
294.065;  -48.575; -379.000; -290.000
294.203;   63.025;  298.000;  406.000
294.342;   18.350;   74.000;  156.000
294.481; 5637.875;51180.000; -836.000
294.619;  -39.875; -425.000; -582.000
294.758; -140.875;-1230.000;-1137.000
294.896;   74.100; -125.000;    5.000
295.035; -130.425;-1040.000;-1006.000
295.174; -124.100;-1082.000; -954.000
295.312;  -40.350; -323.000; -203.000
295.451;  -13.875; -307.000; -428.000
295.589;  -55.400; -389.000; -518.000
295.728;   15.525; -292.000; -165.000
295.866;   -2.900;  -36.000;  -51.000
296.005;  -62.475; -584.000; -341.000
296.143;  -57.325; -558.000; -596.000
296.282; -101.450; -957.000; -881.000
296.420;  -91.825; -657.000; -557.000
296.559;  -92.150; -892.000; -633.000
296.697;   22.700; -847.000; -665.000
296.835;   49.925;-1141.000;-1002.000
296.974;   53.975;  -23.000;   39.000
297.112;   17.325; -443.000; -504.000
297.251;  -83.400; -815.000; -755.000
297.389;   91.950; -576.000; -438.000
297.527;   40.875; -145.000;  -83.000
297.666;  -48.175; -486.000; -438.000
297.804;  -49.200; -404.000; -264.000
297.942;  -15.400; -136.000; -161.000
298.081;    8.025; -183.000;   63.000
298.219;   76.300;  -17.000;  -19.000
298.357;   50.575; -144.000;  -71.000
298.495;   30.725; -810.000; -812.000
298.634;   81.825;  245.000;  219.000
298.772;   67.150; -220.000; -338.000
298.910;  -38.150; -309.000; -182.000
299.048;  -18.500; -130.000; -153.000
299.187;  -39.475; -350.000; -250.000
299.325;   15.875;   52.000;  122.000
299.463;   53.475; -389.000; -299.000
299.601;   96.250; -327.000; -271.000
299.739; -102.225; -908.000; -883.000
299.877;  -89.275; -791.000; -703.000
300.016;  -45.600;-1095.000; -935.000
300.154;  175.350;  -19.000; -161.000
300.292;   43.850; -428.000; -348.000
300.430;   23.550; -408.000; -291.000
300.568; -122.075; -940.000; -874.000
300.706;  -49.050; -366.000; -469.000
300.844;  -64.725;-1108.000; -979.000
300.982;  119.750;  246.000;  282.000
301.120; -112.975; -965.000; -866.000
301.258;  -60.175; -812.000; -705.000
301.396;   31.300;  104.000;  -41.000
301.534;   78.375; -218.000; -293.000
301.672;  -15.800; -664.000; -521.000
301.810;   28.850; -613.000; -545.000
301.948;  119.400;   53.000;  149.000
302.086;  632.450; -250.000;  -32.000
302.224;  972.150; -610.000; -585.000
302.362;   47.150; -558.000; -622.000
302.500;  -31.550; -923.000; -893.000
302.638;   97.350;  128.000;  245.000
302.776;   -9.475; -352.000; -408.000
302.913;   36.425;  447.000;  236.000
303.051;   -6.675;  -86.000;  -23.000
303.189;   54.050;   90.000;  118.000
303.327;  -33.350; -341.000; -256.000
303.465;  -91.175; -832.000; -588.000
303.603;  -94.350; -805.000; -604.000
303.740;  104.425;  417.000;  241.000
303.878;   19.550; -800.000; -759.000
304.016;  -86.150; -915.000; -790.000
304.154; -130.700;-1123.000;-1152.000
304.291;  -41.725; -505.000; -554.000
304.429;   -2.375;  102.000;   74.000
304.567; -127.275; -908.000; -893.000
304.705;  -53.150; -408.000; -515.000
304.842;   89.825; -616.000; -540.000
304.980;   64.450;  215.000;   35.000
305.118;   40.675; -367.000; -365.000
305.255;  -71.475; -945.000; -927.000
305.393;   69.125;  178.000;  239.000
305.531;  -99.425;-1173.000; -956.000
305.668;  -68.775; -663.000; -582.000
305.806;  106.800; -358.000; -439.000
305.943;  111.200; -629.000; -637.000
306.081;   55.350; -378.000; -267.000
306.219; -104.450; -863.000; -748.000
306.356;    6.200;  158.000;   27.000
306.494;  111.575;  981.000;  761.000
306.631;    4.575;  -11.000;  -55.000
306.769;    0.900; -613.000; -485.000
306.906;   -3.550; -284.000; -258.000
307.044;  -63.475; -473.000; -488.000
307.181;  -56.150; -410.000; -332.000
307.319;    9.400;  112.000;   87.000
307.456; -164.950;-1191.000;-1153.000
307.594; -108.650; -980.000; -727.000
307.731;  -15.550; -371.000; -164.000
307.868;   -0.375;  -15.000;   20.000
308.006; -131.850; -961.000; -847.000
308.143;  -75.200; -618.000; -330.000
308.281;  142.925;  -37.000; -254.000
308.418;  -16.300; -748.000; -640.000
308.555;  -76.675; -400.000; -250.000
308.693;  -87.725; -577.000; -573.000
308.830; -112.550; -712.000; -657.000
308.967;   -2.200; -215.000;  -95.000
309.105;  -56.400; -507.000; -396.000
309.242;    5.375; -468.000; -367.000
309.379;  264.625; -577.000; -655.000
309.517;  -67.050; -936.000; -948.000
309.654; -110.850; -910.000; -734.000
309.791;  -68.925; -662.000; -580.000
309.928; -119.600; -977.000; -914.000
310.065;  174.875;  819.000;  697.000
310.203;   -3.775; -825.000; -850.000
310.340;   -7.675; -465.000; -321.000
310.477;  -75.000; -412.000; -516.000
310.614;  -59.425; -383.000; -473.000
310.751;  -88.125; -427.000; -518.000
310.889;  -28.600;    1.000;   11.000
311.026; -154.175;-1161.000; -939.000
311.163;  -45.525; -386.000; -380.000
311.300;  -72.625; -512.000; -479.000
311.437;  -83.925; -658.000; -619.000
311.574; -157.200;-1226.000; -985.000
311.711;  -59.225; -595.000; -433.000
311.848;  -52.675; -380.000; -388.000
311.985;   22.750;  270.000;   93.000
312.122; -122.600; -932.000; -762.000
312.259; -125.500; -941.000; -994.000
312.396;  -80.850; -508.000; -551.000
312.533;  -92.575; -812.000; -790.000
312.670; -122.950;-1070.000; -898.000
312.807;  -38.375; -352.000; -367.000
312.944;  -76.075; -513.000; -611.000
313.081;  -36.850; -150.000; -415.000
313.218; -105.725;-1111.000; -867.000
313.355;    8.100; -531.000; -449.000
313.492;   12.300; -455.000; -292.000
313.629;  134.275;  815.000;  735.000
313.766; -158.375;-1176.000;-1008.000
313.902;   -7.875; -186.000;   21.000
314.039;  -53.575; -372.000; -289.000
314.176;   31.625;  286.000;  192.000
314.313;  -81.800; -569.000; -473.000
314.450;  -71.175; -788.000; -684.000
314.587;  -55.050; -468.000; -480.000
314.723;   10.475;  -78.000;  130.000
314.860;   37.075;  318.000;  332.000
314.997;   29.975;  223.000;  142.000
315.134;  -35.400; -385.000; -368.000
315.270;  -31.300; -480.000; -496.000
315.407; -130.625;-1094.000; -967.000
315.544;  -46.200; -657.000; -538.000
315.681;  -70.175; -681.000; -565.000
315.817;   16.700; -133.000; -176.000
315.954;   19.625; -613.000; -392.000
316.091; -111.175;-1045.000;-1023.000
316.227;  -27.925;  -71.000; -179.000
316.364;   -8.650;   23.000;    6.000
316.500;  -26.325; -113.000; -300.000
316.637;  -43.125; -181.000; -302.000
316.774;  -84.400; -625.000; -358.000
316.910;  -88.000; -598.000; -629.000
317.047;  -81.825; -487.000; -351.000
317.183;  -60.875; -435.000; -566.000
317.320;  -12.500; -367.000; -321.000
317.456;  -70.425; -733.000; -805.000
317.593;  -82.650; -598.000; -641.000
317.729;   -2.850;  168.000;  -67.000
317.866; -197.825;-1434.000;-1285.000
318.002;  -78.650; -708.000; -948.000
318.139;  -93.950; -883.000; -867.000
318.275; -110.750;-1003.000; -738.000
318.412;  -70.775; -517.000; -336.000
318.548;  -22.275; -751.000; -720.000
318.685;  -96.200; -985.000; -888.000
318.821;  -86.700; -762.000; -735.000
318.957;  -21.550;   34.000;  -23.000
319.094;   43.725;  297.000;  154.000
319.230;  -70.100; -756.000; -742.000
319.367;  134.300; -471.000; -520.000
319.503;   48.875; -538.000; -436.000
319.639;  -98.025; -877.000; -793.000
319.775;  -61.425; -750.000; -685.000
319.912;  -37.350; -424.000; -519.000
320.048;  -83.825;-1184.000;-1184.000
320.184;   75.450;   59.000;   70.000
320.321;  -57.775; -497.000; -467.000
320.457;   64.225;  475.000;  662.000
320.593;  -58.150; -375.000; -382.000
320.729; -113.025; -732.000; -734.000
320.866;  -79.525; -577.000; -635.000
321.002;  -75.125; -759.000; -809.000
321.138;   -7.975; -135.000; -211.000
321.274;   87.050; -148.000; -115.000
321.410;  -17.250; -585.000; -353.000
321.546;  -20.500;-1011.000; -911.000
321.683;   55.875;  400.000;  185.000
321.819;    7.450;  -48.000; -117.000
321.955; -111.600; -743.000; -722.000
322.091;  -49.500; -585.000; -540.000
322.227;  -16.375; -382.000; -202.000
322.363;  -21.625; -320.000; -215.000
322.499;  -55.425; -343.000; -331.000
322.635;  150.950;  636.000;  443.000
322.771;   34.300; -139.000;   12.000
322.907;   91.050;  129.000;  327.000
323.043;  -19.125; -115.000; -206.000
323.179;  -29.800; -394.000; -363.000
323.315;   19.150; -401.000; -371.000
323.451;  100.825; -328.000; -236.000
323.587;   59.975;  -60.000;  -77.000
323.723;   15.125; -682.000; -601.000
323.859;  -12.425; -258.000;  -76.000
323.995;  -28.750; -467.000; -409.000
324.131; -124.525; -967.000; -892.000
324.267;  -40.350; -254.000; -276.000
324.402; -127.500; -960.000; -983.000
324.538;   -5.150; -279.000; -104.000
324.674;   10.250;  164.000;   77.000
324.810;  127.075;  226.000;  308.000
324.946;    3.025; -810.000; -658.000
325.082;  -72.850; -568.000; -475.000
325.217;  -16.650;  -62.000;   16.000
325.353; -105.850; -764.000; -659.000
325.489;  -92.500; -540.000; -506.000
325.625;  -72.750; -579.000; -525.000
325.760;   53.050;  517.000;  376.000
325.896;  -17.450; -515.000; -702.000
326.032;  -51.500; -403.000; -352.000
326.168;  -62.725; -462.000; -369.000
326.303;  -57.175; -352.000; -461.000
326.439;  -37.075; -336.000; -276.000
326.575;   -2.450; -190.000;  -29.000
326.710;   -8.150; -156.000;  -30.000
326.846;  -18.525;  146.000;  103.000
326.982; -101.000; -530.000; -548.000
327.117;  -69.075; -481.000; -442.000
327.253;  -92.900; -745.000; -742.000
327.388; -154.425;-1137.000;-1153.000
327.524;  -56.150; -811.000; -578.000
327.659;  -30.125;  -58.000;  -22.000
327.795;  -11.000;   69.000;   45.000
327.931;  -99.950; -723.000; -499.000
328.066;  -45.075; -417.000; -276.000
328.202;   -8.750;   12.000; -129.000
328.337;  106.000;  957.000;  713.000
328.473;   37.775;  -12.000;  -74.000
328.608;  -12.825; -256.000; -267.000
328.743;  -76.175; -799.000; -664.000
328.879;   12.675;  214.000;  114.000
329.014;  -38.225; -102.000; -122.000
329.150;  -79.000; -358.000; -483.000
329.285;  -75.100; -465.000; -466.000
329.421;  -52.700; -548.000; -246.000
329.556;  -21.400;  -36.000;   85.000
329.691; -103.100; -633.000; -615.000
329.827;  -83.775; -626.000; -480.000
329.962;  -27.075;  131.000; -301.000
330.097;  -99.300; -673.000; -585.000
330.233;  -51.850; -410.000; -223.000
330.368; -137.750; -839.000; -628.000
330.503;  -17.100;    3.000;   98.000
330.638;    8.450;  -93.000; -125.000
330.774;  -70.700; -609.000; -530.000
330.909;  -49.175; -434.000; -244.000
331.044;  -91.525; -714.000; -708.000
331.179; -187.875;-1217.000;-1109.000
331.315;    8.675;   77.000;   20.000
331.450;   16.625;  157.000;  285.000
331.585;  -82.700; -805.000; -706.000
331.720;  -83.400; -510.000; -460.000
331.855;  -19.475;  -35.000; -102.000
331.990;  233.025;   62.000;  138.000
332.126;  133.650; -110.000;   71.000
332.261;  -17.600; -379.000; -265.000
332.396;    3.100; -135.000; -242.000
332.531; -100.325;-1074.000;-1031.000
332.666;   24.975; -519.000; -363.000
332.801; -107.100; -726.000; -807.000
332.936;  -19.800; -192.000; -122.000
333.071; -135.225; -870.000; -817.000
333.206;   10.950;  307.000;  379.000
333.341;   26.300;  344.000;  418.000
333.476;  -83.575; -627.000; -623.000
333.611;  -43.275; -251.000; -173.000
333.746;  -53.725; -381.000; -464.000
333.881; -126.550; -973.000; -935.000
334.016; -122.000; -936.000; -917.000
334.151; -122.600; -746.000; -702.000
334.286;   25.325;  152.000;  186.000
334.421;  -24.875; -125.000; -178.000
334.556;  -77.850; -611.000; -567.000
334.690;  -85.100; -631.000; -577.000
334.825;   53.175;  381.000;   83.000
334.960;  -47.700; -285.000; -413.000
335.095;   10.275;  135.000;  -91.000
335.230; -112.550; -722.000; -738.000
335.365; -141.450;-1084.000; -990.000
335.499; -137.050;-1108.000;-1037.000
335.634;   17.600;    9.000;  534.000
335.769;  -95.625; -755.000; -720.000
335.904;  -56.350; -603.000; -561.000
336.038;  -60.725; -735.000; -657.000
336.173; -124.625;-1206.000;-1194.000
336.308;    5.425; -116.000; -189.000
336.443;   23.625; -544.000; -634.000
336.577;  -78.450; -936.000; -787.000
336.712;   72.950;   -4.000;  -12.000
336.847;  -40.100; -724.000; -607.000
336.981;   51.100; -272.000; -208.000
337.116;  289.050;  615.000;  501.000
337.250;  142.450; -434.000; -421.000
337.385;  258.550; -297.000; -208.000
337.520;   88.175; -632.000; -603.000
337.654;  -46.150; -215.000; -126.000
337.789; -122.325; -989.000; -933.000
337.923;  -41.475; -104.000; -205.000
338.058;  -89.850; -673.000; -738.000
338.192;  -37.050; -611.000; -488.000
338.327;  -22.525;  -18.000; -155.000
338.461;  -49.850; -299.000; -469.000
338.596;  -95.575; -780.000; -638.000
338.730; -102.550; -767.000; -803.000
338.865;   91.175;  -46.000; -140.000
338.999;  -53.700; -846.000; -702.000
339.134;  -19.975; -634.000; -536.000
339.268;   27.250; -741.000; -603.000
339.403;  351.925; -740.000; -775.000
339.537;  113.500; -894.000; -820.000
339.671; -123.150; -829.000; -813.000
339.806;  -73.550; -556.000; -512.000
339.940;    4.025; -261.000; -235.000
340.074;  -87.375; -685.000; -510.000
340.209;  -39.475; -351.000; -230.000
340.343;  -91.525; -517.000; -573.000
340.477;  150.050;  998.000; 1036.000
340.612;  -42.675;-1033.000; -900.000
340.746;  128.950; -199.000; -243.000
340.880;  -69.675; -924.000; -785.000
341.014;  -12.975;  -45.000; -154.000
341.149; -118.550; -756.000; -718.000
341.283; -109.725; -839.000; -754.000
341.417;  -93.625;-1124.000; -938.000
341.551;  135.400; -768.000; -708.000
341.685;  -36.450; -633.000; -611.000
341.820;  -56.550; -562.000; -493.000
341.954;  -42.550; -218.000; -349.000
342.088; -145.150;-1102.000;-1019.000
342.222;   46.100;  565.000;  618.000
342.356;  -60.400; -395.000; -335.000
342.490;  -98.850; -880.000; -841.000
342.624;  -43.825; -339.000; -242.000
342.758;    7.150; -364.000; -312.000
342.892;  -58.900; -710.000; -585.000
343.026;  -38.900;  -58.000; -116.000
343.160;  -68.950; -426.000; -376.000
343.294;  -84.025; -474.000; -337.000
343.428;  -23.250; -488.000; -448.000
343.562;   -8.225; -172.000;  -23.000
343.696;  -18.950; -385.000; -314.000
343.830;  -25.150; -362.000; -356.000
343.964;    3.825; -231.000; -168.000
344.098;  912.475;  199.000;   70.000
344.232;  760.725; -266.000; -127.000
344.366;   75.425; -567.000; -453.000
344.500;   53.275; -665.000; -744.000
344.634;   34.200; -324.000; -164.000
344.768;  -29.200; -531.000; -341.000
344.902;   21.725;  278.000;  256.000
345.035;  -78.775; -556.000; -496.000
345.169; -129.525; -933.000; -656.000
345.303;  -31.825; -308.000; -482.000
345.437;  -86.675; -826.000; -717.000
345.571;  -73.700; -675.000; -594.000
345.704;  -71.275; -309.000; -532.000
345.838;  -33.825; -331.000; -284.000
345.972;  -47.750; -543.000; -495.000
346.106;  174.425; -179.000; -190.000
346.239;  405.550; -312.000; -243.000
346.373;    9.575; -343.000; -302.000
346.507; -142.550; -950.000; -962.000
346.640;  145.250;  -30.000;   13.000
346.774;  -39.375; -650.000; -797.000
346.908;  -25.275; -138.000;  -11.000
347.041; -106.400; -646.000; -593.000
347.175;    9.550;  259.000;   27.000
347.309;  -68.875; -698.000; -628.000
347.442;  -90.575; -883.000; -732.000
347.576;  284.750;  670.000;  668.000
347.709;  205.050; -123.000;  -52.000
347.843;  -85.125; -933.000; -825.000
347.976;   26.950;  235.000;  294.000
348.110; -188.100;-1268.000;-1186.000
348.243;  -99.925; -679.000; -772.000
348.377;    8.025;  -26.000;   60.000
348.510;   41.350;  403.000;  540.000
348.644;  -37.225;  -37.000; -159.000
348.777;  -14.525;  180.000;  191.000
348.911;  -60.125; -142.000; -112.000
349.044;  168.975;  471.000;  448.000
349.178;  152.200;-1069.000;-1006.000
349.311;  117.650;  141.000;  255.000
349.444;  -25.400; -927.000; -813.000
349.578;  -18.975; -347.000; -200.000
349.711;  -99.175; -959.000; -862.000
349.845;   -5.750; -661.000; -591.000
349.978; -153.375;-1224.000;-1137.000
350.111;  -80.050; -546.000; -612.000
350.244;  -80.875; -596.000; -700.000
350.378;    4.200; -392.000; -393.000
350.511;  -55.875; -393.000; -426.000
350.644; -104.450; -808.000; -806.000
350.778;   20.775;  168.000;  104.000
350.911;   -1.775;  134.000;  140.000
351.044;  -95.225; -685.000; -615.000
351.177;  -31.125; -321.000; -281.000
351.310;  -21.050;    3.000; -131.000
351.444;  -87.725; -888.000; -788.000
351.577;  107.725;  140.000;   90.000
351.710;   94.175;  593.000;  417.000
351.843;  -42.050; -165.000;  -77.000
351.976;   -8.275;  149.000;  -79.000
352.109;  -97.050; -621.000; -612.000
352.242;  -32.500; -464.000; -419.000
352.376;  -50.150; -580.000; -636.000
352.509;  179.650; -437.000; -356.000
352.642;   -5.550; -654.000; -604.000
352.775;   66.125; -141.000;  -98.000
352.908; -114.625; -933.000; -904.000
353.041; -112.450; -814.000; -824.000
353.174;  -56.300; -551.000; -424.000
353.307;  -79.200; -753.000; -764.000
353.440;   73.250;  541.000;  453.000
353.573; -109.800; -957.000;-1008.000
353.706;  -21.600; -384.000; -558.000
353.839;  -18.175; -264.000; -220.000
353.971;  -83.550; -657.000; -512.000
354.104;  -79.825; -896.000; -835.000
354.237;  -45.050; -627.000; -662.000
354.370;  -90.025; -846.000; -879.000
354.503; -170.825;-1231.000;-1308.000
354.636;  -35.950; -529.000; -348.000
354.769; -132.850; -937.000; -860.000
354.902;  -18.025; -230.000; -139.000
355.034;  -17.200; -164.000; -220.000
355.167;  -13.075; -262.000; -162.000
355.300;  -82.700;-1061.000; -880.000
355.433;  964.425;  -71.000;  -14.000
355.565; 1479.525; -402.000; -384.000
355.698;  394.450; -356.000; -296.000
355.831;    2.800; -882.000; -801.000
355.964;   74.875; -285.000; -170.000
356.096;  -74.700; -856.000; -843.000
356.229;    5.350; -523.000; -530.000
356.362;  320.975; -373.000; -266.000
356.494;  581.325; -229.000; -162.000
356.627;  481.175;  269.000;  377.000
356.760;  656.450;  120.000;   53.000
356.892;  933.675; -286.000; -601.000
357.025;  647.800;  403.000;  389.000
357.157;  603.400; -167.000; -179.000
357.290;  684.750; -856.000; -713.000
357.423;  196.475; -667.000; -556.000
357.555;  116.425; -217.000; -228.000
357.688;  138.950; -483.000; -364.000
357.820;  461.275; -870.000; -877.000
357.953; 3741.125; -563.000; -589.000
358.085;  830.400; -632.000; -612.000
358.218; 1133.750;-1131.000; -932.000
358.350;  197.050;  -58.000;  312.000
358.483; -134.775;-1300.000;-1187.000
358.615;  -26.075;-1182.000;-1078.000
358.747;  -61.800;-1187.000;-1058.000
358.880;   17.625; -810.000; -744.000
359.012;   -9.475; -376.000; -202.000
359.145;  -44.925; -480.000; -511.000
359.277;   72.975; -962.000; -913.000
359.409; 3093.250;  536.000;  231.000
359.542;  799.000; -738.000; -688.000
359.674;   70.600;   46.000;   13.000
359.806;  -63.225; -565.000; -438.000
359.939;  -54.950; -617.000; -516.000
360.071;   -5.125; -583.000; -579.000
360.203;  -18.850; -411.000; -364.000
360.335;   44.600;  164.000;  -16.000
360.468;  178.050; -249.000; -307.000
360.600; 2478.625; -547.000; -454.000
360.732; 2827.975; -546.000; -423.000
360.864;  389.425;-1216.000;-1044.000
360.996;  282.975; -516.000; -554.000
361.129;   40.300; -389.000; -598.000
361.261;    7.950;  110.000; -113.000
361.393;  -21.450; -252.000; -214.000
361.525;   40.500;   94.000;  244.000
361.657;  -40.625; -821.000; -703.000
361.789;    3.925; -139.000; -155.000
361.921;  239.675; -642.000; -593.000
362.053;  241.800;  524.000;  541.000
362.185;   66.225;  288.000;   72.000
362.318;  -76.250; -709.000; -705.000
362.450;  110.750;  294.000;  444.000
362.582;  107.650; -913.000; -870.000
362.714;  -40.550; -353.000; -332.000
362.846;  -90.025; -606.000; -490.000
362.978; -133.350; -941.000; -811.000
363.109;   37.450; -161.000; -260.000
363.241;  427.325; -739.000; -749.000
363.373;  425.800; -649.000; -564.000
363.505;  653.950; -186.000;  -91.000
363.637;  146.800; -787.000; -601.000
363.769; -119.700;-1067.000;-1080.000
363.901;  -62.625; -596.000; -654.000
364.033; -126.850;-1103.000;-1062.000
364.165;   -6.200; -283.000; -283.000
364.296;   78.850; -316.000; -177.000
364.428;   65.625;-1344.000;-1220.000
364.560;  -86.750; -679.000; -661.000
364.692;  -68.550; -738.000; -835.000
364.824;  267.600; -588.000; -456.000
364.955;  432.550; -402.000; -564.000
365.087;  916.225;-1097.000; -852.000
365.219;   17.700; -686.000; -816.000
365.351;  -67.875; -526.000; -572.000
365.482;   42.600;  300.000;  240.000
365.614;  -33.775; -402.000; -314.000
365.746;  -93.450; -729.000; -752.000
365.877;  -93.025; -706.000; -672.000
366.009;  247.375;  -35.000;  -62.000
366.141;  -87.925;-1249.000;-1134.000
366.272; -112.125; -803.000; -719.000
366.404; -117.975;-1005.000; -874.000
366.535;  -13.250; -139.000;  -12.000
366.667; -105.925; -644.000; -649.000
366.799;   30.200;  353.000;  203.000
366.930; -118.975; -862.000; -996.000
367.062;  122.975; -639.000; -613.000
367.193;  137.750; -872.000; -842.000
367.325;  -64.850; -580.000; -684.000
367.456;   40.375; -246.000;   31.000
367.588;  146.975; -371.000; -318.000
367.719;   11.300;  -44.000;  -45.000
367.851;  -19.425; -222.000; -241.000
367.982;  -69.150; -875.000; -732.000
368.113;   92.775; -475.000; -358.000
368.245; -141.450; -960.000; -841.000
368.376;  -30.100; -254.000; -302.000
368.508;  -36.500; -188.000; -263.000
368.639; -151.400;-1166.000;-1034.000
368.770;  -13.950; -670.000; -589.000
368.902;  -70.375; -836.000; -926.000
369.033; -104.700; -906.000; -855.000
369.164;  -60.275; -720.000; -653.000
369.296; -121.325; -452.000; -601.000
369.427;    7.200; -209.000; -144.000
369.558;  -53.225; -593.000; -377.000
369.689;  -89.100; -721.000; -569.000
369.821; -131.750; -951.000; -845.000
369.952;  -14.825;   42.000; -108.000
370.083;  -50.075; -229.000; -108.000
370.214;  -93.600; -735.000; -650.000
370.345;  -10.775;   65.000;   81.000
370.477;  -89.800; -810.000; -790.000
370.608;  226.325; -328.000; -264.000
370.739;  -53.225;-1233.000;-1292.000
370.870;  -38.250;-1102.000; -923.000
371.001;   80.200; -378.000; -467.000
371.132;  -82.300; -754.000; -735.000
371.263;  -25.975;  -42.000; -148.000
371.394; -135.200; -841.000; -748.000
371.525;   31.075;  345.000;  225.000
371.657;  -89.075; -808.000; -670.000
371.788;   69.600;  103.000;  199.000
371.919;  158.175; -384.000; -304.000
372.050; 3675.800;  -91.000; -156.000
372.181; 1095.025; -188.000; -294.000
372.311;  384.875;   42.000; -127.000
372.442;   31.425; -457.000; -451.000
372.573;  -17.450; -444.000; -340.000
372.704; -127.975;-1008.000; -980.000
372.835;   72.675; -228.000; -289.000
372.966;  -77.550; -646.000; -554.000
373.097;  -65.775; -575.000; -711.000
373.228;  -29.925; -717.000; -542.000
373.359;  147.000; -824.000; -536.000
373.490;  939.850; -881.000; -727.000
373.620; 1170.575;-1001.000; -803.000
373.751; 1810.825; -332.000; -396.000
373.882;  809.600; -663.000; -733.000
374.013;   72.100; -449.000; -262.000
374.143;  -43.300; -581.000; -659.000
374.274; -101.575; -987.000; -908.000
374.405;  178.550; -388.000; -276.000
374.536;  441.275; -526.000; -387.000
374.666; 1125.025; -759.000; -807.000
374.797;  238.075; -817.000; -868.000
374.928;  887.500; -710.000; -560.000
375.058;  880.500; -535.000; -500.000
375.189;   91.275;  -59.000;  -93.000
375.320; -106.800; -928.000;-1034.000
375.450;  -47.950; -625.000; -616.000
375.581;  -60.425; -526.000; -436.000
375.712;  -35.925; -574.000; -250.000
375.842;  313.275; -438.000; -415.000
375.973;  209.725; -554.000; -513.000
376.103;  -37.925; -665.000; -648.000
376.234;  -73.475; -531.000; -552.000
376.364;  -34.600; -944.000; -867.000
376.495;  318.425;  925.000;  529.000
376.625;  -21.500; -472.000; -485.000
376.756;   51.875; -709.000; -678.000
376.886;  -80.100;-1178.000;-1026.000
377.017;   43.300;-1048.000;-1061.000
377.147;  347.200; -786.000; -782.000
377.278;   43.475;  174.000;  228.000
377.408; -132.950; -801.000; -815.000
377.538; -104.275; -707.000; -693.000
377.669;  -84.600; -537.000; -613.000
377.799;  -89.050; -645.000; -635.000
377.929;  -72.100; -610.000; -428.000
378.060; -132.975; -781.000; -847.000
378.190;  -61.225; -726.000; -531.000
378.320;  -44.025; -401.000; -406.000
378.451;  -11.525; -131.000;  -22.000
378.581;   -3.600;  -67.000; -110.000
378.711;  143.650; 1035.000;  866.000
378.841;  -13.875; -533.000; -675.000
378.972;  -70.525; -871.000; -751.000
379.102;  -13.425; -652.000; -579.000
379.232;  -10.550; -126.000;  -73.000
379.362; -104.125;-1001.000; -885.000
379.492;    0.550; -373.000; -424.000
379.623;  105.450;    0.000;  111.000
379.753;  -84.450;-1107.000; -974.000
379.883;  191.175;   59.000;  156.000
380.013;   -2.100;-1081.000;-1017.000
380.143; -108.350;-1097.000;-1056.000
380.273; -101.425; -985.000; -861.000
380.403;   -3.700; -344.000; -257.000
380.533;  -21.650; -651.000; -664.000
380.663;   68.075;  173.000;  128.000
380.793; -110.900;-1027.000;-1074.000
380.923;  -21.550; -103.000;  -34.000
381.053; -103.250; -613.000; -623.000
381.183;  -37.950; -106.000; -248.000
381.313;   36.775; -656.000; -470.000
381.443;   25.100; -692.000; -473.000
381.573;  189.500; -402.000; -409.000
381.703;  273.475;-1249.000;-1095.000
381.833; -126.250;-1454.000;-1336.000
381.963;  103.450; -134.000;  -87.000
382.093; 1419.700; -925.000; -909.000
382.223;  458.425; -713.000; -602.000
382.353;  -21.050; -801.000; -608.000
382.482;  387.525;-1091.000; -964.000
382.612;  779.500; -872.000; -644.000
382.742;  429.450; -695.000; -622.000
382.872;  267.675; -565.000; -551.000
383.002;   55.025;  347.000; -132.000
383.131;  -10.525; -226.000; -160.000
383.261;  -38.975; -706.000; -768.000
383.391;  283.775; -552.000; -377.000
383.521; 3186.675;  451.000;  263.000
383.650;  743.075; -947.000; -904.000
383.780;  -19.975; -783.000; -656.000
383.910;  114.750;  880.000;  802.000
384.039;   13.025; -794.000; -656.000
384.169;  212.050;-1205.000;-1017.000
384.299;  -12.975; -650.000; -662.000
384.428;  -99.425; -764.000; -680.000
384.558;  -43.675; -308.000; -275.000
384.687;  -52.425; -414.000; -334.000
384.817;   13.325;   75.000;   -2.000
384.947;   24.100; -234.000; -141.000
385.076;  281.900;  982.000;  912.000
385.206;  106.425;  369.000;  480.000
385.335;  -34.050; -549.000; -417.000
385.465;  -71.400; -655.000; -663.000
385.594;  135.775;  -53.000;  -44.000
385.724;  427.825; -868.000; -838.000
385.853;  110.550; -296.000; -270.000
385.982; 1392.500; -743.000; -787.000
386.112; 2167.475;-1052.000; -871.000
386.241;  140.325; -307.000; -312.000
386.371;   20.925; -174.000;  -87.000
386.500;   -7.925; -825.000; -789.000
386.629;   12.925; -874.000; -817.000
386.759;   62.700;  -43.000;   68.000
386.888;   -8.525; -170.000; -250.000
387.017;  -90.800; -648.000; -620.000
387.147;  -91.900; -771.000; -798.000
387.276;   -3.375; -410.000; -397.000
387.405;   10.500; -398.000; -342.000
387.535;  -60.825; -452.000; -361.000
387.664;  -63.775; -692.000; -620.000
387.793;   56.950; -198.000; -113.000
387.922;  511.300;  255.000;  200.000
388.052;   10.875; -576.000; -423.000
388.181;    3.925; -342.000; -472.000
388.310;  -10.525; -889.000; -710.000
388.439;  -42.075; -749.000; -742.000
388.568;  181.100;  365.000;  244.000
388.697; 1051.875; -756.000; -653.000
388.826;  210.250; -768.000; -666.000
388.956;   58.275; -285.000; -307.000
389.085;  -33.000; -347.000; -287.000
389.214; -109.750; -842.000; -872.000
389.343;  -76.025; -645.000; -413.000
389.472;  406.325;  126.000;  149.000
389.601;  517.850;   91.000;    0.000
389.730;   11.175; -568.000; -687.000
389.859;   72.500;  226.000;   46.000
389.988;  183.825; -423.000; -408.000
390.117;  144.425; -168.000; -146.000
390.246;    0.525; -331.000; -320.000
390.375;   95.100; -673.000; -626.000
390.504;  -66.325; -703.000; -621.000
390.633;  -96.025; -672.000; -726.000
390.761;  -53.650; -732.000; -645.000
390.890;   20.175;   -4.000; -130.000
391.019;  -21.400; -421.000; -441.000
391.148; -130.400; -826.000; -855.000
391.277;  -82.575; -576.000; -493.000
391.406;  -86.750; -821.000; -805.000
391.534;   38.975;  574.000; -301.000
391.663;  -61.150; -583.000; -645.000
391.792;  -88.750; -673.000; -701.000
391.921;   90.850;   -3.000;   15.000
392.050;  189.575; -287.000; -228.000
392.178;  -52.025;-1206.000;-1061.000
392.307;  151.450; -758.000; -712.000
392.436;   66.525; -427.000; -641.000
392.564;   15.975;  166.000;   -6.000
392.693;  -96.500; -860.000; -682.000
392.822;  205.650; -529.000; -534.000
392.950;   87.675; -880.000; -714.000
393.079;  315.550; -188.000; -328.000
393.208;   27.550; -488.000; -511.000
393.336;  -21.375; -170.000; -145.000
393.465;  -59.625; -317.000; -199.000
393.593;   -6.875;   62.000;   79.000
393.722; -155.925;-1121.000; -916.000
393.850;  -41.250; -188.000;  -61.000
393.979; -157.775; -926.000; -805.000
394.107;  -61.525; -517.000; -537.000
394.236;  -26.525; -570.000; -507.000
394.364;  207.400;  383.000;  206.000
394.493;  315.000; -911.000; -767.000
394.621;  -11.575; -955.000; -916.000
394.750;  697.950; -873.000; -923.000
394.878; 2913.600; -247.000; -149.000
395.007; 3972.050; -721.000; -807.000
395.135;  290.325; -790.000; -721.000
395.263;  -86.825;-1038.000;-1040.000
395.392;   -0.125;  -25.000; -107.000
395.520; -142.425; -818.000; -679.000
395.648;  -79.050; -865.000; -915.000
395.777;  -25.375; -366.000; -405.000
395.905;  -57.075; -449.000; -564.000
396.033;   18.575;  217.000;  172.000
396.162;  496.575; -399.000; -453.000
396.290;  451.000;  -17.000;   -2.000
396.418;  101.300; -555.000; -514.000
396.546;  -74.725; -571.000; -466.000
396.674;  -97.050; -850.000; -878.000
396.803;   -6.325;  -72.000;  -23.000
396.931;   76.575; -179.000; -199.000
397.059;   37.900;-1026.000; -989.000
397.187; -119.350;-1026.000; -975.000
397.315; -134.500; -884.000; -649.000
397.443;  -96.225; -592.000; -443.000
397.572;  -98.025; -578.000; -424.000
397.700;   -3.525; -607.000; -614.000
397.828;    3.300;  120.000;  -90.000
397.956;  -58.950; -508.000; -478.000
398.084;  -61.600; -767.000; -626.000
398.212;   32.400;  137.000;  124.000
398.340;   11.125;  -56.000;  159.000
398.468;   35.650; -390.000; -169.000
398.596; -143.425; -993.000; -953.000
398.724; -127.625; -762.000; -767.000
398.852; -163.950;-1024.000; -976.000
398.980;  -53.975; -560.000; -560.000
399.108;  -50.500; -982.000; -735.000
399.236;   46.300;   13.000;    8.000
399.363;   20.325;  222.000;  196.000
399.491;  -75.725; -404.000; -398.000
399.619; -121.350; -829.000; -800.000
399.747;  -99.175; -859.000; -771.000
399.875;   72.725;  220.000;  234.000
400.003;  -59.850; -359.000; -284.000
400.130; -103.600; -421.000; -341.000
400.258;  -37.800;  -83.000;   38.000
400.386;  -66.250; -352.000; -168.000
400.514;  -60.050; -526.000; -587.000
400.641;  -93.000; -928.000; -802.000
400.769; -138.400; -979.000; -888.000
400.897; -113.700; -838.000; -793.000
401.025;  -24.975; -166.000; -152.000
401.152;   -3.250;  220.000;   38.000
401.280;  -84.925; -430.000; -429.000
401.408; -126.550; -712.000; -576.000
401.535; -103.725; -735.000; -758.000
401.663; -198.675;-1134.000;-1054.000
401.790;  -99.675; -514.000; -525.000
401.918;   32.500;  436.000;  405.000
402.046;  -19.375;  134.000;  122.000
402.173;  -36.175;  -18.000;    7.000
402.301;  -73.600; -519.000; -397.000
402.428;   47.475;  528.000;  383.000
402.556; -158.425;-1188.000; -913.000
402.683;  -38.275;  -20.000;   -1.000
402.811;  -33.675;  -37.000; -206.000
402.938;  -30.250;   20.000;   27.000
403.066;  214.550; -574.000; -558.000
403.193;  334.725;  299.000;  239.000
403.321;  251.425; -396.000; -574.000
403.448;  335.275;   83.000;   27.000
403.575;  155.925;  -90.000;  -46.000
403.703; -101.525; -732.000; -557.000
403.830;  -68.250; -531.000; -496.000
403.957; -139.975;-1117.000;-1023.000
404.085;    9.300;  -61.000; -172.000
404.212;  100.900;  -50.000;   63.000
404.339;  271.150; -566.000; -306.000
404.467; 5751.925; -612.000; -524.000
404.594; 3799.050; -287.000; -227.000
404.721;  897.850; -869.000; -764.000
404.848;   79.525; -113.000; -202.000
404.976; -102.975; -856.000; -783.000
405.103;  -18.525;  -14.000;  -82.000
405.230;    0.425;  190.000;  226.000
405.357;   17.075;  117.000;   44.000
405.484;  264.150;  -49.000;    5.000
405.612;   29.525; -548.000; -563.000
405.739;  -67.500; -488.000; -243.000
405.866;   81.050;  669.000;  385.000
405.993;  -50.625; -398.000; -102.000
406.120; -135.000; -801.000; -887.000
406.247;  -66.750; -323.000; -342.000
406.374;  442.475;  540.000;  629.000
406.501;  115.075; -632.000; -702.000
406.628;  -80.750; -621.000; -589.000
406.755;  -96.975; -803.000; -620.000
406.882;  -37.950; -228.000; -277.000
407.009; -107.175; -719.000; -628.000
407.136;   57.150; -480.000; -401.000
407.263;  114.450; -939.000; -829.000
407.390;  -75.425; -692.000; -614.000
407.517; -177.225;-1139.000;-1187.000
407.644;  -74.025; -332.000; -256.000
407.771;  -73.250; -249.000; -287.000
407.898;    0.400;  168.000;  328.000
408.025;  -76.575; -421.000; -313.000
408.151;  -16.425;   82.000;  153.000
408.278;  -71.550; -267.000; -216.000
408.405; -126.025; -931.000; -899.000
408.532;  -73.400; -549.000; -542.000
408.659; -117.025; -677.000; -648.000
408.785; -206.625;-1298.000;-1170.000
408.912;  -58.675; -412.000; -296.000
409.039; -124.525; -610.000; -686.000
409.166; -101.275; -591.000; -555.000
409.292; -104.900; -571.000; -534.000
409.419; -120.925; -665.000; -649.000
409.546;  -75.675; -431.000; -192.000
409.672; -105.750; -713.000; -545.000
409.799;  -19.950;  -36.000;   34.000
409.926;  -57.350; -180.000; -179.000
410.052; -160.425;-1127.000;-1091.000
410.179;  -73.125; -368.000; -392.000
410.305;  -94.250; -375.000; -493.000
410.432;  -51.500; -220.000; -333.000
410.558;  -90.750; -305.000; -380.000
410.685;  -95.250; -688.000; -431.000
410.812; -110.725; -409.000; -588.000
410.938; -141.750; -964.000; -808.000
411.065; -105.075; -671.000; -645.000
411.191;  -20.325; -189.000; -174.000
411.317; -106.550; -823.000; -742.000
411.444;  -64.550; -317.000; -246.000
411.570;  -74.375; -339.000; -294.000
411.697; -123.350; -758.000; -752.000
411.823; -172.675; -989.000; -999.000
411.949;  -31.725;  -56.000;   17.000
412.076; -113.300; -539.000; -519.000
412.202; -119.925; -758.000; -757.000
412.329; -129.975; -798.000; -752.000
412.455; -125.575; -821.000; -657.000
412.581;  -21.250;  -15.000;  172.000
412.707;  -56.600; -540.000; -457.000
412.834;    6.200;  156.000;  219.000
412.960;  -95.000; -785.000; -784.000
413.086; -102.125; -743.000; -701.000
413.212;  129.350;  604.000;  578.000
413.339;  -66.450; -685.000; -701.000
413.465;   -8.525; -364.000; -310.000
413.591;  -90.050; -757.000; -474.000
413.717;  -51.525; -358.000; -366.000
413.843; -134.150; -839.000; -861.000
413.969;  -60.125;  -47.000; -292.000
414.096;  -90.875; -679.000; -679.000
414.222;   -3.950;  -33.000;   85.000
414.348;  -37.825; -652.000; -385.000
414.474;   82.175;   38.000;  -52.000
414.600;   -7.900; -126.000; -144.000
414.726;  -14.175;  -96.000;  -55.000
414.852;  -68.775; -365.000; -342.000
414.978;   29.175;  104.000;  -18.000
415.104;   35.575;   38.000;   80.000
415.230;   25.750; -329.000; -330.000
415.356;   35.350; -409.000; -514.000
415.482;  187.750;   13.000;  -35.000
415.608;  260.600; -247.000; -323.000
415.734;  961.875;   67.000;   38.000
415.860;19868.800; -875.000; -767.000
415.986;14513.225; -685.000; -607.000
416.111; 1262.375; -798.000; -652.000
416.237;  262.075; -424.000; -571.000
416.363; 1102.575; -765.000; -733.000
416.489; 4180.350; -324.000; -251.000
416.615;  445.500; -707.000; -742.000
416.741;  -34.550; -677.000; -784.000
416.866; -100.375; -673.000; -736.000
416.992; -124.175; -801.000; -818.000
417.118;  -22.925;  -41.000;  -80.000
417.244;  -71.125; -798.000; -531.000
417.369;  -84.875; -801.000; -612.000
417.495;   -7.875; -325.000; -254.000
417.621;  -99.125;-1015.000; -803.000
417.746;   -5.850; -579.000; -572.000
417.872;   27.175; -254.000; -144.000
417.998;   39.400; -515.000; -530.000
418.123; 1045.600;-1073.000; -845.000
418.249; 5391.700; -512.000; -601.000
418.374;  747.675; -916.000; -824.000
418.500;  107.900; -383.000; -482.000
418.626;  117.675;   70.000;  -59.000
418.751;  113.400; -549.000; -448.000
418.877;  205.325; -637.000; -643.000
419.002; 1792.650; -688.000; -560.000
419.128;12614.175; -930.000; -721.000
419.253; 3067.100; -967.000; -837.000
419.379;  376.750; -391.000; -338.000
419.504;  388.850;  325.000;  415.000
419.629;  504.550; -393.000; -212.000
419.755; 3563.350; -317.000; -254.000
419.880;21146.250;  -98.000;   67.000
420.006;11469.275; -280.000; -221.000
420.131;29476.325; -662.000; -775.000
420.256; 4259.275; -315.000; -316.000
420.382;  555.875; -665.000; -687.000
420.507;   69.650; -649.000; -778.000
420.632;  122.525; -337.000; -339.000
420.758;  255.200; -251.000; -425.000
420.883;  -84.075; -876.000; -672.000
421.008; -109.150; -775.000; -619.000
421.133;  -84.250; -509.000; -467.000
421.259;  -57.125; -325.000; -259.000
421.384; -124.000; -834.000; -693.000
421.509;  -52.350;-1052.000; -862.000
421.634; 1159.200; -936.000; -820.000
421.759;  496.450; -359.000; -327.000
421.885;  -46.550; -717.000; -656.000
422.010;  -67.550; -673.000; -542.000
422.135; -141.775; -695.000; -727.000
422.260;   26.100;  340.000;  280.000
422.385;  -41.225;   12.000;  -98.000
422.510;   11.825;  151.000;  -26.000
422.635;   19.775;  -87.000;  -43.000
422.760;   94.300; -766.000; -791.000
422.885;   51.500;  -57.000;  -80.000
423.010;  -42.800; -112.000; -169.000
423.135;  -87.475; -481.000; -561.000
423.260;  -22.800; -150.000; -245.000
423.385;   64.775;  476.000;  222.000
423.510;   21.250;   71.000;  -22.000
423.635;   78.950;  133.000;   45.000
423.760;   49.050;  383.000;  328.000
423.885;   60.525;  336.000;  391.000
424.010;   -2.775;  -68.000;  -13.000
424.135;  -22.425;    5.000;  -33.000
424.259;  -92.525; -654.000; -457.000
424.384;  -72.100; -279.000; -272.000
424.509;  -42.175; -260.000; -186.000
424.634; -113.375; -761.000; -623.000
424.759;  -27.025; -688.000; -544.000
424.883;  -12.750; -506.000; -527.000
425.008;  166.375; -502.000; -410.000
425.133; 1997.850; -679.000; -653.000
425.258;  928.625; -517.000; -381.000
425.382; 1016.700; -867.000; -774.000
425.507; 2664.000; -487.000; -543.000
425.632;  431.300; -802.000; -663.000
425.756;  453.350; -256.000; -146.000
425.881; 6576.050; -831.000; -857.000
426.006;17757.925; -604.000; -355.000
426.130; 2782.750; -696.000; -508.000
426.255;  358.050; -611.000; -491.000
426.379;  164.775; -189.000; -577.000
426.504;  369.700;  660.000;  544.000
426.629; 4008.550; -519.000; -466.000
426.753; 2793.800;   64.000;  -46.000
426.878;  310.500; -252.000; -288.000
427.002;  120.475; -651.000; -668.000
427.127; 1593.150;  -35.000; -158.000
427.251;11393.125;  372.000;  401.000
427.375; 3249.325; -191.000; -173.000
427.500; 2336.700; -616.000; -610.000
427.624;  800.850; -234.000; -400.000
427.749;   70.825; -216.000; -225.000
427.873;  -56.250; -499.000; -412.000
427.997;  -44.150; -222.000; -230.000
428.122;   76.350;  795.000;  703.000
428.246;   57.975;  433.000;  434.000
428.371; -127.700; -869.000; -773.000
428.495; -117.125; -624.000; -646.000
428.619;  -20.225; -186.000; -117.000
428.743;   24.300;   65.000;  132.000
428.868;   32.425; -732.000; -643.000
428.992; 1434.175; -219.000; -326.000
429.116;  583.275; -329.000; -357.000
429.240;  271.925;  419.000;  426.000
429.365;  -26.225; -454.000; -574.000
429.489;  -46.300; -638.000; -647.000
429.613;   18.475; -236.000; -177.000
429.737;   28.500; -563.000; -432.000
429.861;  264.475; -247.000; -133.000
429.985; 5522.300; -425.000; -305.000
430.109; 6142.775; -770.000; -908.000
430.234;  698.975;   76.000;  -50.000
430.358;   52.450; -250.000; -160.000
430.482;  -67.625; -672.000; -564.000
430.606;  -76.625; -655.000; -375.000
430.730;   11.225; -437.000; -388.000
430.854;  123.650; -909.000; -835.000
430.978;  -65.650; -795.000; -764.000
431.102;  -84.475; -499.000; -422.000
431.226; -125.850; -874.000; -815.000
431.350;   23.125;  345.000;  422.000
431.474;  -86.975; -661.000; -373.000
431.597; -160.825;-1060.000; -848.000
431.721;  -74.725; -276.000; -267.000
431.845; -132.950; -704.000; -472.000
431.969;  -83.725; -304.000; -349.000
432.093;  -96.875; -395.000; -317.000
432.217;  -15.250;   32.000;   82.000
432.341;  -96.275; -523.000; -518.000
432.464;    1.850;   96.000;   40.000
432.588;  187.300; -401.000; -329.000
432.712;   85.000;  -52.000;  -52.000
432.836;   46.650;  213.000;  263.000
432.959;  -20.875; -372.000; -311.000
433.083;   84.575;   11.000;    2.000
433.207;  373.825;  285.000;  930.000
433.330; 5031.525; -391.000; -200.000
433.454; 6277.650; -654.000; -638.000
433.578; 3580.450;  583.000;  278.000
433.701;  681.450; -623.000; -675.000
433.825;  128.425; -292.000; -299.000
433.949;  173.825;   28.000;  -72.000
434.072;   48.900; -410.000; -323.000
434.196;  -22.325; -309.000; -117.000
434.319; 3711.850;25482.000;25124.000
434.443;  714.875; -656.000; -603.000
434.566; 2663.700;  281.000;   62.000
434.690;  427.875; -637.000; -383.000
434.813;   51.325; -251.000; -173.000
434.937;  -85.425; -569.000; -696.000
435.060;  -45.375; -423.000; -332.000
435.184;  288.300; -492.000; -217.000
435.307;  155.025;  159.000;  102.000
435.431;  -14.750;  -40.000;   24.000
435.554;  -75.525; -399.000; -240.000
435.677;  -80.250; -350.000; -258.000
435.801;  -49.300;  -25.000;   49.000
435.924;   -5.450;    1.000;  -67.000
436.048; -127.625;-1019.000; -732.000
436.171;  -77.000; -240.000;  -66.000
436.294;  -23.350; -248.000; -229.000
436.417;   87.450; -963.000; -849.000
436.541;  -83.100; -814.000; -840.000
436.664;  -55.150; -242.000; -316.000
436.787;  -32.425;   13.000;  113.000
436.910; -109.025; -792.000; -422.000
437.034;    6.400;  142.000;  143.000
437.157;   46.200;  -11.000;    0.000
437.280;  -59.600; -392.000; -292.000
437.403;  -84.450; -982.000; -869.000
437.526;  609.025; -903.000; -865.000
437.649; 2240.550; -505.000; -332.000
437.772;  328.125; -692.000; -540.000
437.896;  137.950;  700.000;  544.000
438.019; -102.675; -758.000; -503.000
438.142;  -80.650; -596.000; -506.000
438.265;  -13.850; -639.000; -670.000
438.388;  556.400; -520.000; -410.000
438.511;   93.775; -597.000; -394.000
438.634;  -56.150; -247.000; -125.000
438.757; -136.300; -693.000; -619.000
438.880;  -32.125;  -34.000;  -57.000
439.003;  -85.775; -417.000; -437.000
439.126;  -73.700; -287.000; -167.000
439.248;  -63.425;  -98.000; -139.000
439.371;  -39.425;    9.000;  -53.000
439.494;   17.250;  510.000;  439.000
439.617;  -51.350;   65.000;  -88.000
439.740; -169.075; -968.000; -816.000
439.863; -150.800; -755.000; -595.000
439.986; -123.300; -476.000; -431.000
440.108;  -55.325; -161.000; -112.000
440.231; -173.600; -950.000; -836.000
440.354;  -51.725;  -64.000; -150.000
440.477;   24.800; -566.000; -542.000
440.599;   -3.250; -200.000; -225.000
440.722; -135.550; -709.000; -586.000
440.845;   55.650;  751.000;  928.000
440.968; -108.475; -415.000; -311.000
441.090;  -60.350; -199.000;  -33.000
441.213; -175.500;-1021.000; -825.000
441.336;  -63.175; -159.000;   -5.000
441.458;  -88.675; -549.000; -396.000
441.581;  -93.725; -628.000; -629.000
441.703;  -81.150; -152.000;   13.000
441.826; -122.875; -557.000; -400.000
441.948;  -55.175;   56.000;   51.000
442.071;   41.025;  555.000;  424.000
442.193; -120.875; -531.000; -485.000
442.316;    1.150;  152.000;   97.000
442.438;   23.425; -233.000;  -10.000
442.561;   69.125;  272.000;  262.000
442.683;  531.825; -809.000; -522.000
442.806; 1162.575;   -8.000;   74.000
442.928;   19.975; -859.000; -604.000
443.051;  -82.200; -577.000; -373.000
443.173; -108.450; -341.000; -339.000
443.295;  -92.875; -263.000; -371.000
443.418;  -80.100; -321.000;  -29.000
443.540;   -4.175; -106.000;   -4.000
443.662; -121.500; -563.000; -465.000
443.785;  -16.075;  335.000;  199.000
443.907;  -95.525; -362.000; -208.000
444.029; -127.675; -767.000; -494.000
444.152; -160.550; -644.000; -554.000
444.274;  -38.850;  -18.000;  -24.000
444.396; -128.950; -461.000; -221.000
444.518; -128.075; -691.000; -454.000
444.640; -120.275; -268.000; -111.000
444.763;  -30.300;  388.000;  249.000
444.885; -131.625; -432.000; -392.000
445.007;  -29.950;   35.000;   86.000
445.129; -114.325; -610.000; -515.000
445.251;  -99.325; -372.000; -439.000
445.373; -145.700; -537.000; -386.000
445.495;    4.325;  242.000;  350.000
445.617;   57.525;  853.000;  753.000
445.739;  -73.250; -215.000;  -97.000
445.861;  -54.200; -245.000; -112.000
445.984;  -38.025; -267.000; -101.000
446.105;  203.225; -418.000; -251.000
446.227;  604.100; -176.000;  -19.000
446.349;   -0.100; -358.000; -249.000
446.471; -100.600; -615.000; -448.000
446.593;  -59.025; -316.000;   19.000
446.715;  -13.350;  -67.000;   41.000
446.837;   54.850;  697.000;  832.000
446.959; -103.050; -457.000; -478.000
447.081; -134.000; -628.000; -518.000
447.203;   48.250;  862.000;  834.000
447.325;  -81.750; -270.000;   42.000
447.446;  -10.175;  286.000;  530.000
447.568; -151.975; -921.000; -803.000
447.690;  -92.650; -236.000; -245.000
447.812; -156.750; -798.000; -519.000
447.933;  -39.825;  155.000;  127.000
448.055;  -67.625; -306.000; -261.000
448.177;  140.275;   31.000;   79.000
448.299;   79.625; -935.000; -727.000
448.420;   35.075;  -25.000;  159.000
448.542;  -44.800;   -3.000;   33.000
448.664;  -20.625;  109.000;  322.000
448.785;  -44.150;  265.000;   83.000
448.907;  -91.675; -614.000; -353.000
449.028;  -44.100; -771.000; -471.000
449.150;   76.500;  492.000;  589.000
449.272; -180.850;-1044.000; -913.000
449.393;   19.225;  612.000;  694.000
449.515; -157.075; -634.000; -581.000
449.636;  -59.050; -264.000; -155.000
449.758;   78.925;  763.000;  622.000
449.879; -101.425; -498.000; -396.000
450.001;  -85.075; -149.000;  -49.000
450.122;  -35.200;  -95.000;  162.000
450.244;  -27.000;   37.000;  364.000
450.365;  -93.825; -495.000; -301.000
450.486;  -46.050;   80.000;  268.000
450.608;   13.375;  393.000;  326.000
450.729;   69.500;  578.000;  645.000
450.850;    5.500; -574.000; -466.000
450.972;  735.575; -552.000; -389.000
451.093; 4907.675;  190.000;  588.000
451.214; 2117.000; -516.000; -337.000
451.336;  394.475;  773.000;  579.000
451.457;   63.750;  264.000;  393.000
451.578;  -36.050; -118.000;  -74.000
451.699; -130.050; -546.000; -540.000
451.821;  -66.875; -284.000;  -50.000
451.942;   -6.100;  278.000;  285.000
452.063;   41.000;  228.000;  419.000
452.184;  526.000;  -54.000;  -49.000
452.305; 1101.925;  103.000;  170.000
452.427;  120.275; -549.000; -301.000
452.548;  -21.375;   23.000;   79.000
452.669;  -51.050; -257.000;  -89.000
452.790;  -57.750;    3.000;  -18.000
452.911;   -3.900;  195.000;  259.000
453.032;  -71.725; -289.000;  -60.000
453.153;  -36.225;  -29.000;   81.000
453.274;   68.250;  737.000;  868.000
453.395;  -47.150;  -51.000;  175.000
453.516;  114.925; 1317.000; 1388.000
453.637;  -62.925; -205.000; -150.000
453.758;  -57.400;   15.000;   69.000
453.879; -128.425; -462.000; -250.000
454.000;   78.775; 1086.000;  948.000
454.121; -120.300; -554.000; -326.000
454.242; -114.775; -599.000; -383.000
454.362;  -42.150;  -99.000;  114.000
454.483;  -42.350; -309.000; -229.000
454.604;   36.575;  512.000;  580.000
454.725; -133.325; -627.000; -555.000
454.846; -133.050; -474.000; -406.000
454.967;  -27.350;  230.000;  539.000
455.087;  -49.400;  179.000;  153.000
455.208;   19.050;  554.000;  856.000
455.329;  -65.800;  -22.000;   82.000
455.450;   24.350;  473.000;  633.000
455.570;  -90.700; -234.000; -211.000
455.691;  -45.150;  201.000;  407.000
455.812; -116.600; -270.000;  -92.000
455.932;  -63.625;  107.000;  -97.000
456.053;  -87.750;   36.000;   24.000
456.173; -111.475; -433.000; -355.000
456.294; -139.400; -476.000; -303.000
456.415;  -67.125;  -73.000;   70.000
456.535;  -39.825;  297.000;  273.000
456.656;  -45.775;  132.000;  240.000
456.776;  -83.025;    3.000;  298.000
456.897;   -9.725;  308.000;  513.000
457.017;  -79.700; -153.000;   -3.000
457.138; -110.175; -402.000; -249.000
457.258;  -29.375;  263.000;  224.000
457.379;  -12.700;  509.000;  521.000
457.499;  -33.875;  443.000;  432.000
457.620; -111.250; -407.000; -231.000
457.740;  -99.650; -132.000;  -11.000
457.860;  -58.725;   87.000;   44.000
457.981;  -58.425;  132.000;  124.000
458.101;  -78.525;  -89.000;   40.000
458.221;   -5.775;  336.000;  402.000
458.342;  -63.125;   -4.000;  -37.000
458.462;   33.475;  617.000;  352.000
458.582;  -40.800; -302.000; -294.000
458.703;    6.725;  303.000;  154.000
458.823;  -39.850;   22.000;  163.000
458.943;   12.700;  341.000;  467.000
459.063;  -28.300; 1124.000;  192.000
459.183;  -18.225;  328.000;  313.000
459.304;    3.350;  315.000;  517.000
459.424;  -65.925; -246.000;  -89.000
459.544;  323.325;  388.000;  764.000
459.664;  841.250;  499.000;  506.000
459.784;  305.075; 1004.000; 1175.000
459.904;   58.325;  867.000;  744.000
460.024;   52.375;  867.000;  684.000
460.144;    6.275;  449.000;  554.000
460.264;   -9.100;  515.000;  327.000
460.385;  -90.025; -145.000; -119.000
460.505;   23.475;  905.000;  858.000
460.625;  -89.100;  -17.000;  -68.000
460.745;  -22.700;  396.000;  541.000
460.864;  -57.275;  153.000;  469.000
460.984;   -4.075;  499.000;  573.000
461.104;  124.825; 1656.000; 1775.000
461.224;   10.450;  657.000;  650.000
461.344;  -26.775;  431.000;  360.000
461.464;  -26.700;  258.000;  513.000
461.584;  -29.575;  283.000;  466.000
461.704;  -55.000;   58.000;  108.000
461.824;  -58.400;  238.000;  259.000
461.943;  -32.175;  191.000;  130.000
462.063;  -72.600;    2.000;  324.000
462.183;   25.375;  639.000;  717.000
462.303;   88.125; 1678.000; 1230.000
462.422;   29.675;  781.000;  840.000
462.542;  -44.275;  271.000;  391.000
462.662;   40.600;  353.000;  380.000
462.782;  219.575;  833.000;  572.000
462.901;  476.950;  545.000;  717.000
463.021;  260.475; 1702.000; 1638.000
463.141;   -8.375;  337.000;  770.000
463.260;  -25.075;  614.000;  474.000
463.380;   15.450;  902.000;  884.000
463.499;  -36.675;  342.000;  332.000
463.619;  -31.850;  581.000;  559.000
463.738;  107.400; 1644.000;  903.000
463.858;   14.650;  657.000;  811.000
463.978;  -42.475;  542.000;  396.000
464.097;   35.350;  921.000; 1114.000
464.217;  116.650; 1196.000; 1143.000
464.336;  104.200; 1068.000; 1130.000
464.455;  -30.625;  328.000;  659.000
464.575;   34.775;  597.000;  602.000
464.694;  175.525; 1204.000; 1179.000
464.814;  138.500; 1190.000; 1138.000
464.933;   75.325; 1095.000; 1027.000
465.052;   98.400; 1412.000; 1054.000
465.172;   88.225;  922.000;  799.000
465.291;  136.250; 1376.000; 1320.000
465.410;   13.325;  462.000;  735.000
465.530;   84.150; 1355.000; 1310.000
465.649;   54.100; 1209.000; 1273.000
465.768;  145.875; 1673.000; 1508.000
465.888;   47.350;  941.000; 1174.000
466.007;   87.050; 1335.000; 1440.000
466.126;   12.275;  721.000;  641.000
466.245;   37.950; 1176.000; 1187.000
466.364;   16.875;  950.000; 1060.000
466.484;   63.150; 1024.000; 1213.000
466.603;   38.050; 1101.000; 1222.000
466.722;  111.175; 1490.000; 1769.000
466.841;   65.475; 1151.000; 1401.000
466.960;   67.200; 1069.000;  972.000
467.079;  126.950; 1971.000; 1786.000
467.198;   39.100; 1238.000; 1181.000
467.317;   81.850; 1768.000; 1162.000
467.436;   66.000; 1709.000; 1261.000
467.555;  122.675; 1796.000; 1746.000
467.674;   68.900; 1227.000; 1329.000
467.793;   54.050; 1376.000; 1374.000
467.912;   89.750; 1658.000; 1539.000
468.031;  144.400; 2038.000; 1930.000
468.150;  144.450; 1842.000; 1837.000
468.269;  197.675; 2313.000; 2090.000
468.388;  192.825; 2168.000; 2339.000
468.507;  253.025; 2884.000; 2903.000
468.626;  230.475; 2555.000; 2541.000
468.744;  136.525; 2018.000; 2174.000
468.863;  199.775; 2312.000; 2523.000
468.982;   87.750; 1503.000; 1555.000
469.101;  225.700; 2788.000; 2692.000
469.220;  156.875; 2333.000; 2176.000
469.338;  248.175; 2935.000; 3051.000
469.457;  201.150; 2719.000; 2545.000
469.576;  351.625; 3953.000; 3784.000
469.695;  244.000; 2877.000; 3066.000
469.813;  427.200; 4148.000; 4192.000
469.932;  405.325; 4255.000; 4485.000
470.051;  430.375; 4075.000; 4161.000
470.169;  831.100; 4470.000; 4338.000
470.288; 1493.975; 4700.000; 4809.000
470.406;  876.375; 5059.000; 5194.000
470.525;  632.800; 6101.000; 5787.000
470.644;  647.375; 6847.000; 6794.000
470.762;  794.475; 8397.000; 7873.000
470.881;  903.400; 8651.000; 8464.000
470.999; 1024.550; 9685.000; 9151.000
471.118; 1100.150;11174.000;10711.000

