
Integration time [ms]: 200.000
Averaging Nr. [scans]: 10
Smoothing Nr. [pixels]: 0
Data measured with spectrometer [name]: 2101012U2
Wave   ;Sample   ;Dark     ;Reference
[nm]   ;[counts] ;[counts] ;[counts] 

197.733;  153.100;  516.000;  404.000
197.879; -156.600; -610.000; -634.000
198.025;  -92.100; -475.000; -420.000
198.171; -137.100; -602.000; -612.000
198.317;  -33.600; -401.000; -316.000
198.463; -144.700; -655.000; -404.000
198.609;  105.400;  181.000; -137.000
198.755; -148.400; -644.000; -410.000
198.901; -143.900; -505.000; -424.000
199.047; -128.900; -615.000; -488.000
199.193;  -72.000; -230.000; -468.000
199.339; -106.600; -222.000; -369.000
199.485;  101.000;  330.000;  271.000
199.631;   24.200;  227.000;  310.000
199.777; -113.600; -466.000; -398.000
199.923; -109.500; -610.000; -424.000
200.069;   27.000; -141.000;  -58.000
200.215;  133.900;  128.000;  453.000
200.361;   96.500;  243.000;  477.000
200.507; -145.800; -600.000; -373.000
200.653;  -15.100; -371.000; -194.000
200.798;  -51.000; -215.000; -125.000
200.944;    2.200; -146.000;  -41.000
201.090;  102.400;   61.000;  222.000
201.236;    6.200; -116.000; -158.000
201.382;  310.700;  874.000;  903.000
201.528;   25.100;  -58.000;  -48.000
201.674;  -61.700; -386.000; -293.000
201.819; -115.800; -540.000; -439.000
201.965; -144.700; -699.000; -447.000
202.111;  -24.500; -273.000; -226.000
202.257;  -98.200; -250.000; -238.000
202.402;   44.900;   13.000;  -36.000
202.548;  -44.400; -169.000; -116.000
202.694;  191.000;  410.000; -183.000
202.840; -148.900; -603.000; -531.000
202.985; -133.500; -681.000; -639.000
203.131; -230.400; -832.000; -666.000
203.277;  -50.100; -199.000; -262.000
203.423;  -88.800; -434.000; -520.000
203.568;  -57.900; -462.000; -237.000
203.714; -112.700; -535.000; -542.000
203.860; -153.100; -682.000; -641.000
204.005;   36.400;  112.000;  167.000
204.151;  203.100;  561.000;  556.000
204.296;  -84.000; -354.000; -221.000
204.442; -141.300; -600.000; -547.000
204.588; -155.600; -592.000; -579.000
204.733;   33.000;  178.000;  168.000
204.879; -278.000;-1018.000; -822.000
205.025;   47.200;  -99.000;  126.000
205.170;   23.700;  -17.000;   94.000
205.316;  174.300;  438.000;  661.000
205.461; -185.700; -698.000; -554.000
205.607;  195.100;  609.000;  665.000
205.752; -138.200; -626.000; -551.000
205.898; -129.100; -501.000; -391.000
206.043; -122.700; -578.000; -506.000
206.189;  -71.800; -243.000; -285.000
206.334;  136.100;  554.000;  606.000
206.480;  178.300;  409.000;  239.000
206.625; -155.200; -529.000; -552.000
206.771;  -89.800; -451.000; -373.000
206.916;  -54.900; -210.000; -537.000
207.062; -142.200; -545.000; -591.000
207.207; -103.800; -546.000; -443.000
207.353;  138.500;  185.000;  460.000
207.498;    5.400;  196.000;   85.000
207.643;  -99.600; -501.000; -370.000
207.789; -235.400;-1069.000; -910.000
207.934; -194.500; -665.000; -713.000
208.080;  -24.800; -154.000;   66.000
208.225;  -12.100;  -22.000;  -57.000
208.370; -158.400; -727.000; -619.000
208.516; -146.800; -741.000; -487.000
208.661;  -58.600; -127.000;  -69.000
208.806;  -34.300; -165.000; -171.000
208.952; -263.000;-1044.000; -731.000
209.097;  140.900;  378.000;  349.000
209.242;  -91.100; -307.000; -382.000
209.387;  120.500;  392.000;  350.000
209.533;  -97.500; -321.000; -350.000
209.678;  169.700;  472.000;  543.000
209.823; -101.300; -408.000; -310.000
209.969; -184.600; -860.000; -757.000
210.114; -246.300; -907.000; -719.000
210.259; -238.700; -939.000; -889.000
210.404;  -26.300; -171.000;  103.000
210.549;   17.100;  108.000;    3.000
210.695;  -33.900;   -3.000;  -95.000
210.840;   65.700;   94.000;   67.000
210.985; -143.000; -484.000; -303.000
211.130;  152.000;  268.000;  406.000
211.275;   27.100;  207.000;  199.000
211.420; -118.000; -300.000; -289.000
211.566; -127.200; -536.000; -489.000
211.711;   70.300;  218.000;  157.000
211.856; -123.600; -545.000; -519.000
212.001;   50.400;  151.000;   44.000
212.146;   15.900;  153.000;   49.000
212.291;  -57.400; -210.000; -186.000
212.436;  -53.900; -280.000;   -6.000
212.581; -187.200; -685.000; -653.000
212.726; -175.100; -487.000; -538.000
212.871;  -65.900; -552.000; -217.000
213.016; -299.100;-1172.000;-1029.000
213.161;  152.800;  406.000;  291.000
213.306; -171.300; -435.000; -577.000
213.451; -176.100; -778.000; -689.000
213.596;  -73.800; -455.000; -347.000
213.741;  -95.100; -448.000; -538.000
213.886; -157.500; -498.000; -517.000
214.031;  -25.300; -294.000; -124.000
214.176;  -72.200; -408.000; -341.000
214.321;  -17.800; -296.000; -157.000
214.466;  -56.700; -163.000;  -43.000
214.611;    2.900;  -61.000;  -10.000
214.756; -231.500; -948.000; -858.000
214.901;  -21.500; -388.000; -226.000
215.046; -236.500; -797.000; -825.000
215.191;   21.700;  128.000;   35.000
215.336;  -11.500; -157.000;  -19.000
215.480; -132.500; -684.000; -505.000
215.625;   -4.600; -175.000;  -19.000
215.770; -139.200; -757.000; -662.000
215.915;   41.400;   -5.000;  -97.000
216.060;   40.900; -113.000;  -21.000
216.205; -204.200; -731.000; -779.000
216.349; -157.200; -470.000; -533.000
216.494; -279.700; -939.000; -867.000
216.639; -232.900; -823.000; -888.000
216.784; -168.500; -577.000; -525.000
216.929;  143.900;  392.000;  281.000
217.073;  -11.100; -244.000;  -31.000
217.218;   26.200;   78.000;  -47.000
217.363; -169.000; -656.000; -618.000
217.507; -160.400; -623.000; -588.000
217.652; -229.900; -845.000; -874.000
217.797; -178.800; -708.000; -659.000
217.942; -228.000; -856.000; -720.000
218.086;  151.500;  608.000;  539.000
218.231;  -23.900; -174.000;  -26.000
218.376;  -41.900; -337.000; -229.000
218.520;   19.900;  -41.000;   96.000
218.665;  -47.900; -338.000; -204.000
218.810;  -87.200; -275.000; -233.000
218.954;   75.200;  201.000;   35.000
219.099; -233.000; -713.000; -963.000
219.243; -116.600; -589.000; -554.000
219.388;  -61.500; -264.000; -136.000
219.532;    4.300; -116.000; -116.000
219.677; -129.100; -564.000; -521.000
219.822;   50.400;   33.000;   89.000
219.966;   27.400;   17.000;  -99.000
220.111;  -25.700; -328.000;  -40.000
220.255; -194.900; -797.000; -750.000
220.400;  -19.600; -180.000; -146.000
220.544; -114.600; -516.000; -450.000
220.689;  -68.600; -422.000; -451.000
220.833;  -19.200; -123.000;  -58.000
220.978;  -56.100; -393.000; -563.000
221.122;   71.500;  319.000;  307.000
221.267; -233.100; -906.000; -837.000
221.411; -126.000; -478.000; -394.000
221.555;    4.000; -104.000;  -23.000
221.700;  -95.100; -329.000; -222.000
221.844;   70.300;  255.000;  272.000
221.989;  -47.200; -328.000; -311.000
222.133;  -56.000; -289.000; -307.000
222.277;  -35.600;    5.000;   78.000
222.422;   63.900;  227.000;  113.000
222.566;  -48.600; -381.000; -214.000
222.711;  -92.000; -414.000; -479.000
222.855; -165.800; -643.000; -586.000
222.999; -125.800; -642.000; -717.000
223.144;  -39.200; -195.000; -194.000
223.288;  106.700;  423.000;  251.000
223.432;   21.400;  184.000;  230.000
223.576;   57.500;  152.000;  -21.000
223.721;  111.800;  364.000;  273.000
223.865; -118.200; -472.000; -475.000
224.009;  498.300; 1673.000; 1631.000
224.153; -141.000; -660.000; -671.000
224.298; -141.800; -531.000; -489.000
224.442;  -31.200;  -74.000;  -33.000
224.586;    3.000; -169.000; -106.000
224.730; -182.200; -858.000; -670.000
224.875; -219.100; -739.000; -688.000
225.019;   55.800;  102.000;  188.000
225.163;  159.900;  208.000;  341.000
225.307;   79.000;   97.000;  -91.000
225.451;   68.000;  360.000;  481.000
225.595;   64.000;  264.000;  176.000
225.739;  -24.700; -170.000;  -94.000
225.884;   20.100;   86.000;    5.000
226.028; -196.600; -760.000; -626.000
226.172;  -78.300; -260.000; -273.000
226.316; -254.300; -941.000; -902.000
226.460; -122.400; -645.000; -493.000
226.604;  -73.900; -406.000; -400.000
226.748; -178.600; -836.000; -733.000
226.892;  -43.600; -227.000; -181.000
227.036;  -91.500; -537.000; -447.000
227.180;  -82.500; -551.000; -375.000
227.324; -129.700; -561.000; -580.000
227.468; -212.500; -819.000; -717.000
227.612;   15.200;  242.000;  -28.000
227.756; -176.700; -845.000; -698.000
227.900;  131.100;  342.000;  441.000
228.044; -112.000; -509.000; -290.000
228.188;  139.500;  448.000;  568.000
228.332; -151.600; -546.000; -472.000
228.476;  -33.200; -223.000; -149.000
228.620;  -30.100; -210.000; -150.000
228.764;  192.600;  431.000;  349.000
228.908;  -18.200; -155.000;   30.000
229.052; -104.000; -615.000; -528.000
229.195;  -21.500; -172.000;   13.000
229.339;  -26.100; -235.000; -305.000
229.483;  -34.300;    5.000; -162.000
229.627;    4.500; -156.000;  139.000
229.771;  -84.500; -218.000; -294.000
229.915;   85.800;  230.000;   79.000
230.059; -169.700; -648.000; -663.000
230.202;  -33.900; -370.000; -317.000
230.346;    2.400; -107.000;  107.000
230.490;  -80.000; -489.000; -521.000
230.634; -197.500; -736.000; -553.000
230.777;  194.400;  478.000;  509.000
230.921;  -55.900; -450.000; -359.000
231.065;  -53.300; -246.000; -286.000
231.209;   74.100;  261.000;  265.000
231.352;   79.100;   54.000;   40.000
231.496;   67.400;  568.000;  188.000
231.640; -110.500; -693.000; -621.000
231.783;  141.900;  546.000;  525.000
231.927;  -63.900; -294.000; -365.000
232.071; -252.500; -962.000; -736.000
232.214; -226.800; -980.000; -764.000
232.358; -190.800; -683.000; -599.000
232.502;   37.200;  -19.000;    7.000
232.645; -285.200;-1090.000; -927.000
232.789;  -16.700; -257.000; -218.000
232.933;  -34.100; -407.000; -224.000
233.076; -264.400;-1038.000; -897.000
233.220; -183.500; -752.000; -777.000
233.363; -127.900; -669.000; -477.000
233.507;  151.700;  371.000;  129.000
233.650; -184.600; -764.000; -834.000
233.794;  123.500;  438.000;  461.000
233.938;  -92.500; -530.000; -362.000
234.081;  -24.000;  -93.000;   31.000
234.225; -124.700; -631.000; -539.000
234.368; -190.600; -773.000; -723.000
234.512;  -79.900; -385.000; -299.000
234.655; -176.400; -582.000; -555.000
234.798; -108.900; -493.000; -466.000
234.942; -267.700; -884.000;-1002.000
235.085; -131.000; -651.000; -443.000
235.229; -129.500; -405.000; -410.000
235.372;  -61.000; -247.000; -191.000
235.516;  -87.200; -397.000; -321.000
235.659;   44.400;   92.000;  121.000
235.802;   17.100;  -38.000;  -22.000
235.946;   60.000;  335.000;  215.000
236.089;   91.200;  126.000;  250.000
236.233;  149.700;  275.000;  298.000
236.376;  -98.100; -235.000; -378.000
236.519;  -71.100; -297.000; -319.000
236.663;  -41.000; -215.000; -117.000
236.806; -274.400;-1029.000; -999.000
236.949;  170.300;  543.000;  431.000
237.092;  150.500;  412.000;  391.000
237.236; -161.500; -589.000; -502.000
237.379;  167.300;  352.000;  428.000
237.522; -224.200; -879.000; -768.000
237.666;    7.000; -271.000;   18.000
237.809; -247.800; -851.000; -823.000
237.952;  109.400;  469.000;  271.000
238.095;  -94.500; -447.000; -442.000
238.238;  214.900;  688.000;  700.000
238.382;   43.300;  166.000;  103.000
238.525; -130.000; -598.000; -511.000
238.668; -278.300;-1060.000; -985.000
238.811; -146.400; -638.000; -643.000
238.954;  -79.200; -483.000; -334.000
239.097;  198.100;  617.000;  664.000
239.241;   82.700;  394.000;  326.000
239.384;  -56.900; -254.000; -214.000
239.527; -145.600; -424.000; -224.000
239.670; -279.000; -994.000;-1091.000
239.813; -213.800; -696.000; -658.000
239.956;  192.000;  579.000;  473.000
240.099; -235.500; -778.000; -725.000
240.242;  163.400;  428.000;  432.000
240.385;  126.800;  466.000;  450.000
240.528; -153.100; -706.000; -473.000
240.671;   56.200;  189.000;  134.000
240.814;  -42.000; -441.000; -158.000
240.957; -174.600; -767.000; -578.000
241.100; -180.300; -779.000; -755.000
241.243; -282.000;-1234.000; -893.000
241.386; -104.400; -508.000; -379.000
241.529; -173.600; -735.000; -547.000
241.672; -105.000; -566.000; -495.000
241.815; -241.900; -832.000; -808.000
241.958;  -58.400; -125.000; -182.000
242.101; -161.900; -545.000; -390.000
242.244;  -81.900; -270.000; -325.000
242.387;  -60.400; -304.000; -246.000
242.530;  152.600;  470.000;  134.000
242.673;  -81.400; -381.000; -309.000
242.815; -213.200; -925.000; -899.000
242.958; -124.800; -482.000; -381.000
243.101;   99.300;  132.000;  187.000
243.244; -171.400; -564.000; -521.000
243.387;  -82.100; -313.000; -316.000
243.530; -186.500; -657.000; -674.000
243.672;   15.300;   43.000;  -92.000
243.815;  -74.300; -355.000; -283.000
243.958;   19.300;   98.000;  -26.000
244.101;   13.000;   59.000;  -16.000
244.243;  -11.400;  -47.000;  101.000
244.386; -180.100; -761.000; -630.000
244.529;  -48.100; -132.000; -139.000
244.672; -300.400;-1154.000; -951.000
244.814; -206.500; -621.000; -794.000
244.957; -124.000; -380.000; -304.000
245.100; -126.300; -489.000; -489.000
245.242; -120.600; -387.000; -374.000
245.385;    7.700;  -59.000;  -39.000
245.528; -237.700; -871.000; -705.000
245.670;  213.800;  612.000;  634.000
245.813; -153.400; -599.000; -547.000
245.956;  -50.900; -324.000; -275.000
246.098; -158.900; -508.000; -650.000
246.241;   37.400;  194.000;   48.000
246.383;   -6.900; -119.000;  -73.000
246.526; -143.200; -454.000; -525.000
246.669; -235.300; -889.000; -780.000
246.811;   51.800;  172.000;   -1.000
246.954; -110.500; -512.000; -426.000
247.096;  -38.300;  -84.000;   -6.000
247.239; -123.800; -482.000; -445.000
247.381; -109.000; -647.000; -488.000
247.524;  196.900;  645.000;  679.000
247.666;   11.600;   58.000;   11.000
247.809; -225.700; -887.000; -691.000
247.951;   -7.100;  -75.000;  138.000
248.094;   76.800;  432.000;  308.000
248.236; -333.200;-1262.000;-1238.000
248.378;   19.800; -356.000;  -81.000
248.521;  -10.600; -334.000; -337.000
248.663;  -83.100; -236.000; -267.000
248.806;   14.500; -300.000; -266.000
248.948; -175.200; -886.000; -763.000
249.090;  -52.300; -428.000; -398.000
249.233;  -82.800; -344.000; -381.000
249.375;  -91.500; -474.000; -451.000
249.518;  -29.700;  -83.000; -133.000
249.660;   45.400; -103.000;    3.000
249.802; -343.800;-1303.000;-1189.000
249.945; -110.400; -612.000; -540.000
250.087; -223.400; -834.000; -768.000
250.229;  -62.900; -362.000; -480.000
250.371; -160.500; -494.000; -439.000
250.514;  -69.600; -310.000; -244.000
250.656;   42.700;   69.000;  102.000
250.798; -213.300; -849.000; -800.000
250.940; -106.000; -322.000; -322.000
251.083;  -35.300; -335.000; -111.000
251.225;  165.700;  338.000;  310.000
251.367;  -56.600; -274.000; -373.000
251.509;  -63.000; -265.000; -210.000
251.651; -199.500; -731.000; -671.000
251.794;  132.200;  538.000;  632.000
251.936; -183.600; -821.000; -747.000
252.078; -127.500; -540.000; -461.000
252.220; -134.700; -645.000; -477.000
252.362;  166.000;  344.000;  462.000
252.504; -110.400; -677.000; -584.000
252.646; -222.100; -875.000; -722.000
252.788;   27.900;   14.000; -128.000
252.931;  -58.200; -257.000; -253.000
253.073;  -59.800; -376.000; -317.000
253.215;   21.500;  141.000;  122.000
253.357;   28.800;   82.000; -153.000
253.499;  -99.400; -374.000; -234.000
253.641; -157.100; -749.000; -594.000
253.783; -168.100; -609.000; -527.000
253.925; -169.500; -586.000; -591.000
254.067; -207.900; -744.000; -667.000
254.209;  -49.300; -391.000; -259.000
254.351; -257.900; -865.000; -883.000
254.493;  -94.100; -441.000; -417.000
254.635; -195.600; -936.000; -818.000
254.777; -186.700; -752.000; -687.000
254.918; -150.100; -512.000; -430.000
255.060; -124.900; -551.000; -395.000
255.202;  -83.900; -473.000; -261.000
255.344; -138.200; -658.000; -455.000
255.486; -124.500; -471.000; -406.000
255.628; -208.000; -780.000; -781.000
255.770; -163.500; -676.000; -536.000
255.912; -105.400; -559.000; -468.000
256.053; -165.300; -730.000; -508.000
256.195;  364.000; 1008.000;  903.000
256.337; -192.700; -861.000; -595.000
256.479;  145.500;  532.000;  416.000
256.621;  -80.500; -394.000; -212.000
256.762; -177.300; -789.000; -742.000
256.904;  142.200;  485.000;  487.000
257.046;  -25.000; -381.000; -271.000
257.188;  -77.100; -351.000; -264.000
257.329; -142.700; -525.000; -464.000
257.471; -215.300; -939.000; -807.000
257.613; -114.100; -584.000; -498.000
257.755; -262.800;-1073.000; -982.000
257.896;   86.900;  286.000;  392.000
258.038; -116.100; -403.000; -352.000
258.180;  -79.400; -354.000; -279.000
258.321; -135.700; -581.000; -457.000
258.463;   32.000;  -71.000;  133.000
258.605; -170.100; -562.000; -570.000
258.746; -206.400; -886.000; -772.000
258.888; -277.200;-1026.000;-1020.000
259.029;   62.400;  121.000;   -8.000
259.171; -154.400; -614.000; -550.000
259.313;   34.200;  -49.000;  -47.000
259.454; -124.400; -536.000; -414.000
259.596;  -69.300; -483.000; -390.000
259.737; -143.600; -590.000; -474.000
259.879;  103.900;  217.000;  311.000
260.020;  205.800;  901.000;  636.000
260.162;  -18.400; -146.000; -253.000
260.303; -210.900; -768.000; -687.000
260.445; -143.400; -609.000; -613.000
260.586;   93.800;  392.000;  157.000
260.728;  -73.500; -360.000; -248.000
260.869; -120.400; -350.000; -343.000
261.011;  219.500;  706.000;  537.000
261.152;  -97.700; -479.000; -319.000
261.293; -130.300; -576.000; -595.000
261.435;  -50.100; -219.000; -184.000
261.576;  -64.000; -455.000; -325.000
261.718;  150.600;  420.000;  470.000
261.859; -216.600; -940.000; -949.000
262.000; -250.700; -951.000;-1016.000
262.142;  -26.800;  -52.000;  -60.000
262.283; -214.100; -808.000; -691.000
262.424; -174.500; -666.000; -625.000
262.566; -279.900;-1161.000; -983.000
262.707; -237.000; -840.000; -830.000
262.848; -230.900; -769.000; -726.000
262.990;  -70.200; -362.000; -345.000
263.131;  194.400;  650.000;  681.000
263.272;   -3.500;  -61.000;  -41.000
263.413; -180.900; -589.000; -561.000
263.555; -107.100; -669.000; -143.000
263.696; -164.500; -550.000; -641.000
263.837;  -80.900; -449.000; -551.000
263.978;   -0.100;   -5.000;  -77.000
264.119;  -77.200; -283.000; -264.000
264.261; -211.300; -847.000; -630.000
264.402;   34.000;   33.000;   40.000
264.543; -164.500; -509.000; -524.000
264.684;   32.800;   61.000;  -50.000
264.825; -125.600; -816.000; -538.000
264.966;   51.000;  -84.000;  -67.000
265.107; -213.400; -646.000; -670.000
265.248; -217.300; -825.000; -812.000
265.390;   23.000;  152.000;   -9.000
265.531;    5.700; -238.000; -107.000
265.672; -167.000; -557.000; -630.000
265.813;  162.000;  563.000;  439.000
265.954; -288.700; -959.000; -940.000
266.095;    5.000; -372.000; -322.000
266.236; -160.100; -686.000; -548.000
266.377;  -36.700; -243.000; -297.000
266.518;  -99.200; -619.000; -547.000
266.659;  120.400;  170.000;  268.000
266.800;   36.500;   83.000;   85.000
266.941; -125.100; -487.000; -478.000
267.082;   83.500;  354.000;   99.000
267.223;  -60.200; -344.000; -273.000
267.364; -204.900; -892.000; -686.000
267.504;    7.600;    3.000;  135.000
267.645;   42.600;  160.000;   67.000
267.786;  -20.400; -147.000;  -86.000
267.927;  -76.700; -473.000; -379.000
268.068;   -8.800; -186.000;  -61.000
268.209;  -70.700; -175.000; -413.000
268.350;  -70.000; -388.000; -532.000
268.490; -148.900; -648.000; -521.000
268.631;   98.600;  127.000;  225.000
268.772; -192.400; -874.000; -647.000
268.913;  -37.700; -328.000; -476.000
269.054;   13.100; -117.000;   12.000
269.194;  -22.500; -418.000; -402.000
269.335; -283.000;-1137.000;-1074.000
269.476;  -30.100;   33.000;  -35.000
269.617;  -73.700; -347.000; -392.000
269.757; -147.000; -713.000; -646.000
269.898; -168.900; -856.000; -613.000
270.039; -103.000; -415.000; -405.000
270.180; -264.800; -952.000; -816.000
270.320;  -52.800; -190.000; -250.000
270.461;  -54.900; -277.000; -249.000
270.602;  -12.600; -186.000; -156.000
270.742; -245.900; -868.000; -943.000
270.883;  -92.600; -442.000; -390.000
271.023;  -68.400; -358.000; -357.000
271.164; -103.500; -607.000; -528.000
271.305; -182.000; -666.000; -654.000
271.445; -161.600; -722.000; -683.000
271.586; -118.000; -462.000; -283.000
271.726;  -52.800; -397.000; -322.000
271.867;  -96.900; -594.000; -534.000
272.008;  341.300; -473.000; -285.000
272.148;  292.200;  462.000;  468.000
272.289;   75.000; -113.000; -181.000
272.429;   71.200;   19.000;  185.000
272.570; -176.500; -633.000; -737.000
272.710; -171.700; -825.000; -775.000
272.851;  -37.100;  113.000; -130.000
272.991; -312.700;-1173.000;-1077.000
273.131; -116.400; -419.000; -459.000
273.272; -151.700; -683.000; -723.000
273.412;   58.200; -143.000;  -31.000
273.553;  -67.200; -488.000; -507.000
273.693;  310.100;  913.000;  858.000
273.834; -133.200; -894.000; -692.000
273.974; -123.400; -664.000; -615.000
274.114; -169.900; -772.000; -560.000
274.255;  184.500;  414.000;  373.000
274.395;   25.700; -180.000; -125.000
274.535;  123.500;  199.000;  350.000
274.676;   67.000;  225.000;   94.000
274.816;   47.900;  110.000;   34.000
274.956; -129.800; -624.000; -690.000
275.097;  -99.000;-1014.000; -922.000
275.237; -200.100; -913.000; -803.000
275.377; -162.000; -778.000; -689.000
275.517; -268.000; -878.000; -937.000
275.658;  -98.800; -590.000; -555.000
275.798;  -81.200; -606.000; -413.000
275.938;   64.200;  215.000;  323.000
276.078; -141.300; -626.000; -395.000
276.218;   51.000;   99.000;  104.000
276.359; -226.300;-1026.000;-1024.000
276.499; -150.400; -605.000; -446.000
276.639;  -37.900; -305.000; -151.000
276.779;  -44.700; -475.000; -357.000
276.919; -170.500; -783.000; -624.000
277.059;   -3.900; -261.000; -212.000
277.199;  -64.700; -357.000; -259.000
277.340;  100.800;  287.000;  175.000
277.480; -213.000; -840.000; -693.000
277.620;  100.300;  192.000;   16.000
277.760; -376.400;-1533.000;-1294.000
277.900;   65.500;  113.000;   33.000
278.040;   56.200;  137.000;  159.000
278.180;  114.900;  270.000;  170.000
278.320;   42.100;   21.000;   56.000
278.460; -118.100; -443.000; -469.000
278.600; -124.100; -708.000; -598.000
278.740;  122.800;  448.000;  224.000
278.880; -109.900; -768.000; -791.000
279.020;   91.700; -194.000; -144.000
279.160; -185.800; -672.000; -595.000
279.300; -218.700; -926.000; -873.000
279.440; -136.800; -709.000; -622.000
279.579;  -77.400;-1014.000; -929.000
279.719;  -66.800; -410.000; -394.000
279.859;  198.300;   -4.000;   41.000
279.999;   73.400; -208.000;  101.000
280.139;  -19.500; -435.000; -387.000
280.279; -144.500; -708.000; -745.000
280.419;   39.400; -229.000; -147.000
280.559;  -46.600; -259.000; -180.000
280.698; -144.700; -790.000; -639.000
280.838; -142.900; -778.000; -800.000
280.978; -167.600; -846.000; -790.000
281.118; -189.000; -811.000; -704.000
281.257;   41.200;   24.000;    6.000
281.397; -191.700;-1094.000; -960.000
281.537; -152.400; -599.000; -712.000
281.677;   11.300; -150.000; -101.000
281.816; -142.200; -700.000; -630.000
281.956;  -29.100; -193.000; -257.000
282.096;  -93.500; -539.000; -396.000
282.235; -213.500; -672.000; -638.000
282.375;    3.700; -243.000;  -98.000
282.515; -166.200; -715.000; -707.000
282.654;  123.300;   29.000;  106.000
282.794;  131.000;  388.000;  244.000
282.934;  -70.200; -530.000; -491.000
283.073; -243.700;-1030.000; -857.000
283.213;  -64.200; -460.000; -467.000
283.353;  -35.900; -408.000; -349.000
283.492;  -43.900; -264.000; -296.000
283.632;  -68.800; -254.000; -168.000
283.771; -157.300; -859.000; -730.000
283.911; -104.400; -369.000; -260.000
284.050; -151.700; -794.000; -748.000
284.190; -288.200;-1229.000;-1096.000
284.329; -258.200;-1055.000; -964.000
284.469; -104.600; -516.000; -591.000
284.608; -102.500; -559.000; -598.000
284.748; -122.800; -614.000; -570.000
284.887;   52.600;  -87.000;  -20.000
285.027; -199.000; -844.000; -892.000
285.166;   -3.100; -192.000; -249.000
285.306;   78.800; -116.000;  -33.000
285.445;  -24.100; -229.000; -343.000
285.584; -199.200; -630.000; -494.000
285.724;  -37.100; -282.000; -322.000
285.863; -168.800; -857.000; -507.000
286.002;  -79.500; -366.000; -276.000
286.142; -199.500; -715.000; -622.000
286.281;  -99.700; -525.000; -493.000
286.420; -118.800; -554.000; -417.000
286.560;  262.500;  653.000;  623.000
286.699; -246.100; -958.000; -912.000
286.838; -118.900; -590.000; -591.000
286.978; -125.200; -533.000; -537.000
287.117; -232.800;-1085.000; -950.000
287.256;  -47.200; -228.000; -211.000
287.395;  -50.100; -197.000; -378.000
287.535;  -59.200; -370.000; -298.000
287.674; -125.200; -509.000; -484.000
287.813;  161.700;  661.000;  533.000
287.952; -209.300;-1010.000; -871.000
288.091; -263.200;-1049.000; -915.000
288.231;   69.000;   13.000;   15.000
288.370; -311.900;-1217.000;-1200.000
288.509; -129.200; -728.000; -645.000
288.648; -133.200; -770.000; -548.000
288.787;   -3.200; -243.000;  -87.000
288.926;  -83.600; -454.000; -475.000
289.065;  323.400;  859.000;  672.000
289.204;  -49.300; -377.000; -217.000
289.344; -118.400; -791.000; -690.000
289.483;  102.600;  416.000;  304.000
289.622;   21.100; -291.000; -149.000
289.761;   23.300; -309.000; -166.000
289.900; -150.400; -785.000; -626.000
290.039;   31.000;  -12.000;  -95.000
290.178;  -31.200; -274.000; -180.000
290.317; -115.200; -618.000; -479.000
290.456;  -83.600; -463.000; -451.000
290.595; -254.900; -961.000; -833.000
290.734; -234.900; -904.000; -891.000
290.873;  -96.700; -456.000; -420.000
291.011; -216.800; -833.000; -843.000
291.150; -175.300; -770.000; -682.000
291.289;   -0.600; -343.000; -110.000
291.428; -172.100; -599.000; -480.000
291.567;  -80.900; -370.000; -442.000
291.706;   41.100;  109.000;  154.000
291.845; -146.800; -597.000; -505.000
291.984; -307.500;-1234.000;-1061.000
292.122;  179.700;  602.000;  582.000
292.261;  174.000;  620.000;  463.000
292.400;   44.700; -144.000;  211.000
292.539; -233.100; -959.000; -813.000
292.678;  -23.700; -325.000; -300.000
292.816; -283.400;-1136.000; -965.000
292.955; -131.100; -844.000; -684.000
293.094;    1.600; -173.000; -337.000
293.233;  -51.800; -556.000; -400.000
293.371;  -27.500; -225.000;  -84.000
293.510; -162.500; -866.000; -780.000
293.649; -229.200; -959.000; -924.000
293.787;  -96.400;-1083.000;-1012.000
293.926;   19.200; -113.000;  -32.000
294.065;  -33.200; -379.000; -290.000
294.203;  128.100;  298.000;  406.000
294.342;  103.200;   74.000;  156.000
294.481;13312.600;51180.000; -836.000
294.619;  -21.900; -425.000; -582.000
294.758; -258.400;-1230.000;-1137.000
294.896;  157.800; -125.000;    5.000
295.035; -239.700;-1040.000;-1006.000
295.174; -202.300;-1082.000; -954.000
295.312;  -60.900; -323.000; -203.000
295.451;   31.900; -307.000; -428.000
295.589;  -64.300; -389.000; -518.000
295.728;   69.200; -292.000; -165.000
295.866;   51.000;  -36.000;  -51.000
296.005;  -95.100; -584.000; -341.000
296.143; -124.200; -558.000; -596.000
296.282; -151.900; -957.000; -881.000
296.420; -152.900; -657.000; -557.000
296.559; -133.000; -892.000; -633.000
296.697;   64.100; -847.000; -665.000
296.835;  145.600;-1141.000;-1002.000
296.974;  163.000;  -23.000;   39.000
297.112;   47.100; -443.000; -504.000
297.251;  -99.800; -815.000; -755.000
297.389;  219.700; -576.000; -438.000
297.527;  126.100; -145.000;  -83.000
297.666;  -46.900; -486.000; -438.000
297.804;  -51.700; -404.000; -264.000
297.942;   35.900; -136.000; -161.000
298.081;   40.500; -183.000;   63.000
298.219;  144.200;  -17.000;  -19.000
298.357;  126.200; -144.000;  -71.000
298.495;   62.500; -810.000; -812.000
298.634;  197.100;  245.000;  219.000
298.772;  139.600; -220.000; -338.000
298.910;   -7.000; -309.000; -182.000
299.048;   37.300; -130.000; -153.000
299.187;  -43.500; -350.000; -250.000
299.325;   83.800;   52.000;  122.000
299.463;  135.700; -389.000; -299.000
299.601;  267.700; -327.000; -271.000
299.739; -195.500; -908.000; -883.000
299.877; -139.600; -791.000; -703.000
300.016; -108.100;-1095.000; -935.000
300.154;  328.900;  -19.000; -161.000
300.292;  172.500; -428.000; -348.000
300.430;   94.800; -408.000; -291.000
300.568; -166.300; -940.000; -874.000
300.706;  -65.800; -366.000; -469.000
300.844; -140.100;-1108.000; -979.000
300.982;  274.300;  246.000;  282.000
301.120; -202.900; -965.000; -866.000
301.258;  -89.600; -812.000; -705.000
301.396;  102.800;  104.000;  -41.000
301.534;  185.700; -218.000; -293.000
301.672;   25.400; -664.000; -521.000
301.810;  114.700; -613.000; -545.000
301.948;  284.000;   53.000;  149.000
302.086; 1163.700; -250.000;  -32.000
302.224; 1788.600; -610.000; -585.000
302.362;  147.300; -558.000; -622.000
302.500;  -30.700; -923.000; -893.000
302.638;  252.100;  128.000;  245.000
302.776;   68.800; -352.000; -408.000
302.913;  159.400;  447.000;  236.000
303.051;   63.300;  -86.000;  -23.000
303.189;  146.300;   90.000;  118.000
303.327;  -16.000; -341.000; -256.000
303.465; -150.600; -832.000; -588.000
303.603; -132.300; -805.000; -604.000
303.740;  253.000;  417.000;  241.000
303.878;   54.800; -800.000; -759.000
304.016; -154.100; -915.000; -790.000
304.154; -230.400;-1123.000;-1152.000
304.291;  -45.000; -505.000; -554.000
304.429;   90.600;  102.000;   74.000
304.567; -208.900; -908.000; -893.000
304.705;  -91.900; -408.000; -515.000
304.842;  220.600; -616.000; -540.000
304.980;  178.000;  215.000;   35.000
305.118;  124.200; -367.000; -365.000
305.255; -115.200; -945.000; -927.000
305.393;  163.000;  178.000;  239.000
305.531; -174.700;-1173.000; -956.000
305.668;  -89.000; -663.000; -582.000
305.806;  222.200; -358.000; -439.000
305.943;  245.800; -629.000; -637.000
306.081;  147.900; -378.000; -267.000
306.219; -162.000; -863.000; -748.000
306.356;   50.700;  158.000;   27.000
306.494;  327.600;  981.000;  761.000
306.631;    6.700;  -11.000;  -55.000
306.769;   51.700; -613.000; -485.000
306.906;   -5.300; -284.000; -258.000
307.044;  -66.700; -473.000; -488.000
307.181;  -68.300; -410.000; -332.000
307.319;  113.900;  112.000;   87.000
307.456; -296.600;-1191.000;-1153.000
307.594; -135.400; -980.000; -727.000
307.731;   24.800; -371.000; -164.000
307.868;   60.100;  -15.000;   20.000
308.006; -194.800; -961.000; -847.000
308.143; -102.200; -618.000; -330.000
308.281;  453.500;  -37.000; -254.000
308.418;   57.500; -748.000; -640.000
308.555; -123.000; -400.000; -250.000
308.693;  -94.500; -577.000; -573.000
308.830; -142.500; -712.000; -657.000
308.967;   27.400; -215.000;  -95.000
309.105;   -1.400; -507.000; -396.000
309.242;  176.700; -468.000; -367.000
309.379;  878.400; -577.000; -655.000
309.517;    9.600; -936.000; -948.000
309.654; -140.200; -910.000; -734.000
309.791;  -71.300; -662.000; -580.000
309.928; -166.400; -977.000; -914.000
310.065;  422.700;  819.000;  697.000
310.203;    8.900; -825.000; -850.000
310.340;   28.300; -465.000; -321.000
310.477; -112.400; -412.000; -516.000
310.614;  -80.800; -383.000; -473.000
310.751;  -79.600; -427.000; -518.000
310.889;   50.800;    1.000;   11.000
311.026; -233.900;-1161.000; -939.000
311.163;  -57.100; -386.000; -380.000
311.300;  -95.900; -512.000; -479.000
311.437;  -80.600; -658.000; -619.000
311.574; -273.300;-1226.000; -985.000
311.711;  -58.300; -595.000; -433.000
311.848;  -30.300; -380.000; -388.000
311.985;  102.300;  270.000;   93.000
312.122; -175.000; -932.000; -762.000
312.259; -201.500; -941.000; -994.000
312.396; -107.300; -508.000; -551.000
312.533; -106.300; -812.000; -790.000
312.670; -183.800;-1070.000; -898.000
312.807;   -3.200; -352.000; -367.000
312.944;  -91.700; -513.000; -611.000
313.081;   22.000; -150.000; -415.000
313.218; -171.900;-1111.000; -867.000
313.355;   28.600; -531.000; -449.000
313.492;   57.600; -455.000; -292.000
313.629;  365.800;  815.000;  735.000
313.766; -266.400;-1176.000;-1008.000
313.902;   18.100; -186.000;   21.000
314.039;  -31.600; -372.000; -289.000
314.176;  122.000;  286.000;  192.000
314.313; -114.600; -569.000; -473.000
314.450;  -85.800; -788.000; -684.000
314.587;  -62.700; -468.000; -480.000
314.723;   46.900;  -78.000;  130.000
314.860;  100.400;  318.000;  332.000
314.997;  149.700;  223.000;  142.000
315.134;  -27.000; -385.000; -368.000
315.270;   -8.300; -480.000; -496.000
315.407; -212.500;-1094.000; -967.000
315.544;  -69.800; -657.000; -538.000
315.681;  -71.400; -681.000; -565.000
315.817;   99.400; -133.000; -176.000
315.954;   56.700; -613.000; -392.000
316.091; -213.100;-1045.000;-1023.000
316.227;    9.600;  -71.000; -179.000
316.364;   51.600;   23.000;    6.000
316.500;   -4.500; -113.000; -300.000
316.637;  -31.000; -181.000; -302.000
316.774; -114.500; -625.000; -358.000
316.910; -158.800; -598.000; -629.000
317.047; -102.500; -487.000; -351.000
317.183;  -30.900; -435.000; -566.000
317.320;   14.800; -367.000; -321.000
317.456;  -69.500; -733.000; -805.000
317.593; -140.400; -598.000; -641.000
317.729;   76.200;  168.000;  -67.000
317.866; -359.500;-1434.000;-1285.000
318.002; -110.500; -708.000; -948.000
318.139; -176.400; -883.000; -867.000
318.275; -142.600;-1003.000; -738.000
318.412; -100.500; -517.000; -336.000
318.548;   -9.700; -751.000; -720.000
318.685; -153.400; -985.000; -888.000
318.821; -150.600; -762.000; -735.000
318.957;   12.800;   34.000;  -23.000
319.094;  128.600;  297.000;  154.000
319.230; -115.700; -756.000; -742.000
319.367;  273.200; -471.000; -520.000
319.503;  167.900; -538.000; -436.000
319.639; -160.100; -877.000; -793.000
319.775;  -69.200; -750.000; -685.000
319.912;  -24.000; -424.000; -519.000
320.048; -160.200;-1184.000;-1184.000
320.184;  214.700;   59.000;   70.000
320.321;  -83.100; -497.000; -467.000
320.457;  191.100;  475.000;  662.000
320.593;  -78.400; -375.000; -382.000
320.729; -183.700; -732.000; -734.000
320.866; -103.300; -577.000; -635.000
321.002; -113.800; -759.000; -809.000
321.138;   34.500; -135.000; -211.000
321.274;  147.600; -148.000; -115.000
321.410;  -12.300; -585.000; -353.000
321.546;  -12.600;-1011.000; -911.000
321.683;  152.700;  400.000;  185.000
321.819;   61.600;  -48.000; -117.000
321.955; -183.600; -743.000; -722.000
322.091;  -61.100; -585.000; -540.000
322.227;   29.400; -382.000; -202.000
322.363;   28.700; -320.000; -215.000
322.499;  -53.000; -343.000; -331.000
322.635;  386.700;  636.000;  443.000
322.771;  118.300; -139.000;   12.000
322.907;  246.200;  129.000;  327.000
323.043;   16.600; -115.000; -206.000
323.179;  -41.200; -394.000; -363.000
323.315;   91.400; -401.000; -371.000
323.451;  233.600; -328.000; -236.000
323.587;  166.800;  -60.000;  -77.000
323.723;   41.300; -682.000; -601.000
323.859;    2.300; -258.000;  -76.000
323.995;    1.100; -467.000; -409.000
324.131; -177.900; -967.000; -892.000
324.267;  -20.800; -254.000; -276.000
324.402; -227.400; -960.000; -983.000
324.538;   36.000; -279.000; -104.000
324.674;   98.000;  164.000;   77.000
324.810;  327.400;  226.000;  308.000
324.946;   50.300; -810.000; -658.000
325.082;  -77.300; -568.000; -475.000
325.217;   10.700;  -62.000;   16.000
325.353; -148.200; -764.000; -659.000
325.489; -164.400; -540.000; -506.000
325.625;  -78.200; -579.000; -525.000
325.760;  181.500;  517.000;  376.000
325.896;   -5.900; -515.000; -702.000
326.032;  -62.200; -403.000; -352.000
326.168; -101.200; -462.000; -369.000
326.303;  -67.700; -352.000; -461.000
326.439;  -21.700; -336.000; -276.000
326.575;   65.500; -190.000;  -29.000
326.710;   51.600; -156.000;  -30.000
326.846;   59.200;  146.000;  103.000
326.982; -120.400; -530.000; -548.000
327.117; -110.100; -481.000; -442.000
327.253; -139.600; -745.000; -742.000
327.388; -269.600;-1137.000;-1153.000
327.524;  -47.200; -811.000; -578.000
327.659;   40.700;  -58.000;  -22.000
327.795;   56.900;   69.000;   45.000
327.931; -127.400; -723.000; -499.000
328.066;   50.800; -417.000; -276.000
328.202;   70.000;   12.000; -129.000
328.337;  264.200;  957.000;  713.000
328.473;   21.000;  -12.000;  -74.000
328.608;   -4.000; -256.000; -267.000
328.743; -127.000; -799.000; -664.000
328.879;   89.600;  214.000;  114.000
329.014;  -53.300; -102.000; -122.000
329.150; -128.400; -358.000; -483.000
329.285; -106.300; -465.000; -466.000
329.421;  -32.000; -548.000; -246.000
329.556;    3.600;  -36.000;   85.000
329.691; -166.400; -633.000; -615.000
329.827; -139.600; -626.000; -480.000
329.962;  -11.400;  131.000; -301.000
330.097; -141.800; -673.000; -585.000
330.233;  -60.900; -410.000; -223.000
330.368; -205.100; -839.000; -628.000
330.503;   48.800;    3.000;   98.000
330.638;   44.600;  -93.000; -125.000
330.774;  -65.600; -609.000; -530.000
330.909;  -23.900; -434.000; -244.000
331.044; -172.800; -714.000; -708.000
331.179; -315.600;-1217.000;-1109.000
331.315;   54.300;   77.000;   20.000
331.450;  106.500;  157.000;  285.000
331.585; -149.300; -805.000; -706.000
331.720; -106.100; -510.000; -460.000
331.855;   64.900;  -35.000; -102.000
331.990;  504.800;   62.000;  138.000
332.126;  319.300; -110.000;   71.000
332.261;   47.400; -379.000; -265.000
332.396;   66.600; -135.000; -242.000
332.531; -175.300;-1074.000;-1031.000
332.666;  117.200; -519.000; -363.000
332.801; -187.300; -726.000; -807.000
332.936;   31.300; -192.000; -122.000
333.071; -268.100; -870.000; -817.000
333.206;   95.200;  307.000;  379.000
333.341;  136.600;  344.000;  418.000
333.476; -119.900; -627.000; -623.000
333.611;   -4.600; -251.000; -173.000
333.746;  -14.000; -381.000; -464.000
333.881; -172.000; -973.000; -935.000
334.016; -217.100; -936.000; -917.000
334.151; -203.100; -746.000; -702.000
334.286;  122.500;  152.000;  186.000
334.421;   46.800; -125.000; -178.000
334.556; -124.400; -611.000; -567.000
334.690; -101.100; -631.000; -577.000
334.825;  177.500;  381.000;   83.000
334.960;  -56.400; -285.000; -413.000
335.095;   96.500;  135.000;  -91.000
335.230; -153.800; -722.000; -738.000
335.365; -232.500;-1084.000; -990.000
335.499; -196.900;-1108.000;-1037.000
335.634;   78.500;    9.000;  534.000
335.769; -170.000; -755.000; -720.000
335.904;  -67.500; -603.000; -561.000
336.038;  -51.600; -735.000; -657.000
336.173; -175.800;-1206.000;-1194.000
336.308;   41.800; -116.000; -189.000
336.443;  112.900; -544.000; -634.000
336.577; -122.500; -936.000; -787.000
336.712;  207.300;   -4.000;  -12.000
336.847;  -46.600; -724.000; -607.000
336.981;  189.000; -272.000; -208.000
337.116;  590.200;  615.000;  501.000
337.250;  347.200; -434.000; -421.000
337.385;  523.800; -297.000; -208.000
337.520;  209.400; -632.000; -603.000
337.654;  -42.100; -215.000; -126.000
337.789; -193.800; -989.000; -933.000
337.923;  -13.700; -104.000; -205.000
338.058; -112.100; -673.000; -738.000
338.192;  -17.000; -611.000; -488.000
338.327;   68.600;  -18.000; -155.000
338.461;  -19.500; -299.000; -469.000
338.596; -135.600; -780.000; -638.000
338.730; -145.200; -767.000; -803.000
338.865;  237.700;  -46.000; -140.000
338.999;  -77.200; -846.000; -702.000
339.134;  -24.700; -634.000; -536.000
339.268;   45.600; -741.000; -603.000
339.403;  705.800; -740.000; -775.000
339.537;  237.600; -894.000; -820.000
339.671; -155.800; -829.000; -813.000
339.806;  -94.600; -556.000; -512.000
339.940;   67.400; -261.000; -235.000
340.074; -127.800; -685.000; -510.000
340.209;  -61.700; -351.000; -230.000
340.343; -142.100; -517.000; -573.000
340.477;  372.300;  998.000; 1036.000
340.612; -108.400;-1033.000; -900.000
340.746;  282.900; -199.000; -243.000
340.880;  -95.200; -924.000; -785.000
341.014;   21.900;  -45.000; -154.000
341.149; -180.300; -756.000; -718.000
341.283; -173.800; -839.000; -754.000
341.417; -159.900;-1124.000; -938.000
341.551;  297.300; -768.000; -708.000
341.685;  -10.500; -633.000; -611.000
341.820;  -39.100; -562.000; -493.000
341.954;  -60.900; -218.000; -349.000
342.088; -244.600;-1102.000;-1019.000
342.222;  129.200;  565.000;  618.000
342.356;  -89.100; -395.000; -335.000
342.490; -115.200; -880.000; -841.000
342.624;  -64.900; -339.000; -242.000
342.758;   45.500; -364.000; -312.000
342.892;  -79.900; -710.000; -585.000
343.026;  -31.100;  -58.000; -116.000
343.160;  -61.600; -426.000; -376.000
343.294;  -97.200; -474.000; -337.000
343.428;   -4.800; -488.000; -448.000
343.562;   28.800; -172.000;  -23.000
343.696;  -19.500; -385.000; -314.000
343.830;   10.200; -362.000; -356.000
343.964;   85.600; -231.000; -168.000
344.098; 1737.700;  199.000;   70.000
344.232; 1434.500; -266.000; -127.000
344.366;  213.900; -567.000; -453.000
344.500;  161.300; -665.000; -744.000
344.634;  123.400; -324.000; -164.000
344.768;   40.900; -531.000; -341.000
344.902;   80.300;  278.000;  256.000
345.035;  -88.000; -556.000; -496.000
345.169; -200.400; -933.000; -656.000
345.303;  -18.900; -308.000; -482.000
345.437; -104.100; -826.000; -717.000
345.571; -112.200; -675.000; -594.000
345.704;  -96.300; -309.000; -532.000
345.838;   22.600; -331.000; -284.000
345.972;   12.900; -543.000; -495.000
346.106;  359.000; -179.000; -190.000
346.239;  849.400; -312.000; -243.000
346.373;   39.400; -343.000; -302.000
346.507; -211.300; -950.000; -962.000
346.640;  337.000;  -30.000;   13.000
346.774;  -55.300; -650.000; -797.000
346.908;   30.700; -138.000;  -11.000
347.041; -139.300; -646.000; -593.000
347.175;   87.400;  259.000;   27.000
347.309; -120.000; -698.000; -628.000
347.442; -115.900; -883.000; -732.000
347.576;  623.800;  670.000;  668.000
347.709;  421.300; -123.000;  -52.000
347.843; -134.300; -933.000; -825.000
347.976;  127.900;  235.000;  294.000
348.110; -317.600;-1268.000;-1186.000
348.243; -145.700; -679.000; -772.000
348.377;   71.600;  -26.000;   60.000
348.510;  185.700;  403.000;  540.000
348.644;  -26.900;  -37.000; -159.000
348.777;   46.000;  180.000;  191.000
348.911;  -40.400; -142.000; -112.000
349.044;  376.000;  471.000;  448.000
349.178;  331.100;-1069.000;-1006.000
349.311;  295.400;  141.000;  255.000
349.444;   40.400; -927.000; -813.000
349.578;   34.500; -347.000; -200.000
349.711; -148.200; -959.000; -862.000
349.845;   74.700; -661.000; -591.000
349.978; -228.200;-1224.000;-1137.000
350.111; -126.200; -546.000; -612.000
350.244; -111.400; -596.000; -700.000
350.378;   68.100; -392.000; -393.000
350.511;  -60.700; -393.000; -426.000
350.644; -147.400; -808.000; -806.000
350.778;   56.500;  168.000;  104.000
350.911;   69.000;  134.000;  140.000
351.044; -124.200; -685.000; -615.000
351.177;   -1.900; -321.000; -281.000
351.310;   33.200;    3.000; -131.000
351.444;  -77.600; -888.000; -788.000
351.577;  299.700;  140.000;   90.000
351.710;  284.500;  593.000;  417.000
351.843;   -3.200; -165.000;  -77.000
351.976;   71.600;  149.000;  -79.000
352.109; -129.000; -621.000; -612.000
352.242;  -25.700; -464.000; -419.000
352.376;  -57.700; -580.000; -636.000
352.509;  389.500; -437.000; -356.000
352.642;   28.700; -654.000; -604.000
352.775;  188.800; -141.000;  -98.000
352.908; -199.000; -933.000; -904.000
353.041; -149.700; -814.000; -824.000
353.174;  -67.200; -551.000; -424.000
353.307; -133.600; -753.000; -764.000
353.440;  195.600;  541.000;  453.000
353.573; -158.900; -957.000;-1008.000
353.706;    3.100; -384.000; -558.000
353.839;   -7.600; -264.000; -220.000
353.971; -138.100; -657.000; -512.000
354.104; -126.500; -896.000; -835.000
354.237;  -43.900; -627.000; -662.000
354.370; -102.300; -846.000; -879.000
354.503; -331.700;-1231.000;-1308.000
354.636;  -17.200; -529.000; -348.000
354.769; -210.700; -937.000; -860.000
354.902;   39.400; -230.000; -139.000
355.034;   29.400; -164.000; -220.000
355.167;   26.400; -262.000; -162.000
355.300; -138.200;-1061.000; -880.000
355.433; 1905.200;  -71.000;  -14.000
355.565; 2861.500; -402.000; -384.000
355.698;  776.000; -356.000; -296.000
355.831;    9.200; -882.000; -801.000
355.964;  222.900; -285.000; -170.000
356.096; -140.500; -856.000; -843.000
356.229;   87.700; -523.000; -530.000
356.362;  674.400; -373.000; -266.000
356.494; 1199.400; -229.000; -162.000
356.627; 1007.200;  269.000;  377.000
356.760; 1322.100;  120.000;   53.000
356.892; 1905.900; -286.000; -601.000
357.025; 1283.700;  403.000;  389.000
357.157; 1233.400; -167.000; -179.000
357.290; 1297.100; -856.000; -713.000
357.423;  393.700; -667.000; -556.000
357.555;  278.800; -217.000; -228.000
357.688;  293.500; -483.000; -364.000
357.820;  760.800; -870.000; -877.000
357.953; 6652.100; -563.000; -589.000
358.085; 1507.600; -632.000; -612.000
358.218; 2270.700;-1131.000; -932.000
358.350;  439.900;  -58.000;  312.000
358.483; -203.800;-1300.000;-1187.000
358.615;    9.100;-1182.000;-1078.000
358.747;  -62.900;-1187.000;-1058.000
358.880;   86.300; -810.000; -744.000
359.012;   68.400; -376.000; -202.000
359.145;  -56.600; -480.000; -511.000
359.277;  132.600; -962.000; -913.000
359.409; 5535.600;  536.000;  231.000
359.542; 1443.400; -738.000; -688.000
359.674;  200.800;   46.000;   13.000
359.806;  -65.000; -565.000; -438.000
359.939;   -7.000; -617.000; -516.000
360.071;    9.200; -583.000; -579.000
360.203;   22.700; -411.000; -364.000
360.335;  174.700;  164.000;  -16.000
360.468;  408.100; -249.000; -307.000
360.600; 4439.100; -547.000; -454.000
360.732; 5233.000; -546.000; -423.000
360.864;  711.000;-1216.000;-1044.000
360.996;  602.400; -516.000; -554.000
361.129;  138.000; -389.000; -598.000
361.261;   98.500;  110.000; -113.000
361.393;   23.700; -252.000; -214.000
361.525;  139.100;   94.000;  244.000
361.657;  -49.700; -821.000; -703.000
361.789;   77.000; -139.000; -155.000
361.921;  494.400; -642.000; -593.000
362.053;  599.800;  524.000;  541.000
362.185;  158.000;  288.000;   72.000
362.318;  -90.100; -709.000; -705.000
362.450;  319.700;  294.000;  444.000
362.582;  275.900; -913.000; -870.000
362.714;   -6.300; -353.000; -332.000
362.846; -101.300; -606.000; -490.000
362.978; -236.700; -941.000; -811.000
363.109;  189.600; -161.000; -260.000
363.241;  908.400; -739.000; -749.000
363.373;  885.600; -649.000; -564.000
363.505; 1308.700; -186.000;  -91.000
363.637;  350.200; -787.000; -601.000
363.769; -177.200;-1067.000;-1080.000
363.901;  -73.800; -596.000; -654.000
364.033; -199.500;-1103.000;-1062.000
364.165;   45.000; -283.000; -283.000
364.296;  203.000; -316.000; -177.000
364.428;  174.000;-1344.000;-1220.000
364.560;  -94.300; -679.000; -661.000
364.692; -100.000; -738.000; -835.000
364.824;  586.800; -588.000; -456.000
364.955;  919.800; -402.000; -564.000
365.087; 1768.500;-1097.000; -852.000
365.219;   77.000; -686.000; -816.000
365.351;  -91.600; -526.000; -572.000
365.482;  181.400;  300.000;  240.000
365.614;  -17.100; -402.000; -314.000
365.746; -129.700; -729.000; -752.000
365.877; -139.900; -706.000; -672.000
366.009;  563.800;  -35.000;  -62.000
366.141; -148.800;-1249.000;-1134.000
366.272; -151.800; -803.000; -719.000
366.404; -159.400;-1005.000; -874.000
366.535;   60.700; -139.000;  -12.000
366.667; -134.500; -644.000; -649.000
366.799;  177.000;  353.000;  203.000
366.930; -169.400; -862.000; -996.000
367.062;  327.700; -639.000; -613.000
367.193;  308.500; -872.000; -842.000
367.325;  -54.400; -580.000; -684.000
367.456;  159.200; -246.000;   31.000
367.588;  405.300; -371.000; -318.000
367.719;  104.900;  -44.000;  -45.000
367.851;   36.400; -222.000; -241.000
367.982;  -57.600; -875.000; -732.000
368.113;  246.100; -475.000; -358.000
368.245; -176.900; -960.000; -841.000
368.376;   60.000; -254.000; -302.000
368.508;   16.800; -188.000; -263.000
368.639; -233.600;-1166.000;-1034.000
368.770;   23.800; -670.000; -589.000
368.902;  -56.800; -836.000; -926.000
369.033; -143.200; -906.000; -855.000
369.164;  -50.800; -720.000; -653.000
369.296; -154.300; -452.000; -601.000
369.427;   75.400; -209.000; -144.000
369.558;  -39.000; -593.000; -377.000
369.689; -110.500; -721.000; -569.000
369.821; -194.800; -951.000; -845.000
369.952;   44.500;   42.000; -108.000
370.083;  -35.200; -229.000; -108.000
370.214;  -97.900; -735.000; -650.000
370.345;   44.600;   65.000;   81.000
370.477; -130.300; -810.000; -790.000
370.608;  488.200; -328.000; -264.000
370.739;  -74.900;-1233.000;-1292.000
370.870;  -19.200;-1102.000; -923.000
371.001;  228.700; -378.000; -467.000
371.132; -110.400; -754.000; -735.000
371.263;   46.300;  -42.000; -148.000
371.394; -206.600; -841.000; -748.000
371.525;  125.200;  345.000;  225.000
371.657; -113.700; -808.000; -670.000
371.788;  207.900;  103.000;  199.000
371.919;  400.300; -384.000; -304.000
372.050; 6848.700;  -91.000; -156.000
372.181; 2014.600; -188.000; -294.000
372.311;  816.900;   42.000; -127.000
372.442;   64.700; -457.000; -451.000
372.573;   23.100; -444.000; -340.000
372.704; -196.100;-1008.000; -980.000
372.835;  252.800; -228.000; -289.000
372.966;  -57.000; -646.000; -554.000
373.097;  -82.400; -575.000; -711.000
373.228;  -15.000; -717.000; -542.000
373.359;  269.400; -824.000; -536.000
373.490; 1827.400; -881.000; -727.000
373.620; 2190.200;-1001.000; -803.000
373.751; 3412.600; -332.000; -396.000
373.882; 1506.600; -663.000; -733.000
374.013;  163.200; -449.000; -262.000
374.143;  -32.000; -581.000; -659.000
374.274; -147.800; -987.000; -908.000
374.405;  368.500; -388.000; -276.000
374.536;  900.300; -526.000; -387.000
374.666; 2152.600; -759.000; -807.000
374.797;  435.600; -817.000; -868.000
374.928; 1739.700; -710.000; -560.000
375.058; 1693.800; -535.000; -500.000
375.189;  191.900;  -59.000;  -93.000
375.320; -164.900; -928.000;-1034.000
375.450;  -17.400; -625.000; -616.000
375.581;  -50.900; -526.000; -436.000
375.712;  -11.000; -574.000; -250.000
375.842;  655.200; -438.000; -415.000
375.973;  513.800; -554.000; -513.000
376.103;   -6.300; -665.000; -648.000
376.234;  -78.300; -531.000; -552.000
376.364;  -11.300; -944.000; -867.000
376.495;  729.900;  925.000;  529.000
376.625;   71.900; -472.000; -485.000
376.756;  196.900; -709.000; -678.000
376.886; -106.900;-1178.000;-1026.000
377.017;  167.500;-1048.000;-1061.000
377.147;  700.300; -786.000; -782.000
377.278;  198.000;  174.000;  228.000
377.408; -184.400; -801.000; -815.000
377.538; -130.900; -707.000; -693.000
377.669; -126.200; -537.000; -613.000
377.799;  -96.500; -645.000; -635.000
377.929;  -56.500; -610.000; -428.000
378.060; -198.400; -781.000; -847.000
378.190;  -34.700; -726.000; -531.000
378.320;  -12.500; -401.000; -406.000
378.451;   71.700; -131.000;  -22.000
378.581;   73.200;  -67.000; -110.000
378.711;  409.700; 1035.000;  866.000
378.841;   39.600; -533.000; -675.000
378.972;  -78.200; -871.000; -751.000
379.102;   66.000; -652.000; -579.000
379.232;   35.400; -126.000;  -73.000
379.362; -138.500;-1001.000; -885.000
379.492;   53.100; -373.000; -424.000
379.623;  290.100;    0.000;  111.000
379.753; -145.900;-1107.000; -974.000
379.883;  437.500;   59.000;  156.000
380.013;   66.900;-1081.000;-1017.000
380.143; -121.800;-1097.000;-1056.000
380.273; -142.800; -985.000; -861.000
380.403;   69.700; -344.000; -257.000
380.533;   -5.500; -651.000; -664.000
380.663;  233.200;  173.000;  128.000
380.793; -134.300;-1027.000;-1074.000
380.923;   30.900; -103.000;  -34.000
381.053; -127.900; -613.000; -623.000
381.183;   14.900; -106.000; -248.000
381.313;  134.400; -656.000; -470.000
381.443;  154.800; -692.000; -473.000
381.573;  495.300; -402.000; -409.000
381.703;  596.800;-1249.000;-1095.000
381.833; -177.100;-1454.000;-1336.000
381.963;  297.000; -134.000;  -87.000
382.093; 2626.900; -925.000; -909.000
382.223;  802.000; -713.000; -602.000
382.353;   33.400; -801.000; -608.000
382.482;  784.400;-1091.000; -964.000
382.612; 1439.300; -872.000; -644.000
382.742;  889.500; -695.000; -622.000
382.872;  574.500; -565.000; -551.000
383.002;  228.200;  347.000; -132.000
383.131;   27.200; -226.000; -160.000
383.261;  -36.900; -706.000; -768.000
383.391;  571.000; -552.000; -377.000
383.521; 6122.500;  451.000;  263.000
383.650; 1362.100; -947.000; -904.000
383.780;    7.700; -783.000; -656.000
383.910;  331.000;  880.000;  802.000
384.039;   71.300; -794.000; -656.000
384.169;  440.200;-1205.000;-1017.000
384.299;   29.200; -650.000; -662.000
384.428; -106.500; -764.000; -680.000
384.558;    0.500; -308.000; -275.000
384.687;   34.000; -414.000; -334.000
384.817;  138.800;   75.000;   -2.000
384.947;  115.600; -234.000; -141.000
385.076;  676.600;  982.000;  912.000
385.206;  302.100;  369.000;  480.000
385.335;  -16.000; -549.000; -417.000
385.465;  -61.400; -655.000; -663.000
385.594;  370.200;  -53.000;  -44.000
385.724;  886.200; -868.000; -838.000
385.853;  288.000; -296.000; -270.000
385.982; 2727.000; -743.000; -787.000
386.112; 3893.300;-1052.000; -871.000
386.241;  342.100; -307.000; -312.000
386.371;  132.200; -174.000;  -87.000
386.500;   47.900; -825.000; -789.000
386.629;  123.600; -874.000; -817.000
386.759;  245.400;  -43.000;   68.000
386.888;  105.500; -170.000; -250.000
387.017;  -47.000; -648.000; -620.000
387.147;  -85.900; -771.000; -798.000
387.276;   78.100; -410.000; -397.000
387.405;  100.600; -398.000; -342.000
387.535;  -22.100; -452.000; -361.000
387.664;  -35.000; -692.000; -620.000
387.793;  191.800; -198.000; -113.000
387.922; 1101.700;  255.000;  200.000
388.052;  115.600; -576.000; -423.000
388.181;   84.500; -342.000; -472.000
388.310;  123.900; -889.000; -710.000
388.439;    7.600; -749.000; -742.000
388.568;  480.100;  365.000;  244.000
388.697; 2049.700; -756.000; -653.000
388.826;  416.700; -768.000; -666.000
388.956;  200.800; -285.000; -307.000
389.085;   -4.600; -347.000; -287.000
389.214; -123.500; -842.000; -872.000
389.343;  -70.100; -645.000; -413.000
389.472;  912.000;  126.000;  149.000
389.601; 1048.300;   91.000;    0.000
389.730;   53.500; -568.000; -687.000
389.859;  188.300;  226.000;   46.000
389.988;  435.200; -423.000; -408.000
390.117;  323.300; -168.000; -146.000
390.246;   72.100; -331.000; -320.000
390.375;  247.500; -673.000; -626.000
390.504;  -46.000; -703.000; -621.000
390.633; -155.500; -672.000; -726.000
390.761;  -67.900; -732.000; -645.000
390.890;  110.700;   -4.000; -130.000
391.019;   29.800; -421.000; -441.000
391.148; -186.900; -826.000; -855.000
391.277;  -71.900; -576.000; -493.000
391.406; -106.700; -821.000; -805.000
391.534;   94.500;  574.000; -301.000
391.663;  -35.200; -583.000; -645.000
391.792;  -77.000; -673.000; -701.000
391.921;  264.600;   -3.000;   15.000
392.050;  410.900; -287.000; -228.000
392.178;  -25.600;-1206.000;-1061.000
392.307;  333.900; -758.000; -712.000
392.436;  167.500; -427.000; -641.000
392.564;  134.900;  166.000;   -6.000
392.693; -126.400; -860.000; -682.000
392.822;  475.400; -529.000; -534.000
392.950;  227.900; -880.000; -714.000
393.079;  710.500; -188.000; -328.000
393.208;   65.600; -488.000; -511.000
393.336;   53.200; -170.000; -145.000
393.465;   -8.700; -317.000; -199.000
393.593;   67.100;   62.000;   79.000
393.722; -242.600;-1121.000; -916.000
393.850;   22.800; -188.000;  -61.000
393.979; -224.500; -926.000; -805.000
394.107;  -24.900; -517.000; -537.000
394.236;   21.400; -570.000; -507.000
394.364;  599.100;  383.000;  206.000
394.493;  912.400; -911.000; -767.000
394.621;   56.200; -955.000; -916.000
394.750; 1458.800; -873.000; -923.000
394.878; 5980.200; -247.000; -149.000
395.007; 7661.300; -721.000; -807.000
395.135;  590.400; -790.000; -721.000
395.263; -142.900;-1038.000;-1040.000
395.392;   85.400;  -25.000; -107.000
395.520; -230.600; -818.000; -679.000
395.648; -148.400; -865.000; -915.000
395.777;   37.300; -366.000; -405.000
395.905;  -14.400; -449.000; -564.000
396.033;  157.300;  217.000;  172.000
396.162; 1536.800; -399.000; -453.000
396.290; 1357.700;  -17.000;   -2.000
396.418;  249.000; -555.000; -514.000
396.546; -101.100; -571.000; -466.000
396.674; -126.000; -850.000; -878.000
396.803;   63.500;  -72.000;  -23.000
396.931;  235.000; -179.000; -199.000
397.059;  121.700;-1026.000; -989.000
397.187; -186.100;-1026.000; -975.000
397.315; -200.600; -884.000; -649.000
397.443; -131.300; -592.000; -443.000
397.572; -130.400; -578.000; -424.000
397.700;   37.900; -607.000; -614.000
397.828;   87.200;  120.000;  -90.000
397.956;  -27.300; -508.000; -478.000
398.084;  -86.000; -767.000; -626.000
398.212;  185.400;  137.000;  124.000
398.340;   96.500;  -56.000;  159.000
398.468;  132.200; -390.000; -169.000
398.596; -220.800; -993.000; -953.000
398.724; -185.500; -762.000; -767.000
398.852; -252.400;-1024.000; -976.000
398.980;  -68.000; -560.000; -560.000
399.108;  -11.000; -982.000; -735.000
399.236;  189.400;   13.000;    8.000
399.363;  147.200;  222.000;  196.000
399.491;  -71.600; -404.000; -398.000
399.619; -186.200; -829.000; -800.000
399.747; -134.400; -859.000; -771.000
399.875;  232.000;  220.000;  234.000
400.003;  -59.100; -359.000; -284.000
400.130; -119.700; -421.000; -341.000
400.258;   13.500;  -83.000;   38.000
400.386;  -63.200; -352.000; -168.000
400.514;   10.000; -526.000; -587.000
400.641; -104.600; -928.000; -802.000
400.769; -234.000; -979.000; -888.000
400.897; -133.600; -838.000; -793.000
401.025;   86.100; -166.000; -152.000
401.152;   82.900;  220.000;   38.000
401.280; -104.500; -430.000; -429.000
401.408; -207.300; -712.000; -576.000
401.535; -154.900; -735.000; -758.000
401.663; -304.100;-1134.000;-1054.000
401.790; -103.700; -514.000; -525.000
401.918;  176.600;  436.000;  405.000
402.046;   50.700;  134.000;  122.000
402.173;  -10.300;  -18.000;    7.000
402.301;  -87.500; -519.000; -397.000
402.428;  178.100;  528.000;  383.000
402.556; -217.300;-1188.000; -913.000
402.683;   13.100;  -20.000;   -1.000
402.811;   20.800;  -37.000; -206.000
402.938;   60.200;   20.000;   27.000
403.066;  438.000; -574.000; -558.000
403.193;  685.800;  299.000;  239.000
403.321;  540.600; -396.000; -574.000
403.448;  633.200;   83.000;   27.000
403.575;  321.700;  -90.000;  -46.000
403.703; -140.100; -732.000; -557.000
403.830;  -65.600; -531.000; -496.000
403.957; -192.200;-1117.000;-1023.000
404.085;  106.600;  -61.000; -172.000
404.212;  271.300;  -50.000;   63.000
404.339;  591.900; -566.000; -306.000
404.467;11577.300; -612.000; -524.000
404.594; 7217.300; -287.000; -227.000
404.721; 1679.000; -869.000; -764.000
404.848;  193.500; -113.000; -202.000
404.976; -149.300; -856.000; -783.000
405.103;   61.400;  -14.000;  -82.000
405.230;   74.100;  190.000;  226.000
405.357;  166.300;  117.000;   44.000
405.484;  598.100;  -49.000;    5.000
405.612;  148.800; -548.000; -563.000
405.739;  -70.600; -488.000; -243.000
405.866;  254.800;  669.000;  385.000
405.993;   -0.500; -398.000; -102.000
406.120; -189.300; -801.000; -887.000
406.247;  -57.100; -323.000; -342.000
406.374;  957.400;  540.000;  629.000
406.501;  265.400; -632.000; -702.000
406.628;  -47.500; -621.000; -589.000
406.755;  -98.600; -803.000; -620.000
406.882;  -18.000; -228.000; -277.000
407.009; -142.400; -719.000; -628.000
407.136;  206.000; -480.000; -401.000
407.263;  292.200; -939.000; -829.000
407.390;  -98.500; -692.000; -614.000
407.517; -246.200;-1139.000;-1187.000
407.644;  -49.300; -332.000; -256.000
407.771;  -78.100; -249.000; -287.000
407.898;   77.700;  168.000;  328.000
408.025;  -59.500; -421.000; -313.000
408.151;   32.500;   82.000;  153.000
408.278;  -56.200; -267.000; -216.000
408.405; -163.800; -931.000; -899.000
408.532;  -75.600; -549.000; -542.000
408.659; -147.400; -677.000; -648.000
408.785; -338.000;-1298.000;-1170.000
408.912;  -44.400; -412.000; -296.000
409.039; -175.400; -610.000; -686.000
409.166; -125.600; -591.000; -555.000
409.292; -143.200; -571.000; -534.000
409.419; -147.700; -665.000; -649.000
409.546;  -76.500; -431.000; -192.000
409.672; -166.300; -713.000; -545.000
409.799;   42.000;  -36.000;   34.000
409.926;   -5.300; -180.000; -179.000
410.052; -303.500;-1127.000;-1091.000
410.179;  -15.400; -368.000; -392.000
410.305;  -91.300; -375.000; -493.000
410.432;  -22.200; -220.000; -333.000
410.558;  -95.100; -305.000; -380.000
410.685; -135.600; -688.000; -431.000
410.812; -146.300; -409.000; -588.000
410.938; -200.500; -964.000; -808.000
411.065;  -98.800; -671.000; -645.000
411.191;   39.000; -189.000; -174.000
411.317; -149.600; -823.000; -742.000
411.444;  -37.500; -317.000; -246.000
411.570;  -72.100; -339.000; -294.000
411.697; -150.700; -758.000; -752.000
411.823; -276.300; -989.000; -999.000
411.949;   36.700;  -56.000;   17.000
412.076; -132.300; -539.000; -519.000
412.202; -170.200; -758.000; -757.000
412.329; -174.600; -798.000; -752.000
412.455; -158.400; -821.000; -657.000
412.581;   10.200;  -15.000;  172.000
412.707;  -62.300; -540.000; -457.000
412.834;  122.900;  156.000;  219.000
412.960; -103.100; -785.000; -784.000
413.086; -156.100; -743.000; -701.000
413.212;  434.000;  604.000;  578.000
413.339; -100.400; -685.000; -701.000
413.465;   93.200; -364.000; -310.000
413.591; -123.200; -757.000; -474.000
413.717;  -41.100; -358.000; -366.000
413.843; -203.100; -839.000; -861.000
413.969;  -34.600;  -47.000; -292.000
414.096; -131.800; -679.000; -679.000
414.222;   58.400;  -33.000;   85.000
414.348;   32.600; -652.000; -385.000
414.474;  266.800;   38.000;  -52.000
414.600;   18.300; -126.000; -144.000
414.726;   74.100;  -96.000;  -55.000
414.852;   -8.900; -365.000; -342.000
414.978;  171.400;  104.000;  -18.000
415.104;  163.000;   38.000;   80.000
415.230;  157.800; -329.000; -330.000
415.356;  167.100; -409.000; -514.000
415.482;  474.600;   13.000;  -35.000
415.608;  572.400; -247.000; -323.000
415.734; 2055.000;   67.000;   38.000
415.860;41106.900; -875.000; -767.000
415.986;26764.200; -685.000; -607.000
416.111; 2327.600; -798.000; -652.000
416.237;  559.200; -424.000; -571.000
416.363; 2474.900; -765.000; -733.000
416.489; 8102.200; -324.000; -251.000
416.615;  863.000; -707.000; -742.000
416.741;   26.100; -677.000; -784.000
416.866;  -88.600; -673.000; -736.000
416.992; -178.000; -801.000; -818.000
417.118;   15.700;  -41.000;  -80.000
417.244;  -60.300; -798.000; -531.000
417.369;  -95.400; -801.000; -612.000
417.495;   62.400; -325.000; -254.000
417.621;  -79.200;-1015.000; -803.000
417.746;   60.200; -579.000; -572.000
417.872;  208.600; -254.000; -144.000
417.998;  169.000; -515.000; -530.000
418.123; 2341.600;-1073.000; -845.000
418.249;10576.300; -512.000; -601.000
418.374; 1355.300; -916.000; -824.000
418.500;  305.400; -383.000; -482.000
418.626;  313.800;   70.000;  -59.000
418.751;  288.100; -549.000; -448.000
418.877;  448.300; -637.000; -643.000
419.002; 4006.800; -688.000; -560.000
419.128;24785.800; -930.000; -721.000
419.253; 5446.500; -967.000; -837.000
419.379;  827.900; -391.000; -338.000
419.504;  873.900;  325.000;  415.000
419.629; 1057.300; -393.000; -212.000
419.755; 7573.100; -317.000; -254.000
419.880;40297.100;  -98.000;   67.000
420.006;22847.200; -280.000; -221.000
420.131;55250.700; -662.000; -775.000
420.256; 7160.000; -315.000; -316.000
420.382; 1045.800; -665.000; -687.000
420.507;  175.700; -649.000; -778.000
420.632;  303.900; -337.000; -339.000
420.758;  525.500; -251.000; -425.000
420.883;  -92.300; -876.000; -672.000
421.008; -120.600; -775.000; -619.000
421.133;  -77.000; -509.000; -467.000
421.259;  -33.900; -325.000; -259.000
421.384; -168.200; -834.000; -693.000
421.509;  -18.300;-1052.000; -862.000
421.634; 2366.800; -936.000; -820.000
421.759;  904.300; -359.000; -327.000
421.885;  -64.600; -717.000; -656.000
422.010;  -82.900; -673.000; -542.000
422.135; -219.200; -695.000; -727.000
422.260;  138.400;  340.000;  280.000
422.385;    6.700;   12.000;  -98.000
422.510;  133.900;  151.000;  -26.000
422.635;  109.900;  -87.000;  -43.000
422.760;  208.800; -766.000; -791.000
422.885;  140.500;  -57.000;  -80.000
423.010;   29.600; -112.000; -169.000
423.135; -153.900; -481.000; -561.000
423.260;   75.500; -150.000; -245.000
423.385;  216.000;  476.000;  222.000
423.510;  151.000;   71.000;  -22.000
423.635;  241.100;  133.000;   45.000
423.760;  181.400;  383.000;  328.000
423.885;  180.800;  336.000;  391.000
424.010;   92.500;  -68.000;  -13.000
424.135;   55.500;    5.000;  -33.000
424.259;  -73.600; -654.000; -457.000
424.384;  -32.200; -279.000; -272.000
424.509;   47.000; -260.000; -186.000
424.634; -123.800; -761.000; -623.000
424.759;  -13.600; -688.000; -544.000
424.883;   30.600; -506.000; -527.000
425.008;  393.100; -502.000; -410.000
425.133; 4034.100; -679.000; -653.000
425.258; 1740.400; -517.000; -381.000
425.382; 2094.400; -867.000; -774.000
425.507; 4668.400; -487.000; -543.000
425.632;  796.900; -802.000; -663.000
425.756;  941.000; -256.000; -146.000
425.881;13818.000; -831.000; -857.000
426.006;32816.900; -604.000; -355.000
426.130; 4697.500; -696.000; -508.000
426.255;  701.000; -611.000; -491.000
426.379;  376.500; -189.000; -577.000
426.504;  855.700;  660.000;  544.000
426.629; 8507.700; -519.000; -466.000
426.753; 5211.100;   64.000;  -46.000
426.878;  659.000; -252.000; -288.000
427.002;  310.300; -651.000; -668.000
427.127; 3511.400;  -35.000; -158.000
427.251;22613.400;  372.000;  401.000
427.375; 5725.700; -191.000; -173.000
427.500; 4356.300; -616.000; -610.000
427.624; 1323.100; -234.000; -400.000
427.749;  260.600; -216.000; -225.000
427.873;  -16.800; -499.000; -412.000
427.997;   30.100; -222.000; -230.000
428.122;  228.600;  795.000;  703.000
428.246;  273.200;  433.000;  434.000
428.371; -194.200; -869.000; -773.000
428.495; -132.100; -624.000; -646.000
428.619;   42.500; -186.000; -117.000
428.743;  150.500;   65.000;  132.000
428.868;  110.800; -732.000; -643.000
428.992; 2645.500; -219.000; -326.000
429.116; 1024.700; -329.000; -357.000
429.240;  622.500;  419.000;  426.000
429.365;   14.800; -454.000; -574.000
429.489;  -24.700; -638.000; -647.000
429.613;  155.600; -236.000; -177.000
429.737;  155.700; -563.000; -432.000
429.861;  663.800; -247.000; -133.000
429.985;11776.100; -425.000; -305.000
430.109;11467.100; -770.000; -908.000
430.234; 1309.200;   76.000;  -50.000
430.358;  204.400; -250.000; -160.000
430.482;  -37.400; -672.000; -564.000
430.606;  -17.600; -655.000; -375.000
430.730;  112.900; -437.000; -388.000
430.854;  316.900; -909.000; -835.000
430.978;  -48.900; -795.000; -764.000
431.102;  -71.800; -499.000; -422.000
431.226; -150.600; -874.000; -815.000
431.350;  130.800;  345.000;  422.000
431.474;  -49.600; -661.000; -373.000
431.597; -245.000;-1060.000; -848.000
431.721;  -81.700; -276.000; -267.000
431.845; -193.300; -704.000; -472.000
431.969;  -78.600; -304.000; -349.000
432.093;  -83.200; -395.000; -317.000
432.217;   42.900;   32.000;   82.000
432.341;  -71.800; -523.000; -518.000
432.464;  101.600;   96.000;   40.000
432.588;  487.400; -401.000; -329.000
432.712;  279.600;  -52.000;  -52.000
432.836;  187.300;  213.000;  263.000
432.959;   77.100; -372.000; -311.000
433.083;  246.400;   11.000;    2.000
433.207;  899.000;  285.000;  930.000
433.330;10611.100; -391.000; -200.000
433.454;11768.800; -654.000; -638.000
433.578; 7043.800;  583.000;  278.000
433.701; 1221.800; -623.000; -675.000
433.825;  343.200; -292.000; -299.000
433.949;  459.200;   28.000;  -72.000
434.072;  178.600; -410.000; -323.000
434.196;   51.100; -309.000; -117.000
434.319; 8013.100;25482.000;25124.000
434.443; 1657.800; -656.000; -603.000
434.566; 5252.000;  281.000;   62.000
434.690;  795.700; -637.000; -383.000
434.813;  135.800; -251.000; -173.000
434.937;  -82.300; -569.000; -696.000
435.060;  -44.100; -423.000; -332.000
435.184;  681.900; -492.000; -217.000
435.307;  422.800;  159.000;  102.000
435.431;   25.700;  -40.000;   24.000
435.554;  -56.200; -399.000; -240.000
435.677;  -53.600; -350.000; -258.000
435.801;   33.300;  -25.000;   49.000
435.924;  112.800;    1.000;  -67.000
436.048; -174.100;-1019.000; -732.000
436.171;  -68.300; -240.000;  -66.000
436.294;   20.500; -248.000; -229.000
436.417;  255.200; -963.000; -849.000
436.541; -100.100; -814.000; -840.000
436.664;   -6.700; -242.000; -316.000
436.787;   73.300;   13.000;  113.000
436.910; -149.400; -792.000; -422.000
437.034;  137.400;  142.000;  143.000
437.157;  202.900;  -11.000;    0.000
437.280;  -30.400; -392.000; -292.000
437.403; -116.300; -982.000; -869.000
437.526; 1371.900; -903.000; -865.000
437.649; 4299.600; -505.000; -332.000
437.772;  572.500; -692.000; -540.000
437.896;  327.400;  700.000;  544.000
438.019; -129.400; -758.000; -503.000
438.142; -106.300; -596.000; -506.000
438.265;   46.800; -639.000; -670.000
438.388; 1228.900; -520.000; -410.000
438.511;  181.500; -597.000; -394.000
438.634;  -18.100; -247.000; -125.000
438.757; -219.400; -693.000; -619.000
438.880;   49.100;  -34.000;  -57.000
439.003; -118.600; -417.000; -437.000
439.126;  -49.800; -287.000; -167.000
439.248;  -48.700;  -98.000; -139.000
439.371;  -19.100;    9.000;  -53.000
439.494;  163.800;  510.000;  439.000
439.617;   -0.800;   65.000;  -88.000
439.740; -272.600; -968.000; -816.000
439.863; -214.700; -755.000; -595.000
439.986; -178.100; -476.000; -431.000
440.108;   -8.200; -161.000; -112.000
440.231; -285.300; -950.000; -836.000
440.354;    1.500;  -64.000; -150.000
440.477;  154.700; -566.000; -542.000
440.599;   76.000; -200.000; -225.000
440.722; -146.700; -709.000; -586.000
440.845;  279.700;  751.000;  928.000
440.968; -184.500; -415.000; -311.000
441.090;  -53.000; -199.000;  -33.000
441.213; -270.300;-1021.000; -825.000
441.336;  -34.000; -159.000;   -5.000
441.458;  -85.000; -549.000; -396.000
441.581; -101.700; -628.000; -629.000
441.703;  -64.000; -152.000;   13.000
441.826; -155.900; -557.000; -400.000
441.948;  -23.500;   56.000;   51.000
442.071;  128.400;  555.000;  424.000
442.193; -163.300; -531.000; -485.000
442.316;  109.600;  152.000;   97.000
442.438;  193.600; -233.000;  -10.000
442.561;  201.800;  272.000;  262.000
442.683; 1146.600; -809.000; -522.000
442.806; 2232.500;   -8.000;   74.000
442.928;   26.500; -859.000; -604.000
443.051;  -61.500; -577.000; -373.000
443.173; -112.000; -341.000; -339.000
443.295;  -78.200; -263.000; -371.000
443.418;  -83.900; -321.000;  -29.000
443.540;   67.700; -106.000;   -4.000
443.662; -169.400; -563.000; -465.000
443.785;   39.200;  335.000;  199.000
443.907; -155.300; -362.000; -208.000
444.029; -183.200; -767.000; -494.000
444.152; -229.700; -644.000; -554.000
444.274;   30.500;  -18.000;  -24.000
444.396; -174.300; -461.000; -221.000
444.518; -197.200; -691.000; -454.000
444.640; -124.700; -268.000; -111.000
444.763;   37.100;  388.000;  249.000
444.885; -156.900; -432.000; -392.000
445.007;    3.800;   35.000;   86.000
445.129; -139.500; -610.000; -515.000
445.251; -133.000; -372.000; -439.000
445.373; -196.500; -537.000; -386.000
445.495;   81.600;  242.000;  350.000
445.617;  171.000;  853.000;  753.000
445.739;  -45.400; -215.000;  -97.000
445.861;  -10.000; -245.000; -112.000
445.984;   30.800; -267.000; -101.000
446.105;  452.500; -418.000; -251.000
446.227; 1188.000; -176.000;  -19.000
446.349;   34.300; -358.000; -249.000
446.471; -115.400; -615.000; -448.000
446.593;  -54.100; -316.000;   19.000
446.715;   52.100;  -67.000;   41.000
446.837;  212.200;  697.000;  832.000
446.959; -131.100; -457.000; -478.000
447.081; -192.800; -628.000; -518.000
447.203;  213.400;  862.000;  834.000
447.325; -116.300; -270.000;   42.000
447.446;   82.100;  286.000;  530.000
447.568; -234.400; -921.000; -803.000
447.690;  -90.000; -236.000; -245.000
447.812; -260.300; -798.000; -519.000
447.933;   14.400;  155.000;  127.000
448.055;  -67.800; -306.000; -261.000
448.177;  381.400;   31.000;   79.000
448.299;  167.900; -935.000; -727.000
448.420;  115.600;  -25.000;  159.000
448.542;   -2.100;   -3.000;   33.000
448.664;   17.500;  109.000;  322.000
448.785;   23.000;  265.000;   83.000
448.907;  -69.300; -614.000; -353.000
449.028;  -13.200; -771.000; -471.000
449.150;  206.400;  492.000;  589.000
449.272; -269.400;-1044.000; -913.000
449.393;  156.500;  612.000;  694.000
449.515; -223.900; -634.000; -581.000
449.636;  -12.100; -264.000; -155.000
449.758;  256.400;  763.000;  622.000
449.879; -115.700; -498.000; -396.000
450.001;  -81.100; -149.000;  -49.000
450.122;  -31.800;  -95.000;  162.000
450.244;   33.700;   37.000;  364.000
450.365;  -83.800; -495.000; -301.000
450.486;   13.900;   80.000;  268.000
450.608;   99.300;  393.000;  326.000
450.729;  224.100;  578.000;  645.000
450.850;   99.800; -574.000; -466.000
450.972; 1639.200; -552.000; -389.000
451.093; 9781.500;  190.000;  588.000
451.214; 3799.800; -516.000; -337.000
451.336;  790.500;  773.000;  579.000
451.457;  179.300;  264.000;  393.000
451.578;   22.300; -118.000;  -74.000
451.699; -149.600; -546.000; -540.000
451.821;  -14.500; -284.000;  -50.000
451.942;   65.800;  278.000;  285.000
452.063;  164.000;  228.000;  419.000
452.184; 1267.400;  -54.000;  -49.000
452.305; 2162.800;  103.000;  170.000
452.427;  279.600; -549.000; -301.000
452.548;   43.700;   23.000;   79.000
452.669;  -52.700; -257.000;  -89.000
452.790;  -20.300;    3.000;  -18.000
452.911;   69.700;  195.000;  259.000
453.032;  -55.400; -289.000;  -60.000
453.153;  -28.600;  -29.000;   81.000
453.274;  224.900;  737.000;  868.000
453.395;  -43.200;  -51.000;  175.000
453.516;  356.800; 1317.000; 1388.000
453.637;  -46.600; -205.000; -150.000
453.758;  -14.500;   15.000;   69.000
453.879; -167.300; -462.000; -250.000
454.000;  257.000; 1086.000;  948.000
454.121; -178.900; -554.000; -326.000
454.242; -151.800; -599.000; -383.000
454.362;  -12.000;  -99.000;  114.000
454.483;   19.500; -309.000; -229.000
454.604;  181.400;  512.000;  580.000
454.725; -143.500; -627.000; -555.000
454.846; -154.600; -474.000; -406.000
454.967;   51.100;  230.000;  539.000
455.087;   11.300;  179.000;  153.000
455.208;  121.200;  554.000;  856.000
455.329;  -47.600;  -22.000;   82.000
455.450;  146.600;  473.000;  633.000
455.570; -121.300; -234.000; -211.000
455.691;   13.600;  201.000;  407.000
455.812; -118.800; -270.000;  -92.000
455.932;  -48.100;  107.000;  -97.000
456.053;  -59.500;   36.000;   24.000
456.173; -135.100; -433.000; -355.000
456.294; -214.000; -476.000; -303.000
456.415;  -26.800;  -73.000;   70.000
456.535;   35.200;  297.000;  273.000
456.656;  -11.700;  132.000;  240.000
456.776;  -51.300;    3.000;  298.000
456.897;   86.000;  308.000;  513.000
457.017;  -69.900; -153.000;   -3.000
457.138; -156.300; -402.000; -249.000
457.258;   35.900;  263.000;  224.000
457.379;   30.200;  509.000;  521.000
457.499;   40.400;  443.000;  432.000
457.620; -184.000; -407.000; -231.000
457.740; -118.700; -132.000;  -11.000
457.860;   -6.100;   87.000;   44.000
457.981;   13.400;  132.000;  124.000
458.101;  -45.400;  -89.000;   40.000
458.221;   25.800;  336.000;  402.000
458.342;  -21.500;   -4.000;  -37.000
458.462;  143.100;  617.000;  352.000
458.582;   30.100; -302.000; -294.000
458.703;   91.600;  303.000;  154.000
458.823;   -1.800;   22.000;  163.000
458.943;  134.600;  341.000;  467.000
459.063;   68.000; 1124.000;  192.000
459.183;   36.600;  328.000;  313.000
459.304;   86.000;  315.000;  517.000
459.424;  -60.000; -246.000;  -89.000
459.544;  821.100;  388.000;  764.000
459.664; 1690.100;  499.000;  506.000
459.784;  649.500; 1004.000; 1175.000
459.904;  186.800;  867.000;  744.000
460.024;  212.600;  867.000;  684.000
460.144;  103.600;  449.000;  554.000
460.264;   89.000;  515.000;  327.000
460.385; -114.800; -145.000; -119.000
460.505;  166.600;  905.000;  858.000
460.625;  -88.900;  -17.000;  -68.000
460.745;   62.000;  396.000;  541.000
460.864;   -4.400;  153.000;  469.000
460.984;  101.800;  499.000;  573.000
461.104;  406.000; 1656.000; 1775.000
461.224;  140.600;  657.000;  650.000
461.344;   27.800;  431.000;  360.000
461.464;   29.200;  258.000;  513.000
461.584;   44.000;  283.000;  466.000
461.704;  -33.300;   58.000;  108.000
461.824;  -47.700;  238.000;  259.000
461.943;  -12.900;  191.000;  130.000
462.063;  -63.100;    2.000;  324.000
462.183;  143.800;  639.000;  717.000
462.303;  295.200; 1678.000; 1230.000
462.422;  181.400;  781.000;  840.000
462.542;   15.200;  271.000;  391.000
462.662;  165.600;  353.000;  380.000
462.782;  581.000;  833.000;  572.000
462.901; 1027.300;  545.000;  717.000
463.021;  639.100; 1702.000; 1638.000
463.141;   60.500;  337.000;  770.000
463.260;   47.400;  614.000;  474.000
463.380;  147.300;  902.000;  884.000
463.499;    3.700;  342.000;  332.000
463.619;    8.000;  581.000;  559.000
463.738;  334.700; 1644.000;  903.000
463.858;  129.700;  657.000;  811.000
463.978;   -6.500;  542.000;  396.000
464.097;  201.100;  921.000; 1114.000
464.217;  288.100; 1196.000; 1143.000
464.336;  336.000; 1068.000; 1130.000
464.455;   23.200;  328.000;  659.000
464.575;  155.200;  597.000;  602.000
464.694;  428.300; 1204.000; 1179.000
464.814;  399.400; 1190.000; 1138.000
464.933;  242.600; 1095.000; 1027.000
465.052;  318.400; 1412.000; 1054.000
465.172;  262.900;  922.000;  799.000
465.291;  354.300; 1376.000; 1320.000
465.410;   91.100;  462.000;  735.000
465.530;  266.400; 1355.000; 1310.000
465.649;  207.200; 1209.000; 1273.000
465.768;  370.800; 1673.000; 1508.000
465.888;  160.200;  941.000; 1174.000
466.007;  288.700; 1335.000; 1440.000
466.126;   94.100;  721.000;  641.000
466.245;  189.500; 1176.000; 1187.000
466.364;  139.700;  950.000; 1060.000
466.484;  212.300; 1024.000; 1213.000
466.603;  118.600; 1101.000; 1222.000
466.722;  322.100; 1490.000; 1769.000
466.841;  278.900; 1151.000; 1401.000
466.960;  178.200; 1069.000;  972.000
467.079;  322.000; 1971.000; 1786.000
467.198;  183.200; 1238.000; 1181.000
467.317;  245.800; 1768.000; 1162.000
467.436;  216.100; 1709.000; 1261.000
467.555;  307.300; 1796.000; 1746.000
467.674;  216.200; 1227.000; 1329.000
467.793;  193.400; 1376.000; 1374.000
467.912;  258.200; 1658.000; 1539.000
468.031;  389.400; 2038.000; 1930.000
468.150;  407.600; 1842.000; 1837.000
468.269;  532.800; 2313.000; 2090.000
468.388;  486.600; 2168.000; 2339.000
468.507;  634.900; 2884.000; 2903.000
468.626;  651.400; 2555.000; 2541.000
468.744;  364.600; 2018.000; 2174.000
468.863;  485.000; 2312.000; 2523.000
468.982;  243.100; 1503.000; 1555.000
469.101;  545.300; 2788.000; 2692.000
469.220;  368.000; 2333.000; 2176.000
469.338;  579.300; 2935.000; 3051.000
469.457;  433.900; 2719.000; 2545.000
469.576;  809.300; 3953.000; 3784.000
469.695;  596.600; 2877.000; 3066.000
469.813;  977.200; 4148.000; 4192.000
469.932;  920.900; 4255.000; 4485.000
470.051;  925.600; 4075.000; 4161.000
470.169; 1866.600; 4470.000; 4338.000
470.288; 3040.100; 4700.000; 4809.000
470.406; 1739.600; 5059.000; 5194.000
470.525; 1384.800; 6101.000; 5787.000
470.644; 1413.500; 6847.000; 6794.000
470.762; 1744.300; 8397.000; 7873.000
470.881; 1881.100; 8651.000; 8464.000
470.999; 2177.900; 9685.000; 9151.000
471.118; 2312.400;11174.000;10711.000

