
Integration time [ms]: 100.000
Averaging Nr. [scans]: 40
Smoothing Nr. [pixels]: 0
Data measured with spectrometer [name]: 2101012U2
Wave   ;Sample   ;Dark     ;Reference
[nm]   ;[counts] ;[counts] ;[counts] 

197.733;   55.700;  516.000;  404.000
197.879;  -78.250; -610.000; -634.000
198.025;  -44.950; -475.000; -420.000
198.171;  -65.825; -602.000; -612.000
198.317;  -30.325; -401.000; -316.000
198.463;  -56.725; -655.000; -404.000
198.609;   22.550;  181.000; -137.000
198.755;  -66.400; -644.000; -410.000
198.901;  -43.700; -505.000; -424.000
199.047;  -58.000; -615.000; -488.000
199.193;  -33.850; -230.000; -468.000
199.339;  -23.500; -222.000; -369.000
199.485;   50.400;  330.000;  271.000
199.631;   28.325;  227.000;  310.000
199.777;  -45.975; -466.000; -398.000
199.923;  -57.225; -610.000; -424.000
200.069;  -16.500; -141.000;  -58.000
200.215;   73.300;  128.000;  453.000
200.361;   35.375;  243.000;  477.000
200.507;  -47.225; -600.000; -373.000
200.653;  -31.850; -371.000; -194.000
200.798;  -30.900; -215.000; -125.000
200.944;    4.500; -146.000;  -41.000
201.090;   28.275;   61.000;  222.000
201.236;  -11.375; -116.000; -158.000
201.382;  119.125;  874.000;  903.000
201.528;    0.100;  -58.000;  -48.000
201.674;  -52.525; -386.000; -293.000
201.819;  -57.800; -540.000; -439.000
201.965;  -83.275; -699.000; -447.000
202.111;  -18.650; -273.000; -226.000
202.257;  -23.550; -250.000; -238.000
202.402;   -3.825;   13.000;  -36.000
202.548;  -30.300; -169.000; -116.000
202.694;   84.325;  410.000; -183.000
202.840;  -58.075; -603.000; -531.000
202.985;  -77.750; -681.000; -639.000
203.131;  -95.125; -832.000; -666.000
203.277;  -13.150; -199.000; -262.000
203.423;  -41.975; -434.000; -520.000
203.568;  -36.325; -462.000; -237.000
203.714;  -47.725; -535.000; -542.000
203.860;  -73.775; -682.000; -641.000
204.005;   10.275;  112.000;  167.000
204.151;   76.250;  561.000;  556.000
204.296;  -46.175; -354.000; -221.000
204.442;  -74.550; -600.000; -547.000
204.588;  -70.925; -592.000; -579.000
204.733;   27.300;  178.000;  168.000
204.879; -120.400;-1018.000; -822.000
205.025;    4.000;  -99.000;  126.000
205.170;   -1.425;  -17.000;   94.000
205.316;   79.500;  438.000;  661.000
205.461;  -71.900; -698.000; -554.000
205.607;   87.225;  609.000;  665.000
205.752;  -78.600; -626.000; -551.000
205.898;  -48.500; -501.000; -391.000
206.043;  -58.900; -578.000; -506.000
206.189;  -47.575; -243.000; -285.000
206.334;   84.150;  554.000;  606.000
206.480;   69.400;  409.000;  239.000
206.625;  -74.525; -529.000; -552.000
206.771;  -37.825; -451.000; -373.000
206.916;  -29.825; -210.000; -537.000
207.062;  -65.775; -545.000; -591.000
207.207;  -53.750; -546.000; -443.000
207.353;   51.350;  185.000;  460.000
207.498;   25.050;  196.000;   85.000
207.643;  -51.050; -501.000; -370.000
207.789; -121.225;-1069.000; -910.000
207.934;  -99.200; -665.000; -713.000
208.080;  -17.000; -154.000;   66.000
208.225;   -4.900;  -22.000;  -57.000
208.370;  -78.525; -727.000; -619.000
208.516;  -78.725; -741.000; -487.000
208.661;  -24.900; -127.000;  -69.000
208.806;  -18.475; -165.000; -171.000
208.952; -105.550;-1044.000; -731.000
209.097;   77.075;  378.000;  349.000
209.242;  -36.675; -307.000; -382.000
209.387;   69.800;  392.000;  350.000
209.533;  -42.900; -321.000; -350.000
209.678;   77.475;  472.000;  543.000
209.823;  -41.450; -408.000; -310.000
209.969;  -86.600; -860.000; -757.000
210.114;  -95.675; -907.000; -719.000
210.259;  -97.925; -939.000; -889.000
210.404;    3.125; -171.000;  103.000
210.549;   26.450;  108.000;    3.000
210.695;   -4.325;   -3.000;  -95.000
210.840;   36.275;   94.000;   67.000
210.985;  -55.425; -484.000; -303.000
211.130;   43.775;  268.000;  406.000
211.275;   20.500;  207.000;  199.000
211.420;  -40.700; -300.000; -289.000
211.566;  -52.325; -536.000; -489.000
211.711;   22.700;  218.000;  157.000
211.856;  -54.200; -545.000; -519.000
212.001;    9.025;  151.000;   44.000
212.146;   20.875;  153.000;   49.000
212.291;  -16.000; -210.000; -186.000
212.436;  -10.750; -280.000;   -6.000
212.581;  -75.075; -685.000; -653.000
212.726;  -58.625; -487.000; -538.000
212.871;  -54.025; -552.000; -217.000
213.016; -140.950;-1172.000;-1029.000
213.161;   65.975;  406.000;  291.000
213.306;  -53.650; -435.000; -577.000
213.451;  -82.350; -778.000; -689.000
213.596;  -49.275; -455.000; -347.000
213.741;  -40.850; -448.000; -538.000
213.886;  -68.900; -498.000; -517.000
214.031;  -17.225; -294.000; -124.000
214.176;  -60.225; -408.000; -341.000
214.321;  -18.275; -296.000; -157.000
214.466;  -19.875; -163.000;  -43.000
214.611;   -4.050;  -61.000;  -10.000
214.756; -109.250; -948.000; -858.000
214.901;  -24.675; -388.000; -226.000
215.046; -108.350; -797.000; -825.000
215.191;    7.075;  128.000;   35.000
215.336;  -12.425; -157.000;  -19.000
215.480;  -72.025; -684.000; -505.000
215.625;  -17.425; -175.000;  -19.000
215.770;  -85.775; -757.000; -662.000
215.915;    0.775;   -5.000;  -97.000
216.060;    0.050; -113.000;  -21.000
216.205; -102.575; -731.000; -779.000
216.349;  -71.325; -470.000; -533.000
216.494; -123.575; -939.000; -867.000
216.639;  -97.225; -823.000; -888.000
216.784;  -70.900; -577.000; -525.000
216.929;   48.175;  392.000;  281.000
217.073;  -12.250; -244.000;  -31.000
217.218;   14.725;   78.000;  -47.000
217.363;  -80.875; -656.000; -618.000
217.507;  -76.750; -623.000; -588.000
217.652; -116.300; -845.000; -874.000
217.797;  -82.350; -708.000; -659.000
217.942; -105.975; -856.000; -720.000
218.086;   75.825;  608.000;  539.000
218.231;  -18.050; -174.000;  -26.000
218.376;  -30.750; -337.000; -229.000
218.520;    5.100;  -41.000;   96.000
218.665;  -33.400; -338.000; -204.000
218.810;  -43.100; -275.000; -233.000
218.954;    8.525;  201.000;   35.000
219.099;  -99.050; -713.000; -963.000
219.243;  -68.150; -589.000; -554.000
219.388;  -28.250; -264.000; -136.000
219.532;   -2.825; -116.000; -116.000
219.677;  -59.475; -564.000; -521.000
219.822;   13.125;   33.000;   89.000
219.966;    7.825;   17.000;  -99.000
220.111;  -29.825; -328.000;  -40.000
220.255;  -98.675; -797.000; -750.000
220.400;  -10.200; -180.000; -146.000
220.544;  -75.100; -516.000; -450.000
220.689;  -46.625; -422.000; -451.000
220.833;  -20.475; -123.000;  -58.000
220.978;  -44.800; -393.000; -563.000
221.122;   14.175;  319.000;  307.000
221.267; -108.950; -906.000; -837.000
221.411;  -60.700; -478.000; -394.000
221.555;  -17.500; -104.000;  -23.000
221.700;  -42.075; -329.000; -222.000
221.844;   31.175;  255.000;  272.000
221.989;  -40.750; -328.000; -311.000
222.133;  -32.950; -289.000; -307.000
222.277;   -5.850;    5.000;   78.000
222.422;    8.825;  227.000;  113.000
222.566;  -37.275; -381.000; -214.000
222.711;  -63.250; -414.000; -479.000
222.855;  -68.675; -643.000; -586.000
222.999;  -82.750; -642.000; -717.000
223.144;  -36.350; -195.000; -194.000
223.288;   41.225;  423.000;  251.000
223.432;   34.700;  184.000;  230.000
223.576;   18.700;  152.000;  -21.000
223.721;   36.275;  364.000;  273.000
223.865;  -52.925; -472.000; -475.000
224.009;  211.325; 1673.000; 1631.000
224.153;  -78.875; -660.000; -671.000
224.298;  -64.550; -531.000; -489.000
224.442;  -10.350;  -74.000;  -33.000
224.586;  -13.150; -169.000; -106.000
224.730; -109.350; -858.000; -670.000
224.875;  -92.525; -739.000; -688.000
225.019;   32.250;  102.000;  188.000
225.163;   53.550;  208.000;  341.000
225.307;   15.900;   97.000;  -91.000
225.451;   46.375;  360.000;  481.000
225.595;   29.050;  264.000;  176.000
225.739;  -14.075; -170.000;  -94.000
225.884;    3.375;   86.000;    5.000
226.028;  -96.750; -760.000; -626.000
226.172;  -36.000; -260.000; -273.000
226.316;  -96.850; -941.000; -902.000
226.460;  -68.425; -645.000; -493.000
226.604;  -55.450; -406.000; -400.000
226.748; -101.075; -836.000; -733.000
226.892;  -24.600; -227.000; -181.000
227.036;  -46.100; -537.000; -447.000
227.180;  -53.775; -551.000; -375.000
227.324;  -58.675; -561.000; -580.000
227.468; -107.975; -819.000; -717.000
227.612;   16.450;  242.000;  -28.000
227.756;  -83.825; -845.000; -698.000
227.900;   36.975;  342.000;  441.000
228.044;  -53.775; -509.000; -290.000
228.188;   50.675;  448.000;  568.000
228.332;  -67.900; -546.000; -472.000
228.476;  -29.400; -223.000; -149.000
228.620;  -25.125; -210.000; -150.000
228.764;   68.475;  431.000;  349.000
228.908;  -20.775; -155.000;   30.000
229.052;  -51.325; -615.000; -528.000
229.195;  -18.400; -172.000;   13.000
229.339;  -34.900; -235.000; -305.000
229.483;  -12.675;    5.000; -162.000
229.627;   -9.150; -156.000;  139.000
229.771;  -41.500; -218.000; -294.000
229.915;   11.700;  230.000;   79.000
230.059;  -78.475; -648.000; -663.000
230.202;  -42.025; -370.000; -317.000
230.346;  -22.600; -107.000;  107.000
230.490;  -51.800; -489.000; -521.000
230.634; -112.125; -736.000; -553.000
230.777;   66.650;  478.000;  509.000
230.921;  -64.900; -450.000; -359.000
231.065;  -44.825; -246.000; -286.000
231.209;   21.575;  261.000;  265.000
231.352;   31.075;   54.000;   40.000
231.496;   20.275;  568.000;  188.000
231.640;  -79.000; -693.000; -621.000
231.783;   65.350;  546.000;  525.000
231.927;  -42.800; -294.000; -365.000
232.071; -116.275; -962.000; -736.000
232.214; -109.075; -980.000; -764.000
232.358; -102.075; -683.000; -599.000
232.502;    9.000;  -19.000;    7.000
232.645; -128.950;-1090.000; -927.000
232.789;   -9.075; -257.000; -218.000
232.933;  -39.800; -407.000; -224.000
233.076; -126.150;-1038.000; -897.000
233.220; -102.025; -752.000; -777.000
233.363;  -73.800; -669.000; -477.000
233.507;   60.000;  371.000;  129.000
233.650;  -91.650; -764.000; -834.000
233.794;   48.900;  438.000;  461.000
233.938;  -61.325; -530.000; -362.000
234.081;  -21.400;  -93.000;   31.000
234.225;  -76.625; -631.000; -539.000
234.368; -109.325; -773.000; -723.000
234.512;  -51.550; -385.000; -299.000
234.655;  -77.800; -582.000; -555.000
234.798;  -66.800; -493.000; -466.000
234.942; -119.725; -884.000;-1002.000
235.085;  -58.600; -651.000; -443.000
235.229;  -67.775; -405.000; -410.000
235.372;  -44.300; -247.000; -191.000
235.516;  -63.225; -397.000; -321.000
235.659;   29.100;   92.000;  121.000
235.802;   -3.475;  -38.000;  -22.000
235.946;   14.325;  335.000;  215.000
236.089;   22.300;  126.000;  250.000
236.233;   35.575;  275.000;  298.000
236.376;  -41.600; -235.000; -378.000
236.519;  -55.525; -297.000; -319.000
236.663;   -8.300; -215.000; -117.000
236.806; -126.200;-1029.000; -999.000
236.949;   53.900;  543.000;  431.000
237.092;   63.900;  412.000;  391.000
237.236;  -78.950; -589.000; -502.000
237.379;   69.300;  352.000;  428.000
237.522; -112.500; -879.000; -768.000
237.666;  -23.825; -271.000;   18.000
237.809; -123.925; -851.000; -823.000
237.952;   38.300;  469.000;  271.000
238.095;  -62.725; -447.000; -442.000
238.238;   86.575;  688.000;  700.000
238.382;    4.075;  166.000;  103.000
238.525;  -63.050; -598.000; -511.000
238.668; -138.925;-1060.000; -985.000
238.811;  -81.950; -638.000; -643.000
238.954;  -60.125; -483.000; -334.000
239.097;   75.875;  617.000;  664.000
239.241;   28.700;  394.000;  326.000
239.384;  -40.825; -254.000; -214.000
239.527;  -55.275; -424.000; -224.000
239.670; -143.200; -994.000;-1091.000
239.813;  -98.375; -696.000; -658.000
239.956;   75.925;  579.000;  473.000
240.099;  -98.975; -778.000; -725.000
240.242;   51.375;  428.000;  432.000
240.385;   45.600;  466.000;  450.000
240.528;  -60.625; -706.000; -473.000
240.671;   12.650;  189.000;  134.000
240.814;  -45.150; -441.000; -158.000
240.957;  -93.825; -767.000; -578.000
241.100;  -82.125; -779.000; -755.000
241.243; -133.450;-1234.000; -893.000
241.386;  -61.525; -508.000; -379.000
241.529;  -86.125; -735.000; -547.000
241.672;  -64.450; -566.000; -495.000
241.815;  -99.300; -832.000; -808.000
241.958;  -21.850; -125.000; -182.000
242.101;  -76.575; -545.000; -390.000
242.244;  -36.375; -270.000; -325.000
242.387;  -29.350; -304.000; -246.000
242.530;   53.275;  470.000;  134.000
242.673;  -31.750; -381.000; -309.000
242.815; -107.675; -925.000; -899.000
242.958;  -62.150; -482.000; -381.000
243.101;    9.725;  132.000;  187.000
243.244;  -72.625; -564.000; -521.000
243.387;  -52.875; -313.000; -316.000
243.530;  -95.525; -657.000; -674.000
243.672;   -6.425;   43.000;  -92.000
243.815;  -52.375; -355.000; -283.000
243.958;  -17.375;   98.000;  -26.000
244.101;   -3.050;   59.000;  -16.000
244.243;    0.350;  -47.000;  101.000
244.386;  -87.150; -761.000; -630.000
244.529;  -23.475; -132.000; -139.000
244.672; -148.250;-1154.000; -951.000
244.814;  -93.025; -621.000; -794.000
244.957;  -58.275; -380.000; -304.000
245.100;  -77.700; -489.000; -489.000
245.242;  -56.325; -387.000; -374.000
245.385;  -18.500;  -59.000;  -39.000
245.528; -108.600; -871.000; -705.000
245.670;   80.325;  612.000;  634.000
245.813;  -73.125; -599.000; -547.000
245.956;  -36.250; -324.000; -275.000
246.098;  -62.225; -508.000; -650.000
246.241;   -8.750;  194.000;   48.000
246.383;  -21.800; -119.000;  -73.000
246.526;  -71.900; -454.000; -525.000
246.669; -110.100; -889.000; -780.000
246.811;   14.525;  172.000;   -1.000
246.954;  -64.000; -512.000; -426.000
247.096;  -18.225;  -84.000;   -6.000
247.239;  -69.875; -482.000; -445.000
247.381;  -75.250; -647.000; -488.000
247.524;   59.175;  645.000;  679.000
247.666;  -19.950;   58.000;   11.000
247.809; -104.700; -887.000; -691.000
247.951;  -12.350;  -75.000;  138.000
248.094;   21.700;  432.000;  308.000
248.236; -148.675;-1262.000;-1238.000
248.378;  -11.200; -356.000;  -81.000
248.521;  -55.200; -334.000; -337.000
248.663;  -33.500; -236.000; -267.000
248.806;  -31.075; -300.000; -266.000
248.948; -106.725; -886.000; -763.000
249.090;  -57.225; -428.000; -398.000
249.233;  -56.250; -344.000; -381.000
249.375;  -57.800; -474.000; -451.000
249.518;  -23.250;  -83.000; -133.000
249.660;  -13.550; -103.000;    3.000
249.802; -171.100;-1303.000;-1189.000
249.945;  -82.400; -612.000; -540.000
250.087; -107.100; -834.000; -768.000
250.229;  -60.550; -362.000; -480.000
250.371;  -68.800; -494.000; -439.000
250.514;  -58.625; -310.000; -244.000
250.656;  -69.700;   69.000;  102.000
250.798; -113.650; -849.000; -800.000
250.940;  -50.150; -322.000; -322.000
251.083;  -20.150; -335.000; -111.000
251.225;   61.550;  338.000;  310.000
251.367;  -47.300; -274.000; -373.000
251.509;  -20.550; -265.000; -210.000
251.651;  -97.225; -731.000; -671.000
251.794;   46.725;  538.000;  632.000
251.936;  -94.900; -821.000; -747.000
252.078;  -70.825; -540.000; -461.000
252.220;  -55.300; -645.000; -477.000
252.362;   54.225;  344.000;  462.000
252.504;  -71.950; -677.000; -584.000
252.646; -108.975; -875.000; -722.000
252.788;  -15.775;   14.000; -128.000
252.931;  -42.700; -257.000; -253.000
253.073;  -50.625; -376.000; -317.000
253.215;   -9.600;  141.000;  122.000
253.357;  -16.775;   82.000; -153.000
253.499;  -48.400; -374.000; -234.000
253.641;  -78.950; -749.000; -594.000
253.783;  -85.500; -609.000; -527.000
253.925;  -81.525; -586.000; -591.000
254.067; -100.075; -744.000; -667.000
254.209;  -29.125; -391.000; -259.000
254.351; -126.550; -865.000; -883.000
254.493;  -69.175; -441.000; -417.000
254.635; -119.700; -936.000; -818.000
254.777;  -83.800; -752.000; -687.000
254.918;  -62.525; -512.000; -430.000
255.060;  -69.675; -551.000; -395.000
255.202;  -54.250; -473.000; -261.000
255.344;  -80.400; -658.000; -455.000
255.486;  -62.375; -471.000; -406.000
255.628; -111.850; -780.000; -781.000
255.770;  -87.375; -676.000; -536.000
255.912;  -65.325; -559.000; -468.000
256.053;  -76.250; -730.000; -508.000
256.195;  132.925; 1008.000;  903.000
256.337;  -97.925; -861.000; -595.000
256.479;   53.250;  532.000;  416.000
256.621;  -52.525; -394.000; -212.000
256.762;  -93.425; -789.000; -742.000
256.904;   43.475;  485.000;  487.000
257.046;  -40.650; -381.000; -271.000
257.188;  -35.525; -351.000; -264.000
257.329;  -64.700; -525.000; -464.000
257.471;  -99.775; -939.000; -807.000
257.613;  -71.875; -584.000; -498.000
257.755; -140.075;-1073.000; -982.000
257.896;   26.025;  286.000;  392.000
258.038;  -54.100; -403.000; -352.000
258.180;  -42.350; -354.000; -279.000
258.321;  -70.150; -581.000; -457.000
258.463;  -12.400;  -71.000;  133.000
258.605;  -93.450; -562.000; -570.000
258.746; -100.375; -886.000; -772.000
258.888; -139.825;-1026.000;-1020.000
259.029;   19.025;  121.000;   -8.000
259.171;  -81.300; -614.000; -550.000
259.313;   -4.775;  -49.000;  -47.000
259.454;  -66.350; -536.000; -414.000
259.596;  -55.875; -483.000; -390.000
259.737;  -62.550; -590.000; -474.000
259.879;   30.175;  217.000;  311.000
260.020;   69.775;  901.000;  636.000
260.162;  -40.600; -146.000; -253.000
260.303; -111.150; -768.000; -687.000
260.445;  -79.750; -609.000; -613.000
260.586;   37.775;  392.000;  157.000
260.728;  -36.975; -360.000; -248.000
260.869;  -66.625; -350.000; -343.000
261.011;   64.375;  706.000;  537.000
261.152;  -54.525; -479.000; -319.000
261.293;  -79.800; -576.000; -595.000
261.435;  -35.975; -219.000; -184.000
261.576;  -49.375; -455.000; -325.000
261.718;   33.050;  420.000;  470.000
261.859; -127.100; -940.000; -949.000
262.000; -125.425; -951.000;-1016.000
262.142;  -24.300;  -52.000;  -60.000
262.283;  -97.675; -808.000; -691.000
262.424;  -82.975; -666.000; -625.000
262.566; -138.325;-1161.000; -983.000
262.707; -111.250; -840.000; -830.000
262.848; -114.125; -769.000; -726.000
262.990;  -48.150; -362.000; -345.000
263.131;   76.600;  650.000;  681.000
263.272;  -11.825;  -61.000;  -41.000
263.413;  -81.425; -589.000; -561.000
263.555;  -60.500; -669.000; -143.000
263.696;  -73.875; -550.000; -641.000
263.837;  -53.500; -449.000; -551.000
263.978;   -2.525;   -5.000;  -77.000
264.119;  -38.625; -283.000; -264.000
264.261; -106.400; -847.000; -630.000
264.402;  -10.500;   33.000;   40.000
264.543;  -69.550; -509.000; -524.000
264.684;   -6.575;   61.000;  -50.000
264.825;  -91.250; -816.000; -538.000
264.966;  -11.200;  -84.000;  -67.000
265.107; -111.300; -646.000; -670.000
265.248; -108.875; -825.000; -812.000
265.390;   -7.325;  152.000;   -9.000
265.531;  -25.725; -238.000; -107.000
265.672;  -78.825; -557.000; -630.000
265.813;   53.550;  563.000;  439.000
265.954; -138.700; -959.000; -940.000
266.095;  -24.300; -372.000; -322.000
266.236; -100.700; -686.000; -548.000
266.377;  -39.325; -243.000; -297.000
266.518;  -75.225; -619.000; -547.000
266.659;   30.425;  170.000;  268.000
266.800;    1.750;   83.000;   85.000
266.941;  -73.450; -487.000; -478.000
267.082;   12.375;  354.000;   99.000
267.223;  -55.275; -344.000; -273.000
267.364;  -95.350; -892.000; -686.000
267.504;  -16.950;    3.000;  135.000
267.645;    1.125;  160.000;   67.000
267.786;  -29.650; -147.000;  -86.000
267.927;  -78.150; -473.000; -379.000
268.068;  -30.875; -186.000;  -61.000
268.209;  -46.725; -175.000; -413.000
268.350;  -69.250; -388.000; -532.000
268.490;  -80.325; -648.000; -521.000
268.631;   16.650;  127.000;  225.000
268.772; -111.250; -874.000; -647.000
268.913;  -48.150; -328.000; -476.000
269.054;  -26.975; -117.000;   12.000
269.194;  -43.550; -418.000; -402.000
269.335; -145.000;-1137.000;-1074.000
269.476;  -23.050;   33.000;  -35.000
269.617;  -41.725; -347.000; -392.000
269.757;  -83.750; -713.000; -646.000
269.898; -110.875; -856.000; -613.000
270.039;  -55.850; -415.000; -405.000
270.180; -122.750; -952.000; -816.000
270.320;  -33.400; -190.000; -250.000
270.461;  -24.650; -277.000; -249.000
270.602;  -16.900; -186.000; -156.000
270.742; -120.200; -868.000; -943.000
270.883;  -71.825; -442.000; -390.000
271.023;  -63.600; -358.000; -357.000
271.164;  -75.225; -607.000; -528.000
271.305;  -86.075; -666.000; -654.000
271.445;  -92.225; -722.000; -683.000
271.586;  -72.700; -462.000; -283.000
271.726;  -50.250; -397.000; -322.000
271.867;  -79.750; -594.000; -534.000
272.008;   45.000; -473.000; -285.000
272.148;   65.675;  462.000;  468.000
272.289;   -4.025; -113.000; -181.000
272.429;    8.100;   19.000;  185.000
272.570;  -97.000; -633.000; -737.000
272.710; -105.825; -825.000; -775.000
272.851;  -28.225;  113.000; -130.000
272.991; -156.025;-1173.000;-1077.000
273.131;  -78.400; -419.000; -459.000
273.272; -108.350; -683.000; -723.000
273.412;  -14.100; -143.000;  -31.000
273.553;  -74.000; -488.000; -507.000
273.693;  104.925;  913.000;  858.000
273.834; -116.500; -894.000; -692.000
273.974;  -83.000; -664.000; -615.000
274.114; -100.500; -772.000; -560.000
274.255;   48.550;  414.000;  373.000
274.395;  -25.950; -180.000; -125.000
274.535;   25.750;  199.000;  350.000
274.676;   18.475;  225.000;   94.000
274.816;   -8.900;  110.000;   34.000
274.956;  -84.975; -624.000; -690.000
275.097;  -99.175;-1014.000; -922.000
275.237; -106.975; -913.000; -803.000
275.377; -115.950; -778.000; -689.000
275.517; -146.500; -878.000; -937.000
275.658;  -78.750; -590.000; -555.000
275.798;  -73.400; -606.000; -413.000
275.938;    6.650;  215.000;  323.000
276.078;  -90.775; -626.000; -395.000
276.218;    2.200;   99.000;  104.000
276.359; -127.425;-1026.000;-1024.000
276.499;  -80.550; -605.000; -446.000
276.639;  -38.150; -305.000; -151.000
276.779;  -50.200; -475.000; -357.000
276.919;  -98.400; -783.000; -624.000
277.059;  -23.675; -261.000; -212.000
277.199;  -41.825; -357.000; -259.000
277.340;   17.525;  287.000;  175.000
277.480; -111.050; -840.000; -693.000
277.620;   17.925;  192.000;   16.000
277.760; -195.375;-1533.000;-1294.000
277.900;    2.725;  113.000;   33.000
278.040;   10.775;  137.000;  159.000
278.180;   17.625;  270.000;  170.000
278.320;   -9.425;   21.000;   56.000
278.460;  -56.550; -443.000; -469.000
278.600;  -89.125; -708.000; -598.000
278.740;   43.400;  448.000;  224.000
278.880; -100.800; -768.000; -791.000
279.020;  -27.525; -194.000; -144.000
279.160;  -85.325; -672.000; -595.000
279.300; -112.075; -926.000; -873.000
279.440;  -94.975; -709.000; -622.000
279.579;  -79.550;-1014.000; -929.000
279.719;  -57.900; -410.000; -394.000
279.859;   28.850;   -4.000;   41.000
279.999;    0.450; -208.000;  101.000
280.139;  -59.500; -435.000; -387.000
280.279;  -92.625; -708.000; -745.000
280.419;  -20.050; -229.000; -147.000
280.559;  -46.575; -259.000; -180.000
280.698;  -88.475; -790.000; -639.000
280.838; -103.450; -778.000; -800.000
280.978;  -96.950; -846.000; -790.000
281.118;  -93.900; -811.000; -704.000
281.257;    0.125;   24.000;    6.000
281.397; -135.200;-1094.000; -960.000
281.537;  -79.900; -599.000; -712.000
281.677;  -20.750; -150.000; -101.000
281.816;  -87.050; -700.000; -630.000
281.956;  -22.700; -193.000; -257.000
282.096;  -67.975; -539.000; -396.000
282.235; -102.175; -672.000; -638.000
282.375;  -27.050; -243.000;  -98.000
282.515;  -88.950; -715.000; -707.000
282.654;   15.900;   29.000;  106.000
282.794;   33.925;  388.000;  244.000
282.934;  -58.600; -530.000; -491.000
283.073; -119.750;-1030.000; -857.000
283.213;  -64.725; -460.000; -467.000
283.353;  -42.425; -408.000; -349.000
283.492;  -44.675; -264.000; -296.000
283.632;  -46.925; -254.000; -168.000
283.771;  -82.675; -859.000; -730.000
283.911;  -55.300; -369.000; -260.000
284.050; -103.400; -794.000; -748.000
284.190; -155.025;-1229.000;-1096.000
284.329; -145.050;-1055.000; -964.000
284.469;  -88.650; -516.000; -591.000
284.608;  -64.825; -559.000; -598.000
284.748;  -79.325; -614.000; -570.000
284.887;  -26.575;  -87.000;  -20.000
285.027; -136.450; -844.000; -892.000
285.166;  -38.600; -192.000; -249.000
285.306;  -10.275; -116.000;  -33.000
285.445;  -51.125; -229.000; -343.000
285.584;  -89.625; -630.000; -494.000
285.724;  -49.200; -282.000; -322.000
285.863; -112.475; -857.000; -507.000
286.002;  -54.675; -366.000; -276.000
286.142; -106.300; -715.000; -622.000
286.281;  -71.175; -525.000; -493.000
286.420;  -75.125; -554.000; -417.000
286.560;   87.200;  653.000;  623.000
286.699; -140.350; -958.000; -912.000
286.838;  -80.725; -590.000; -591.000
286.978;  -86.675; -533.000; -537.000
287.117; -140.850;-1085.000; -950.000
287.256;  -35.200; -228.000; -211.000
287.395;  -49.725; -197.000; -378.000
287.535;  -59.050; -370.000; -298.000
287.674;  -73.775; -509.000; -484.000
287.813;   44.525;  661.000;  533.000
287.952; -123.550;-1010.000; -871.000
288.091; -140.875;-1049.000; -915.000
288.231;   -9.650;   13.000;   15.000
288.370; -160.900;-1217.000;-1200.000
288.509;  -87.950; -728.000; -645.000
288.648;  -92.525; -770.000; -548.000
288.787;  -44.600; -243.000;  -87.000
288.926;  -62.300; -454.000; -475.000
289.065;   82.975;  859.000;  672.000
289.204;  -49.800; -377.000; -217.000
289.344; -100.125; -791.000; -690.000
289.483;   -0.900;  416.000;  304.000
289.622;  -27.075; -291.000; -149.000
289.761;  -33.125; -309.000; -166.000
289.900; -103.175; -785.000; -626.000
290.039;  -25.125;  -12.000;  -95.000
290.178;  -54.925; -274.000; -180.000
290.317;  -92.375; -618.000; -479.000
290.456;  -68.275; -463.000; -451.000
290.595; -109.850; -961.000; -833.000
290.734; -136.000; -904.000; -891.000
290.873;  -66.650; -456.000; -420.000
291.011; -111.625; -833.000; -843.000
291.150; -106.350; -770.000; -682.000
291.289;  -39.200; -343.000; -110.000
291.428; -107.950; -599.000; -480.000
291.567;  -53.300; -370.000; -442.000
291.706;  -16.225;  109.000;  154.000
291.845; -103.975; -597.000; -505.000
291.984; -160.700;-1234.000;-1061.000
292.122;   63.775;  602.000;  582.000
292.261;   46.850;  620.000;  463.000
292.400;   -6.150; -144.000;  211.000
292.539; -127.875; -959.000; -813.000
292.678;  -31.100; -325.000; -300.000
292.816; -148.450;-1136.000; -965.000
292.955; -111.650; -844.000; -684.000
293.094;  -35.100; -173.000; -337.000
293.233;  -61.825; -556.000; -400.000
293.371;  -34.650; -225.000;  -84.000
293.510; -110.025; -866.000; -780.000
293.649; -131.575; -959.000; -924.000
293.787; -130.850;-1083.000;-1012.000
293.926;  -34.375; -113.000;  -32.000
294.065;  -34.800; -379.000; -290.000
294.203;   42.100;  298.000;  406.000
294.342;   11.425;   74.000;  156.000
294.481; 5028.175;51180.000; -836.000
294.619;  -32.875; -425.000; -582.000
294.758; -149.325;-1230.000;-1137.000
294.896;    2.100; -125.000;    5.000
295.035; -134.150;-1040.000;-1006.000
295.174; -133.725;-1082.000; -954.000
295.312;  -32.475; -323.000; -203.000
295.451;  -48.075; -307.000; -428.000
295.589;  -64.500; -389.000; -518.000
295.728;   -8.625; -292.000; -165.000
295.866;  -23.750;  -36.000;  -51.000
296.005;  -71.750; -584.000; -341.000
296.143;  -78.300; -558.000; -596.000
296.282; -103.100; -957.000; -881.000
296.420;  -85.650; -657.000; -557.000
296.559;  -96.350; -892.000; -633.000
296.697;  -60.600; -847.000; -665.000
296.835;  -72.625;-1141.000;-1002.000
296.974;   36.150;  -23.000;   39.000
297.112;  -44.100; -443.000; -504.000
297.251;  -99.500; -815.000; -755.000
297.389;  -20.575; -576.000; -438.000
297.527;   -6.075; -145.000;  -83.000
297.666;  -56.350; -486.000; -438.000
297.804;  -48.400; -404.000; -264.000
297.942;   -2.800; -136.000; -161.000
298.081;   -1.575; -183.000;   63.000
298.219;    4.525;  -17.000;  -19.000
298.357;   -8.425; -144.000;  -71.000
298.495;  -81.300; -810.000; -812.000
298.634;   16.725;  245.000;  219.000
298.772;  -29.975; -220.000; -338.000
298.910;  -52.225; -309.000; -182.000
299.048;  -15.575; -130.000; -153.000
299.187;  -36.325; -350.000; -250.000
299.325;    4.825;   52.000;  122.000
299.463;  -33.450; -389.000; -299.000
299.601;   -9.475; -327.000; -271.000
299.739; -133.850; -908.000; -883.000
299.877;  -80.800; -791.000; -703.000
300.016;  -93.600;-1095.000; -935.000
300.154;   41.725;  -19.000; -161.000
300.292;  -37.575; -428.000; -348.000
300.430;  -34.850; -408.000; -291.000
300.568; -115.275; -940.000; -874.000
300.706;  -62.075; -366.000; -469.000
300.844; -126.925;-1108.000; -979.000
300.982;   55.300;  246.000;  282.000
301.120; -129.625; -965.000; -866.000
301.258;  -98.400; -812.000; -705.000
301.396;  -11.075;  104.000;  -41.000
301.534;  -20.550; -218.000; -293.000
301.672;  -77.550; -664.000; -521.000
301.810;  -56.475; -613.000; -545.000
301.948;   31.775;   53.000;  149.000
302.086;  199.475; -250.000;  -32.000
302.224;  230.750; -610.000; -585.000
302.362;  -57.875; -558.000; -622.000
302.500;  -93.175; -923.000; -893.000
302.638;   21.925;  128.000;  245.000
302.776;  -29.625; -352.000; -408.000
302.913;   21.275;  447.000;  236.000
303.051;  -22.425;  -86.000;  -23.000
303.189;   18.350;   90.000;  118.000
303.327;  -37.475; -341.000; -256.000
303.465;  -85.175; -832.000; -588.000
303.603; -106.450; -805.000; -604.000
303.740;   48.525;  417.000;  241.000
303.878;  -82.575; -800.000; -759.000
304.016; -114.850; -915.000; -790.000
304.154; -148.950;-1123.000;-1152.000
304.291;  -59.950; -505.000; -554.000
304.429;   -2.525;  102.000;   74.000
304.567; -127.050; -908.000; -893.000
304.705;  -77.950; -408.000; -515.000
304.842;  -41.025; -616.000; -540.000
304.980;   20.575;  215.000;   35.000
305.118;  -29.650; -367.000; -365.000
305.255; -100.925; -945.000; -927.000
305.393;   22.325;  178.000;  239.000
305.531; -145.650;-1173.000; -956.000
305.668;  -85.750; -663.000; -582.000
305.806;   13.100; -358.000; -439.000
305.943;  -15.625; -629.000; -637.000
306.081;  -10.700; -378.000; -267.000
306.219;  -98.650; -863.000; -748.000
306.356;   13.350;  158.000;   27.000
306.494;  112.925;  981.000;  761.000
306.631;    1.150;  -11.000;  -55.000
306.769;    4.125; -613.000; -485.000
306.906;  -23.100; -284.000; -258.000
307.044;  -56.475; -473.000; -488.000
307.181;  -64.825; -410.000; -332.000
307.319;    1.850;  112.000;   87.000
307.456; -167.725;-1191.000;-1153.000
307.594; -103.825; -980.000; -727.000
307.731;  -24.450; -371.000; -164.000
307.868;   -6.725;  -15.000;   20.000
308.006; -131.975; -961.000; -847.000
308.143;  -70.775; -618.000; -330.000
308.281;   39.400;  -37.000; -254.000
308.418;  -60.725; -748.000; -640.000
308.555;  -73.950; -400.000; -250.000
308.693;  -69.900; -577.000; -573.000
308.830;  -88.975; -712.000; -657.000
308.967;  -15.450; -215.000;  -95.000
309.105;  -33.150; -507.000; -396.000
309.242;   -1.425; -468.000; -367.000
309.379;   50.175; -577.000; -655.000
309.517;  -89.650; -936.000; -948.000
309.654; -101.800; -910.000; -734.000
309.791;  -60.300; -662.000; -580.000
309.928; -106.075; -977.000; -914.000
310.065;  134.250;  819.000;  697.000
310.203;  -69.300; -825.000; -850.000
310.340;  -29.325; -465.000; -321.000
310.477;  -69.650; -412.000; -516.000
310.614;  -53.975; -383.000; -473.000
310.751;  -64.300; -427.000; -518.000
310.889;  -21.325;    1.000;   11.000
311.026; -135.350;-1161.000; -939.000
311.163;  -38.750; -386.000; -380.000
311.300;  -76.225; -512.000; -479.000
311.437;  -77.725; -658.000; -619.000
311.574; -149.425;-1226.000; -985.000
311.711;  -57.975; -595.000; -433.000
311.848;  -30.250; -380.000; -388.000
311.985;   14.675;  270.000;   93.000
312.122; -118.750; -932.000; -762.000
312.259; -107.825; -941.000; -994.000
312.396;  -64.625; -508.000; -551.000
312.533;  -75.075; -812.000; -790.000
312.670; -127.375;-1070.000; -898.000
312.807;  -18.850; -352.000; -367.000
312.944;  -54.625; -513.000; -611.000
313.081;  -15.925; -150.000; -415.000
313.218;  -85.700;-1111.000; -867.000
313.355;  -20.175; -531.000; -449.000
313.492;  -14.000; -455.000; -292.000
313.629;  123.800;  815.000;  735.000
313.766; -152.125;-1176.000;-1008.000
313.902;  -14.200; -186.000;   21.000
314.039;  -53.125; -372.000; -289.000
314.176;   39.025;  286.000;  192.000
314.313;  -61.050; -569.000; -473.000
314.450;  -70.050; -788.000; -684.000
314.587;  -44.725; -468.000; -480.000
314.723;    3.875;  -78.000;  130.000
314.860;   42.175;  318.000;  332.000
314.997;   36.125;  223.000;  142.000
315.134;  -33.275; -385.000; -368.000
315.270;  -35.000; -480.000; -496.000
315.407; -115.250;-1094.000; -967.000
315.544;  -42.350; -657.000; -538.000
315.681;  -55.050; -681.000; -565.000
315.817;   29.800; -133.000; -176.000
315.954;   39.250; -613.000; -392.000
316.091; -121.575;-1045.000;-1023.000
316.227;  -23.550;  -71.000; -179.000
316.364;   -1.325;   23.000;    6.000
316.500;  -38.325; -113.000; -300.000
316.637;  -50.825; -181.000; -302.000
316.774;  -85.200; -625.000; -358.000
316.910;  -80.625; -598.000; -629.000
317.047;  -64.075; -487.000; -351.000
317.183;  -53.475; -435.000; -566.000
317.320;   39.400; -367.000; -321.000
317.456;  -40.000; -733.000; -805.000
317.593;  -76.700; -598.000; -641.000
317.729;    0.050;  168.000;  -67.000
317.866; -186.025;-1434.000;-1285.000
318.002; -105.325; -708.000; -948.000
318.139; -115.500; -883.000; -867.000
318.275; -113.550;-1003.000; -738.000
318.412;  -66.525; -517.000; -336.000
318.548;  -74.350; -751.000; -720.000
318.685;  -99.350; -985.000; -888.000
318.821;  -84.375; -762.000; -735.000
318.957;  -27.750;   34.000;  -23.000
319.094;   34.700;  297.000;  154.000
319.230;  -85.850; -756.000; -742.000
319.367;  -12.950; -471.000; -520.000
319.503;  -10.400; -538.000; -436.000
319.639;  -99.500; -877.000; -793.000
319.775; -102.275; -750.000; -685.000
319.912;  -55.325; -424.000; -519.000
320.048;  -90.900;-1184.000;-1184.000
320.184;   77.150;   59.000;   70.000
320.321;  -42.225; -497.000; -467.000
320.457;   72.850;  475.000;  662.000
320.593;  -64.325; -375.000; -382.000
320.729; -108.675; -732.000; -734.000
320.866;  -65.775; -577.000; -635.000
321.002;  -98.050; -759.000; -809.000
321.138;  -43.800; -135.000; -211.000
321.274;   23.600; -148.000; -115.000
321.410;  -56.800; -585.000; -353.000
321.546; -105.275;-1011.000; -911.000
321.683;   36.700;  400.000;  185.000
321.819;  -28.425;  -48.000; -117.000
321.955; -113.000; -743.000; -722.000
322.091;  -63.825; -585.000; -540.000
322.227;  -50.775; -382.000; -202.000
322.363;  -42.675; -320.000; -215.000
322.499;  -48.250; -343.000; -331.000
322.635;  101.875;  636.000;  443.000
322.771;  -17.575; -139.000;   12.000
322.907;   39.600;  129.000;  327.000
323.043;  -31.400; -115.000; -206.000
323.179;  -55.650; -394.000; -363.000
323.315;  -64.450; -401.000; -371.000
323.451;   19.725; -328.000; -236.000
323.587;   41.375;  -60.000;  -77.000
323.723;  -62.075; -682.000; -601.000
323.859;  -35.675; -258.000;  -76.000
323.995;  -60.750; -467.000; -409.000
324.131; -122.475; -967.000; -892.000
324.267;  -24.600; -254.000; -276.000
324.402; -135.500; -960.000; -983.000
324.538;  -33.600; -279.000; -104.000
324.674;   -3.900;  164.000;   77.000
324.810;   44.900;  226.000;  308.000
324.946;  -44.875; -810.000; -658.000
325.082;  -76.850; -568.000; -475.000
325.217;  -24.300;  -62.000;   16.000
325.353;  -97.950; -764.000; -659.000
325.489; -107.725; -540.000; -506.000
325.625;  -77.325; -579.000; -525.000
325.760;   78.450;  517.000;  376.000
325.896;   17.525; -515.000; -702.000
326.032;  -55.625; -403.000; -352.000
326.168;  -66.000; -462.000; -369.000
326.303;  -64.100; -352.000; -461.000
326.439;    2.000; -336.000; -276.000
326.575;  -12.825; -190.000;  -29.000
326.710;  -18.800; -156.000;  -30.000
326.846;   -5.200;  146.000;  103.000
326.982;  -89.000; -530.000; -548.000
327.117;  -79.650; -481.000; -442.000
327.253;  -77.700; -745.000; -742.000
327.388; -120.900;-1137.000;-1153.000
327.524;  -86.000; -811.000; -578.000
327.659;  -27.200;  -58.000;  -22.000
327.795;  -20.925;   69.000;   45.000
327.931;  -79.975; -723.000; -499.000
328.066;  -36.725; -417.000; -276.000
328.202;  -11.950;   12.000; -129.000
328.337;   88.450;  957.000;  713.000
328.473;   29.475;  -12.000;  -74.000
328.608;  -26.750; -256.000; -267.000
328.743;  -98.050; -799.000; -664.000
328.879;    8.275;  214.000;  114.000
329.014;  -30.900; -102.000; -122.000
329.150;  -82.625; -358.000; -483.000
329.285;  -75.125; -465.000; -466.000
329.421;  -54.300; -548.000; -246.000
329.556;  -32.225;  -36.000;   85.000
329.691; -104.575; -633.000; -615.000
329.827;  -71.200; -626.000; -480.000
329.962;  -37.150;  131.000; -301.000
330.097;  -79.450; -673.000; -585.000
330.233;  -43.275; -410.000; -223.000
330.368; -114.950; -839.000; -628.000
330.503;  -13.825;    3.000;   98.000
330.638;  -10.750;  -93.000; -125.000
330.774;  -78.750; -609.000; -530.000
330.909;  -51.725; -434.000; -244.000
331.044;  -98.200; -714.000; -708.000
331.179; -165.825;-1217.000;-1109.000
331.315;   -9.600;   77.000;   20.000
331.450;   13.150;  157.000;  285.000
331.585;  -92.325; -805.000; -706.000
331.720;  -75.900; -510.000; -460.000
331.855;   -2.875;  -35.000; -102.000
331.990;  422.900;   62.000;  138.000
332.126;  224.400; -110.000;   71.000
332.261;   20.050; -379.000; -265.000
332.396;   15.525; -135.000; -242.000
332.531;  -70.400;-1074.000;-1031.000
332.666;   88.575; -519.000; -363.000
332.801; -102.900; -726.000; -807.000
332.936;  -33.250; -192.000; -122.000
333.071; -120.625; -870.000; -817.000
333.206;   21.900;  307.000;  379.000
333.341;   16.450;  344.000;  418.000
333.476;  -94.100; -627.000; -623.000
333.611;  -32.425; -251.000; -173.000
333.746;  -54.075; -381.000; -464.000
333.881; -133.700; -973.000; -935.000
334.016; -122.375; -936.000; -917.000
334.151; -121.775; -746.000; -702.000
334.286;   14.500;  152.000;  186.000
334.421;  -16.900; -125.000; -178.000
334.556;  -89.075; -611.000; -567.000
334.690;  -81.350; -631.000; -577.000
334.825;   49.550;  381.000;   83.000
334.960;  -56.475; -285.000; -413.000
335.095;   -0.675;  135.000;  -91.000
335.230;  -87.975; -722.000; -738.000
335.365; -125.450;-1084.000; -990.000
335.499; -127.100;-1108.000;-1037.000
335.634;   26.150;    9.000;  534.000
335.769;  -84.275; -755.000; -720.000
335.904;  -68.075; -603.000; -561.000
336.038;  -29.950; -735.000; -657.000
336.173; -108.725;-1206.000;-1194.000
336.308;   16.800; -116.000; -189.000
336.443;   54.950; -544.000; -634.000
336.577;  -53.425; -936.000; -787.000
336.712;   58.600;   -4.000;  -12.000
336.847;  -31.200; -724.000; -607.000
336.981;   71.775; -272.000; -208.000
337.116;  286.850;  615.000;  501.000
337.250;  107.225; -434.000; -421.000
337.385;  460.525; -297.000; -208.000
337.520;  215.675; -632.000; -603.000
337.654;  -24.800; -215.000; -126.000
337.789; -121.775; -989.000; -933.000
337.923;  -43.100; -104.000; -205.000
338.058; -106.900; -673.000; -738.000
338.192;  -57.375; -611.000; -488.000
338.327;   -4.200;  -18.000; -155.000
338.461;  -59.925; -299.000; -469.000
338.596;  -95.300; -780.000; -638.000
338.730;  -69.475; -767.000; -803.000
338.865;  160.350;  -46.000; -140.000
338.999;    2.100; -846.000; -702.000
339.134;    5.325; -634.000; -536.000
339.268;   44.625; -741.000; -603.000
339.403;  562.775; -740.000; -775.000
339.537;  275.600; -894.000; -820.000
339.671;  -84.175; -829.000; -813.000
339.806;  -28.800; -556.000; -512.000
339.940;   43.825; -261.000; -235.000
340.074;  -98.850; -685.000; -510.000
340.209;  -45.600; -351.000; -230.000
340.343;  -85.600; -517.000; -573.000
340.477;  130.100;  998.000; 1036.000
340.612;   21.375;-1033.000; -900.000
340.746;  251.125; -199.000; -243.000
340.880; -106.125; -924.000; -785.000
341.014;  -27.725;  -45.000; -154.000
341.149; -112.650; -756.000; -718.000
341.283; -105.025; -839.000; -754.000
341.417; -116.975;-1124.000; -938.000
341.551;  -35.150; -768.000; -708.000
341.685;  -62.575; -633.000; -611.000
341.820;  -52.000; -562.000; -493.000
341.954;  -45.300; -218.000; -349.000
342.088; -138.925;-1102.000;-1019.000
342.222;   45.675;  565.000;  618.000
342.356;  -81.650; -395.000; -335.000
342.490; -110.475; -880.000; -841.000
342.624;  -44.425; -339.000; -242.000
342.758;  -50.825; -364.000; -312.000
342.892; -101.650; -710.000; -585.000
343.026;  -48.125;  -58.000; -116.000
343.160;  -62.475; -426.000; -376.000
343.294;  -89.075; -474.000; -337.000
343.428;  -63.725; -488.000; -448.000
343.562;  -29.275; -172.000;  -23.000
343.696;  -63.750; -385.000; -314.000
343.830;  -56.975; -362.000; -356.000
343.964;  -35.775; -231.000; -168.000
344.098;  302.725;  199.000;   70.000
344.232;  249.025; -266.000; -127.000
344.366;   72.300; -567.000; -453.000
344.500;  -41.175; -665.000; -744.000
344.634;  -29.300; -324.000; -164.000
344.768;  -63.150; -531.000; -341.000
344.902;    4.750;  278.000;  256.000
345.035;  -81.825; -556.000; -496.000
345.169; -139.075; -933.000; -656.000
345.303;  -60.825; -308.000; -482.000
345.437;  -95.000; -826.000; -717.000
345.571;  -54.625; -675.000; -594.000
345.704;  -59.675; -309.000; -532.000
345.838;  -23.850; -331.000; -284.000
345.972;  -69.550; -543.000; -495.000
346.106;  246.525; -179.000; -190.000
346.239;  484.725; -312.000; -243.000
346.373;  -11.675; -343.000; -302.000
346.507; -132.850; -950.000; -962.000
346.640;   35.700;  -30.000;   13.000
346.774;  -82.600; -650.000; -797.000
346.908;  -33.225; -138.000;  -11.000
347.041; -110.575; -646.000; -593.000
347.175;  -22.025;  259.000;   27.000
347.309;  -91.625; -698.000; -628.000
347.442; -119.975; -883.000; -732.000
347.576;  124.175;  670.000;  668.000
347.709;   51.425; -123.000;  -52.000
347.843; -115.975; -933.000; -825.000
347.976;   14.050;  235.000;  294.000
348.110; -170.975;-1268.000;-1186.000
348.243; -104.050; -679.000; -772.000
348.377;   -3.725;  -26.000;   60.000
348.510;   35.725;  403.000;  540.000
348.644;  -53.050;  -37.000; -159.000
348.777;   -9.325;  180.000;  191.000
348.911;  -50.125; -142.000; -112.000
349.044;   72.775;  471.000;  448.000
349.178;  -30.025;-1069.000;-1006.000
349.311;   95.000;  141.000;  255.000
349.444;   31.725; -927.000; -813.000
349.578;  -18.950; -347.000; -200.000
349.711; -121.575; -959.000; -862.000
349.845;  -65.700; -661.000; -591.000
349.978; -158.375;-1224.000;-1137.000
350.111;  -92.100; -546.000; -612.000
350.244; -117.100; -596.000; -700.000
350.378;  -59.275; -392.000; -393.000
350.511;  -70.450; -393.000; -426.000
350.644; -102.075; -808.000; -806.000
350.778;   12.050;  168.000;  104.000
350.911;   -2.150;  134.000;  140.000
351.044;  -95.600; -685.000; -615.000
351.177;  -55.300; -321.000; -281.000
351.310;  -33.375;    3.000; -131.000
351.444; -104.025; -888.000; -788.000
351.577;   54.200;  140.000;   90.000
351.710;   59.425;  593.000;  417.000
351.843;  -26.200; -165.000;  -77.000
351.976;  -14.000;  149.000;  -79.000
352.109;  -86.200; -621.000; -612.000
352.242;  -67.050; -464.000; -419.000
352.376;  -89.300; -580.000; -636.000
352.509;    2.350; -437.000; -356.000
352.642;  -84.075; -654.000; -604.000
352.775;  -12.100; -141.000;  -98.000
352.908; -114.075; -933.000; -904.000
353.041; -107.100; -814.000; -824.000
353.174;  -60.350; -551.000; -424.000
353.307;  -88.175; -753.000; -764.000
353.440;   55.900;  541.000;  453.000
353.573; -109.450; -957.000;-1008.000
353.706;  -44.225; -384.000; -558.000
353.839;  -30.525; -264.000; -220.000
353.971;  -95.525; -657.000; -512.000
354.104; -109.375; -896.000; -835.000
354.237;  -80.375; -627.000; -662.000
354.370; -102.700; -846.000; -879.000
354.503; -176.550;-1231.000;-1308.000
354.636;  -38.025; -529.000; -348.000
354.769; -127.675; -937.000; -860.000
354.902;  -33.675; -230.000; -139.000
355.034;  -33.775; -164.000; -220.000
355.167;   -5.375; -262.000; -162.000
355.300;  -63.700;-1061.000; -880.000
355.433; 1441.225;  -71.000;  -14.000
355.565; 2272.625; -402.000; -384.000
355.698;  596.075; -356.000; -296.000
355.831;   -2.025; -882.000; -801.000
355.964;   18.900; -285.000; -170.000
356.096;  -79.750; -856.000; -843.000
356.229;   -7.075; -523.000; -530.000
356.362;  535.000; -373.000; -266.000
356.494;  927.025; -229.000; -162.000
356.627;  340.450;  269.000;  377.000
356.760;  891.750;  120.000;   53.000
356.892; 1529.575; -286.000; -601.000
357.025;  360.725;  403.000;  389.000
357.157;  244.500; -167.000; -179.000
357.290; 1210.200; -856.000; -713.000
357.423;  377.825; -667.000; -556.000
357.555;  100.475; -217.000; -228.000
357.688;  123.375; -483.000; -364.000
357.820;  163.950; -870.000; -877.000
357.953; 1461.500; -563.000; -589.000
358.085;  230.525; -632.000; -612.000
358.218;  117.375;-1131.000; -932.000
358.350;   32.825;  -58.000;  312.000
358.483; -148.350;-1300.000;-1187.000
358.615; -126.650;-1182.000;-1078.000
358.747; -139.500;-1187.000;-1058.000
358.880;  -54.250; -810.000; -744.000
359.012;  -24.075; -376.000; -202.000
359.145;  -75.975; -480.000; -511.000
359.277;  -52.450; -962.000; -913.000
359.409; 1211.900;  536.000;  231.000
359.542;  277.375; -738.000; -688.000
359.674;    9.225;   46.000;   13.000
359.806;  -76.300; -565.000; -438.000
359.939;  -31.750; -617.000; -516.000
360.071;   48.700; -583.000; -579.000
360.203;  -19.650; -411.000; -364.000
360.335;   32.100;  164.000;  -16.000
360.468;   88.050; -249.000; -307.000
360.600; 1305.475; -547.000; -454.000
360.732; 4265.750; -546.000; -423.000
360.864;  655.625;-1216.000;-1044.000
360.996;   72.675; -516.000; -554.000
361.129;  -33.725; -389.000; -598.000
361.261;  -12.200;  110.000; -113.000
361.393;  -40.975; -252.000; -214.000
361.525;   -0.550;   94.000;  244.000
361.657; -103.725; -821.000; -703.000
361.789;  -24.875; -139.000; -155.000
361.921;  -45.025; -642.000; -593.000
362.053;   87.000;  524.000;  541.000
362.185;   -5.700;  288.000;   72.000
362.318; -114.150; -709.000; -705.000
362.450;   37.150;  294.000;  444.000
362.582;  -95.200; -913.000; -870.000
362.714;  -53.000; -353.000; -332.000
362.846;  -88.050; -606.000; -490.000
362.978; -133.075; -941.000; -811.000
363.109;  -34.375; -161.000; -260.000
363.241;  155.750; -739.000; -749.000
363.373;  644.525; -649.000; -564.000
363.505; 1046.575; -186.000;  -91.000
363.637;  241.875; -787.000; -601.000
363.769; -125.425;-1067.000;-1080.000
363.901;  -79.575; -596.000; -654.000
364.033; -152.425;-1103.000;-1062.000
364.165;  -40.150; -283.000; -283.000
364.296;   99.500; -316.000; -177.000
364.428;  199.250;-1344.000;-1220.000
364.560;  -61.275; -679.000; -661.000
364.692;  -89.775; -738.000; -835.000
364.824;   -9.775; -588.000; -456.000
364.955;  502.600; -402.000; -564.000
365.087; 1746.325;-1097.000; -852.000
365.219;  104.600; -686.000; -816.000
365.351;  -69.500; -526.000; -572.000
365.482;    8.875;  300.000;  240.000
365.614;  -54.650; -402.000; -314.000
365.746; -101.725; -729.000; -752.000
365.877;  -80.475; -706.000; -672.000
366.009;  422.650;  -35.000;  -62.000
366.141;  -28.050;-1249.000;-1134.000
366.272;  -90.975; -803.000; -719.000
366.404; -113.750;-1005.000; -874.000
366.535;  -15.150; -139.000;  -12.000
366.667; -109.250; -644.000; -649.000
366.799;   16.475;  353.000;  203.000
366.930; -128.300; -862.000; -996.000
367.062;  193.850; -639.000; -613.000
367.193;  341.775; -872.000; -842.000
367.325;  -25.100; -580.000; -684.000
367.456;    2.325; -246.000;   31.000
367.588;  264.950; -371.000; -318.000
367.719;   47.975;  -44.000;  -45.000
367.851;  -45.950; -222.000; -241.000
367.982; -106.550; -875.000; -732.000
368.113;  -11.500; -475.000; -358.000
368.245; -145.000; -960.000; -841.000
368.376;  -48.075; -254.000; -302.000
368.508;  -63.300; -188.000; -263.000
368.639; -153.750;-1166.000;-1034.000
368.770;  -83.200; -670.000; -589.000
368.902; -111.075; -836.000; -926.000
369.033; -121.275; -906.000; -855.000
369.164;  -33.825; -720.000; -653.000
369.296;  -89.600; -452.000; -601.000
369.427;  -27.875; -209.000; -144.000
369.558;  -79.875; -593.000; -377.000
369.689;  -85.600; -721.000; -569.000
369.821; -141.200; -951.000; -845.000
369.952;  -22.475;   42.000; -108.000
370.083;  -55.000; -229.000; -108.000
370.214;  -98.175; -735.000; -650.000
370.345;  -23.425;   65.000;   81.000
370.477; -115.300; -810.000; -790.000
370.608;   19.075; -328.000; -264.000
370.739; -122.400;-1233.000;-1292.000
370.870; -117.250;-1102.000; -923.000
371.001;  -33.750; -378.000; -467.000
371.132; -101.100; -754.000; -735.000
371.263;  -40.600;  -42.000; -148.000
371.394; -136.000; -841.000; -748.000
371.525;    6.675;  345.000;  225.000
371.657; -107.075; -808.000; -670.000
371.788;   31.900;  103.000;  199.000
371.919;   14.325; -384.000; -304.000
372.050; 1232.050;  -91.000; -156.000
372.181;  392.325; -188.000; -294.000
372.311;   98.225;   42.000; -127.000
372.442;  -40.800; -457.000; -451.000
372.573;  -56.825; -444.000; -340.000
372.704; -154.925;-1008.000; -980.000
372.835;  -24.475; -228.000; -289.000
372.966;  -78.500; -646.000; -554.000
373.097; -101.800; -575.000; -711.000
373.228; -100.350; -717.000; -542.000
373.359;  -53.775; -824.000; -536.000
373.490;  162.400; -881.000; -727.000
373.620;  254.550;-1001.000; -803.000
373.751;  526.700; -332.000; -396.000
373.882;  209.750; -663.000; -733.000
374.013;  -23.700; -449.000; -262.000
374.143;  -72.125; -581.000; -659.000
374.274; -135.850; -987.000; -908.000
374.405;   48.200; -388.000; -276.000
374.536;  113.425; -526.000; -387.000
374.666;  258.075; -759.000; -807.000
374.797;  -25.800; -817.000; -868.000
374.928;  158.900; -710.000; -560.000
375.058;  180.025; -535.000; -500.000
375.189;    9.775;  -59.000;  -93.000
375.320; -128.650; -928.000;-1034.000
375.450;  -50.775; -625.000; -616.000
375.581;  -51.350; -526.000; -436.000
375.712;  -53.900; -574.000; -250.000
375.842;    2.175; -438.000; -415.000
375.973;  -24.250; -554.000; -513.000
376.103;  -82.575; -665.000; -648.000
376.234;  -99.900; -531.000; -552.000
376.364; -118.500; -944.000; -867.000
376.495;  124.325;  925.000;  529.000
376.625;  -65.675; -472.000; -485.000
376.756;  -51.225; -709.000; -678.000
376.886; -132.650;-1178.000;-1026.000
377.017;  154.550;-1048.000;-1061.000
377.147;  654.450; -786.000; -782.000
377.278;   67.025;  174.000;  228.000
377.408; -121.150; -801.000; -815.000
377.538;  -99.900; -707.000; -693.000
377.669;  -91.050; -537.000; -613.000
377.799; -113.500; -645.000; -635.000
377.929;  -88.250; -610.000; -428.000
378.060; -116.450; -781.000; -847.000
378.190;  -26.150; -726.000; -531.000
378.320;  -35.275; -401.000; -406.000
378.451;  -31.075; -131.000;  -22.000
378.581;  -25.325;  -67.000; -110.000
378.711;  107.050; 1035.000;  866.000
378.841;  -71.925; -533.000; -675.000
378.972; -115.525; -871.000; -751.000
379.102;  -64.900; -652.000; -579.000
379.232;  -36.050; -126.000;  -73.000
379.362; -120.425;-1001.000; -885.000
379.492;  -52.575; -373.000; -424.000
379.623;   23.150;    0.000;  111.000
379.753; -127.675;-1107.000; -974.000
379.883;   74.000;   59.000;  156.000
380.013;  -87.625;-1081.000;-1017.000
380.143; -121.750;-1097.000;-1056.000
380.273; -100.650; -985.000; -861.000
380.403;   -1.325; -344.000; -257.000
380.533;  -38.775; -651.000; -664.000
380.663;   14.775;  173.000;  128.000
380.793; -147.350;-1027.000;-1074.000
380.923;  -48.875; -103.000;  -34.000
381.053;  -98.700; -613.000; -623.000
381.183;  -49.750; -106.000; -248.000
381.313;  -62.875; -656.000; -470.000
381.443;  -55.400; -692.000; -473.000
381.573;  -30.375; -402.000; -409.000
381.703;  -89.225;-1249.000;-1095.000
381.833; -181.650;-1454.000;-1336.000
381.963;   16.475; -134.000;  -87.000
382.093;  374.425; -925.000; -909.000
382.223;   95.275; -713.000; -602.000
382.353;  -95.425; -801.000; -608.000
382.482;    1.925;-1091.000; -964.000
382.612;  170.100; -872.000; -644.000
382.742;   73.150; -695.000; -622.000
382.872;  -14.425; -565.000; -551.000
383.002;   20.350;  347.000; -132.000
383.131;  -24.200; -226.000; -160.000
383.261;  -41.875; -706.000; -768.000
383.391;  319.425; -552.000; -377.000
383.521; 5106.450;  451.000;  263.000
383.650; 1569.775; -947.000; -904.000
383.780;   44.325; -783.000; -656.000
383.910;  101.825;  880.000;  802.000
384.039;  -78.875; -794.000; -656.000
384.169;  -86.450;-1205.000;-1017.000
384.299;  -77.225; -650.000; -662.000
384.428; -105.225; -764.000; -680.000
384.558;  -68.225; -308.000; -275.000
384.687;  -73.550; -414.000; -334.000
384.817;  -22.275;   75.000;   -2.000
384.947;  -36.250; -234.000; -141.000
385.076;  158.250;  982.000;  912.000
385.206;   63.750;  369.000;  480.000
385.335;  -59.875; -549.000; -417.000
385.465; -120.575; -655.000; -663.000
385.594;   15.950;  -53.000;  -44.000
385.724;   25.200; -868.000; -838.000
385.853;   -0.975; -296.000; -270.000
385.982;  333.650; -743.000; -787.000
386.112;  628.225;-1052.000; -871.000
386.241;    7.275; -307.000; -312.000
386.371;  -15.875; -174.000;  -87.000
386.500;  -62.450; -825.000; -789.000
386.629;  -13.025; -874.000; -817.000
386.759;   77.625;  -43.000;   68.000
386.888;  -30.375; -170.000; -250.000
387.017;  -94.575; -648.000; -620.000
387.147; -103.575; -771.000; -798.000
387.276;  -64.150; -410.000; -397.000
387.405;  -45.600; -398.000; -342.000
387.535;  -75.125; -452.000; -361.000
387.664;  -76.725; -692.000; -620.000
387.793;  -22.475; -198.000; -113.000
387.922;  144.525;  255.000;  200.000
388.052;  -52.225; -576.000; -423.000
388.181;  -50.500; -342.000; -472.000
388.310;  -85.225; -889.000; -710.000
388.439; -112.325; -749.000; -742.000
388.568;   45.875;  365.000;  244.000
388.697;  246.775; -756.000; -653.000
388.826;   -0.500; -768.000; -666.000
388.956;  -43.650; -285.000; -307.000
389.085;  -53.250; -347.000; -287.000
389.214; -108.900; -842.000; -872.000
389.343;  -61.925; -645.000; -413.000
389.472;  551.625;  126.000;  149.000
389.601;  638.000;   91.000;    0.000
389.730;  -14.300; -568.000; -687.000
389.859;   28.150;  226.000;   46.000
389.988;   14.675; -423.000; -408.000
390.117;   37.875; -168.000; -146.000
390.246;  -32.750; -331.000; -320.000
390.375;  -55.100; -673.000; -626.000
390.504;  -92.100; -703.000; -621.000
390.633; -122.125; -672.000; -726.000
390.761; -102.425; -732.000; -645.000
390.890;  -30.400;   -4.000; -130.000
391.019;  -74.150; -421.000; -441.000
391.148; -131.050; -826.000; -855.000
391.277;  -82.675; -576.000; -493.000
391.406; -123.325; -821.000; -805.000
391.534;    0.775;  574.000; -301.000
391.663;  -87.475; -583.000; -645.000
391.792; -103.500; -673.000; -701.000
391.921;  -15.525;   -3.000;   15.000
392.050;  -11.975; -287.000; -228.000
392.178; -128.575;-1206.000;-1061.000
392.307;  -35.850; -758.000; -712.000
392.436;  -47.450; -427.000; -641.000
392.564;    6.250;  166.000;   -6.000
392.693; -109.825; -860.000; -682.000
392.822;   10.700; -529.000; -534.000
392.950;  -47.225; -880.000; -714.000
393.079;   48.025; -188.000; -328.000
393.208;  -47.725; -488.000; -511.000
393.336;  -38.750; -170.000; -145.000
393.465;  -47.425; -317.000; -199.000
393.593;   -4.650;   62.000;   79.000
393.722; -141.100;-1121.000; -916.000
393.850;  -18.950; -188.000;  -61.000
393.979; -141.175; -926.000; -805.000
394.107;  -80.550; -517.000; -537.000
394.236;  -46.275; -570.000; -507.000
394.364;  103.250;  383.000;  206.000
394.493;   47.650; -911.000; -767.000
394.621;   16.600; -955.000; -916.000
394.750; 1161.750; -873.000; -923.000
394.878; 4475.775; -247.000; -149.000
395.007; 6569.775; -721.000; -807.000
395.135;  606.900; -790.000; -721.000
395.263;  -58.675;-1038.000;-1040.000
395.392;    8.700;  -25.000; -107.000
395.520; -122.975; -818.000; -679.000
395.648; -113.825; -865.000; -915.000
395.777;  -66.125; -366.000; -405.000
395.905;  -80.925; -449.000; -564.000
396.033;   -3.525;  217.000;  172.000
396.162;  117.100; -399.000; -453.000
396.290;  122.050;  -17.000;   -2.000
396.418;  -51.800; -555.000; -514.000
396.546; -104.750; -571.000; -466.000
396.674; -111.800; -850.000; -878.000
396.803;  -29.025;  -72.000;  -23.000
396.931;  -32.225; -179.000; -199.000
397.059; -131.025;-1026.000; -989.000
397.187; -143.850;-1026.000; -975.000
397.315; -146.950; -884.000; -649.000
397.443; -101.450; -592.000; -443.000
397.572; -100.650; -578.000; -424.000
397.700; -106.000; -607.000; -614.000
397.828;  -23.875;  120.000;  -90.000
397.956;  -37.875; -508.000; -478.000
398.084;  -28.150; -767.000; -626.000
398.212;   -0.400;  137.000;  124.000
398.340;  -28.375;  -56.000;  159.000
398.468;  -73.325; -390.000; -169.000
398.596; -148.975; -993.000; -953.000
398.724; -130.025; -762.000; -767.000
398.852; -149.400;-1024.000; -976.000
398.980;  -87.650; -560.000; -560.000
399.108;  -87.975; -982.000; -735.000
399.236;  -10.800;   13.000;    8.000
399.363;   -0.900;  222.000;  196.000
399.491;  -72.075; -404.000; -398.000
399.619; -116.625; -829.000; -800.000
399.747; -111.850; -859.000; -771.000
399.875;   33.275;  220.000;  234.000
400.003;  -74.200; -359.000; -284.000
400.130;  -93.375; -421.000; -341.000
400.258;  -39.450;  -83.000;   38.000
400.386;  -64.550; -352.000; -168.000
400.514;  -93.825; -526.000; -587.000
400.641; -126.925; -928.000; -802.000
400.769; -144.250; -979.000; -888.000
400.897; -124.500; -838.000; -793.000
401.025;  -31.400; -166.000; -152.000
401.152;  -12.500;  220.000;   38.000
401.280;  -83.200; -430.000; -429.000
401.408; -106.025; -712.000; -576.000
401.535; -107.675; -735.000; -758.000
401.663; -184.075;-1134.000;-1054.000
401.790;  -77.200; -514.000; -525.000
401.918;   18.050;  436.000;  405.000
402.046;  -14.675;  134.000;  122.000
402.173;  -41.750;  -18.000;    7.000
402.301;  -67.825; -519.000; -397.000
402.428;   30.525;  528.000;  383.000
402.556; -139.075;-1188.000; -913.000
402.683;  -38.300;  -20.000;   -1.000
402.811;  -38.050;  -37.000; -206.000
402.938;  -13.625;   20.000;   27.000
403.066;  -15.850; -574.000; -558.000
403.193;   94.600;  299.000;  239.000
403.321;   50.425; -396.000; -574.000
403.448;  107.925;   83.000;   27.000
403.575;   42.475;  -90.000;  -46.000
403.703;  -93.175; -732.000; -557.000
403.830;  -53.000; -531.000; -496.000
403.957; -121.700;-1117.000;-1023.000
404.085;   15.825;  -61.000; -172.000
404.212;  111.325;  -50.000;   63.000
404.339;  426.000; -566.000; -306.000
404.467; 9049.025; -612.000; -524.000
404.594; 5621.550; -287.000; -227.000
404.721;  952.775; -869.000; -764.000
404.848;  104.425; -113.000; -202.000
404.976;  -95.800; -856.000; -783.000
405.103;   -3.000;  -14.000;  -82.000
405.230;   -5.600;  190.000;  226.000
405.357;   39.450;  117.000;   44.000
405.484;  425.375;  -49.000;    5.000
405.612;  132.050; -548.000; -563.000
405.739;  -59.500; -488.000; -243.000
405.866;   69.125;  669.000;  385.000
405.993;  -42.850; -398.000; -102.000
406.120; -140.475; -801.000; -887.000
406.247;  -76.975; -323.000; -342.000
406.374;  104.550;  540.000;  629.000
406.501;  -74.050; -632.000; -702.000
406.628; -109.750; -621.000; -589.000
406.755; -113.175; -803.000; -620.000
406.882;  -66.725; -228.000; -277.000
407.009; -109.275; -719.000; -628.000
407.136;  -51.425; -480.000; -401.000
407.263;  -59.800; -939.000; -829.000
407.390;  -93.950; -692.000; -614.000
407.517; -179.175;-1139.000;-1187.000
407.644;  -75.275; -332.000; -256.000
407.771;  -82.300; -249.000; -287.000
407.898;   -7.850;  168.000;  328.000
408.025;  -77.175; -421.000; -313.000
408.151;  -12.275;   82.000;  153.000
408.278;  -61.675; -267.000; -216.000
408.405; -131.125; -931.000; -899.000
408.532;  -91.000; -549.000; -542.000
408.659; -125.125; -677.000; -648.000
408.785; -188.300;-1298.000;-1170.000
408.912;  -70.250; -412.000; -296.000
409.039; -115.550; -610.000; -686.000
409.166; -108.325; -591.000; -555.000
409.292; -100.725; -571.000; -534.000
409.419; -118.000; -665.000; -649.000
409.546;  -91.425; -431.000; -192.000
409.672; -111.050; -713.000; -545.000
409.799;  -42.775;  -36.000;   34.000
409.926;  -48.975; -180.000; -179.000
410.052; -162.925;-1127.000;-1091.000
410.179;  -71.350; -368.000; -392.000
410.305;  -83.300; -375.000; -493.000
410.432;  -52.650; -220.000; -333.000
410.558;  -92.450; -305.000; -380.000
410.685; -110.700; -688.000; -431.000
410.812; -101.150; -409.000; -588.000
410.938; -140.400; -964.000; -808.000
411.065;  -97.675; -671.000; -645.000
411.191;  -42.675; -189.000; -174.000
411.317; -133.525; -823.000; -742.000
411.444;  -78.125; -317.000; -246.000
411.570;  -85.675; -339.000; -294.000
411.697; -119.825; -758.000; -752.000
411.823; -163.475; -989.000; -999.000
411.949;  -59.950;  -56.000;   17.000
412.076; -110.525; -539.000; -519.000
412.202; -128.375; -758.000; -757.000
412.329; -118.600; -798.000; -752.000
412.455; -114.450; -821.000; -657.000
412.581;  -25.025;  -15.000;  172.000
412.707;  -86.425; -540.000; -457.000
412.834;  -12.775;  156.000;  219.000
412.960; -113.150; -785.000; -784.000
413.086; -112.075; -743.000; -701.000
413.212;  109.600;  604.000;  578.000
413.339; -106.000; -685.000; -701.000
413.465;  -55.625; -364.000; -310.000
413.591; -106.450; -757.000; -474.000
413.717;  -58.875; -358.000; -366.000
413.843; -134.125; -839.000; -861.000
413.969;  -56.500;  -47.000; -292.000
414.096;  -95.675; -679.000; -679.000
414.222;   -6.675;  -33.000;   85.000
414.348;  -65.700; -652.000; -385.000
414.474;   -3.075;   38.000;  -52.000
414.600;  -25.450; -126.000; -144.000
414.726;  -22.350;  -96.000;  -55.000
414.852;  -45.550; -365.000; -342.000
414.978;   42.125;  104.000;  -18.000
415.104;   49.700;   38.000;   80.000
415.230;   41.900; -329.000; -330.000
415.356;   61.500; -409.000; -514.000
415.482;  231.350;   13.000;  -35.000
415.608;  417.875; -247.000; -323.000
415.734; 1327.050;   67.000;   38.000
415.860;27631.800; -875.000; -767.000
415.986;23037.500; -685.000; -607.000
416.111; 2163.550; -798.000; -652.000
416.237;  456.625; -424.000; -571.000
416.363; 1707.150; -765.000; -733.000
416.489; 6813.950; -324.000; -251.000
416.615;  938.100; -707.000; -742.000
416.741;   70.075; -677.000; -784.000
416.866;  -52.500; -673.000; -736.000
416.992;  -97.725; -801.000; -818.000
417.118;  -31.100;  -41.000;  -80.000
417.244;  -82.375; -798.000; -531.000
417.369;  -64.975; -801.000; -612.000
417.495;  -10.775; -325.000; -254.000
417.621;  -87.725;-1015.000; -803.000
417.746;    6.350; -579.000; -572.000
417.872;   63.050; -254.000; -144.000
417.998;  123.925; -515.000; -530.000
418.123; 1561.425;-1073.000; -845.000
418.249; 8635.775; -512.000; -601.000
418.374; 1509.575; -916.000; -824.000
418.500;  243.325; -383.000; -482.000
418.626;  171.700;   70.000;  -59.000
418.751;  165.800; -549.000; -448.000
418.877;  324.500; -637.000; -643.000
419.002; 2584.200; -688.000; -560.000
419.128;19658.050; -930.000; -721.000
419.253; 5653.475; -967.000; -837.000
419.379;  754.875; -391.000; -338.000
419.504;  586.000;  325.000;  415.000
419.629;  832.400; -393.000; -212.000
419.755; 5331.450; -317.000; -254.000
419.880;35116.775;  -98.000;   67.000
420.006;17674.400; -280.000; -221.000
420.131;43966.950; -662.000; -775.000
420.256; 7211.900; -315.000; -316.000
420.382;  986.000; -665.000; -687.000
420.507;  167.550; -649.000; -778.000
420.632;   54.425; -337.000; -339.000
420.758;   34.575; -251.000; -425.000
420.883;  -97.175; -876.000; -672.000
421.008;  -96.450; -775.000; -619.000
421.133;  -92.850; -509.000; -467.000
421.259;  -61.825; -325.000; -259.000
421.384; -118.475; -834.000; -693.000
421.509; -117.650;-1052.000; -862.000
421.634;  163.425; -936.000; -820.000
421.759;   93.425; -359.000; -327.000
421.885; -100.500; -717.000; -656.000
422.010; -104.800; -673.000; -542.000
422.135; -145.225; -695.000; -727.000
422.260;   17.075;  340.000;  280.000
422.385;  -40.175;   12.000;  -98.000
422.510;   -3.900;  151.000;  -26.000
422.635;   -7.675;  -87.000;  -43.000
422.760;  -14.325; -766.000; -791.000
422.885;   37.100;  -57.000;  -80.000
423.010;  -33.300; -112.000; -169.000
423.135;  -98.550; -481.000; -561.000
423.260;  -46.225; -150.000; -245.000
423.385;   29.175;  476.000;  222.000
423.510;   -3.600;   71.000;  -22.000
423.635;    5.575;  133.000;   45.000
423.760;   36.650;  383.000;  328.000
423.885;   18.775;  336.000;  391.000
424.010;  -10.525;  -68.000;  -13.000
424.135;  -24.475;    5.000;  -33.000
424.259;  -75.475; -654.000; -457.000
424.384;  -46.600; -279.000; -272.000
424.509;  -13.275; -260.000; -186.000
424.634;  -74.800; -761.000; -623.000
424.759;  -28.400; -688.000; -544.000
424.883;    9.250; -506.000; -527.000
425.008;  207.250; -502.000; -410.000
425.133; 2900.725; -679.000; -653.000
425.258; 1592.500; -517.000; -381.000
425.382;  490.050; -867.000; -774.000
425.507; 1145.775; -487.000; -543.000
425.632;  397.750; -802.000; -663.000
425.756;  684.950; -256.000; -146.000
425.881;10041.275; -831.000; -857.000
426.006;31413.450; -604.000; -355.000
426.130; 5274.075; -696.000; -508.000
426.255;  712.725; -611.000; -491.000
426.379;  290.300; -189.000; -577.000
426.504;  505.100;  660.000;  544.000
426.629; 5686.975; -519.000; -466.000
426.753; 4493.975;   64.000;  -46.000
426.878;  578.225; -252.000; -288.000
427.002;  327.775; -651.000; -668.000
427.127; 2073.075;  -35.000; -158.000
427.251;17421.675;  372.000;  401.000
427.375; 5753.775; -191.000; -173.000
427.500; 1325.925; -616.000; -610.000
427.624;  410.125; -234.000; -400.000
427.749;   78.925; -216.000; -225.000
427.873;  -22.225; -499.000; -412.000
427.997;  -43.775; -222.000; -230.000
428.122;   52.350;  795.000;  703.000
428.246;   49.075;  433.000;  434.000
428.371; -148.300; -869.000; -773.000
428.495; -109.775; -624.000; -646.000
428.619;  -47.350; -186.000; -117.000
428.743;    2.375;   65.000;  132.000
428.868;  -77.875; -732.000; -643.000
428.992;  451.625; -219.000; -326.000
429.116;  195.350; -329.000; -357.000
429.240;  108.600;  419.000;  426.000
429.365;  -34.450; -454.000; -574.000
429.489;  -46.000; -638.000; -647.000
429.613;   48.475; -236.000; -177.000
429.737;   83.175; -563.000; -432.000
429.861;  389.050; -247.000; -133.000
429.985; 7957.375; -425.000; -305.000
430.109;10239.350; -770.000; -908.000
430.234; 1270.425;   76.000;  -50.000
430.358;  149.300; -250.000; -160.000
430.482;  -42.875; -672.000; -564.000
430.606;  -65.100; -655.000; -375.000
430.730;  -51.925; -437.000; -388.000
430.854;  -92.575; -909.000; -835.000
430.978;  -95.975; -795.000; -764.000
431.102;  -79.875; -499.000; -422.000
431.226; -122.200; -874.000; -815.000
431.350;   12.875;  345.000;  422.000
431.474; -100.300; -661.000; -373.000
431.597; -155.000;-1060.000; -848.000
431.721;  -69.100; -276.000; -267.000
431.845; -116.625; -704.000; -472.000
431.969;  -88.100; -304.000; -349.000
432.093;  -87.325; -395.000; -317.000
432.217;  -16.725;   32.000;   82.000
432.341;  -77.675; -523.000; -518.000
432.464;   -6.200;   96.000;   40.000
432.588;  -20.150; -401.000; -329.000
432.712;   21.225;  -52.000;  -52.000
432.836;   54.625;  213.000;  263.000
432.959;   23.900; -372.000; -311.000
433.083;  161.075;   11.000;    2.000
433.207;  581.650;  285.000;  930.000
433.330; 7686.225; -391.000; -200.000
433.454;10755.100; -654.000; -638.000
433.578; 5880.950;  583.000;  278.000
433.701; 1290.600; -623.000; -675.000
433.825;  163.350; -292.000; -299.000
433.949;   48.500;   28.000;  -72.000
434.072;  -20.550; -410.000; -323.000
434.196;  -15.950; -309.000; -117.000
434.319; 3481.800;25482.000;25124.000
434.443;  879.400; -656.000; -603.000
434.566; 4134.875;  281.000;   62.000
434.690;  904.775; -637.000; -383.000
434.813;  162.075; -251.000; -173.000
434.937;  -35.625; -569.000; -696.000
435.060;  -74.325; -423.000; -332.000
435.184;  -12.250; -492.000; -217.000
435.307;   -4.075;  159.000;  102.000
435.431;  -27.425;  -40.000;   24.000
435.554;  -83.325; -399.000; -240.000
435.677;  -82.975; -350.000; -258.000
435.801;  -48.350;  -25.000;   49.000
435.924;  -54.300;    1.000;  -67.000
436.048; -136.825;-1019.000; -732.000
436.171;  -58.600; -240.000;  -66.000
436.294;   -7.750; -248.000; -229.000
436.417;  248.800; -963.000; -849.000
436.541;  -20.150; -814.000; -840.000
436.664;  -49.425; -242.000; -316.000
436.787;  -34.100;   13.000;  113.000
436.910; -105.975; -792.000; -422.000
437.034;  -20.050;  142.000;  143.000
437.157;    1.075;  -11.000;    0.000
437.280;  -83.975; -392.000; -292.000
437.403; -134.250; -982.000; -869.000
437.526;   -3.325; -903.000; -865.000
437.649;  454.425; -505.000; -332.000
437.772;  -20.950; -692.000; -540.000
437.896;   56.000;  700.000;  544.000
438.019;  -88.550; -758.000; -503.000
438.142; -106.025; -596.000; -506.000
438.265; -110.275; -639.000; -670.000
438.388;   34.025; -520.000; -410.000
438.511;  -66.525; -597.000; -394.000
438.634;  -77.400; -247.000; -125.000
438.757; -133.450; -693.000; -619.000
438.880;  -46.175;  -34.000;  -57.000
439.003; -110.700; -417.000; -437.000
439.126;  -67.350; -287.000; -167.000
439.248;  -56.950;  -98.000; -139.000
439.371;  -42.700;    9.000;  -53.000
439.494;   28.700;  510.000;  439.000
439.617;  -67.000;   65.000;  -88.000
439.740; -191.725; -968.000; -816.000
439.863; -148.750; -755.000; -595.000
439.986; -115.750; -476.000; -431.000
440.108;  -53.125; -161.000; -112.000
440.231; -159.500; -950.000; -836.000
440.354;  -60.625;  -64.000; -150.000
440.477; -122.900; -566.000; -542.000
440.599;  -99.150; -200.000; -225.000
440.722; -125.725; -709.000; -586.000
440.845;   53.000;  751.000;  928.000
440.968; -112.175; -415.000; -311.000
441.090;  -79.550; -199.000;  -33.000
441.213; -165.950;-1021.000; -825.000
441.336;  -65.700; -159.000;   -5.000
441.458;  -90.425; -549.000; -396.000
441.581; -136.375; -628.000; -629.000
441.703;  -65.600; -152.000;   13.000
441.826; -111.725; -557.000; -400.000
441.948;  -51.825;   56.000;   51.000
442.071;   27.725;  555.000;  424.000
442.193; -119.400; -531.000; -485.000
442.316;    4.975;  152.000;   97.000
442.438;   74.975; -233.000;  -10.000
442.561;   56.175;  272.000;  262.000
442.683;   39.950; -809.000; -522.000
442.806;  242.325;   -8.000;   74.000
442.928; -114.050; -859.000; -604.000
443.051;  -84.800; -577.000; -373.000
443.173;  -92.375; -341.000; -339.000
443.295;  -90.125; -263.000; -371.000
443.418;  -76.600; -321.000;  -29.000
443.540;  -61.525; -106.000;   -4.000
443.662; -134.625; -563.000; -465.000
443.785;  -31.100;  335.000;  199.000
443.907;  -85.900; -362.000; -208.000
444.029; -133.100; -767.000; -494.000
444.152; -136.175; -644.000; -554.000
444.274;  -60.850;  -18.000;  -24.000
444.396; -117.750; -461.000; -221.000
444.518; -126.875; -691.000; -454.000
444.640;  -88.900; -268.000; -111.000
444.763;  -29.900;  388.000;  249.000
444.885; -129.525; -432.000; -392.000
445.007;  -31.725;   35.000;   86.000
445.129; -117.450; -610.000; -515.000
445.251; -115.200; -372.000; -439.000
445.373; -151.425; -537.000; -386.000
445.495;  -10.075;  242.000;  350.000
445.617;   31.175;  853.000;  753.000
445.739;  -81.025; -215.000;  -97.000
445.861;  -56.000; -245.000; -112.000
445.984;  -71.000; -267.000; -101.000
446.105;  -26.700; -418.000; -251.000
446.227;   99.075; -176.000;  -19.000
446.349;  -79.150; -358.000; -249.000
446.471; -128.675; -615.000; -448.000
446.593;  -89.075; -316.000;   19.000
446.715;  -43.500;  -67.000;   41.000
446.837;   41.625;  697.000;  832.000
446.959; -114.875; -457.000; -478.000
447.081; -138.650; -628.000; -518.000
447.203;   49.275;  862.000;  834.000
447.325;  -88.750; -270.000;   42.000
447.446;  -18.825;  286.000;  530.000
447.568; -149.950; -921.000; -803.000
447.690;  -82.650; -236.000; -245.000
447.812; -139.600; -798.000; -519.000
447.933;  -31.400;  155.000;  127.000
448.055;  -65.800; -306.000; -261.000
448.177;   17.350;   31.000;   79.000
448.299;  -89.125; -935.000; -727.000
448.420;  -19.375;  -25.000;  159.000
448.542;  -52.475;   -3.000;   33.000
448.664;  -19.800;  109.000;  322.000
448.785;  -42.525;  265.000;   83.000
448.907; -106.750; -614.000; -353.000
449.028;  -94.650; -771.000; -471.000
449.150;   35.050;  492.000;  589.000
449.272; -174.050;-1044.000; -913.000
449.393;   25.275;  612.000;  694.000
449.515; -141.500; -634.000; -581.000
449.636;  -71.675; -264.000; -155.000
449.758;   52.650;  763.000;  622.000
449.879;  -84.425; -498.000; -396.000
450.001;  -77.125; -149.000;  -49.000
450.122;  -35.550;  -95.000;  162.000
450.244;  -16.275;   37.000;  364.000
450.365;  -67.225; -495.000; -301.000
450.486;   -6.975;   80.000;  268.000
450.608;   49.875;  393.000;  326.000
450.729;  117.750;  578.000;  645.000
450.850;  100.875; -574.000; -466.000
450.972; 1218.125; -552.000; -389.000
451.093; 7983.400;  190.000;  588.000
451.214; 4248.875; -516.000; -337.000
451.336;  707.500;  773.000;  579.000
451.457;  127.000;  264.000;  393.000
451.578;  -28.150; -118.000;  -74.000
451.699;  -96.600; -546.000; -540.000
451.821;  -54.400; -284.000;  -50.000
451.942;    9.150;  278.000;  285.000
452.063;   62.700;  228.000;  419.000
452.184;  829.700;  -54.000;  -49.000
452.305; 1764.250;  103.000;  170.000
452.427;  358.425; -549.000; -301.000
452.548;  -11.300;   23.000;   79.000
452.669;  -57.000; -257.000;  -89.000
452.790;  -65.725;    3.000;  -18.000
452.911;  -15.550;  195.000;  259.000
453.032;  -80.725; -289.000;  -60.000
453.153;  -62.425;  -29.000;   81.000
453.274;   50.375;  737.000;  868.000
453.395;  -62.525;  -51.000;  175.000
453.516;   76.925; 1317.000; 1388.000
453.637;  -81.400; -205.000; -150.000
453.758;  -54.475;   15.000;   69.000
453.879; -113.700; -462.000; -250.000
454.000;   74.200; 1086.000;  948.000
454.121; -123.300; -554.000; -326.000
454.242; -106.150; -599.000; -383.000
454.362;  -58.850;  -99.000;  114.000
454.483;  -10.825; -309.000; -229.000
454.604;   66.400;  512.000;  580.000
454.725; -116.925; -627.000; -555.000
454.846; -122.450; -474.000; -406.000
454.967;  -18.175;  230.000;  539.000
455.087;  -34.975;  179.000;  153.000
455.208;    4.925;  554.000;  856.000
455.329;  -44.450;  -22.000;   82.000
455.450;   69.675;  473.000;  633.000
455.570;  -49.650; -234.000; -211.000
455.691;  -37.900;  201.000;  407.000
455.812; -106.400; -270.000;  -92.000
455.932;  -49.900;  107.000;  -97.000
456.053;  -80.650;   36.000;   24.000
456.173; -113.225; -433.000; -355.000
456.294; -134.175; -476.000; -303.000
456.415;  -64.525;  -73.000;   70.000
456.535;  -38.075;  297.000;  273.000
456.656;  -44.825;  132.000;  240.000
456.776;  -55.525;    3.000;  298.000
456.897;    4.375;  308.000;  513.000
457.017;  -53.900; -153.000;   -3.000
457.138; -105.300; -402.000; -249.000
457.258;  -30.850;  263.000;  224.000
457.379;  -13.050;  509.000;  521.000
457.499;  -32.125;  443.000;  432.000
457.620; -128.150; -407.000; -231.000
457.740;  -90.000; -132.000;  -11.000
457.860;  -55.050;   87.000;   44.000
457.981;  -33.375;  132.000;  124.000
458.101;  -79.375;  -89.000;   40.000
458.221;   -8.225;  336.000;  402.000
458.342;  -51.275;   -4.000;  -37.000
458.462;   50.325;  617.000;  352.000
458.582;   25.475; -302.000; -294.000
458.703;   73.800;  303.000;  154.000
458.823;   11.550;   22.000;  163.000
458.943;   62.275;  341.000;  467.000
459.063;   18.500; 1124.000;  192.000
459.183;  -11.300;  328.000;  313.000
459.304;   17.575;  315.000;  517.000
459.424;  -50.700; -246.000;  -89.000
459.544;  478.025;  388.000;  764.000
459.664; 1341.475;  499.000;  506.000
459.784;  527.600; 1004.000; 1175.000
459.904;   94.625;  867.000;  744.000
460.024;   68.975;  867.000;  684.000
460.144;  -17.625;  449.000;  554.000
460.264;  -13.275;  515.000;  327.000
460.385;  -70.150; -145.000; -119.000
460.505;   24.650;  905.000;  858.000
460.625;  -88.425;  -17.000;  -68.000
460.745;  -25.500;  396.000;  541.000
460.864;  -40.275;  153.000;  469.000
460.984;   32.775;  499.000;  573.000
461.104;  142.450; 1656.000; 1775.000
461.224;   23.475;  657.000;  650.000
461.344;  -24.925;  431.000;  360.000
461.464;  -45.100;  258.000;  513.000
461.584;  -26.200;  283.000;  466.000
461.704;  -52.275;   58.000;  108.000
461.824;  -70.850;  238.000;  259.000
461.943;  -50.875;  191.000;  130.000
462.063;  -74.100;    2.000;  324.000
462.183;   13.750;  639.000;  717.000
462.303;   91.050; 1678.000; 1230.000
462.422;   26.975;  781.000;  840.000
462.542;  -47.250;  271.000;  391.000
462.662;   54.875;  353.000;  380.000
462.782;  347.025;  833.000;  572.000
462.901;  769.525;  545.000;  717.000
463.021;  391.425; 1702.000; 1638.000
463.141;   18.900;  337.000;  770.000
463.260;    0.200;  614.000;  474.000
463.380;   11.575;  902.000;  884.000
463.499;  -23.025;  342.000;  332.000
463.619;  -33.925;  581.000;  559.000
463.738;  108.950; 1644.000;  903.000
463.858;   14.425;  657.000;  811.000
463.978;  -26.400;  542.000;  396.000
464.097;   39.525;  921.000; 1114.000
464.217;  160.675; 1196.000; 1143.000
464.336;  154.575; 1068.000; 1130.000
464.455;  -15.950;  328.000;  659.000
464.575;   16.950;  597.000;  602.000
464.694;  144.725; 1204.000; 1179.000
464.814;  157.075; 1190.000; 1138.000
464.933;   95.575; 1095.000; 1027.000
465.052;   99.250; 1412.000; 1054.000
465.172;   85.000;  922.000;  799.000
465.291;  107.800; 1376.000; 1320.000
465.410;    9.200;  462.000;  735.000
465.530;   78.000; 1355.000; 1310.000
465.649;   51.100; 1209.000; 1273.000
465.768;  133.650; 1673.000; 1508.000
465.888;   62.975;  941.000; 1174.000
466.007;  100.375; 1335.000; 1440.000
466.126;   -2.525;  721.000;  641.000
466.245;   47.400; 1176.000; 1187.000
466.364;   27.275;  950.000; 1060.000
466.484;   53.975; 1024.000; 1213.000
466.603;   28.725; 1101.000; 1222.000
466.722;  106.800; 1490.000; 1769.000
466.841;   86.000; 1151.000; 1401.000
466.960;   48.100; 1069.000;  972.000
467.079;  125.525; 1971.000; 1786.000
467.198;   41.350; 1238.000; 1181.000
467.317;   89.950; 1768.000; 1162.000
467.436;   85.850; 1709.000; 1261.000
467.555;  126.025; 1796.000; 1746.000
467.674;   57.900; 1227.000; 1329.000
467.793;   54.725; 1376.000; 1374.000
467.912;   78.100; 1658.000; 1539.000
468.031;  132.950; 2038.000; 1930.000
468.150;  130.275; 1842.000; 1837.000
468.269;  194.350; 2313.000; 2090.000
468.388;  176.325; 2168.000; 2339.000
468.507;  246.025; 2884.000; 2903.000
468.626;  231.500; 2555.000; 2541.000
468.744;  136.975; 2018.000; 2174.000
468.863;  194.750; 2312.000; 2523.000
468.982;  110.350; 1503.000; 1555.000
469.101;  217.225; 2788.000; 2692.000
469.220;  152.225; 2333.000; 2176.000
469.338;  251.200; 2935.000; 3051.000
469.457;  200.825; 2719.000; 2545.000
469.576;  357.550; 3953.000; 3784.000
469.695;  246.475; 2877.000; 3066.000
469.813;  417.525; 4148.000; 4192.000
469.932;  404.100; 4255.000; 4485.000
470.051;  433.500; 4075.000; 4161.000
470.169; 1039.875; 4470.000; 4338.000
470.288; 2021.875; 4700.000; 4809.000
470.406; 1199.775; 5059.000; 5194.000
470.525;  675.000; 6101.000; 5787.000
470.644;  659.450; 6847.000; 6794.000
470.762;  772.125; 8397.000; 7873.000
470.881;  906.950; 8651.000; 8464.000
470.999; 1079.650; 9685.000; 9151.000
471.118; 1109.200;11174.000;10711.000

