
Integration time [ms]: 100.000
Averaging Nr. [scans]: 40
Smoothing Nr. [pixels]: 0
Data measured with spectrometer [name]: 2101012U2
Wave   ;Sample   ;Dark     ;Reference
[nm]   ;[counts] ;[counts] ;[counts] 

197.733;   51.650;  516.000;  404.000
197.879;  -78.525; -610.000; -634.000
198.025;  -41.900; -475.000; -420.000
198.171;  -71.700; -602.000; -612.000
198.317;  -23.675; -401.000; -316.000
198.463;  -57.375; -655.000; -404.000
198.609;   13.300;  181.000; -137.000
198.755;  -89.275; -644.000; -410.000
198.901;  -70.100; -505.000; -424.000
199.047;  -81.675; -615.000; -488.000
199.193;  -36.675; -230.000; -468.000
199.339;  -39.625; -222.000; -369.000
199.485;   33.875;  330.000;  271.000
199.631;   19.925;  227.000;  310.000
199.777;  -53.975; -466.000; -398.000
199.923;  -62.425; -610.000; -424.000
200.069;   -7.875; -141.000;  -58.000
200.215;   58.400;  128.000;  453.000
200.361;   44.400;  243.000;  477.000
200.507;  -67.725; -600.000; -373.000
200.653;  -26.300; -371.000; -194.000
200.798;  -39.900; -215.000; -125.000
200.944;  -10.525; -146.000;  -41.000
201.090;   27.075;   61.000;  222.000
201.236;    3.300; -116.000; -158.000
201.382;  110.875;  874.000;  903.000
201.528;    5.475;  -58.000;  -48.000
201.674;  -54.100; -386.000; -293.000
201.819;  -74.875; -540.000; -439.000
201.965;  -83.675; -699.000; -447.000
202.111;  -26.400; -273.000; -226.000
202.257;  -49.950; -250.000; -238.000
202.402;   -4.025;   13.000;  -36.000
202.548;  -25.650; -169.000; -116.000
202.694;   83.325;  410.000; -183.000
202.840;  -80.725; -603.000; -531.000
202.985;  -57.025; -681.000; -639.000
203.131; -104.725; -832.000; -666.000
203.277;  -26.775; -199.000; -262.000
203.423;  -58.050; -434.000; -520.000
203.568;  -42.100; -462.000; -237.000
203.714;  -71.075; -535.000; -542.000
203.860;  -77.525; -682.000; -641.000
204.005;   -1.375;  112.000;  167.000
204.151;   73.325;  561.000;  556.000
204.296;  -50.550; -354.000; -221.000
204.442;  -70.975; -600.000; -547.000
204.588;  -67.125; -592.000; -579.000
204.733;   15.475;  178.000;  168.000
204.879; -132.275;-1018.000; -822.000
205.025;   -2.875;  -99.000;  126.000
205.170;   -5.375;  -17.000;   94.000
205.316;   74.275;  438.000;  661.000
205.461;  -80.600; -698.000; -554.000
205.607;   77.025;  609.000;  665.000
205.752;  -71.925; -626.000; -551.000
205.898;  -53.550; -501.000; -391.000
206.043;  -53.625; -578.000; -506.000
206.189;  -39.600; -243.000; -285.000
206.334;   78.175;  554.000;  606.000
206.480;   47.875;  409.000;  239.000
206.625;  -79.900; -529.000; -552.000
206.771;  -45.400; -451.000; -373.000
206.916;  -37.675; -210.000; -537.000
207.062;  -78.850; -545.000; -591.000
207.207;  -66.250; -546.000; -443.000
207.353;   36.525;  185.000;  460.000
207.498;   11.500;  196.000;   85.000
207.643;  -57.825; -501.000; -370.000
207.789; -133.275;-1069.000; -910.000
207.934;  -94.400; -665.000; -713.000
208.080;  -24.775; -154.000;   66.000
208.225;  -11.775;  -22.000;  -57.000
208.370;  -79.475; -727.000; -619.000
208.516;  -76.475; -741.000; -487.000
208.661;  -46.700; -127.000;  -69.000
208.806;  -19.775; -165.000; -171.000
208.952; -129.275;-1044.000; -731.000
209.097;   56.375;  378.000;  349.000
209.242;  -40.725; -307.000; -382.000
209.387;   65.100;  392.000;  350.000
209.533;  -71.950; -321.000; -350.000
209.678;   72.325;  472.000;  543.000
209.823;  -44.225; -408.000; -310.000
209.969; -107.150; -860.000; -757.000
210.114; -103.225; -907.000; -719.000
210.259; -107.025; -939.000; -889.000
210.404;  -14.125; -171.000;  103.000
210.549;    5.625;  108.000;    3.000
210.695;  -22.525;   -3.000;  -95.000
210.840;    6.900;   94.000;   67.000
210.985;  -64.325; -484.000; -303.000
211.130;   79.325;  268.000;  406.000
211.275;   13.525;  207.000;  199.000
211.420;  -49.275; -300.000; -289.000
211.566;  -78.100; -536.000; -489.000
211.711;   34.375;  218.000;  157.000
211.856;  -59.050; -545.000; -519.000
212.001;    8.125;  151.000;   44.000
212.146;   13.325;  153.000;   49.000
212.291;  -19.150; -210.000; -186.000
212.436;  -29.675; -280.000;   -6.000
212.581;  -85.900; -685.000; -653.000
212.726;  -69.550; -487.000; -538.000
212.871;  -64.825; -552.000; -217.000
213.016; -148.500;-1172.000;-1029.000
213.161;   53.975;  406.000;  291.000
213.306;  -73.975; -435.000; -577.000
213.451;  -97.275; -778.000; -689.000
213.596;  -45.000; -455.000; -347.000
213.741;  -51.925; -448.000; -538.000
213.886;  -77.225; -498.000; -517.000
214.031;  -22.000; -294.000; -124.000
214.176;  -52.975; -408.000; -341.000
214.321;  -21.525; -296.000; -157.000
214.466;  -26.850; -163.000;  -43.000
214.611;  -17.875;  -61.000;  -10.000
214.756; -124.000; -948.000; -858.000
214.901;  -27.125; -388.000; -226.000
215.046; -117.750; -797.000; -825.000
215.191;   21.000;  128.000;   35.000
215.336;  -24.575; -157.000;  -19.000
215.480;  -80.225; -684.000; -505.000
215.625;  -18.375; -175.000;  -19.000
215.770;  -90.200; -757.000; -662.000
215.915;  -12.225;   -5.000;  -97.000
216.060;  -22.525; -113.000;  -21.000
216.205; -112.275; -731.000; -779.000
216.349;  -89.950; -470.000; -533.000
216.494; -134.125; -939.000; -867.000
216.639; -113.100; -823.000; -888.000
216.784;  -80.900; -577.000; -525.000
216.929;   43.975;  392.000;  281.000
217.073;  -20.475; -244.000;  -31.000
217.218;   13.675;   78.000;  -47.000
217.363;  -77.825; -656.000; -618.000
217.507;  -82.525; -623.000; -588.000
217.652; -122.525; -845.000; -874.000
217.797;  -84.875; -708.000; -659.000
217.942; -114.600; -856.000; -720.000
218.086;   72.400;  608.000;  539.000
218.231;  -24.200; -174.000;  -26.000
218.376;  -36.475; -337.000; -229.000
218.520;    5.025;  -41.000;   96.000
218.665;  -37.500; -338.000; -204.000
218.810;  -42.550; -275.000; -233.000
218.954;   14.850;  201.000;   35.000
219.099;  -95.975; -713.000; -963.000
219.243;  -80.175; -589.000; -554.000
219.388;  -24.200; -264.000; -136.000
219.532;   -1.750; -116.000; -116.000
219.677;  -80.175; -564.000; -521.000
219.822;   14.550;   33.000;   89.000
219.966;    8.275;   17.000;  -99.000
220.111;  -44.425; -328.000;  -40.000
220.255;  -88.300; -797.000; -750.000
220.400;  -15.500; -180.000; -146.000
220.544;  -66.025; -516.000; -450.000
220.689;  -47.125; -422.000; -451.000
220.833;  -26.775; -123.000;  -58.000
220.978;  -51.475; -393.000; -563.000
221.122;   20.650;  319.000;  307.000
221.267; -117.900; -906.000; -837.000
221.411;  -72.150; -478.000; -394.000
221.555;  -15.000; -104.000;  -23.000
221.700;  -68.650; -329.000; -222.000
221.844;   32.475;  255.000;  272.000
221.989;  -40.400; -328.000; -311.000
222.133;  -36.850; -289.000; -307.000
222.277;  -10.450;    5.000;   78.000
222.422;   12.200;  227.000;  113.000
222.566;  -40.575; -381.000; -214.000
222.711;  -62.150; -414.000; -479.000
222.855;  -86.625; -643.000; -586.000
222.999;  -82.025; -642.000; -717.000
223.144;  -41.950; -195.000; -194.000
223.288;   62.825;  423.000;  251.000
223.432;   18.875;  184.000;  230.000
223.576;   12.600;  152.000;  -21.000
223.721;   37.775;  364.000;  273.000
223.865;  -54.200; -472.000; -475.000
224.009;  221.050; 1673.000; 1631.000
224.153;  -80.025; -660.000; -671.000
224.298;  -69.550; -531.000; -489.000
224.442;  -13.200;  -74.000;  -33.000
224.586;  -15.900; -169.000; -106.000
224.730;  -88.525; -858.000; -670.000
224.875; -116.875; -739.000; -688.000
225.019;    1.500;  102.000;  188.000
225.163;   58.125;  208.000;  341.000
225.307;   10.475;   97.000;  -91.000
225.451;   44.250;  360.000;  481.000
225.595;   18.425;  264.000;  176.000
225.739;  -12.700; -170.000;  -94.000
225.884;   -0.325;   86.000;    5.000
226.028; -110.650; -760.000; -626.000
226.172;  -35.025; -260.000; -273.000
226.316; -113.275; -941.000; -902.000
226.460;  -69.075; -645.000; -493.000
226.604;  -59.875; -406.000; -400.000
226.748;  -85.375; -836.000; -733.000
226.892;  -31.275; -227.000; -181.000
227.036;  -53.500; -537.000; -447.000
227.180;  -60.975; -551.000; -375.000
227.324;  -73.825; -561.000; -580.000
227.468; -104.475; -819.000; -717.000
227.612;    9.125;  242.000;  -28.000
227.756;  -92.800; -845.000; -698.000
227.900;   50.800;  342.000;  441.000
228.044;  -57.850; -509.000; -290.000
228.188;   53.725;  448.000;  568.000
228.332;  -94.175; -546.000; -472.000
228.476;  -37.175; -223.000; -149.000
228.620;  -38.725; -210.000; -150.000
228.764;   60.675;  431.000;  349.000
228.908;  -18.000; -155.000;   30.000
229.052;  -70.850; -615.000; -528.000
229.195;  -24.350; -172.000;   13.000
229.339;  -36.300; -235.000; -305.000
229.483;  -29.075;    5.000; -162.000
229.627;  -10.400; -156.000;  139.000
229.771;  -48.975; -218.000; -294.000
229.915;   13.075;  230.000;   79.000
230.059;  -82.925; -648.000; -663.000
230.202;  -32.900; -370.000; -317.000
230.346;  -20.525; -107.000;  107.000
230.490;  -65.325; -489.000; -521.000
230.634; -107.150; -736.000; -553.000
230.777;   70.625;  478.000;  509.000
230.921;  -61.300; -450.000; -359.000
231.065;  -51.750; -246.000; -286.000
231.209;   27.650;  261.000;  265.000
231.352;   19.950;   54.000;   40.000
231.496;   19.000;  568.000;  188.000
231.640;  -71.150; -693.000; -621.000
231.783;   52.475;  546.000;  525.000
231.927;  -30.775; -294.000; -365.000
232.071; -115.350; -962.000; -736.000
232.214; -119.400; -980.000; -764.000
232.358;  -94.800; -683.000; -599.000
232.502;    6.325;  -19.000;    7.000
232.645; -139.850;-1090.000; -927.000
232.789;  -33.025; -257.000; -218.000
232.933;  -45.500; -407.000; -224.000
233.076; -130.175;-1038.000; -897.000
233.220; -106.300; -752.000; -777.000
233.363;  -82.550; -669.000; -477.000
233.507;   34.125;  371.000;  129.000
233.650; -105.875; -764.000; -834.000
233.794;   47.075;  438.000;  461.000
233.938;  -68.625; -530.000; -362.000
234.081;  -25.700;  -93.000;   31.000
234.225;  -77.975; -631.000; -539.000
234.368; -105.350; -773.000; -723.000
234.512;  -44.425; -385.000; -299.000
234.655; -100.125; -582.000; -555.000
234.798;  -61.725; -493.000; -466.000
234.942; -120.750; -884.000;-1002.000
235.085;  -75.650; -651.000; -443.000
235.229;  -84.025; -405.000; -410.000
235.372;  -52.650; -247.000; -191.000
235.516;  -60.450; -397.000; -321.000
235.659;   18.150;   92.000;  121.000
235.802;  -31.925;  -38.000;  -22.000
235.946;   19.350;  335.000;  215.000
236.089;   25.900;  126.000;  250.000
236.233;   45.900;  275.000;  298.000
236.376;  -38.250; -235.000; -378.000
236.519;  -49.625; -297.000; -319.000
236.663;  -30.625; -215.000; -117.000
236.806; -140.400;-1029.000; -999.000
236.949;   40.450;  543.000;  431.000
237.092;   52.625;  412.000;  391.000
237.236;  -98.150; -589.000; -502.000
237.379;   51.175;  352.000;  428.000
237.522; -111.850; -879.000; -768.000
237.666;  -23.950; -271.000;   18.000
237.809; -128.225; -851.000; -823.000
237.952;   33.100;  469.000;  271.000
238.095;  -76.100; -447.000; -442.000
238.238;   80.600;  688.000;  700.000
238.382;  -14.225;  166.000;  103.000
238.525;  -77.825; -598.000; -511.000
238.668; -133.725;-1060.000; -985.000
238.811;  -67.450; -638.000; -643.000
238.954;  -55.800; -483.000; -334.000
239.097;   83.975;  617.000;  664.000
239.241;   32.425;  394.000;  326.000
239.384;  -38.450; -254.000; -214.000
239.527;  -55.625; -424.000; -224.000
239.670; -151.650; -994.000;-1091.000
239.813; -115.200; -696.000; -658.000
239.956;   78.325;  579.000;  473.000
240.099; -113.150; -778.000; -725.000
240.242;   78.975;  428.000;  432.000
240.385;   41.375;  466.000;  450.000
240.528;  -83.100; -706.000; -473.000
240.671;    6.700;  189.000;  134.000
240.814;  -47.575; -441.000; -158.000
240.957; -102.675; -767.000; -578.000
241.100; -103.325; -779.000; -755.000
241.243; -139.175;-1234.000; -893.000
241.386;  -68.050; -508.000; -379.000
241.529;  -98.150; -735.000; -547.000
241.672;  -67.000; -566.000; -495.000
241.815; -115.500; -832.000; -808.000
241.958;  -25.550; -125.000; -182.000
242.101;  -71.450; -545.000; -390.000
242.244;  -38.525; -270.000; -325.000
242.387;  -57.200; -304.000; -246.000
242.530;   42.975;  470.000;  134.000
242.673;  -62.625; -381.000; -309.000
242.815; -113.300; -925.000; -899.000
242.958;  -63.975; -482.000; -381.000
243.101;   -0.875;  132.000;  187.000
243.244;  -88.775; -564.000; -521.000
243.387;  -64.900; -313.000; -316.000
243.530;  -97.975; -657.000; -674.000
243.672;   -3.125;   43.000;  -92.000
243.815;  -58.600; -355.000; -283.000
243.958;   -4.825;   98.000;  -26.000
244.101;   -9.600;   59.000;  -16.000
244.243;  -13.950;  -47.000;  101.000
244.386; -115.475; -761.000; -630.000
244.529;  -38.000; -132.000; -139.000
244.672; -163.200;-1154.000; -951.000
244.814; -106.200; -621.000; -794.000
244.957;  -53.725; -380.000; -304.000
245.100;  -80.375; -489.000; -489.000
245.242;  -66.125; -387.000; -374.000
245.385;  -11.850;  -59.000;  -39.000
245.528; -129.175; -871.000; -705.000
245.670;   73.500;  612.000;  634.000
245.813;  -91.775; -599.000; -547.000
245.956;  -29.975; -324.000; -275.000
246.098;  -70.875; -508.000; -650.000
246.241;   13.375;  194.000;   48.000
246.383;  -28.850; -119.000;  -73.000
246.526;  -68.650; -454.000; -525.000
246.669; -127.875; -889.000; -780.000
246.811;   13.675;  172.000;   -1.000
246.954;  -60.625; -512.000; -426.000
247.096;  -25.725;  -84.000;   -6.000
247.239;  -63.650; -482.000; -445.000
247.381;  -72.825; -647.000; -488.000
247.524;   68.425;  645.000;  679.000
247.666;   -7.275;   58.000;   11.000
247.809; -115.875; -887.000; -691.000
247.951;  -26.900;  -75.000;  138.000
248.094;   21.800;  432.000;  308.000
248.236; -154.550;-1262.000;-1238.000
248.378;   19.900; -356.000;  -81.000
248.521;  -17.200; -334.000; -337.000
248.663;  -36.525; -236.000; -267.000
248.806;  -27.450; -300.000; -266.000
248.948; -101.000; -886.000; -763.000
249.090;  -39.275; -428.000; -398.000
249.233;  -49.450; -344.000; -381.000
249.375;  -68.125; -474.000; -451.000
249.518;  -27.300;  -83.000; -133.000
249.660;   -7.000; -103.000;    3.000
249.802; -170.825;-1303.000;-1189.000
249.945;  -81.750; -612.000; -540.000
250.087; -117.700; -834.000; -768.000
250.229;  -37.425; -362.000; -480.000
250.371;  -74.450; -494.000; -439.000
250.514;  -61.525; -310.000; -244.000
250.656;    3.725;   69.000;  102.000
250.798; -119.000; -849.000; -800.000
250.940;  -59.525; -322.000; -322.000
251.083;  -40.250; -335.000; -111.000
251.225;   55.350;  338.000;  310.000
251.367;  -39.750; -274.000; -373.000
251.509;  -31.275; -265.000; -210.000
251.651;  -93.025; -731.000; -671.000
251.794;   42.800;  538.000;  632.000
251.936; -109.425; -821.000; -747.000
252.078;  -76.275; -540.000; -461.000
252.220;  -71.425; -645.000; -477.000
252.362;   80.625;  344.000;  462.000
252.504;  -68.850; -677.000; -584.000
252.646; -114.250; -875.000; -722.000
252.788;    1.075;   14.000; -128.000
252.931;  -44.225; -257.000; -253.000
253.073;  -45.475; -376.000; -317.000
253.215;    0.625;  141.000;  122.000
253.357;  -10.525;   82.000; -153.000
253.499;  -58.275; -374.000; -234.000
253.641;  -73.950; -749.000; -594.000
253.783;  -90.825; -609.000; -527.000
253.925;  -90.975; -586.000; -591.000
254.067; -119.425; -744.000; -667.000
254.209;  -29.450; -391.000; -259.000
254.351; -141.325; -865.000; -883.000
254.493;  -73.850; -441.000; -417.000
254.635; -116.900; -936.000; -818.000
254.777;  -94.200; -752.000; -687.000
254.918;  -67.075; -512.000; -430.000
255.060;  -68.875; -551.000; -395.000
255.202;  -52.975; -473.000; -261.000
255.344;  -90.450; -658.000; -455.000
255.486;  -74.225; -471.000; -406.000
255.628; -121.250; -780.000; -781.000
255.770;  -96.750; -676.000; -536.000
255.912;  -63.975; -559.000; -468.000
256.053;  -96.250; -730.000; -508.000
256.195;  143.600; 1008.000;  903.000
256.337; -113.975; -861.000; -595.000
256.479;   48.025;  532.000;  416.000
256.621;  -41.875; -394.000; -212.000
256.762;  -97.150; -789.000; -742.000
256.904;   45.125;  485.000;  487.000
257.046;  -58.425; -381.000; -271.000
257.188;  -51.100; -351.000; -264.000
257.329;  -80.900; -525.000; -464.000
257.471; -103.875; -939.000; -807.000
257.613;  -62.350; -584.000; -498.000
257.755; -155.675;-1073.000; -982.000
257.896;   23.650;  286.000;  392.000
258.038;  -66.850; -403.000; -352.000
258.180;  -43.900; -354.000; -279.000
258.321;  -89.200; -581.000; -457.000
258.463;   -4.900;  -71.000;  133.000
258.605;  -99.925; -562.000; -570.000
258.746; -108.100; -886.000; -772.000
258.888; -149.075;-1026.000;-1020.000
259.029;    9.125;  121.000;   -8.000
259.171;  -97.625; -614.000; -550.000
259.313;   -0.825;  -49.000;  -47.000
259.454;  -79.325; -536.000; -414.000
259.596;  -67.000; -483.000; -390.000
259.737;  -82.650; -590.000; -474.000
259.879;   29.450;  217.000;  311.000
260.020;   81.875;  901.000;  636.000
260.162;  -29.975; -146.000; -253.000
260.303; -121.425; -768.000; -687.000
260.445;  -79.850; -609.000; -613.000
260.586;   20.325;  392.000;  157.000
260.728;  -50.075; -360.000; -248.000
260.869; -115.650; -350.000; -343.000
261.011;   75.250;  706.000;  537.000
261.152;  -68.975; -479.000; -319.000
261.293;  -86.900; -576.000; -595.000
261.435;  -37.825; -219.000; -184.000
261.576;  -49.975; -455.000; -325.000
261.718;   39.150;  420.000;  470.000
261.859; -123.075; -940.000; -949.000
262.000; -125.450; -951.000;-1016.000
262.142;  -27.225;  -52.000;  -60.000
262.283; -117.500; -808.000; -691.000
262.424;  -97.825; -666.000; -625.000
262.566; -157.875;-1161.000; -983.000
262.707; -112.450; -840.000; -830.000
262.848; -119.100; -769.000; -726.000
262.990;  -64.000; -362.000; -345.000
263.131;   76.100;  650.000;  681.000
263.272;    4.700;  -61.000;  -41.000
263.413;  -85.400; -589.000; -561.000
263.555;  -63.300; -669.000; -143.000
263.696;  -99.775; -550.000; -641.000
263.837;  -74.425; -449.000; -551.000
263.978;   -6.275;   -5.000;  -77.000
264.119;  -56.550; -283.000; -264.000
264.261; -129.025; -847.000; -630.000
264.402;   -4.725;   33.000;   40.000
264.543;  -83.950; -509.000; -524.000
264.684;   -7.825;   61.000;  -50.000
264.825;  -69.375; -816.000; -538.000
264.966;   -5.125;  -84.000;  -67.000
265.107;  -98.300; -646.000; -670.000
265.248; -120.850; -825.000; -812.000
265.390;  -12.600;  152.000;   -9.000
265.531;  -31.300; -238.000; -107.000
265.672;  -92.675; -557.000; -630.000
265.813;   64.975;  563.000;  439.000
265.954; -146.200; -959.000; -940.000
266.095;  -28.850; -372.000; -322.000
266.236; -106.675; -686.000; -548.000
266.377;  -50.625; -243.000; -297.000
266.518;  -78.875; -619.000; -547.000
266.659;    4.325;  170.000;  268.000
266.800;    7.650;   83.000;   85.000
266.941;  -80.250; -487.000; -478.000
267.082;   -0.800;  354.000;   99.000
267.223;  -49.850; -344.000; -273.000
267.364; -116.225; -892.000; -686.000
267.504;  -19.525;    3.000;  135.000
267.645;  -12.625;  160.000;   67.000
267.786;  -36.425; -147.000;  -86.000
267.927;  -66.675; -473.000; -379.000
268.068;  -24.250; -186.000;  -61.000
268.209;  -55.250; -175.000; -413.000
268.350;  -57.600; -388.000; -532.000
268.490;  -87.700; -648.000; -521.000
268.631;   28.575;  127.000;  225.000
268.772; -111.900; -874.000; -647.000
268.913;  -57.300; -328.000; -476.000
269.054;  -32.425; -117.000;   12.000
269.194;  -57.750; -418.000; -402.000
269.335; -161.275;-1137.000;-1074.000
269.476;  -21.550;   33.000;  -35.000
269.617;  -56.400; -347.000; -392.000
269.757;  -92.225; -713.000; -646.000
269.898; -101.400; -856.000; -613.000
270.039;  -71.750; -415.000; -405.000
270.180; -133.600; -952.000; -816.000
270.320;  -24.125; -190.000; -250.000
270.461;  -45.050; -277.000; -249.000
270.602;  -21.150; -186.000; -156.000
270.742; -120.650; -868.000; -943.000
270.883;  -58.625; -442.000; -390.000
271.023;  -54.475; -358.000; -357.000
271.164;  -78.100; -607.000; -528.000
271.305; -106.350; -666.000; -654.000
271.445;  -91.100; -722.000; -683.000
271.586;  -61.175; -462.000; -283.000
271.726;  -48.500; -397.000; -322.000
271.867;  -58.625; -594.000; -534.000
272.008;  166.175; -473.000; -285.000
272.148;  121.675;  462.000;  468.000
272.289;   11.625; -113.000; -181.000
272.429;    3.600;   19.000;  185.000
272.570;  -96.500; -633.000; -737.000
272.710; -102.225; -825.000; -775.000
272.851;  -10.875;  113.000; -130.000
272.991; -167.175;-1173.000;-1077.000
273.131;  -73.375; -419.000; -459.000
273.272; -100.600; -683.000; -723.000
273.412;   -2.300; -143.000;  -31.000
273.553;  -54.225; -488.000; -507.000
273.693;  118.975;  913.000;  858.000
273.834;  -82.650; -894.000; -692.000
273.974;  -81.600; -664.000; -615.000
274.114; -105.000; -772.000; -560.000
274.255;   66.975;  414.000;  373.000
274.395;   -0.250; -180.000; -125.000
274.535;   33.300;  199.000;  350.000
274.676;   17.500;  225.000;   94.000
274.816;  -12.575;  110.000;   34.000
274.956;  -81.150; -624.000; -690.000
275.097;  -57.475;-1014.000; -922.000
275.237; -109.950; -913.000; -803.000
275.377; -107.025; -778.000; -689.000
275.517; -147.350; -878.000; -937.000
275.658;  -59.100; -590.000; -555.000
275.798;  -62.625; -606.000; -413.000
275.938;   31.200;  215.000;  323.000
276.078; -107.700; -626.000; -395.000
276.218;    4.025;   99.000;  104.000
276.359; -126.100;-1026.000;-1024.000
276.499;  -73.800; -605.000; -446.000
276.639;  -37.425; -305.000; -151.000
276.779;  -41.900; -475.000; -357.000
276.919; -107.475; -783.000; -624.000
277.059;  -23.950; -261.000; -212.000
277.199;  -51.250; -357.000; -259.000
277.340;   33.050;  287.000;  175.000
277.480; -108.575; -840.000; -693.000
277.620;   -2.025;  192.000;   16.000
277.760; -182.900;-1533.000;-1294.000
277.900;    1.000;  113.000;   33.000
278.040;   20.975;  137.000;  159.000
278.180;   32.500;  270.000;  170.000
278.320;   -1.950;   21.000;   56.000
278.460;  -66.950; -443.000; -469.000
278.600; -100.550; -708.000; -598.000
278.740;   39.925;  448.000;  224.000
278.880;  -49.475; -768.000; -791.000
279.020;    1.225; -194.000; -144.000
279.160;  -84.425; -672.000; -595.000
279.300; -121.225; -926.000; -873.000
279.440;  -93.525; -709.000; -622.000
279.579;  -22.875;-1014.000; -929.000
279.719;  -57.275; -410.000; -394.000
279.859;   72.825;   -4.000;   41.000
279.999;   22.400; -208.000;  101.000
280.139;  -25.200; -435.000; -387.000
280.279;  -66.775; -708.000; -745.000
280.419;   -1.200; -229.000; -147.000
280.559;  -43.400; -259.000; -180.000
280.698;  -94.250; -790.000; -639.000
280.838;  -94.875; -778.000; -800.000
280.978; -107.650; -846.000; -790.000
281.118; -110.675; -811.000; -704.000
281.257;    8.075;   24.000;    6.000
281.397; -122.825;-1094.000; -960.000
281.537;  -94.750; -599.000; -712.000
281.677;  -24.425; -150.000; -101.000
281.816;  -87.200; -700.000; -630.000
281.956;  -37.300; -193.000; -257.000
282.096;  -80.000; -539.000; -396.000
282.235; -111.975; -672.000; -638.000
282.375;  -31.475; -243.000;  -98.000
282.515; -104.275; -715.000; -707.000
282.654;   18.375;   29.000;  106.000
282.794;   20.575;  388.000;  244.000
282.934;  -51.475; -530.000; -491.000
283.073; -132.950;-1030.000; -857.000
283.213;  -67.600; -460.000; -467.000
283.353;  -29.775; -408.000; -349.000
283.492;  -43.275; -264.000; -296.000
283.632;  -47.225; -254.000; -168.000
283.771; -111.250; -859.000; -730.000
283.911;  -50.550; -369.000; -260.000
284.050; -105.775; -794.000; -748.000
284.190; -165.050;-1229.000;-1096.000
284.329; -146.775;-1055.000; -964.000
284.469;  -73.500; -516.000; -591.000
284.608;  -70.050; -559.000; -598.000
284.748;  -71.475; -614.000; -570.000
284.887;  -12.900;  -87.000;  -20.000
285.027; -123.875; -844.000; -892.000
285.166;  -34.200; -192.000; -249.000
285.306;   -8.200; -116.000;  -33.000
285.445;  -46.550; -229.000; -343.000
285.584;  -85.500; -630.000; -494.000
285.724;  -39.775; -282.000; -322.000
285.863; -105.875; -857.000; -507.000
286.002;  -57.175; -366.000; -276.000
286.142; -108.400; -715.000; -622.000
286.281;  -82.050; -525.000; -493.000
286.420;  -65.275; -554.000; -417.000
286.560;   73.450;  653.000;  623.000
286.699; -117.450; -958.000; -912.000
286.838;  -84.600; -590.000; -591.000
286.978;  -89.650; -533.000; -537.000
287.117; -140.525;-1085.000; -950.000
287.256;  -39.825; -228.000; -211.000
287.395;  -54.850; -197.000; -378.000
287.535;  -64.550; -370.000; -298.000
287.674;  -89.175; -509.000; -484.000
287.813;   44.675;  661.000;  533.000
287.952; -136.475;-1010.000; -871.000
288.091; -158.250;-1049.000; -915.000
288.231;    0.750;   13.000;   15.000
288.370; -173.675;-1217.000;-1200.000
288.509;  -97.000; -728.000; -645.000
288.648;  -87.875; -770.000; -548.000
288.787;  -37.400; -243.000;  -87.000
288.926;  -61.850; -454.000; -475.000
289.065;  104.300;  859.000;  672.000
289.204;  -50.450; -377.000; -217.000
289.344;  -92.800; -791.000; -690.000
289.483;   14.375;  416.000;  304.000
289.622;  -33.125; -291.000; -149.000
289.761;  -22.425; -309.000; -166.000
289.900; -105.750; -785.000; -626.000
290.039;  -16.825;  -12.000;  -95.000
290.178;  -38.600; -274.000; -180.000
290.317;  -83.000; -618.000; -479.000
290.456;  -71.975; -463.000; -451.000
290.595; -134.050; -961.000; -833.000
290.734; -129.425; -904.000; -891.000
290.873;  -68.150; -456.000; -420.000
291.011; -103.600; -833.000; -843.000
291.150; -103.150; -770.000; -682.000
291.289;  -31.100; -343.000; -110.000
291.428; -102.575; -599.000; -480.000
291.567;  -54.125; -370.000; -442.000
291.706;  -13.150;  109.000;  154.000
291.845;  -91.150; -597.000; -505.000
291.984; -161.375;-1234.000;-1061.000
292.122;   59.050;  602.000;  582.000
292.261;   38.175;  620.000;  463.000
292.400;    0.325; -144.000;  211.000
292.539; -132.000; -959.000; -813.000
292.678;  -32.500; -325.000; -300.000
292.816; -152.100;-1136.000; -965.000
292.955;  -83.100; -844.000; -684.000
293.094;  -31.975; -173.000; -337.000
293.233;  -71.800; -556.000; -400.000
293.371;  -37.975; -225.000;  -84.000
293.510; -105.975; -866.000; -780.000
293.649; -123.775; -959.000; -924.000
293.787;  -60.500;-1083.000;-1012.000
293.926;   -7.700; -113.000;  -32.000
294.065;  -54.875; -379.000; -290.000
294.203;   46.400;  298.000;  406.000
294.342;    8.075;   74.000;  156.000
294.481; 5630.150;51180.000; -836.000
294.619;  -42.300; -425.000; -582.000
294.758; -147.025;-1230.000;-1137.000
294.896;   64.300; -125.000;    5.000
295.035; -126.125;-1040.000;-1006.000
295.174; -123.975;-1082.000; -954.000
295.312;  -40.200; -323.000; -203.000
295.451;   -7.825; -307.000; -428.000
295.589;  -58.275; -389.000; -518.000
295.728;    3.300; -292.000; -165.000
295.866;   -5.150;  -36.000;  -51.000
296.005;  -58.475; -584.000; -341.000
296.143;  -71.650; -558.000; -596.000
296.282; -113.625; -957.000; -881.000
296.420;  -89.550; -657.000; -557.000
296.559;  -79.175; -892.000; -633.000
296.697;   26.800; -847.000; -665.000
296.835;   42.050;-1141.000;-1002.000
296.974;   42.400;  -23.000;   39.000
297.112;    0.275; -443.000; -504.000
297.251;  -89.175; -815.000; -755.000
297.389;   79.250; -576.000; -438.000
297.527;   26.750; -145.000;  -83.000
297.666;  -46.025; -486.000; -438.000
297.804;  -61.775; -404.000; -264.000
297.942;   -3.725; -136.000; -161.000
298.081;  -18.550; -183.000;   63.000
298.219;   54.675;  -17.000;  -19.000
298.357;   44.975; -144.000;  -71.000
298.495;   28.875; -810.000; -812.000
298.634;   63.425;  245.000;  219.000
298.772;   40.875; -220.000; -338.000
298.910;  -37.300; -309.000; -182.000
299.048;  -21.825; -130.000; -153.000
299.187;  -41.725; -350.000; -250.000
299.325;   18.150;   52.000;  122.000
299.463;   38.100; -389.000; -299.000
299.601;   99.950; -327.000; -271.000
299.739; -103.050; -908.000; -883.000
299.877;  -81.175; -791.000; -703.000
300.016;  -42.550;-1095.000; -935.000
300.154;  146.300;  -19.000; -161.000
300.292;   35.600; -428.000; -348.000
300.430;   31.575; -408.000; -291.000
300.568; -105.550; -940.000; -874.000
300.706;  -53.475; -366.000; -469.000
300.844;  -81.600;-1108.000; -979.000
300.982;  106.500;  246.000;  282.000
301.120; -114.000; -965.000; -866.000
301.258;  -61.325; -812.000; -705.000
301.396;   20.925;  104.000;  -41.000
301.534;   63.550; -218.000; -293.000
301.672;  -15.825; -664.000; -521.000
301.810;   20.325; -613.000; -545.000
301.948;   91.350;   53.000;  149.000
302.086;  626.775; -250.000;  -32.000
302.224;  923.125; -610.000; -585.000
302.362;   33.025; -558.000; -622.000
302.500;  -19.450; -923.000; -893.000
302.638;   93.850;  128.000;  245.000
302.776;  -17.525; -352.000; -408.000
302.913;   32.200;  447.000;  236.000
303.051;  -14.625;  -86.000;  -23.000
303.189;   52.375;   90.000;  118.000
303.327;  -46.900; -341.000; -256.000
303.465;  -91.750; -832.000; -588.000
303.603;  -93.575; -805.000; -604.000
303.740;   98.200;  417.000;  241.000
303.878;    5.300; -800.000; -759.000
304.016;  -95.875; -915.000; -790.000
304.154; -121.750;-1123.000;-1152.000
304.291;  -41.700; -505.000; -554.000
304.429;   -2.450;  102.000;   74.000
304.567; -125.225; -908.000; -893.000
304.705;  -52.525; -408.000; -515.000
304.842;   73.325; -616.000; -540.000
304.980;   43.175;  215.000;   35.000
305.118;   41.075; -367.000; -365.000
305.255;  -82.925; -945.000; -927.000
305.393;   43.850;  178.000;  239.000
305.531;  -98.150;-1173.000; -956.000
305.668;  -74.900; -663.000; -582.000
305.806;  103.225; -358.000; -439.000
305.943;  103.475; -629.000; -637.000
306.081;   37.300; -378.000; -267.000
306.219; -107.225; -863.000; -748.000
306.356;   -1.775;  158.000;   27.000
306.494;   95.300;  981.000;  761.000
306.631;  -18.025;  -11.000;  -55.000
306.769;  -11.925; -613.000; -485.000
306.906;  -10.625; -284.000; -258.000
307.044;  -60.275; -473.000; -488.000
307.181;  -67.175; -410.000; -332.000
307.319;   12.075;  112.000;   87.000
307.456; -168.800;-1191.000;-1153.000
307.594; -105.200; -980.000; -727.000
307.731;  -27.300; -371.000; -164.000
307.868;   -1.500;  -15.000;   20.000
308.006; -132.475; -961.000; -847.000
308.143;  -72.375; -618.000; -330.000
308.281;  169.375;  -37.000; -254.000
308.418;  -18.850; -748.000; -640.000
308.555;  -75.500; -400.000; -250.000
308.693;  -84.100; -577.000; -573.000
308.830; -118.000; -712.000; -657.000
308.967;  -22.600; -215.000;  -95.000
309.105;  -57.875; -507.000; -396.000
309.242;   36.875; -468.000; -367.000
309.379;  309.325; -577.000; -655.000
309.517;  -54.325; -936.000; -948.000
309.654; -111.525; -910.000; -734.000
309.791;  -79.325; -662.000; -580.000
309.928; -122.050; -977.000; -914.000
310.065;  176.425;  819.000;  697.000
310.203;  -14.325; -825.000; -850.000
310.340;   -9.825; -465.000; -321.000
310.477;  -90.050; -412.000; -516.000
310.614;  -77.250; -383.000; -473.000
310.751;  -80.550; -427.000; -518.000
310.889;  -32.975;    1.000;   11.000
311.026; -149.900;-1161.000; -939.000
311.163;  -55.550; -386.000; -380.000
311.300;  -87.650; -512.000; -479.000
311.437;  -77.500; -658.000; -619.000
311.574; -143.100;-1226.000; -985.000
311.711;  -62.400; -595.000; -433.000
311.848;  -37.475; -380.000; -388.000
311.985;   11.075;  270.000;   93.000
312.122; -110.400; -932.000; -762.000
312.259; -126.250; -941.000; -994.000
312.396;  -86.700; -508.000; -551.000
312.533;  -91.375; -812.000; -790.000
312.670; -133.825;-1070.000; -898.000
312.807;  -48.075; -352.000; -367.000
312.944;  -78.150; -513.000; -611.000
313.081;  -30.725; -150.000; -415.000
313.218;  -97.375;-1111.000; -867.000
313.355;   11.050; -531.000; -449.000
313.492;   -3.450; -455.000; -292.000
313.629;  131.300;  815.000;  735.000
313.766; -169.000;-1176.000;-1008.000
313.902;  -30.550; -186.000;   21.000
314.039;  -55.875; -372.000; -289.000
314.176;   18.675;  286.000;  192.000
314.313;  -87.650; -569.000; -473.000
314.450;  -77.375; -788.000; -684.000
314.587;  -52.425; -468.000; -480.000
314.723;   -3.975;  -78.000;  130.000
314.860;   34.200;  318.000;  332.000
314.997;   14.550;  223.000;  142.000
315.134;  -51.025; -385.000; -368.000
315.270;  -27.500; -480.000; -496.000
315.407; -115.150;-1094.000; -967.000
315.544;  -57.550; -657.000; -538.000
315.681;  -72.050; -681.000; -565.000
315.817;   13.950; -133.000; -176.000
315.954;    8.550; -613.000; -392.000
316.091; -130.225;-1045.000;-1023.000
316.227;  -32.575;  -71.000; -179.000
316.364;   -9.425;   23.000;    6.000
316.500;  -50.300; -113.000; -300.000
316.637;  -45.350; -181.000; -302.000
316.774;  -95.725; -625.000; -358.000
316.910;  -93.775; -598.000; -629.000
317.047;  -71.350; -487.000; -351.000
317.183;  -47.000; -435.000; -566.000
317.320;  -14.425; -367.000; -321.000
317.456;  -72.225; -733.000; -805.000
317.593;  -96.725; -598.000; -641.000
317.729;  -10.400;  168.000;  -67.000
317.866; -200.950;-1434.000;-1285.000
318.002;  -92.100; -708.000; -948.000
318.139; -117.025; -883.000; -867.000
318.275; -118.575;-1003.000; -738.000
318.412;  -79.975; -517.000; -336.000
318.548;  -32.000; -751.000; -720.000
318.685; -104.475; -985.000; -888.000
318.821;  -91.675; -762.000; -735.000
318.957;   -5.275;   34.000;  -23.000
319.094;   33.750;  297.000;  154.000
319.230;  -63.650; -756.000; -742.000
319.367;  138.300; -471.000; -520.000
319.503;   46.100; -538.000; -436.000
319.639;  -92.400; -877.000; -793.000
319.775;  -66.975; -750.000; -685.000
319.912;  -65.650; -424.000; -519.000
320.048;  -83.575;-1184.000;-1184.000
320.184;   67.700;   59.000;   70.000
320.321;  -70.025; -497.000; -467.000
320.457;   50.500;  475.000;  662.000
320.593;  -56.950; -375.000; -382.000
320.729; -102.350; -732.000; -734.000
320.866;  -68.700; -577.000; -635.000
321.002;  -73.100; -759.000; -809.000
321.138;  -15.050; -135.000; -211.000
321.274;   59.550; -148.000; -115.000
321.410;  -30.550; -585.000; -353.000
321.546;  -19.550;-1011.000; -911.000
321.683;   36.875;  400.000;  185.000
321.819;   -0.875;  -48.000; -117.000
321.955; -102.400; -743.000; -722.000
322.091;  -61.050; -585.000; -540.000
322.227;  -14.100; -382.000; -202.000
322.363;  -22.050; -320.000; -215.000
322.499;  -49.125; -343.000; -331.000
322.635;  154.525;  636.000;  443.000
322.771;   28.850; -139.000;   12.000
322.907;   83.975;  129.000;  327.000
323.043;  -23.100; -115.000; -206.000
323.179;  -53.050; -394.000; -363.000
323.315;   19.650; -401.000; -371.000
323.451;   83.150; -328.000; -236.000
323.587;   48.225;  -60.000;  -77.000
323.723;    1.600; -682.000; -601.000
323.859;  -18.275; -258.000;  -76.000
323.995;  -48.175; -467.000; -409.000
324.131; -129.875; -967.000; -892.000
324.267;  -40.975; -254.000; -276.000
324.402; -132.925; -960.000; -983.000
324.538;  -24.975; -279.000; -104.000
324.674;   20.100;  164.000;   77.000
324.810;  118.050;  226.000;  308.000
324.946;    9.125; -810.000; -658.000
325.082;  -69.850; -568.000; -475.000
325.217;  -19.900;  -62.000;   16.000
325.353; -101.375; -764.000; -659.000
325.489;  -92.750; -540.000; -506.000
325.625;  -73.350; -579.000; -525.000
325.760;   51.825;  517.000;  376.000
325.896;  -15.825; -515.000; -702.000
326.032;  -59.700; -403.000; -352.000
326.168;  -65.125; -462.000; -369.000
326.303;  -70.450; -352.000; -461.000
326.439;  -30.175; -336.000; -276.000
326.575;    3.500; -190.000;  -29.000
326.710;  -12.725; -156.000;  -30.000
326.846;  -25.450;  146.000;  103.000
326.982;  -99.625; -530.000; -548.000
327.117;  -80.000; -481.000; -442.000
327.253;  -86.125; -745.000; -742.000
327.388; -159.475;-1137.000;-1153.000
327.524;  -60.675; -811.000; -578.000
327.659;  -26.050;  -58.000;  -22.000
327.795;  -17.550;   69.000;   45.000
327.931;  -91.225; -723.000; -499.000
328.066;  -31.825; -417.000; -276.000
328.202;  -12.925;   12.000; -129.000
328.337;  106.525;  957.000;  713.000
328.473;   27.975;  -12.000;  -74.000
328.608;  -38.575; -256.000; -267.000
328.743;  -95.175; -799.000; -664.000
328.879;   10.550;  214.000;  114.000
329.014;  -42.675; -102.000; -122.000
329.150;  -73.575; -358.000; -483.000
329.285;  -77.050; -465.000; -466.000
329.421;  -66.950; -548.000; -246.000
329.556;  -20.350;  -36.000;   85.000
329.691;  -96.750; -633.000; -615.000
329.827;  -77.500; -626.000; -480.000
329.962;  -48.850;  131.000; -301.000
330.097;  -97.550; -673.000; -585.000
330.233;  -59.950; -410.000; -223.000
330.368; -139.525; -839.000; -628.000
330.503;  -30.700;    3.000;   98.000
330.638;   -5.050;  -93.000; -125.000
330.774;  -59.800; -609.000; -530.000
330.909;  -40.725; -434.000; -244.000
331.044; -102.550; -714.000; -708.000
331.179; -170.900;-1217.000;-1109.000
331.315;   -2.225;   77.000;   20.000
331.450;    5.925;  157.000;  285.000
331.585;  -78.925; -805.000; -706.000
331.720;  -87.425; -510.000; -460.000
331.855;  -15.100;  -35.000; -102.000
331.990;  251.175;   62.000;  138.000
332.126;  128.125; -110.000;   71.000
332.261;  -17.025; -379.000; -265.000
332.396;   -9.950; -135.000; -242.000
332.531;  -91.550;-1074.000;-1031.000
332.666;   32.975; -519.000; -363.000
332.801; -110.825; -726.000; -807.000
332.936;  -34.125; -192.000; -122.000
333.071; -154.325; -870.000; -817.000
333.206;   13.575;  307.000;  379.000
333.341;   27.100;  344.000;  418.000
333.476;  -92.075; -627.000; -623.000
333.611;  -51.075; -251.000; -173.000
333.746;  -56.450; -381.000; -464.000
333.881; -126.850; -973.000; -935.000
334.016; -130.325; -936.000; -917.000
334.151; -119.875; -746.000; -702.000
334.286;   18.975;  152.000;  186.000
334.421;  -16.900; -125.000; -178.000
334.556;  -86.100; -611.000; -567.000
334.690;  -88.775; -631.000; -577.000
334.825;   50.250;  381.000;   83.000
334.960;  -64.775; -285.000; -413.000
335.095;   -0.975;  135.000;  -91.000
335.230; -108.300; -722.000; -738.000
335.365; -141.650;-1084.000; -990.000
335.499; -140.450;-1108.000;-1037.000
335.634;   10.125;    9.000;  534.000
335.769; -100.350; -755.000; -720.000
335.904;  -62.100; -603.000; -561.000
336.038;  -58.075; -735.000; -657.000
336.173; -122.975;-1206.000;-1194.000
336.308;    7.250; -116.000; -189.000
336.443;   17.975; -544.000; -634.000
336.577;  -74.275; -936.000; -787.000
336.712;   64.375;   -4.000;  -12.000
336.847;  -36.950; -724.000; -607.000
336.981;   56.875; -272.000; -208.000
337.116;  269.000;  615.000;  501.000
337.250;  148.250; -434.000; -421.000
337.385;  242.400; -297.000; -208.000
337.520;   87.250; -632.000; -603.000
337.654;  -40.575; -215.000; -126.000
337.789; -126.675; -989.000; -933.000
337.923;  -52.200; -104.000; -205.000
338.058;  -82.025; -673.000; -738.000
338.192;  -50.725; -611.000; -488.000
338.327;  -20.350;  -18.000; -155.000
338.461;  -49.350; -299.000; -469.000
338.596;  -93.900; -780.000; -638.000
338.730;  -99.725; -767.000; -803.000
338.865;   82.375;  -46.000; -140.000
338.999;  -49.975; -846.000; -702.000
339.134;  -31.600; -634.000; -536.000
339.268;   16.025; -741.000; -603.000
339.403;  364.075; -740.000; -775.000
339.537;  121.175; -894.000; -820.000
339.671; -128.700; -829.000; -813.000
339.806;  -72.450; -556.000; -512.000
339.940;    7.975; -261.000; -235.000
340.074; -103.050; -685.000; -510.000
340.209;  -64.775; -351.000; -230.000
340.343;  -97.150; -517.000; -573.000
340.477;  145.175;  998.000; 1036.000
340.612;  -47.550;-1033.000; -900.000
340.746;  122.900; -199.000; -243.000
340.880;  -85.475; -924.000; -785.000
341.014;  -21.675;  -45.000; -154.000
341.149; -115.825; -756.000; -718.000
341.283; -119.975; -839.000; -754.000
341.417; -103.050;-1124.000; -938.000
341.551;  120.800; -768.000; -708.000
341.685;  -28.100; -633.000; -611.000
341.820;  -55.750; -562.000; -493.000
341.954;  -45.950; -218.000; -349.000
342.088; -160.950;-1102.000;-1019.000
342.222;   49.875;  565.000;  618.000
342.356;  -63.975; -395.000; -335.000
342.490;  -91.700; -880.000; -841.000
342.624;  -43.750; -339.000; -242.000
342.758;   -4.950; -364.000; -312.000
342.892;  -77.675; -710.000; -585.000
343.026;  -44.975;  -58.000; -116.000
343.160;  -55.300; -426.000; -376.000
343.294;  -78.450; -474.000; -337.000
343.428;  -32.700; -488.000; -448.000
343.562;  -29.250; -172.000;  -23.000
343.696;  -40.175; -385.000; -314.000
343.830;  -30.275; -362.000; -356.000
343.964;   14.100; -231.000; -168.000
344.098;  887.350;  199.000;   70.000
344.232;  727.925; -266.000; -127.000
344.366;   83.350; -567.000; -453.000
344.500;   58.350; -665.000; -744.000
344.634;   26.150; -324.000; -164.000
344.768;  -14.675; -531.000; -341.000
344.902;    4.925;  278.000;  256.000
345.035;  -83.575; -556.000; -496.000
345.169; -125.000; -933.000; -656.000
345.303;  -36.750; -308.000; -482.000
345.437;  -79.125; -826.000; -717.000
345.571;  -76.750; -675.000; -594.000
345.704;  -60.050; -309.000; -532.000
345.838;  -31.000; -331.000; -284.000
345.972;  -47.650; -543.000; -495.000
346.106;  151.275; -179.000; -190.000
346.239;  423.250; -312.000; -243.000
346.373;   -3.550; -343.000; -302.000
346.507; -138.125; -950.000; -962.000
346.640;  131.050;  -30.000;   13.000
346.774;  -57.650; -650.000; -797.000
346.908;  -25.525; -138.000;  -11.000
347.041;  -97.050; -646.000; -593.000
347.175;    2.975;  259.000;   27.000
347.309;  -83.475; -698.000; -628.000
347.442; -110.275; -883.000; -732.000
347.576;  278.000;  670.000;  668.000
347.709;  184.850; -123.000;  -52.000
347.843;  -95.700; -933.000; -825.000
347.976;   23.800;  235.000;  294.000
348.110; -183.150;-1268.000;-1186.000
348.243;  -98.550; -679.000; -772.000
348.377;    1.525;  -26.000;   60.000
348.510;   46.275;  403.000;  540.000
348.644;  -29.975;  -37.000; -159.000
348.777;    4.500;  180.000;  191.000
348.911;  -57.025; -142.000; -112.000
349.044;  163.400;  471.000;  448.000
349.178;  156.725;-1069.000;-1006.000
349.311;  116.475;  141.000;  255.000
349.444;    0.775; -927.000; -813.000
349.578;  -24.325; -347.000; -200.000
349.711; -102.775; -959.000; -862.000
349.845;  -11.325; -661.000; -591.000
349.978; -143.975;-1224.000;-1137.000
350.111; -102.550; -546.000; -612.000
350.244;  -79.725; -596.000; -700.000
350.378;  -10.850; -392.000; -393.000
350.511;  -84.950; -393.000; -426.000
350.644; -112.250; -808.000; -806.000
350.778;    3.650;  168.000;  104.000
350.911;    1.025;  134.000;  140.000
351.044;  -92.175; -685.000; -615.000
351.177;  -37.775; -321.000; -281.000
351.310;  -12.000;    3.000; -131.000
351.444;  -82.400; -888.000; -788.000
351.577;  114.000;  140.000;   90.000
351.710;   92.750;  593.000;  417.000
351.843;  -31.875; -165.000;  -77.000
351.976;  -11.250;  149.000;  -79.000
352.109;  -85.150; -621.000; -612.000
352.242;  -25.625; -464.000; -419.000
352.376;  -72.250; -580.000; -636.000
352.509;  163.275; -437.000; -356.000
352.642;   -0.725; -654.000; -604.000
352.775;   41.925; -141.000;  -98.000
352.908; -109.975; -933.000; -904.000
353.041; -103.750; -814.000; -824.000
353.174;  -68.875; -551.000; -424.000
353.307;  -96.400; -753.000; -764.000
353.440;   67.375;  541.000;  453.000
353.573; -112.350; -957.000;-1008.000
353.706;  -56.075; -384.000; -558.000
353.839;  -28.050; -264.000; -220.000
353.971;  -96.400; -657.000; -512.000
354.104;  -77.350; -896.000; -835.000
354.237;  -29.850; -627.000; -662.000
354.370;  -82.950; -846.000; -879.000
354.503; -177.100;-1231.000;-1308.000
354.636;  -56.225; -529.000; -348.000
354.769; -135.050; -937.000; -860.000
354.902;   -1.375; -230.000; -139.000
355.034;  -24.175; -164.000; -220.000
355.167;  -14.275; -262.000; -162.000
355.300;  -95.775;-1061.000; -880.000
355.433;  970.300;  -71.000;  -14.000
355.565; 1544.425; -402.000; -384.000
355.698;  382.550; -356.000; -296.000
355.831;  -12.425; -882.000; -801.000
355.964;   71.750; -285.000; -170.000
356.096;  -82.725; -856.000; -843.000
356.229;   -3.950; -523.000; -530.000
356.362;  304.850; -373.000; -266.000
356.494;  609.800; -229.000; -162.000
356.627;  459.450;  269.000;  377.000
356.760;  662.100;  120.000;   53.000
356.892;  993.225; -286.000; -601.000
357.025;  634.350;  403.000;  389.000
357.157;  608.025; -167.000; -179.000
357.290;  688.875; -856.000; -713.000
357.423;  193.375; -667.000; -556.000
357.555;  102.900; -217.000; -228.000
357.688;  117.275; -483.000; -364.000
357.820;  439.350; -870.000; -877.000
357.953; 3637.975; -563.000; -589.000
358.085;  794.800; -632.000; -612.000
358.218; 1075.625;-1131.000; -932.000
358.350;  191.500;  -58.000;  312.000
358.483; -129.725;-1300.000;-1187.000
358.615;  -32.750;-1182.000;-1078.000
358.747;  -72.900;-1187.000;-1058.000
358.880;   18.650; -810.000; -744.000
359.012;   -7.750; -376.000; -202.000
359.145;  -56.100; -480.000; -511.000
359.277;   53.275; -962.000; -913.000
359.409; 2964.400;  536.000;  231.000
359.542;  788.725; -738.000; -688.000
359.674;   63.775;   46.000;   13.000
359.806;  -63.900; -565.000; -438.000
359.939;  -39.675; -617.000; -516.000
360.071;  -24.250; -583.000; -579.000
360.203;  -29.125; -411.000; -364.000
360.335;   49.550;  164.000;  -16.000
360.468;  185.700; -249.000; -307.000
360.600; 2369.825; -547.000; -454.000
360.732; 2911.500; -546.000; -423.000
360.864;  414.350;-1216.000;-1044.000
360.996;  265.350; -516.000; -554.000
361.129;   43.400; -389.000; -598.000
361.261;   21.000;  110.000; -113.000
361.393;  -36.450; -252.000; -214.000
361.525;   20.800;   94.000;  244.000
361.657;  -55.125; -821.000; -703.000
361.789;   -2.550; -139.000; -155.000
361.921;  217.325; -642.000; -593.000
362.053;  260.625;  524.000;  541.000
362.185;   40.300;  288.000;   72.000
362.318;  -87.725; -709.000; -705.000
362.450;  104.050;  294.000;  444.000
362.582;   71.225; -913.000; -870.000
362.714;  -40.625; -353.000; -332.000
362.846;  -83.825; -606.000; -490.000
362.978; -128.300; -941.000; -811.000
363.109;   40.350; -161.000; -260.000
363.241;  426.950; -739.000; -749.000
363.373;  436.975; -649.000; -564.000
363.505;  671.525; -186.000;  -91.000
363.637;  157.925; -787.000; -601.000
363.769; -124.575;-1067.000;-1080.000
363.901;  -71.700; -596.000; -654.000
364.033; -133.425;-1103.000;-1062.000
364.165;  -18.175; -283.000; -283.000
364.296;   63.575; -316.000; -177.000
364.428;   82.525;-1344.000;-1220.000
364.560;  -69.850; -679.000; -661.000
364.692;  -62.825; -738.000; -835.000
364.824;  252.800; -588.000; -456.000
364.955;  445.125; -402.000; -564.000
365.087;  974.075;-1097.000; -852.000
365.219;   35.675; -686.000; -816.000
365.351;  -68.700; -526.000; -572.000
365.482;   39.700;  300.000;  240.000
365.614;  -48.775; -402.000; -314.000
365.746; -101.750; -729.000; -752.000
365.877;  -93.650; -706.000; -672.000
366.009;  258.900;  -35.000;  -62.000
366.141;  -90.850;-1249.000;-1134.000
366.272; -122.650; -803.000; -719.000
366.404; -120.800;-1005.000; -874.000
366.535;   -7.900; -139.000;  -12.000
366.667; -110.675; -644.000; -649.000
366.799;   26.850;  353.000;  203.000
366.930; -122.975; -862.000; -996.000
367.062;  116.725; -639.000; -613.000
367.193;  178.100; -872.000; -842.000
367.325;  -76.325; -580.000; -684.000
367.456;   44.400; -246.000;   31.000
367.588;  156.775; -371.000; -318.000
367.719;   26.200;  -44.000;  -45.000
367.851;  -33.200; -222.000; -241.000
367.982;  -59.975; -875.000; -732.000
368.113;   86.450; -475.000; -358.000
368.245; -114.750; -960.000; -841.000
368.376;  -40.100; -254.000; -302.000
368.508;  -40.425; -188.000; -263.000
368.639; -130.975;-1166.000;-1034.000
368.770;  -13.975; -670.000; -589.000
368.902;  -42.700; -836.000; -926.000
369.033; -110.475; -906.000; -855.000
369.164;  -50.925; -720.000; -653.000
369.296; -114.175; -452.000; -601.000
369.427;   -5.625; -209.000; -144.000
369.558;  -47.050; -593.000; -377.000
369.689;  -87.025; -721.000; -569.000
369.821; -130.150; -951.000; -845.000
369.952;  -29.075;   42.000; -108.000
370.083;  -51.475; -229.000; -108.000
370.214;  -74.075; -735.000; -650.000
370.345;   -8.700;   65.000;   81.000
370.477;  -94.200; -810.000; -790.000
370.608;  206.150; -328.000; -264.000
370.739;  -47.625;-1233.000;-1292.000
370.870;  -51.125;-1102.000; -923.000
371.001;   85.175; -378.000; -467.000
371.132;  -90.025; -754.000; -735.000
371.263;  -27.550;  -42.000; -148.000
371.394; -127.050; -841.000; -748.000
371.525;   28.800;  345.000;  225.000
371.657;  -95.100; -808.000; -670.000
371.788;   65.550;  103.000;  199.000
371.919;  168.325; -384.000; -304.000
372.050; 3505.925;  -91.000; -156.000
372.181; 1082.950; -188.000; -294.000
372.311;  359.625;   42.000; -127.000
372.442;   22.200; -457.000; -451.000
372.573;  -32.525; -444.000; -340.000
372.704; -123.850;-1008.000; -980.000
372.835;   82.850; -228.000; -289.000
372.966;  -63.175; -646.000; -554.000
373.097;  -74.350; -575.000; -711.000
373.228;  -36.100; -717.000; -542.000
373.359;  108.650; -824.000; -536.000
373.490;  903.850; -881.000; -727.000
373.620; 1152.800;-1001.000; -803.000
373.751; 1709.950; -332.000; -396.000
373.882;  791.050; -663.000; -733.000
374.013;   66.475; -449.000; -262.000
374.143;  -39.050; -581.000; -659.000
374.274; -103.900; -987.000; -908.000
374.405;  164.950; -388.000; -276.000
374.536;  403.975; -526.000; -387.000
374.666; 1097.525; -759.000; -807.000
374.797;  207.850; -817.000; -868.000
374.928;  825.000; -710.000; -560.000
375.058;  854.575; -535.000; -500.000
375.189;   62.675;  -59.000;  -93.000
375.320; -109.000; -928.000;-1034.000
375.450;  -46.100; -625.000; -616.000
375.581;  -64.400; -526.000; -436.000
375.712;  -39.575; -574.000; -250.000
375.842;  287.675; -438.000; -415.000
375.973;  212.825; -554.000; -513.000
376.103;  -53.075; -665.000; -648.000
376.234;  -77.600; -531.000; -552.000
376.364;  -45.075; -944.000; -867.000
376.495;  323.075;  925.000;  529.000
376.625;  -26.925; -472.000; -485.000
376.756;   43.075; -709.000; -678.000
376.886;  -80.100;-1178.000;-1026.000
377.017;   55.725;-1048.000;-1061.000
377.147;  373.475; -786.000; -782.000
377.278;   55.850;  174.000;  228.000
377.408; -124.450; -801.000; -815.000
377.538; -113.300; -707.000; -693.000
377.669;  -83.425; -537.000; -613.000
377.799;  -94.500; -645.000; -635.000
377.929;  -55.475; -610.000; -428.000
378.060; -127.350; -781.000; -847.000
378.190;  -67.775; -726.000; -531.000
378.320;  -59.500; -401.000; -406.000
378.451;  -18.550; -131.000;  -22.000
378.581;  -11.400;  -67.000; -110.000
378.711;  150.150; 1035.000;  866.000
378.841;  -18.200; -533.000; -675.000
378.972;  -78.175; -871.000; -751.000
379.102;   -4.450; -652.000; -579.000
379.232;  -29.375; -126.000;  -73.000
379.362; -103.675;-1001.000; -885.000
379.492;   -0.900; -373.000; -424.000
379.623;   89.675;    0.000;  111.000
379.753; -101.250;-1107.000; -974.000
379.883;  190.225;   59.000;  156.000
380.013;    0.825;-1081.000;-1017.000
380.143; -110.675;-1097.000;-1056.000
380.273; -110.250; -985.000; -861.000
380.403;   -6.000; -344.000; -257.000
380.533;  -48.700; -651.000; -664.000
380.663;   63.575;  173.000;  128.000
380.793;  -95.600;-1027.000;-1074.000
380.923;  -24.800; -103.000;  -34.000
381.053;  -92.900; -613.000; -623.000
381.183;  -41.050; -106.000; -248.000
381.313;    9.475; -656.000; -470.000
381.443;   32.800; -692.000; -473.000
381.573;  166.075; -402.000; -409.000
381.703;  254.975;-1249.000;-1095.000
381.833; -128.600;-1454.000;-1336.000
381.963;   93.325; -134.000;  -87.000
382.093; 1353.850; -925.000; -909.000
382.223;  422.125; -713.000; -602.000
382.353;  -19.925; -801.000; -608.000
382.482;  345.225;-1091.000; -964.000
382.612;  758.800; -872.000; -644.000
382.742;  417.950; -695.000; -622.000
382.872;  237.725; -565.000; -551.000
383.002;   55.700;  347.000; -132.000
383.131;  -23.300; -226.000; -160.000
383.261;  -55.650; -706.000; -768.000
383.391;  284.850; -552.000; -377.000
383.521; 3228.050;  451.000;  263.000
383.650;  829.625; -947.000; -904.000
383.780;  -17.875; -783.000; -656.000
383.910;  103.500;  880.000;  802.000
384.039;   11.875; -794.000; -656.000
384.169;  211.300;-1205.000;-1017.000
384.299;  -26.425; -650.000; -662.000
384.428;  -88.850; -764.000; -680.000
384.558;  -45.175; -308.000; -275.000
384.687;  -54.925; -414.000; -334.000
384.817;    8.825;   75.000;   -2.000
384.947;    4.050; -234.000; -141.000
385.076;  270.350;  982.000;  912.000
385.206;   97.075;  369.000;  480.000
385.335;  -50.700; -549.000; -417.000
385.465;  -76.600; -655.000; -663.000
385.594;  127.850;  -53.000;  -44.000
385.724;  381.375; -868.000; -838.000
385.853;  112.725; -296.000; -270.000
385.982; 1282.275; -743.000; -787.000
386.112; 2122.200;-1052.000; -871.000
386.241;  140.675; -307.000; -312.000
386.371;   23.975; -174.000;  -87.000
386.500;  -10.000; -825.000; -789.000
386.629;   20.800; -874.000; -817.000
386.759;   59.775;  -43.000;   68.000
386.888;  -18.675; -170.000; -250.000
387.017;  -74.950; -648.000; -620.000
387.147;  -93.200; -771.000; -798.000
387.276;    2.050; -410.000; -397.000
387.405;    8.500; -398.000; -342.000
387.535;  -35.925; -452.000; -361.000
387.664;  -67.700; -692.000; -620.000
387.793;   44.700; -198.000; -113.000
387.922;  479.900;  255.000;  200.000
388.052;   32.125; -576.000; -423.000
388.181;    5.675; -342.000; -472.000
388.310;  -12.675; -889.000; -710.000
388.439;  -53.200; -749.000; -742.000
388.568;  154.250;  365.000;  244.000
388.697; 1010.800; -756.000; -653.000
388.826;  205.450; -768.000; -666.000
388.956;   43.700; -285.000; -307.000
389.085;  -30.325; -347.000; -287.000
389.214; -115.475; -842.000; -872.000
389.343;  -66.125; -645.000; -413.000
389.472;  391.850;  126.000;  149.000
389.601;  520.375;   91.000;    0.000
389.730;   14.450; -568.000; -687.000
389.859;   58.125;  226.000;   46.000
389.988;  182.250; -423.000; -408.000
390.117;  142.150; -168.000; -146.000
390.246;  -18.475; -331.000; -320.000
390.375;   94.350; -673.000; -626.000
390.504;  -75.525; -703.000; -621.000
390.633;  -94.875; -672.000; -726.000
390.761;  -86.000; -732.000; -645.000
390.890;   17.050;   -4.000; -130.000
391.019;  -37.000; -421.000; -441.000
391.148; -138.100; -826.000; -855.000
391.277;  -87.700; -576.000; -493.000
391.406;  -81.900; -821.000; -805.000
391.534;   12.600;  574.000; -301.000
391.663;  -79.625; -583.000; -645.000
391.792;  -81.975; -673.000; -701.000
391.921;   92.050;   -3.000;   15.000
392.050;  156.800; -287.000; -228.000
392.178;  -61.500;-1206.000;-1061.000
392.307;  127.500; -758.000; -712.000
392.436;   68.775; -427.000; -641.000
392.564;   15.900;  166.000;   -6.000
392.693;  -99.400; -860.000; -682.000
392.822;  196.400; -529.000; -534.000
392.950;   86.125; -880.000; -714.000
393.079;  304.175; -188.000; -328.000
393.208;   24.775; -488.000; -511.000
393.336;  -14.650; -170.000; -145.000
393.465;  -45.025; -317.000; -199.000
393.593;  -14.075;   62.000;   79.000
393.722; -144.550;-1121.000; -916.000
393.850;  -34.200; -188.000;  -61.000
393.979; -159.425; -926.000; -805.000
394.107;  -67.025; -517.000; -537.000
394.236;  -24.425; -570.000; -507.000
394.364;  205.875;  383.000;  206.000
394.493;  348.250; -911.000; -767.000
394.621;    5.800; -955.000; -916.000
394.750;  714.275; -873.000; -923.000
394.878; 2960.250; -247.000; -149.000
395.007; 4167.150; -721.000; -807.000
395.135;  318.825; -790.000; -721.000
395.263;  -80.600;-1038.000;-1040.000
395.392;    2.025;  -25.000; -107.000
395.520; -144.675; -818.000; -679.000
395.648;  -98.300; -865.000; -915.000
395.777;  -30.050; -366.000; -405.000
395.905;  -52.150; -449.000; -564.000
396.033;   18.950;  217.000;  172.000
396.162;  564.600; -399.000; -453.000
396.290;  521.975;  -17.000;   -2.000
396.418;   91.425; -555.000; -514.000
396.546;  -73.775; -571.000; -466.000
396.674;  -99.150; -850.000; -878.000
396.803;    4.975;  -72.000;  -23.000
396.931;   71.450; -179.000; -199.000
397.059;   24.700;-1026.000; -989.000
397.187; -103.275;-1026.000; -975.000
397.315; -139.200; -884.000; -649.000
397.443; -102.550; -592.000; -443.000
397.572;  -90.175; -578.000; -424.000
397.700;  -37.775; -607.000; -614.000
397.828;    3.175;  120.000;  -90.000
397.956;  -59.525; -508.000; -478.000
398.084;  -72.225; -767.000; -626.000
398.212;   24.550;  137.000;  124.000
398.340;    5.975;  -56.000;  159.000
398.468;   18.975; -390.000; -169.000
398.596; -136.550; -993.000; -953.000
398.724; -115.900; -762.000; -767.000
398.852; -159.575;-1024.000; -976.000
398.980;  -78.875; -560.000; -560.000
399.108;  -61.650; -982.000; -735.000
399.236;   12.200;   13.000;    8.000
399.363;    8.050;  222.000;  196.000
399.491;  -78.400; -404.000; -398.000
399.619; -133.625; -829.000; -800.000
399.747; -114.050; -859.000; -771.000
399.875;   82.475;  220.000;  234.000
400.003;  -62.425; -359.000; -284.000
400.130;  -82.275; -421.000; -341.000
400.258;  -36.175;  -83.000;   38.000
400.386;  -62.225; -352.000; -168.000
400.514;  -51.400; -526.000; -587.000
400.641;  -91.450; -928.000; -802.000
400.769; -148.475; -979.000; -888.000
400.897; -122.075; -838.000; -793.000
401.025;  -31.650; -166.000; -152.000
401.152;  -10.325;  220.000;   38.000
401.280;  -85.925; -430.000; -429.000
401.408; -117.175; -712.000; -576.000
401.535;  -96.450; -735.000; -758.000
401.663; -194.325;-1134.000;-1054.000
401.790;  -91.450; -514.000; -525.000
401.918;   39.725;  436.000;  405.000
402.046;  -20.150;  134.000;  122.000
402.173;  -48.750;  -18.000;    7.000
402.301;  -79.025; -519.000; -397.000
402.428;   35.400;  528.000;  383.000
402.556; -154.775;-1188.000; -913.000
402.683;  -35.150;  -20.000;   -1.000
402.811;  -33.325;  -37.000; -206.000
402.938;  -19.950;   20.000;   27.000
403.066;  174.575; -574.000; -558.000
403.193;  312.875;  299.000;  239.000
403.321;  248.950; -396.000; -574.000
403.448;  319.600;   83.000;   27.000
403.575;  142.275;  -90.000;  -46.000
403.703;  -80.500; -732.000; -557.000
403.830;  -70.475; -531.000; -496.000
403.957; -137.825;-1117.000;-1023.000
404.085;    3.725;  -61.000; -172.000
404.212;   99.600;  -50.000;   63.000
404.339;  250.800; -566.000; -306.000
404.467; 5874.325; -612.000; -524.000
404.594; 3972.650; -287.000; -227.000
404.721;  923.750; -869.000; -764.000
404.848;   71.200; -113.000; -202.000
404.976; -118.075; -856.000; -783.000
405.103;  -12.725;  -14.000;  -82.000
405.230;   -8.875;  190.000;  226.000
405.357;   13.950;  117.000;   44.000
405.484;  269.400;  -49.000;    5.000
405.612;   52.550; -548.000; -563.000
405.739;  -60.800; -488.000; -243.000
405.866;   73.450;  669.000;  385.000
405.993;  -55.775; -398.000; -102.000
406.120; -143.575; -801.000; -887.000
406.247;  -58.600; -323.000; -342.000
406.374;  392.925;  540.000;  629.000
406.501;   91.175; -632.000; -702.000
406.628;  -88.300; -621.000; -589.000
406.755; -109.975; -803.000; -620.000
406.882;  -34.450; -228.000; -277.000
407.009; -111.350; -719.000; -628.000
407.136;   34.600; -480.000; -401.000
407.263;  115.925; -939.000; -829.000
407.390;  -81.525; -692.000; -614.000
407.517; -177.825;-1139.000;-1187.000
407.644;  -61.950; -332.000; -256.000
407.771; -138.950; -249.000; -287.000
407.898;  -10.100;  168.000;  328.000
408.025;  -78.150; -421.000; -313.000
408.151;  -25.650;   82.000;  153.000
408.278;  -69.300; -267.000; -216.000
408.405; -113.850; -931.000; -899.000
408.532;  -76.675; -549.000; -542.000
408.659; -129.225; -677.000; -648.000
408.785; -202.800;-1298.000;-1170.000
408.912;  -75.100; -412.000; -296.000
409.039; -115.125; -610.000; -686.000
409.166; -112.925; -591.000; -555.000
409.292; -112.275; -571.000; -534.000
409.419; -130.425; -665.000; -649.000
409.546;  -76.925; -431.000; -192.000
409.672; -127.650; -713.000; -545.000
409.799;  -26.425;  -36.000;   34.000
409.926;  -53.850; -180.000; -179.000
410.052; -167.550;-1127.000;-1091.000
410.179;  -61.300; -368.000; -392.000
410.305;  -90.650; -375.000; -493.000
410.432;  -51.350; -220.000; -333.000
410.558;  -99.250; -305.000; -380.000
410.685; -109.100; -688.000; -431.000
410.812;  -93.125; -409.000; -588.000
410.938; -136.325; -964.000; -808.000
411.065;  -96.875; -671.000; -645.000
411.191;  -25.825; -189.000; -174.000
411.317; -124.000; -823.000; -742.000
411.444;  -71.900; -317.000; -246.000
411.570;  -87.275; -339.000; -294.000
411.697; -136.650; -758.000; -752.000
411.823; -162.725; -989.000; -999.000
411.949;  -49.850;  -56.000;   17.000
412.076; -121.550; -539.000; -519.000
412.202; -133.375; -758.000; -757.000
412.329; -132.575; -798.000; -752.000
412.455; -121.550; -821.000; -657.000
412.581;  -18.875;  -15.000;  172.000
412.707;  -76.600; -540.000; -457.000
412.834;    3.975;  156.000;  219.000
412.960;  -84.700; -785.000; -784.000
413.086; -109.675; -743.000; -701.000
413.212;  131.675;  604.000;  578.000
413.339;  -67.775; -685.000; -701.000
413.465;   -4.375; -364.000; -310.000
413.591;  -92.050; -757.000; -474.000
413.717;  -59.100; -358.000; -366.000
413.843; -136.350; -839.000; -861.000
413.969;  -63.625;  -47.000; -292.000
414.096; -104.400; -679.000; -679.000
414.222;   -7.850;  -33.000;   85.000
414.348;  -35.825; -652.000; -385.000
414.474;   87.475;   38.000;  -52.000
414.600;  -33.200; -126.000; -144.000
414.726;  -27.000;  -96.000;  -55.000
414.852;  -53.325; -365.000; -342.000
414.978;   24.775;  104.000;  -18.000
415.104;   43.450;   38.000;   80.000
415.230;   16.475; -329.000; -330.000
415.356;   38.375; -409.000; -514.000
415.482;  180.500;   13.000;  -35.000
415.608;  272.900; -247.000; -323.000
415.734;  964.050;   67.000;   38.000
415.860;20063.150; -875.000; -767.000
415.986;15614.125; -685.000; -607.000
416.111; 1353.750; -798.000; -652.000
416.237;  270.725; -424.000; -571.000
416.363; 1099.600; -765.000; -733.000
416.489; 4358.900; -324.000; -251.000
416.615;  507.850; -707.000; -742.000
416.741;  -22.550; -677.000; -784.000
416.866;  -83.075; -673.000; -736.000
416.992; -122.575; -801.000; -818.000
417.118;  -26.275;  -41.000;  -80.000
417.244;  -67.900; -798.000; -531.000
417.369;  -92.675; -801.000; -612.000
417.495;  -16.900; -325.000; -254.000
417.621;  -92.775;-1015.000; -803.000
417.746;    2.300; -579.000; -572.000
417.872;   33.125; -254.000; -144.000
417.998;   63.775; -515.000; -530.000
418.123; 1024.025;-1073.000; -845.000
418.249; 5618.025; -512.000; -601.000
418.374;  840.550; -916.000; -824.000
418.500;  120.150; -383.000; -482.000
418.626;  124.225;   70.000;  -59.000
418.751;  115.200; -549.000; -448.000
418.877;  199.975; -637.000; -643.000
419.002; 1761.500; -688.000; -560.000
419.128;12915.800; -930.000; -721.000
419.253; 3429.375; -967.000; -837.000
419.379;  443.500; -391.000; -338.000
419.504;  407.325;  325.000;  415.000
419.629;  515.400; -393.000; -212.000
419.755; 3501.900; -317.000; -254.000
419.880;21987.550;  -98.000;   67.000
420.006;11735.350; -280.000; -221.000
420.131;30733.875; -662.000; -775.000
420.256; 4688.200; -315.000; -316.000
420.382;  632.850; -665.000; -687.000
420.507;   93.150; -649.000; -778.000
420.632;  114.000; -337.000; -339.000
420.758;  227.075; -251.000; -425.000
420.883;  -83.200; -876.000; -672.000
421.008; -102.525; -775.000; -619.000
421.133;  -70.250; -509.000; -467.000
421.259;  -38.900; -325.000; -259.000
421.384; -117.475; -834.000; -693.000
421.509;  -53.975;-1052.000; -862.000
421.634; 1032.750; -936.000; -820.000
421.759;  493.900; -359.000; -327.000
421.885;  -66.575; -717.000; -656.000
422.010;  -86.225; -673.000; -542.000
422.135; -156.975; -695.000; -727.000
422.260;   18.700;  340.000;  280.000
422.385;  -40.600;   12.000;  -98.000
422.510;    5.575;  151.000;  -26.000
422.635;    9.200;  -87.000;  -43.000
422.760;   98.975; -766.000; -791.000
422.885;   74.350;  -57.000;  -80.000
423.010;  -35.175; -112.000; -169.000
423.135; -101.275; -481.000; -561.000
423.260;  -21.600; -150.000; -245.000
423.385;   47.725;  476.000;  222.000
423.510;   29.700;   71.000;  -22.000
423.635;   61.725;  133.000;   45.000
423.760;   38.700;  383.000;  328.000
423.885;   47.200;  336.000;  391.000
424.010;   -3.025;  -68.000;  -13.000
424.135;  -16.025;    5.000;  -33.000
424.259;  -94.900; -654.000; -457.000
424.384;  -48.425; -279.000; -272.000
424.509;  -33.250; -260.000; -186.000
424.634; -101.825; -761.000; -623.000
424.759;  -26.050; -688.000; -544.000
424.883;  -11.400; -506.000; -527.000
425.008;  156.550; -502.000; -410.000
425.133; 2028.600; -679.000; -653.000
425.258; 1022.875; -517.000; -381.000
425.382;  985.375; -867.000; -774.000
425.507; 2573.400; -487.000; -543.000
425.632;  468.000; -802.000; -663.000
425.756;  475.900; -256.000; -146.000
425.881; 6452.525; -831.000; -857.000
426.006;18729.675; -604.000; -355.000
426.130; 3093.125; -696.000; -508.000
426.255;  379.750; -611.000; -491.000
426.379;  178.750; -189.000; -577.000
426.504;  364.200;  660.000;  544.000
426.629; 4047.775; -519.000; -466.000
426.753; 3016.225;   64.000;  -46.000
426.878;  349.450; -252.000; -288.000
427.002;  183.275; -651.000; -668.000
427.127; 1536.425;  -35.000; -158.000
427.251;11665.750;  372.000;  401.000
427.375; 3579.150; -191.000; -173.000
427.500; 2257.550; -616.000; -610.000
427.624;  807.675; -234.000; -400.000
427.749;   91.200; -216.000; -225.000
427.873;  -48.725; -499.000; -412.000
427.997;  -43.350; -222.000; -230.000
428.122;   68.500;  795.000;  703.000
428.246;   61.875;  433.000;  434.000
428.371; -125.550; -869.000; -773.000
428.495; -104.800; -624.000; -646.000
428.619;  -44.200; -186.000; -117.000
428.743;   21.000;   65.000;  132.000
428.868;   -1.500; -732.000; -643.000
428.992; 1321.450; -219.000; -326.000
429.116;  552.950; -329.000; -357.000
429.240;  257.600;  419.000;  426.000
429.365;  -37.300; -454.000; -574.000
429.489;  -47.000; -638.000; -647.000
429.613;   19.025; -236.000; -177.000
429.737;   32.775; -563.000; -432.000
429.861;  268.175; -247.000; -133.000
429.985; 5548.125; -425.000; -305.000
430.109; 6523.000; -770.000; -908.000
430.234;  776.050;   76.000;  -50.000
430.358;   60.800; -250.000; -160.000
430.482;  -77.875; -672.000; -564.000
430.606;  -76.350; -655.000; -375.000
430.730;   -4.850; -437.000; -388.000
430.854;  103.925; -909.000; -835.000
430.978;  -78.025; -795.000; -764.000
431.102; -102.425; -499.000; -422.000
431.226; -122.975; -874.000; -815.000
431.350;   17.600;  345.000;  422.000
431.474;  -73.275; -661.000; -373.000
431.597; -157.325;-1060.000; -848.000
431.721;  -86.575; -276.000; -267.000
431.845; -132.975; -704.000; -472.000
431.969;  -87.875; -304.000; -349.000
432.093;  -88.675; -395.000; -317.000
432.217;  -25.125;   32.000;   82.000
432.341; -100.400; -523.000; -518.000
432.464;   -5.350;   96.000;   40.000
432.588;  178.000; -401.000; -329.000
432.712;  104.625;  -52.000;  -52.000
432.836;   44.150;  213.000;  263.000
432.959;  -17.100; -372.000; -311.000
433.083;   81.800;   11.000;    2.000
433.207;  387.800;  285.000;  930.000
433.330; 5059.425; -391.000; -200.000
433.454; 6617.875; -654.000; -638.000
433.578; 3803.975;  583.000;  278.000
433.701;  740.750; -623.000; -675.000
433.825;  142.700; -292.000; -299.000
433.949;  154.725;   28.000;  -72.000
434.072;   37.700; -410.000; -323.000
434.196;  -23.675; -309.000; -117.000
434.319; 3536.975;25482.000;25124.000
434.443;  679.150; -656.000; -603.000
434.566; 2741.175;  281.000;   62.000
434.690;  511.875; -637.000; -383.000
434.813;   59.925; -251.000; -173.000
434.937;  -84.675; -569.000; -696.000
435.060;  -57.300; -423.000; -332.000
435.184;  240.850; -492.000; -217.000
435.307;  148.600;  159.000;  102.000
435.431;  -10.500;  -40.000;   24.000
435.554;  -78.225; -399.000; -240.000
435.677;  -99.175; -350.000; -258.000
435.801;  -41.000;  -25.000;   49.000
435.924;  -26.675;    1.000;  -67.000
436.048; -118.900;-1019.000; -732.000
436.171;  -66.050; -240.000;  -66.000
436.294;  -26.500; -248.000; -229.000
436.417;   99.650; -963.000; -849.000
436.541;  -80.450; -814.000; -840.000
436.664;  -50.425; -242.000; -316.000
436.787;  -35.325;   13.000;  113.000
436.910; -117.400; -792.000; -422.000
437.034;    3.975;  142.000;  143.000
437.157;   22.875;  -11.000;    0.000
437.280;  -59.125; -392.000; -292.000
437.403;  -90.375; -982.000; -869.000
437.526;  522.100; -903.000; -865.000
437.649; 2060.525; -505.000; -332.000
437.772;  326.950; -692.000; -540.000
437.896;  103.750;  700.000;  544.000
438.019; -119.100; -758.000; -503.000
438.142;  -91.875; -596.000; -506.000
438.265;  -33.000; -639.000; -670.000
438.388;  517.750; -520.000; -410.000
438.511;   97.825; -597.000; -394.000
438.634;  -47.575; -247.000; -125.000
438.757; -138.500; -693.000; -619.000
438.880;  -20.725;  -34.000;  -57.000
439.003;  -81.600; -417.000; -437.000
439.126;  -69.725; -287.000; -167.000
439.248;  -68.925;  -98.000; -139.000
439.371;  -66.900;    9.000;  -53.000
439.494;    6.050;  510.000;  439.000
439.617;  -63.325;   65.000;  -88.000
439.740; -188.475; -968.000; -816.000
439.863; -146.425; -755.000; -595.000
439.986; -117.100; -476.000; -431.000
440.108;  -50.975; -161.000; -112.000
440.231; -174.450; -950.000; -836.000
440.354;  -48.425;  -64.000; -150.000
440.477;   20.000; -566.000; -542.000
440.599;  -15.375; -200.000; -225.000
440.722; -121.550; -709.000; -586.000
440.845;   57.250;  751.000;  928.000
440.968; -109.725; -415.000; -311.000
441.090;  -68.925; -199.000;  -33.000
441.213; -173.425;-1021.000; -825.000
441.336;  -49.850; -159.000;   -5.000
441.458;  -86.525; -549.000; -396.000
441.581;  -79.575; -628.000; -629.000
441.703;  -77.400; -152.000;   13.000
441.826; -130.900; -557.000; -400.000
441.948;  -57.375;   56.000;   51.000
442.071;   27.725;  555.000;  424.000
442.193; -128.800; -531.000; -485.000
442.316;    5.525;  152.000;   97.000
442.438;   35.600; -233.000;  -10.000
442.561;   50.100;  272.000;  262.000
442.683;  441.150; -809.000; -522.000
442.806; 1085.875;   -8.000;   74.000
442.928;   39.000; -859.000; -604.000
443.051;  -81.900; -577.000; -373.000
443.173; -104.200; -341.000; -339.000
443.295;  -99.250; -263.000; -371.000
443.418;  -81.800; -321.000;  -29.000
443.540;  -18.225; -106.000;   -4.000
443.662; -139.475; -563.000; -465.000
443.785;  -18.750;  335.000;  199.000
443.907; -109.550; -362.000; -208.000
444.029; -154.700; -767.000; -494.000
444.152; -147.975; -644.000; -554.000
444.274;  -40.725;  -18.000;  -24.000
444.396;  -99.525; -461.000; -221.000
444.518; -127.250; -691.000; -454.000
444.640; -116.675; -268.000; -111.000
444.763;  -28.150;  388.000;  249.000
444.885; -120.725; -432.000; -392.000
445.007;  -39.225;   35.000;   86.000
445.129; -121.550; -610.000; -515.000
445.251; -114.775; -372.000; -439.000
445.373; -139.100; -537.000; -386.000
445.495;  -12.750;  242.000;  350.000
445.617;   46.325;  853.000;  753.000
445.739;  -81.125; -215.000;  -97.000
445.861;  -49.550; -245.000; -112.000
445.984;  -34.775; -267.000; -101.000
446.105;  160.725; -418.000; -251.000
446.227;  551.350; -176.000;  -19.000
446.349;    7.650; -358.000; -249.000
446.471;  -99.625; -615.000; -448.000
446.593;  -80.250; -316.000;   19.000
446.715;  -16.900;  -67.000;   41.000
446.837;   41.600;  697.000;  832.000
446.959; -105.300; -457.000; -478.000
447.081; -137.800; -628.000; -518.000
447.203;   52.600;  862.000;  834.000
447.325;  -93.475; -270.000;   42.000
447.446;   -6.750;  286.000;  530.000
447.568; -175.100; -921.000; -803.000
447.690;  -78.575; -236.000; -245.000
447.812; -148.525; -798.000; -519.000
447.933;  -34.275;  155.000;  127.000
448.055;  -77.400; -306.000; -261.000
448.177;  113.925;   31.000;   79.000
448.299;   62.075; -935.000; -727.000
448.420;   16.850;  -25.000;  159.000
448.542;  -47.125;   -3.000;   33.000
448.664;  -32.125;  109.000;  322.000
448.785;  -40.575;  265.000;   83.000
448.907;  -82.925; -614.000; -353.000
449.028;  -43.500; -771.000; -471.000
449.150;   44.025;  492.000;  589.000
449.272; -180.375;-1044.000; -913.000
449.393;   12.275;  612.000;  694.000
449.515; -139.800; -634.000; -581.000
449.636;  -66.225; -264.000; -155.000
449.758;   62.425;  763.000;  622.000
449.879; -106.525; -498.000; -396.000
450.001;  -80.000; -149.000;  -49.000
450.122;  -37.675;  -95.000;  162.000
450.244;  -30.675;   37.000;  364.000
450.365; -100.975; -495.000; -301.000
450.486;  -39.000;   80.000;  268.000
450.608;   10.350;  393.000;  326.000
450.729;   65.400;  578.000;  645.000
450.850;    3.925; -574.000; -466.000
450.972;  734.175; -552.000; -389.000
451.093; 5025.975;  190.000;  588.000
451.214; 2390.525; -516.000; -337.000
451.336;  387.825;  773.000;  579.000
451.457;   63.300;  264.000;  393.000
451.578;  -41.725; -118.000;  -74.000
451.699; -120.400; -546.000; -540.000
451.821;  -76.675; -284.000;  -50.000
451.942;   -4.875;  278.000;  285.000
452.063;   35.000;  228.000;  419.000
452.184;  542.200;  -54.000;  -49.000
452.305; 1125.325;  103.000;  170.000
452.427;  153.925; -549.000; -301.000
452.548;  -19.950;   23.000;   79.000
452.669;  -53.400; -257.000;  -89.000
452.790;  -42.025;    3.000;  -18.000
452.911;   -1.325;  195.000;  259.000
453.032;  -71.700; -289.000;  -60.000
453.153;  -31.350;  -29.000;   81.000
453.274;   58.250;  737.000;  868.000
453.395;  -53.450;  -51.000;  175.000
453.516;  107.800; 1317.000; 1388.000
453.637;  -65.700; -205.000; -150.000
453.758;  -66.550;   15.000;   69.000
453.879; -106.625; -462.000; -250.000
454.000;   68.725; 1086.000;  948.000
454.121; -123.150; -554.000; -326.000
454.242; -113.875; -599.000; -383.000
454.362;  -61.500;  -99.000;  114.000
454.483;  -47.500; -309.000; -229.000
454.604;   34.975;  512.000;  580.000
454.725; -128.525; -627.000; -555.000
454.846; -114.700; -474.000; -406.000
454.967;  -31.125;  230.000;  539.000
455.087;  -44.700;  179.000;  153.000
455.208;   11.775;  554.000;  856.000
455.329;  -73.100;  -22.000;   82.000
455.450;   23.125;  473.000;  633.000
455.570;  -84.450; -234.000; -211.000
455.691;  -55.775;  201.000;  407.000
455.812; -106.400; -270.000;  -92.000
455.932;  -56.600;  107.000;  -97.000
456.053;  -90.325;   36.000;   24.000
456.173; -119.075; -433.000; -355.000
456.294; -131.275; -476.000; -303.000
456.415;  -69.575;  -73.000;   70.000
456.535;  -41.500;  297.000;  273.000
456.656;  -35.550;  132.000;  240.000
456.776;  -67.025;    3.000;  298.000
456.897;   -2.725;  308.000;  513.000
457.017;  -75.900; -153.000;   -3.000
457.138; -114.825; -402.000; -249.000
457.258;  -31.225;  263.000;  224.000
457.379;  -16.050;  509.000;  521.000
457.499;  -37.075;  443.000;  432.000
457.620; -130.725; -407.000; -231.000
457.740; -103.800; -132.000;  -11.000
457.860;  -60.300;   87.000;   44.000
457.981;  -57.950;  132.000;  124.000
458.101;  -83.650;  -89.000;   40.000
458.221;  -19.750;  336.000;  402.000
458.342;  -64.800;   -4.000;  -37.000
458.462;   16.450;  617.000;  352.000
458.582;  -35.525; -302.000; -294.000
458.703;    5.775;  303.000;  154.000
458.823;  -25.800;   22.000;  163.000
458.943;   15.800;  341.000;  467.000
459.063;  -27.525; 1124.000;  192.000
459.183;  -47.150;  328.000;  313.000
459.304;    2.250;  315.000;  517.000
459.424;  -63.925; -246.000;  -89.000
459.544;  339.750;  388.000;  764.000
459.664;  858.575;  499.000;  506.000
459.784;  350.325; 1004.000; 1175.000
459.904;   42.375;  867.000;  744.000
460.024;   73.075;  867.000;  684.000
460.144;    8.025;  449.000;  554.000
460.264;    0.275;  515.000;  327.000
460.385;  -95.775; -145.000; -119.000
460.505;   22.850;  905.000;  858.000
460.625; -105.800;  -17.000;  -68.000
460.745;  -29.575;  396.000;  541.000
460.864;  -50.025;  153.000;  469.000
460.984;   13.175;  499.000;  573.000
461.104;  123.525; 1656.000; 1775.000
461.224;   -2.950;  657.000;  650.000
461.344;  -50.350;  431.000;  360.000
461.464;  -36.925;  258.000;  513.000
461.584;  -26.600;  283.000;  466.000
461.704;  -50.125;   58.000;  108.000
461.824;  -60.075;  238.000;  259.000
461.943;  -35.925;  191.000;  130.000
462.063;  -80.075;    2.000;  324.000
462.183;   23.775;  639.000;  717.000
462.303;   82.950; 1678.000; 1230.000
462.422;   25.125;  781.000;  840.000
462.542;  -58.000;  271.000;  391.000
462.662;   33.225;  353.000;  380.000
462.782;  243.825;  833.000;  572.000
462.901;  490.775;  545.000;  717.000
463.021;  303.425; 1702.000; 1638.000
463.141;   -7.500;  337.000;  770.000
463.260;  -24.250;  614.000;  474.000
463.380;   21.525;  902.000;  884.000
463.499;  -29.000;  342.000;  332.000
463.619;  -56.900;  581.000;  559.000
463.738;  100.025; 1644.000;  903.000
463.858;   25.650;  657.000;  811.000
463.978;  -29.700;  542.000;  396.000
464.097;   46.475;  921.000; 1114.000
464.217;  104.025; 1196.000; 1143.000
464.336;  122.900; 1068.000; 1130.000
464.455;  -22.225;  328.000;  659.000
464.575;   31.400;  597.000;  602.000
464.694;  150.425; 1204.000; 1179.000
464.814;  136.175; 1190.000; 1138.000
464.933;   67.150; 1095.000; 1027.000
465.052;   91.575; 1412.000; 1054.000
465.172;   59.750;  922.000;  799.000
465.291;  126.250; 1376.000; 1320.000
465.410;    5.275;  462.000;  735.000
465.530;   71.050; 1355.000; 1310.000
465.649;   56.675; 1209.000; 1273.000
465.768;  116.250; 1673.000; 1508.000
465.888;   46.150;  941.000; 1174.000
466.007;   79.025; 1335.000; 1440.000
466.126;    2.425;  721.000;  641.000
466.245;   41.225; 1176.000; 1187.000
466.364;   14.675;  950.000; 1060.000
466.484;   52.725; 1024.000; 1213.000
466.603;   29.825; 1101.000; 1222.000
466.722;   93.575; 1490.000; 1769.000
466.841;   73.750; 1151.000; 1401.000
466.960;   38.325; 1069.000;  972.000
467.079;  124.875; 1971.000; 1786.000
467.198;   37.500; 1238.000; 1181.000
467.317;   85.950; 1768.000; 1162.000
467.436;   76.525; 1709.000; 1261.000
467.555;  117.825; 1796.000; 1746.000
467.674;   53.725; 1227.000; 1329.000
467.793;   37.000; 1376.000; 1374.000
467.912;   86.175; 1658.000; 1539.000
468.031;  135.225; 2038.000; 1930.000
468.150;  125.325; 1842.000; 1837.000
468.269;  167.500; 2313.000; 2090.000
468.388;  186.350; 2168.000; 2339.000
468.507;  250.225; 2884.000; 2903.000
468.626;  261.725; 2555.000; 2541.000
468.744;  138.200; 2018.000; 2174.000
468.863;  190.100; 2312.000; 2523.000
468.982;   89.375; 1503.000; 1555.000
469.101;  215.275; 2788.000; 2692.000
469.220;  136.325; 2333.000; 2176.000
469.338;  243.625; 2935.000; 3051.000
469.457;  191.850; 2719.000; 2545.000
469.576;  341.075; 3953.000; 3784.000
469.695;  226.525; 2877.000; 3066.000
469.813;  402.525; 4148.000; 4192.000
469.932;  404.350; 4255.000; 4485.000
470.051;  416.375; 4075.000; 4161.000
470.169;  845.050; 4470.000; 4338.000
470.288; 1532.150; 4700.000; 4809.000
470.406;  917.000; 5059.000; 5194.000
470.525;  632.225; 6101.000; 5787.000
470.644;  643.325; 6847.000; 6794.000
470.762;  817.550; 8397.000; 7873.000
470.881;  893.850; 8651.000; 8464.000
470.999; 1036.250; 9685.000; 9151.000
471.118; 1093.525;11174.000;10711.000

