
Integration time [ms]: 200.000
Averaging Nr. [scans]: 10
Smoothing Nr. [pixels]: 0
Data measured with spectrometer [name]: 2101012U2
Wave   ;Sample   ;Dark     ;Reference
[nm]   ;[counts] ;[counts] ;[counts] 

197.733;  136.300;  516.000;  404.000
197.879; -154.900; -610.000; -634.000
198.025; -108.900; -475.000; -420.000
198.171; -136.500; -602.000; -612.000
198.317;  -55.700; -401.000; -316.000
198.463; -115.200; -655.000; -404.000
198.609;   63.500;  181.000; -137.000
198.755; -137.600; -644.000; -410.000
198.901; -135.100; -505.000; -424.000
199.047; -116.200; -615.000; -488.000
199.193; -117.300; -230.000; -468.000
199.339;  -64.700; -222.000; -369.000
199.485;   78.800;  330.000;  271.000
199.631;   53.100;  227.000;  310.000
199.777; -126.500; -466.000; -398.000
199.923;  -99.200; -610.000; -424.000
200.069;   33.100; -141.000;  -58.000
200.215;  106.300;  128.000;  453.000
200.361;   77.600;  243.000;  477.000
200.507;  -96.000; -600.000; -373.000
200.653;  -34.200; -371.000; -194.000
200.798;  -51.800; -215.000; -125.000
200.944;   -3.200; -146.000;  -41.000
201.090;   93.000;   61.000;  222.000
201.236;   -9.900; -116.000; -158.000
201.382;  299.300;  874.000;  903.000
201.528;    3.000;  -58.000;  -48.000
201.674;  -91.000; -386.000; -293.000
201.819; -149.800; -540.000; -439.000
201.965; -137.800; -699.000; -447.000
202.111;  -35.500; -273.000; -226.000
202.257;  -54.200; -250.000; -238.000
202.402;   20.100;   13.000;  -36.000
202.548;  -56.700; -169.000; -116.000
202.694;  173.600;  410.000; -183.000
202.840; -174.700; -603.000; -531.000
202.985; -137.600; -681.000; -639.000
203.131; -193.900; -832.000; -666.000
203.277;  -31.800; -199.000; -262.000
203.423; -103.100; -434.000; -520.000
203.568;  -77.000; -462.000; -237.000
203.714;  -96.400; -535.000; -542.000
203.860; -160.900; -682.000; -641.000
204.005;   32.700;  112.000;  167.000
204.151;  151.800;  561.000;  556.000
204.296;  -57.500; -354.000; -221.000
204.442; -133.900; -600.000; -547.000
204.588; -129.600; -592.000; -579.000
204.733;   60.000;  178.000;  168.000
204.879; -236.800;-1018.000; -822.000
205.025;   27.900;  -99.000;  126.000
205.170;   18.500;  -17.000;   94.000
205.316;  153.300;  438.000;  661.000
205.461; -171.500; -698.000; -554.000
205.607;  193.500;  609.000;  665.000
205.752; -137.700; -626.000; -551.000
205.898; -132.600; -501.000; -391.000
206.043; -111.700; -578.000; -506.000
206.189;  -66.900; -243.000; -285.000
206.334;  161.400;  554.000;  606.000
206.480;  171.900;  409.000;  239.000
206.625; -154.200; -529.000; -552.000
206.771;  -82.300; -451.000; -373.000
206.916;  -61.100; -210.000; -537.000
207.062; -160.600; -545.000; -591.000
207.207;  -92.800; -546.000; -443.000
207.353;   90.000;  185.000;  460.000
207.498;   49.300;  196.000;   85.000
207.643; -109.000; -501.000; -370.000
207.789; -227.700;-1069.000; -910.000
207.934; -195.100; -665.000; -713.000
208.080;  -44.000; -154.000;   66.000
208.225;  -26.900;  -22.000;  -57.000
208.370; -153.400; -727.000; -619.000
208.516; -163.100; -741.000; -487.000
208.661;  -34.100; -127.000;  -69.000
208.806;  -24.800; -165.000; -171.000
208.952; -216.100;-1044.000; -731.000
209.097;  160.700;  378.000;  349.000
209.242;  -65.900; -307.000; -382.000
209.387;   77.600;  392.000;  350.000
209.533;  -90.500; -321.000; -350.000
209.678;  171.200;  472.000;  543.000
209.823; -102.800; -408.000; -310.000
209.969; -211.100; -860.000; -757.000
210.114; -197.500; -907.000; -719.000
210.259; -238.000; -939.000; -889.000
210.404;  -23.600; -171.000;  103.000
210.549;   21.500;  108.000;    3.000
210.695;    3.800;   -3.000;  -95.000
210.840;   89.800;   94.000;   67.000
210.985; -100.200; -484.000; -303.000
211.130;  128.600;  268.000;  406.000
211.275;   53.900;  207.000;  199.000
211.420; -104.400; -300.000; -289.000
211.566; -115.800; -536.000; -489.000
211.711;   57.700;  218.000;  157.000
211.856; -119.300; -545.000; -519.000
212.001;   51.400;  151.000;   44.000
212.146;   24.500;  153.000;   49.000
212.291;  -36.800; -210.000; -186.000
212.436;  -76.000; -280.000;   -6.000
212.581; -177.700; -685.000; -653.000
212.726;  -91.500; -487.000; -538.000
212.871;  -88.300; -552.000; -217.000
213.016; -299.100;-1172.000;-1029.000
213.161;  117.600;  406.000;  291.000
213.306; -148.000; -435.000; -577.000
213.451; -194.400; -778.000; -689.000
213.596;  -90.200; -455.000; -347.000
213.741; -120.400; -448.000; -538.000
213.886; -135.900; -498.000; -517.000
214.031;  -64.400; -294.000; -124.000
214.176;  -77.600; -408.000; -341.000
214.321;  -30.800; -296.000; -157.000
214.466;  -16.400; -163.000;  -43.000
214.611;  -10.800;  -61.000;  -10.000
214.756; -225.100; -948.000; -858.000
214.901;  -23.600; -388.000; -226.000
215.046; -235.800; -797.000; -825.000
215.191;   58.600;  128.000;   35.000
215.336;    2.900; -157.000;  -19.000
215.480; -174.500; -684.000; -505.000
215.625;   10.500; -175.000;  -19.000
215.770; -171.000; -757.000; -662.000
215.915;   -6.000;   -5.000;  -97.000
216.060;  -32.100; -113.000;  -21.000
216.205; -208.300; -731.000; -779.000
216.349; -131.100; -470.000; -533.000
216.494; -220.600; -939.000; -867.000
216.639; -220.500; -823.000; -888.000
216.784; -171.900; -577.000; -525.000
216.929;  149.800;  392.000;  281.000
217.073;   -6.600; -244.000;  -31.000
217.218;   24.400;   78.000;  -47.000
217.363; -167.500; -656.000; -618.000
217.507; -176.700; -623.000; -588.000
217.652; -226.300; -845.000; -874.000
217.797; -175.000; -708.000; -659.000
217.942; -210.600; -856.000; -720.000
218.086;  154.000;  608.000;  539.000
218.231;  -23.100; -174.000;  -26.000
218.376;  -63.100; -337.000; -229.000
218.520;   39.400;  -41.000;   96.000
218.665;  -58.700; -338.000; -204.000
218.810;  -66.200; -275.000; -233.000
218.954;   32.500;  201.000;   35.000
219.099; -219.200; -713.000; -963.000
219.243; -145.400; -589.000; -554.000
219.388;  -26.000; -264.000; -136.000
219.532;  -16.700; -116.000; -116.000
219.677; -139.800; -564.000; -521.000
219.822;   10.800;   33.000;   89.000
219.966;   54.700;   17.000;  -99.000
220.111;  -37.600; -328.000;  -40.000
220.255; -182.000; -797.000; -750.000
220.400;  -25.900; -180.000; -146.000
220.544; -140.200; -516.000; -450.000
220.689; -113.700; -422.000; -451.000
220.833;  -34.800; -123.000;  -58.000
220.978; -121.300; -393.000; -563.000
221.122;   89.800;  319.000;  307.000
221.267; -257.500; -906.000; -837.000
221.411; -102.800; -478.000; -394.000
221.555;  -39.900; -104.000;  -23.000
221.700;  -77.300; -329.000; -222.000
221.844;   60.400;  255.000;  272.000
221.989;  -81.000; -328.000; -311.000
222.133;  -92.300; -289.000; -307.000
222.277;   34.400;    5.000;   78.000
222.422;   32.200;  227.000;  113.000
222.566;  -34.600; -381.000; -214.000
222.711; -136.300; -414.000; -479.000
222.855; -124.500; -643.000; -586.000
222.999; -165.800; -642.000; -717.000
223.144;  -13.100; -195.000; -194.000
223.288;   81.000;  423.000;  251.000
223.432;   58.100;  184.000;  230.000
223.576;   22.000;  152.000;  -21.000
223.721;   96.300;  364.000;  273.000
223.865; -115.100; -472.000; -475.000
224.009;  476.400; 1673.000; 1631.000
224.153; -163.300; -660.000; -671.000
224.298; -116.200; -531.000; -489.000
224.442;   -5.900;  -74.000;  -33.000
224.586;   -2.000; -169.000; -106.000
224.730; -184.100; -858.000; -670.000
224.875; -190.500; -739.000; -688.000
225.019;   16.200;  102.000;  188.000
225.163;  137.000;  208.000;  341.000
225.307;   55.200;   97.000;  -91.000
225.451;  134.700;  360.000;  481.000
225.595;   79.200;  264.000;  176.000
225.739;  -18.200; -170.000;  -94.000
225.884;   25.300;   86.000;    5.000
226.028; -167.400; -760.000; -626.000
226.172;  -62.000; -260.000; -273.000
226.316; -211.300; -941.000; -902.000
226.460; -158.500; -645.000; -493.000
226.604;  -60.600; -406.000; -400.000
226.748; -206.700; -836.000; -733.000
226.892;  -28.400; -227.000; -181.000
227.036; -110.200; -537.000; -447.000
227.180;  -71.300; -551.000; -375.000
227.324; -139.800; -561.000; -580.000
227.468; -223.800; -819.000; -717.000
227.612;   14.900;  242.000;  -28.000
227.756; -194.000; -845.000; -698.000
227.900;   90.700;  342.000;  441.000
228.044; -119.100; -509.000; -290.000
228.188;  155.000;  448.000;  568.000
228.332; -143.200; -546.000; -472.000
228.476;  -23.500; -223.000; -149.000
228.620;  -58.600; -210.000; -150.000
228.764;  139.800;  431.000;  349.000
228.908;  -45.100; -155.000;   30.000
229.052; -108.000; -615.000; -528.000
229.195;   -5.500; -172.000;   13.000
229.339;  -40.200; -235.000; -305.000
229.483;  -11.500;    5.000; -162.000
229.627;    2.300; -156.000;  139.000
229.771;  -83.900; -218.000; -294.000
229.915;   44.000;  230.000;   79.000
230.059; -180.800; -648.000; -663.000
230.202;  -63.200; -370.000; -317.000
230.346;   13.700; -107.000;  107.000
230.490; -109.600; -489.000; -521.000
230.634; -174.300; -736.000; -553.000
230.777;  183.600;  478.000;  509.000
230.921;  -54.300; -450.000; -359.000
231.065; -107.900; -246.000; -286.000
231.209;   90.500;  261.000;  265.000
231.352;   38.600;   54.000;   40.000
231.496;   96.400;  568.000;  188.000
231.640; -170.800; -693.000; -621.000
231.783;  170.900;  546.000;  525.000
231.927;  -88.800; -294.000; -365.000
232.071; -202.700; -962.000; -736.000
232.214; -227.000; -980.000; -764.000
232.358; -174.400; -683.000; -599.000
232.502;   18.700;  -19.000;    7.000
232.645; -257.400;-1090.000; -927.000
232.789;  -42.000; -257.000; -218.000
232.933;  -70.200; -407.000; -224.000
233.076; -245.500;-1038.000; -897.000
233.220; -179.800; -752.000; -777.000
233.363; -138.900; -669.000; -477.000
233.507;  155.000;  371.000;  129.000
233.650; -212.600; -764.000; -834.000
233.794;  115.800;  438.000;  461.000
233.938; -149.300; -530.000; -362.000
234.081;  -17.200;  -93.000;   31.000
234.225; -131.800; -631.000; -539.000
234.368; -196.400; -773.000; -723.000
234.512;  -68.700; -385.000; -299.000
234.655; -148.400; -582.000; -555.000
234.798; -162.900; -493.000; -466.000
234.942; -247.800; -884.000;-1002.000
235.085; -137.000; -651.000; -443.000
235.229; -136.000; -405.000; -410.000
235.372;  -94.700; -247.000; -191.000
235.516;  -95.500; -397.000; -321.000
235.659;   43.800;   92.000;  121.000
235.802;   11.100;  -38.000;  -22.000
235.946;   56.600;  335.000;  215.000
236.089;   85.400;  126.000;  250.000
236.233;  124.100;  275.000;  298.000
236.376;  -53.500; -235.000; -378.000
236.519;  -70.700; -297.000; -319.000
236.663;  -20.000; -215.000; -117.000
236.806; -237.200;-1029.000; -999.000
236.949;  133.600;  543.000;  431.000
237.092;  174.700;  412.000;  391.000
237.236; -165.700; -589.000; -502.000
237.379;  160.000;  352.000;  428.000
237.522; -220.600; -879.000; -768.000
237.666;  -17.100; -271.000;   18.000
237.809; -232.100; -851.000; -823.000
237.952;   53.900;  469.000;  271.000
238.095; -110.400; -447.000; -442.000
238.238;  153.400;  688.000;  700.000
238.382;   38.600;  166.000;  103.000
238.525; -134.900; -598.000; -511.000
238.668; -257.800;-1060.000; -985.000
238.811; -124.600; -638.000; -643.000
238.954;  -95.900; -483.000; -334.000
239.097;  196.300;  617.000;  664.000
239.241;   97.300;  394.000;  326.000
239.384;  -37.200; -254.000; -214.000
239.527; -101.800; -424.000; -224.000
239.670; -309.900; -994.000;-1091.000
239.813; -228.200; -696.000; -658.000
239.956;  163.700;  579.000;  473.000
240.099; -212.400; -778.000; -725.000
240.242;  140.100;  428.000;  432.000
240.385;  104.400;  466.000;  450.000
240.528; -139.600; -706.000; -473.000
240.671;   43.600;  189.000;  134.000
240.814;  -51.400; -441.000; -158.000
240.957; -189.800; -767.000; -578.000
241.100; -196.900; -779.000; -755.000
241.243; -270.200;-1234.000; -893.000
241.386; -129.300; -508.000; -379.000
241.529; -155.200; -735.000; -547.000
241.672; -151.900; -566.000; -495.000
241.815; -199.700; -832.000; -808.000
241.958;  -46.400; -125.000; -182.000
242.101; -153.900; -545.000; -390.000
242.244;  -84.900; -270.000; -325.000
242.387;  -62.200; -304.000; -246.000
242.530;  121.100;  470.000;  134.000
242.673;  -26.800; -381.000; -309.000
242.815; -243.600; -925.000; -899.000
242.958; -120.700; -482.000; -381.000
243.101;   46.100;  132.000;  187.000
243.244; -126.200; -564.000; -521.000
243.387;  -90.500; -313.000; -316.000
243.530; -184.400; -657.000; -674.000
243.672;   -7.800;   43.000;  -92.000
243.815; -102.400; -355.000; -283.000
243.958;   14.200;   98.000;  -26.000
244.101;   40.500;   59.000;  -16.000
244.243;   22.900;  -47.000;  101.000
244.386; -210.900; -761.000; -630.000
244.529;  -65.100; -132.000; -139.000
244.672; -298.400;-1154.000; -951.000
244.814; -203.300; -621.000; -794.000
244.957;  -93.100; -380.000; -304.000
245.100; -146.200; -489.000; -489.000
245.242;  -95.900; -387.000; -374.000
245.385;   11.600;  -59.000;  -39.000
245.528; -223.700; -871.000; -705.000
245.670;  189.400;  612.000;  634.000
245.813; -190.600; -599.000; -547.000
245.956;  -74.000; -324.000; -275.000
246.098; -114.700; -508.000; -650.000
246.241;   50.900;  194.000;   48.000
246.383;   -4.300; -119.000;  -73.000
246.526; -156.800; -454.000; -525.000
246.669; -220.800; -889.000; -780.000
246.811;   36.800;  172.000;   -1.000
246.954; -117.400; -512.000; -426.000
247.096;  -36.400;  -84.000;   -6.000
247.239; -121.000; -482.000; -445.000
247.381; -142.500; -647.000; -488.000
247.524;  175.600;  645.000;  679.000
247.666;   -8.400;   58.000;   11.000
247.809; -209.000; -887.000; -691.000
247.951;  -54.400;  -75.000;  138.000
248.094;   70.500;  432.000;  308.000
248.236; -338.200;-1262.000;-1238.000
248.378;   10.100; -356.000;  -81.000
248.521;  -55.500; -334.000; -337.000
248.663;  -43.600; -236.000; -267.000
248.806;  -43.500; -300.000; -266.000
248.948; -186.900; -886.000; -763.000
249.090;  -97.100; -428.000; -398.000
249.233;  -66.000; -344.000; -381.000
249.375; -123.500; -474.000; -451.000
249.518;   -7.400;  -83.000; -133.000
249.660;   -7.100; -103.000;    3.000
249.802; -358.200;-1303.000;-1189.000
249.945; -126.300; -612.000; -540.000
250.087; -217.500; -834.000; -768.000
250.229;  -78.200; -362.000; -480.000
250.371; -109.500; -494.000; -439.000
250.514;  -84.100; -310.000; -244.000
250.656;  -95.300;   69.000;  102.000
250.798; -229.600; -849.000; -800.000
250.940;  -87.600; -322.000; -322.000
251.083;  -38.600; -335.000; -111.000
251.225;  153.000;  338.000;  310.000
251.367;  -95.800; -274.000; -373.000
251.509;  -42.000; -265.000; -210.000
251.651; -187.800; -731.000; -671.000
251.794;  143.100;  538.000;  632.000
251.936; -184.800; -821.000; -747.000
252.078; -122.700; -540.000; -461.000
252.220; -151.100; -645.000; -477.000
252.362;  162.400;  344.000;  462.000
252.504; -121.400; -677.000; -584.000
252.646; -197.400; -875.000; -722.000
252.788;   18.700;   14.000; -128.000
252.931;  -44.000; -257.000; -253.000
253.073;  -97.900; -376.000; -317.000
253.215;   -4.500;  141.000;  122.000
253.357;  -23.200;   82.000; -153.000
253.499;  -72.300; -374.000; -234.000
253.641; -172.400; -749.000; -594.000
253.783; -186.000; -609.000; -527.000
253.925; -181.500; -586.000; -591.000
254.067; -205.200; -744.000; -667.000
254.209;  -67.500; -391.000; -259.000
254.351; -227.900; -865.000; -883.000
254.493; -112.000; -441.000; -417.000
254.635; -224.500; -936.000; -818.000
254.777; -173.800; -752.000; -687.000
254.918; -131.200; -512.000; -430.000
255.060; -118.600; -551.000; -395.000
255.202;  -89.800; -473.000; -261.000
255.344; -163.800; -658.000; -455.000
255.486; -116.900; -471.000; -406.000
255.628; -239.100; -780.000; -781.000
255.770; -189.800; -676.000; -536.000
255.912; -111.100; -559.000; -468.000
256.053; -185.100; -730.000; -508.000
256.195;  305.700; 1008.000;  903.000
256.337; -167.300; -861.000; -595.000
256.479;  121.000;  532.000;  416.000
256.621;  -72.100; -394.000; -212.000
256.762; -188.500; -789.000; -742.000
256.904;  142.300;  485.000;  487.000
257.046;  -50.400; -381.000; -271.000
257.188;  -34.900; -351.000; -264.000
257.329; -135.300; -525.000; -464.000
257.471; -213.700; -939.000; -807.000
257.613; -121.400; -584.000; -498.000
257.755; -295.300;-1073.000; -982.000
257.896;  104.300;  286.000;  392.000
258.038; -131.100; -403.000; -352.000
258.180;  -78.100; -354.000; -279.000
258.321; -145.100; -581.000; -457.000
258.463;   -5.800;  -71.000;  133.000
258.605; -172.000; -562.000; -570.000
258.746; -189.100; -886.000; -772.000
258.888; -275.700;-1026.000;-1020.000
259.029;   50.600;  121.000;   -8.000
259.171; -156.100; -614.000; -550.000
259.313;   -8.900;  -49.000;  -47.000
259.454;  -98.500; -536.000; -414.000
259.596;  -76.300; -483.000; -390.000
259.737; -119.500; -590.000; -474.000
259.879;   88.200;  217.000;  311.000
260.020;  210.400;  901.000;  636.000
260.162;  -38.100; -146.000; -253.000
260.303; -192.100; -768.000; -687.000
260.445; -148.800; -609.000; -613.000
260.586;   85.800;  392.000;  157.000
260.728;  -86.700; -360.000; -248.000
260.869;  -86.900; -350.000; -343.000
261.011;  161.800;  706.000;  537.000
261.152;  -86.400; -479.000; -319.000
261.293; -136.200; -576.000; -595.000
261.435;  -14.300; -219.000; -184.000
261.576; -105.500; -455.000; -325.000
261.718;  168.400;  420.000;  470.000
261.859; -259.600; -940.000; -949.000
262.000; -241.200; -951.000;-1016.000
262.142;  -31.400;  -52.000;  -60.000
262.283; -201.500; -808.000; -691.000
262.424; -192.600; -666.000; -625.000
262.566; -285.200;-1161.000; -983.000
262.707; -218.200; -840.000; -830.000
262.848; -236.500; -769.000; -726.000
262.990;  -81.500; -362.000; -345.000
263.131;  212.400;  650.000;  681.000
263.272;  -25.400;  -61.000;  -41.000
263.413; -168.000; -589.000; -561.000
263.555; -115.600; -669.000; -143.000
263.696; -156.600; -550.000; -641.000
263.837; -110.400; -449.000; -551.000
263.978;   62.000;   -5.000;  -77.000
264.119;  -90.200; -283.000; -264.000
264.261; -191.800; -847.000; -630.000
264.402;   24.100;   33.000;   40.000
264.543; -110.200; -509.000; -524.000
264.684;   14.500;   61.000;  -50.000
264.825; -133.700; -816.000; -538.000
264.966;   -4.300;  -84.000;  -67.000
265.107; -218.000; -646.000; -670.000
265.248; -242.200; -825.000; -812.000
265.390;   33.400;  152.000;   -9.000
265.531;  -46.200; -238.000; -107.000
265.672; -140.700; -557.000; -630.000
265.813;  150.900;  563.000;  439.000
265.954; -255.800; -959.000; -940.000
266.095;  -24.100; -372.000; -322.000
266.236; -148.100; -686.000; -548.000
266.377;  -34.100; -243.000; -297.000
266.518;  -95.600; -619.000; -547.000
266.659;   71.600;  170.000;  268.000
266.800;   55.300;   83.000;   85.000
266.941; -137.400; -487.000; -478.000
267.082;   76.100;  354.000;   99.000
267.223;  -98.800; -344.000; -273.000
267.364; -192.900; -892.000; -686.000
267.504;  -24.500;    3.000;  135.000
267.645;   31.700;  160.000;   67.000
267.786;  -67.100; -147.000;  -86.000
267.927; -133.300; -473.000; -379.000
268.068;   -3.700; -186.000;  -61.000
268.209;  -34.000; -175.000; -413.000
268.350; -111.500; -388.000; -532.000
268.490; -121.800; -648.000; -521.000
268.631;   75.800;  127.000;  225.000
268.772; -204.000; -874.000; -647.000
268.913; -121.900; -328.000; -476.000
269.054;    8.700; -117.000;   12.000
269.194;  -92.600; -418.000; -402.000
269.335; -272.300;-1137.000;-1074.000
269.476;  -33.500;   33.000;  -35.000
269.617;  -47.600; -347.000; -392.000
269.757; -194.700; -713.000; -646.000
269.898; -186.900; -856.000; -613.000
270.039; -121.000; -415.000; -405.000
270.180; -262.800; -952.000; -816.000
270.320;  -70.700; -190.000; -250.000
270.461;  -31.800; -277.000; -249.000
270.602;  -23.000; -186.000; -156.000
270.742; -229.800; -868.000; -943.000
270.883; -108.800; -442.000; -390.000
271.023;  -92.100; -358.000; -357.000
271.164; -139.000; -607.000; -528.000
271.305; -192.000; -666.000; -654.000
271.445; -160.000; -722.000; -683.000
271.586; -105.400; -462.000; -283.000
271.726;  -86.600; -397.000; -322.000
271.867;  -88.000; -594.000; -534.000
272.008;  199.700; -473.000; -285.000
272.148;  231.800;  462.000;  468.000
272.289;   14.000; -113.000; -181.000
272.429;   45.900;   19.000;  185.000
272.570; -170.400; -633.000; -737.000
272.710; -161.300; -825.000; -775.000
272.851;  -39.400;  113.000; -130.000
272.991; -305.100;-1173.000;-1077.000
273.131; -153.200; -419.000; -459.000
273.272; -155.000; -683.000; -723.000
273.412;   16.000; -143.000;  -31.000
273.553;  -81.900; -488.000; -507.000
273.693;  271.800;  913.000;  858.000
273.834; -168.400; -894.000; -692.000
273.974; -159.200; -664.000; -615.000
274.114; -149.000; -772.000; -560.000
274.255;  132.400;  414.000;  373.000
274.395;    6.100; -180.000; -125.000
274.535;   69.300;  199.000;  350.000
274.676;   71.700;  225.000;   94.000
274.816;   -8.400;  110.000;   34.000
274.956; -156.900; -624.000; -690.000
275.097; -187.300;-1014.000; -922.000
275.237; -184.300; -913.000; -803.000
275.377; -191.600; -778.000; -689.000
275.517; -258.500; -878.000; -937.000
275.658; -129.000; -590.000; -555.000
275.798; -132.800; -606.000; -413.000
275.938;   72.500;  215.000;  323.000
276.078; -190.400; -626.000; -395.000
276.218;   35.100;   99.000;  104.000
276.359; -249.100;-1026.000;-1024.000
276.499; -150.700; -605.000; -446.000
276.639;  -34.200; -305.000; -151.000
276.779;  -80.400; -475.000; -357.000
276.919; -166.300; -783.000; -624.000
277.059;  -54.300; -261.000; -212.000
277.199;  -53.700; -357.000; -259.000
277.340;  108.000;  287.000;  175.000
277.480; -168.000; -840.000; -693.000
277.620;   49.300;  192.000;   16.000
277.760; -375.400;-1533.000;-1294.000
277.900;   33.700;  113.000;   33.000
278.040;   36.900;  137.000;  159.000
278.180;   67.400;  270.000;  170.000
278.320;   38.600;   21.000;   56.000
278.460; -120.100; -443.000; -469.000
278.600; -143.500; -708.000; -598.000
278.740;  116.100;  448.000;  224.000
278.880; -158.900; -768.000; -791.000
279.020;  -10.400; -194.000; -144.000
279.160; -190.100; -672.000; -595.000
279.300; -251.300; -926.000; -873.000
279.440; -156.700; -709.000; -622.000
279.579; -160.300;-1014.000; -929.000
279.719;  -88.600; -410.000; -394.000
279.859;  108.700;   -4.000;   41.000
279.999;   59.500; -208.000;  101.000
280.139;  -67.100; -435.000; -387.000
280.279; -131.800; -708.000; -745.000
280.419;  -28.700; -229.000; -147.000
280.559;  -40.800; -259.000; -180.000
280.698; -147.800; -790.000; -639.000
280.838; -181.700; -778.000; -800.000
280.978; -183.700; -846.000; -790.000
281.118; -213.100; -811.000; -704.000
281.257;    1.000;   24.000;    6.000
281.397; -246.200;-1094.000; -960.000
281.537; -181.200; -599.000; -712.000
281.677;    6.200; -150.000; -101.000
281.816; -163.500; -700.000; -630.000
281.956;  -11.900; -193.000; -257.000
282.096; -113.900; -539.000; -396.000
282.235; -196.900; -672.000; -638.000
282.375;  -22.400; -243.000;  -98.000
282.515; -186.200; -715.000; -707.000
282.654;   59.800;   29.000;  106.000
282.794;   93.200;  388.000;  244.000
282.934;  -97.600; -530.000; -491.000
283.073; -242.900;-1030.000; -857.000
283.213; -110.100; -460.000; -467.000
283.353;  -60.000; -408.000; -349.000
283.492;  -35.800; -264.000; -296.000
283.632;  -57.600; -254.000; -168.000
283.771; -207.400; -859.000; -730.000
283.911;  -98.900; -369.000; -260.000
284.050; -203.500; -794.000; -748.000
284.190; -291.600;-1229.000;-1096.000
284.329; -286.700;-1055.000; -964.000
284.469; -126.000; -516.000; -591.000
284.608; -109.500; -559.000; -598.000
284.748; -164.700; -614.000; -570.000
284.887;   -5.100;  -87.000;  -20.000
285.027; -236.000; -844.000; -892.000
285.166;  -31.700; -192.000; -249.000
285.306;   55.900; -116.000;  -33.000
285.445;  -88.100; -229.000; -343.000
285.584; -160.400; -630.000; -494.000
285.724;  -48.500; -282.000; -322.000
285.863; -196.900; -857.000; -507.000
286.002; -107.200; -366.000; -276.000
286.142; -203.800; -715.000; -622.000
286.281;  -95.500; -525.000; -493.000
286.420; -140.500; -554.000; -417.000
286.560;  198.700;  653.000;  623.000
286.699; -249.800; -958.000; -912.000
286.838; -189.600; -590.000; -591.000
286.978; -173.200; -533.000; -537.000
287.117; -269.100;-1085.000; -950.000
287.256;  -49.700; -228.000; -211.000
287.395;  -80.200; -197.000; -378.000
287.535;  -52.000; -370.000; -298.000
287.674; -160.500; -509.000; -484.000
287.813;  151.300;  661.000;  533.000
287.952; -251.900;-1010.000; -871.000
288.091; -269.000;-1049.000; -915.000
288.231;   29.800;   13.000;   15.000
288.370; -323.700;-1217.000;-1200.000
288.509; -174.100; -728.000; -645.000
288.648; -119.800; -770.000; -548.000
288.787;  -72.400; -243.000;  -87.000
288.926; -104.100; -454.000; -475.000
289.065;  244.800;  859.000;  672.000
289.204;  -96.400; -377.000; -217.000
289.344; -203.000; -791.000; -690.000
289.483;   79.200;  416.000;  304.000
289.622;  -69.100; -291.000; -149.000
289.761;   -2.800; -309.000; -166.000
289.900; -235.500; -785.000; -626.000
290.039;  -12.200;  -12.000;  -95.000
290.178;  -68.100; -274.000; -180.000
290.317; -139.400; -618.000; -479.000
290.456; -121.200; -463.000; -451.000
290.595; -280.000; -961.000; -833.000
290.734; -274.400; -904.000; -891.000
290.873; -116.400; -456.000; -420.000
291.011; -214.700; -833.000; -843.000
291.150; -187.600; -770.000; -682.000
291.289;  -52.100; -343.000; -110.000
291.428; -160.500; -599.000; -480.000
291.567; -101.300; -370.000; -442.000
291.706;   46.500;  109.000;  154.000
291.845; -170.700; -597.000; -505.000
291.984; -294.500;-1234.000;-1061.000
292.122;  190.400;  602.000;  582.000
292.261;  114.900;  620.000;  463.000
292.400;   22.300; -144.000;  211.000
292.539; -229.900; -959.000; -813.000
292.678;  -66.900; -325.000; -300.000
292.816; -289.100;-1136.000; -965.000
292.955; -172.100; -844.000; -684.000
293.094;  -17.400; -173.000; -337.000
293.233;  -86.100; -556.000; -400.000
293.371;  -30.800; -225.000;  -84.000
293.510; -214.800; -866.000; -780.000
293.649; -236.200; -959.000; -924.000
293.787; -226.200;-1083.000;-1012.000
293.926;   20.300; -113.000;  -32.000
294.065;  -64.300; -379.000; -290.000
294.203;   97.900;  298.000;  406.000
294.342;   68.100;   74.000;  156.000
294.481;12347.500;51180.000; -836.000
294.619;  -58.500; -425.000; -582.000
294.758; -272.100;-1230.000;-1137.000
294.896;   95.400; -125.000;    5.000
295.035; -237.900;-1040.000;-1006.000
295.174; -248.500;-1082.000; -954.000
295.312;  -40.500; -323.000; -203.000
295.451;  -76.000; -307.000; -428.000
295.589; -100.400; -389.000; -518.000
295.728;   30.000; -292.000; -165.000
295.866;   41.900;  -36.000;  -51.000
296.005; -109.200; -584.000; -341.000
296.143; -132.200; -558.000; -596.000
296.282; -193.000; -957.000; -881.000
296.420; -169.800; -657.000; -557.000
296.559; -168.600; -892.000; -633.000
296.697;  -60.000; -847.000; -665.000
296.835;  -65.600;-1141.000;-1002.000
296.974;  100.800;  -23.000;   39.000
297.112;  -32.300; -443.000; -504.000
297.251; -144.400; -815.000; -755.000
297.389;   19.000; -576.000; -438.000
297.527;   44.900; -145.000;  -83.000
297.666; -146.600; -486.000; -438.000
297.804;  -64.700; -404.000; -264.000
297.942;    6.100; -136.000; -161.000
298.081;   33.300; -183.000;   63.000
298.219;   81.400;  -17.000;  -19.000
298.357;   25.400; -144.000;  -71.000
298.495;  -50.500; -810.000; -812.000
298.634;  118.600;  245.000;  219.000
298.772;   16.900; -220.000; -338.000
298.910;  -28.200; -309.000; -182.000
299.048;  -16.800; -130.000; -153.000
299.187;  -48.700; -350.000; -250.000
299.325;   19.300;   52.000;  122.000
299.463;   25.700; -389.000; -299.000
299.601;  114.400; -327.000; -271.000
299.739; -232.100; -908.000; -883.000
299.877; -173.200; -791.000; -703.000
300.016; -178.100;-1095.000; -935.000
300.154;  164.700;  -19.000; -161.000
300.292;   19.100; -428.000; -348.000
300.430;  -22.600; -408.000; -291.000
300.568; -196.900; -940.000; -874.000
300.706;  -68.800; -366.000; -469.000
300.844; -179.600;-1108.000; -979.000
300.982;  193.800;  246.000;  282.000
301.120; -227.400; -965.000; -866.000
301.258; -137.700; -812.000; -705.000
301.396;   30.800;  104.000;  -41.000
301.534;   52.200; -218.000; -293.000
301.672;  -58.700; -664.000; -521.000
301.810;  -49.700; -613.000; -545.000
301.948;  181.600;   53.000;  149.000
302.086;  636.800; -250.000;  -32.000
302.224;  993.700; -610.000; -585.000
302.362;  -43.700; -558.000; -622.000
302.500; -141.200; -923.000; -893.000
302.638;  160.700;  128.000;  245.000
302.776;    9.500; -352.000; -408.000
302.913;   89.700;  447.000;  236.000
303.051;   15.600;  -86.000;  -23.000
303.189;   99.400;   90.000;  118.000
303.327;  -67.800; -341.000; -256.000
303.465; -171.500; -832.000; -588.000
303.603; -202.300; -805.000; -604.000
303.740;  140.500;  417.000;  241.000
303.878;  -62.900; -800.000; -759.000
304.016; -189.700; -915.000; -790.000
304.154; -250.700;-1123.000;-1152.000
304.291; -122.300; -505.000; -554.000
304.429;   41.100;  102.000;   74.000
304.567; -260.800; -908.000; -893.000
304.705;  -65.500; -408.000; -515.000
304.842;   24.500; -616.000; -540.000
304.980;   98.700;  215.000;   35.000
305.118;   15.500; -367.000; -365.000
305.255; -164.300; -945.000; -927.000
305.393;  105.300;  178.000;  239.000
305.531; -209.100;-1173.000; -956.000
305.668; -186.200; -663.000; -582.000
305.806;  100.500; -358.000; -439.000
305.943;   77.900; -629.000; -637.000
306.081;   46.400; -378.000; -267.000
306.219; -193.700; -863.000; -748.000
306.356;   24.000;  158.000;   27.000
306.494;  251.900;  981.000;  761.000
306.631;   25.800;  -11.000;  -55.000
306.769;  -58.500; -613.000; -485.000
306.906;   -2.300; -284.000; -258.000
307.044; -104.600; -473.000; -488.000
307.181;  -95.700; -410.000; -332.000
307.319;   31.000;  112.000;   87.000
307.456; -298.700;-1191.000;-1153.000
307.594; -177.500; -980.000; -727.000
307.731;  -15.900; -371.000; -164.000
307.868;    6.800;  -15.000;   20.000
308.006; -222.400; -961.000; -847.000
308.143; -103.800; -618.000; -330.000
308.281;  265.700;  -37.000; -254.000
308.418;  -42.000; -748.000; -640.000
308.555; -109.500; -400.000; -250.000
308.693; -127.900; -577.000; -573.000
308.830; -195.700; -712.000; -657.000
308.967;   11.200; -215.000;  -95.000
309.105;  -33.500; -507.000; -396.000
309.242;    4.200; -468.000; -367.000
309.379;  501.000; -577.000; -655.000
309.517; -150.500; -936.000; -948.000
309.654; -165.200; -910.000; -734.000
309.791; -138.100; -662.000; -580.000
309.928; -194.300; -977.000; -914.000
310.065;  299.600;  819.000;  697.000
310.203;  -77.100; -825.000; -850.000
310.340;  -36.500; -465.000; -321.000
310.477; -112.000; -412.000; -516.000
310.614; -127.800; -383.000; -473.000
310.751; -119.800; -427.000; -518.000
310.889;  -15.300;    1.000;   11.000
311.026; -238.400;-1161.000; -939.000
311.163;  -71.700; -386.000; -380.000
311.300; -117.400; -512.000; -479.000
311.437; -153.000; -658.000; -619.000
311.574; -262.800;-1226.000; -985.000
311.711; -145.200; -595.000; -433.000
311.848;  -53.200; -380.000; -388.000
311.985;   18.100;  270.000;   93.000
312.122; -192.100; -932.000; -762.000
312.259; -245.500; -941.000; -994.000
312.396; -142.300; -508.000; -551.000
312.533; -166.000; -812.000; -790.000
312.670; -252.500;-1070.000; -898.000
312.807;  -69.700; -352.000; -367.000
312.944; -140.700; -513.000; -611.000
313.081;  -58.400; -150.000; -415.000
313.218; -195.100;-1111.000; -867.000
313.355;  -30.000; -531.000; -449.000
313.492;   33.300; -455.000; -292.000
313.629;  229.300;  815.000;  735.000
313.766; -280.400;-1176.000;-1008.000
313.902;   -5.100; -186.000;   21.000
314.039;  -78.700; -372.000; -289.000
314.176;   89.300;  286.000;  192.000
314.313;  -99.800; -569.000; -473.000
314.450; -182.800; -788.000; -684.000
314.587;  -96.600; -468.000; -480.000
314.723;   28.200;  -78.000;  130.000
314.860;   96.700;  318.000;  332.000
314.997;   98.100;  223.000;  142.000
315.134;  -86.600; -385.000; -368.000
315.270;  -98.100; -480.000; -496.000
315.407; -243.500;-1094.000; -967.000
315.544; -127.700; -657.000; -538.000
315.681; -144.500; -681.000; -565.000
315.817;   31.600; -133.000; -176.000
315.954;  -40.600; -613.000; -392.000
316.091; -267.900;-1045.000;-1023.000
316.227;  -17.900;  -71.000; -179.000
316.364;   27.700;   23.000;    6.000
316.500;    6.600; -113.000; -300.000
316.637;  -40.800; -181.000; -302.000
316.774; -138.900; -625.000; -358.000
316.910; -197.800; -598.000; -629.000
317.047; -119.500; -487.000; -351.000
317.183;  -81.100; -435.000; -566.000
317.320;  -17.200; -367.000; -321.000
317.456; -146.300; -733.000; -805.000
317.593; -155.200; -598.000; -641.000
317.729;   -8.200;  168.000;  -67.000
317.866; -361.200;-1434.000;-1285.000
318.002; -182.100; -708.000; -948.000
318.139; -201.100; -883.000; -867.000
318.275; -183.200;-1003.000; -738.000
318.412; -108.900; -517.000; -336.000
318.548;  -87.900; -751.000; -720.000
318.685; -172.300; -985.000; -888.000
318.821; -181.700; -762.000; -735.000
318.957;   26.400;   34.000;  -23.000
319.094;  116.200;  297.000;  154.000
319.230; -124.600; -756.000; -742.000
319.367;  118.100; -471.000; -520.000
319.503;   63.000; -538.000; -436.000
319.639; -189.100; -877.000; -793.000
319.775; -145.700; -750.000; -685.000
319.912; -112.600; -424.000; -519.000
320.048; -213.600;-1184.000;-1184.000
320.184;  104.400;   59.000;   70.000
320.321; -105.900; -497.000; -467.000
320.457;  114.400;  475.000;  662.000
320.593; -107.000; -375.000; -382.000
320.729; -191.400; -732.000; -734.000
320.866; -118.000; -577.000; -635.000
321.002; -152.100; -759.000; -809.000
321.138;  -49.000; -135.000; -211.000
321.274;   66.200; -148.000; -115.000
321.410;  -47.100; -585.000; -353.000
321.546; -129.600;-1011.000; -911.000
321.683;  111.600;  400.000;  185.000
321.819;   20.200;  -48.000; -117.000
321.955; -183.400; -743.000; -722.000
322.091; -118.300; -585.000; -540.000
322.227;   -8.000; -382.000; -202.000
322.363;  -36.300; -320.000; -215.000
322.499;  -35.900; -343.000; -331.000
322.635;  240.700;  636.000;  443.000
322.771;   63.100; -139.000;   12.000
322.907;  154.200;  129.000;  327.000
323.043;  -10.600; -115.000; -206.000
323.179;  -88.700; -394.000; -363.000
323.315;   -5.600; -401.000; -371.000
323.451;   78.000; -328.000; -236.000
323.587;   68.900;  -60.000;  -77.000
323.723;  -45.300; -682.000; -601.000
323.859;  -41.300; -258.000;  -76.000
323.995;  -69.900; -467.000; -409.000
324.131; -216.100; -967.000; -892.000
324.267;  -69.400; -254.000; -276.000
324.402; -228.900; -960.000; -983.000
324.538;  -12.000; -279.000; -104.000
324.674;   96.900;  164.000;   77.000
324.810;  218.900;  226.000;  308.000
324.946;    8.100; -810.000; -658.000
325.082; -112.100; -568.000; -475.000
325.217;  -17.900;  -62.000;   16.000
325.353; -194.700; -764.000; -659.000
325.489; -136.700; -540.000; -506.000
325.625; -142.300; -579.000; -525.000
325.760;  153.300;  517.000;  376.000
325.896;  -83.900; -515.000; -702.000
326.032;  -40.000; -403.000; -352.000
326.168;  -93.800; -462.000; -369.000
326.303; -117.100; -352.000; -461.000
326.439;  -34.600; -336.000; -276.000
326.575;   10.100; -190.000;  -29.000
326.710;  -31.700; -156.000;  -30.000
326.846;   21.600;  146.000;  103.000
326.982; -156.600; -530.000; -548.000
327.117; -127.900; -481.000; -442.000
327.253; -174.900; -745.000; -742.000
327.388; -224.300;-1137.000;-1153.000
327.524;  -96.900; -811.000; -578.000
327.659;    8.800;  -58.000;  -22.000
327.795;   -8.600;   69.000;   45.000
327.931; -140.000; -723.000; -499.000
328.066;  -22.600; -417.000; -276.000
328.202;   11.700;   12.000; -129.000
328.337;  247.800;  957.000;  713.000
328.473;   27.300;  -12.000;  -74.000
328.608;  -64.000; -256.000; -267.000
328.743; -173.700; -799.000; -664.000
328.879;   45.600;  214.000;  114.000
329.014;  -89.400; -102.000; -122.000
329.150; -170.500; -358.000; -483.000
329.285; -110.300; -465.000; -466.000
329.421;  -78.400; -548.000; -246.000
329.556;  -14.600;  -36.000;   85.000
329.691; -165.400; -633.000; -615.000
329.827; -119.900; -626.000; -480.000
329.962;  -62.100;  131.000; -301.000
330.097; -155.700; -673.000; -585.000
330.233;  -88.500; -410.000; -223.000
330.368; -239.000; -839.000; -628.000
330.503;  -27.800;    3.000;   98.000
330.638;   14.200;  -93.000; -125.000
330.774; -106.300; -609.000; -530.000
330.909;  -55.800; -434.000; -244.000
331.044; -189.800; -714.000; -708.000
331.179; -310.600;-1217.000;-1109.000
331.315;   62.000;   77.000;   20.000
331.450;   77.200;  157.000;  285.000
331.585; -193.300; -805.000; -706.000
331.720; -142.800; -510.000; -460.000
331.855;  -14.500;  -35.000; -102.000
331.990;  236.700;   62.000;  138.000
332.126;  182.600; -110.000;   71.000
332.261;  -10.200; -379.000; -265.000
332.396;  -17.200; -135.000; -242.000
332.531; -214.800;-1074.000;-1031.000
332.666;   19.700; -519.000; -363.000
332.801; -200.000; -726.000; -807.000
332.936;  -16.700; -192.000; -122.000
333.071; -277.600; -870.000; -817.000
333.206;   42.400;  307.000;  379.000
333.341;  131.600;  344.000;  418.000
333.476; -178.700; -627.000; -623.000
333.611;  -59.000; -251.000; -173.000
333.746;  -93.300; -381.000; -464.000
333.881; -227.300; -973.000; -935.000
334.016; -239.400; -936.000; -917.000
334.151; -208.000; -746.000; -702.000
334.286;   70.200;  152.000;  186.000
334.421;   10.300; -125.000; -178.000
334.556; -149.900; -611.000; -567.000
334.690; -138.700; -631.000; -577.000
334.825;  173.700;  381.000;   83.000
334.960; -101.100; -285.000; -413.000
335.095;   39.000;  135.000;  -91.000
335.230; -195.200; -722.000; -738.000
335.365; -296.900;-1084.000; -990.000
335.499; -269.700;-1108.000;-1037.000
335.634;   75.300;    9.000;  534.000
335.769; -213.700; -755.000; -720.000
335.904; -131.900; -603.000; -561.000
336.038; -117.800; -735.000; -657.000
336.173; -296.400;-1206.000;-1194.000
336.308;  -11.400; -116.000; -189.000
336.443;   -6.700; -544.000; -634.000
336.577; -194.700; -936.000; -787.000
336.712;   50.900;   -4.000;  -12.000
336.847; -112.500; -724.000; -607.000
336.981;   28.800; -272.000; -208.000
337.116;  396.400;  615.000;  501.000
337.250;   91.500; -434.000; -421.000
337.385;  280.000; -297.000; -208.000
337.520;   38.300; -632.000; -603.000
337.654;  -68.600; -215.000; -126.000
337.789; -226.800; -989.000; -933.000
337.923;   -9.700; -104.000; -205.000
338.058; -177.700; -673.000; -738.000
338.192;  -96.000; -611.000; -488.000
338.327;    4.400;  -18.000; -155.000
338.461; -128.000; -299.000; -469.000
338.596; -173.900; -780.000; -638.000
338.730; -186.300; -767.000; -803.000
338.865;  120.600;  -46.000; -140.000
338.999; -146.800; -846.000; -702.000
339.134;  -90.700; -634.000; -536.000
339.268;  -55.600; -741.000; -603.000
339.403;  286.300; -740.000; -775.000
339.537;   26.200; -894.000; -820.000
339.671; -222.700; -829.000; -813.000
339.806; -125.900; -556.000; -512.000
339.940;   -6.700; -261.000; -235.000
340.074; -175.000; -685.000; -510.000
340.209;  -62.000; -351.000; -230.000
340.343; -115.100; -517.000; -573.000
340.477;  355.100;  998.000; 1036.000
340.612; -117.000;-1033.000; -900.000
340.746;  160.800; -199.000; -243.000
340.880; -185.900; -924.000; -785.000
341.014;  -35.700;  -45.000; -154.000
341.149; -206.900; -756.000; -718.000
341.283; -214.900; -839.000; -754.000
341.417; -205.000;-1124.000; -938.000
341.551;   32.700; -768.000; -708.000
341.685;  -76.800; -633.000; -611.000
341.820; -146.800; -562.000; -493.000
341.954;  -92.400; -218.000; -349.000
342.088; -297.600;-1102.000;-1019.000
342.222;   96.500;  565.000;  618.000
342.356; -121.100; -395.000; -335.000
342.490; -181.200; -880.000; -841.000
342.624;  -88.900; -339.000; -242.000
342.758;    7.100; -364.000; -312.000
342.892; -135.500; -710.000; -585.000
343.026;  -25.200;  -58.000; -116.000
343.160;  -83.100; -426.000; -376.000
343.294; -111.300; -474.000; -337.000
343.428; -111.500; -488.000; -448.000
343.562;   -7.500; -172.000;  -23.000
343.696;  -34.500; -385.000; -314.000
343.830;  -36.100; -362.000; -356.000
343.964;   26.300; -231.000; -168.000
344.098; 1057.400;  199.000;   70.000
344.232;  895.600; -266.000; -127.000
344.366;   26.800; -567.000; -453.000
344.500;    0.000; -665.000; -744.000
344.634;   57.600; -324.000; -164.000
344.768;  -44.600; -531.000; -341.000
344.902;   71.600;  278.000;  256.000
345.035; -139.000; -556.000; -496.000
345.169; -220.600; -933.000; -656.000
345.303;  -67.500; -308.000; -482.000
345.437; -167.500; -826.000; -717.000
345.571; -174.600; -675.000; -594.000
345.704; -101.900; -309.000; -532.000
345.838;  -41.100; -331.000; -284.000
345.972;  -72.200; -543.000; -495.000
346.106;  178.400; -179.000; -190.000
346.239;  410.300; -312.000; -243.000
346.373;  -15.100; -343.000; -302.000
346.507; -287.900; -950.000; -962.000
346.640;  130.400;  -30.000;   13.000
346.774; -109.300; -650.000; -797.000
346.908;  -36.600; -138.000;  -11.000
347.041; -152.800; -646.000; -593.000
347.175;   28.700;  259.000;   27.000
347.309; -132.200; -698.000; -628.000
347.442; -227.400; -883.000; -732.000
347.576;  439.900;  670.000;  668.000
347.709;  220.400; -123.000;  -52.000
347.843; -205.100; -933.000; -825.000
347.976;  140.000;  235.000;  294.000
348.110; -327.100;-1268.000;-1186.000
348.243; -173.700; -679.000; -772.000
348.377;   31.200;  -26.000;   60.000
348.510;  125.200;  403.000;  540.000
348.644;  -61.300;  -37.000; -159.000
348.777;   21.400;  180.000;  191.000
348.911;  -48.700; -142.000; -112.000
349.044;  239.300;  471.000;  448.000
349.178;   75.700;-1069.000;-1006.000
349.311;  169.300;  141.000;  255.000
349.444;  -94.800; -927.000; -813.000
349.578;  -35.700; -347.000; -200.000
349.711; -183.700; -959.000; -862.000
349.845;  -66.900; -661.000; -591.000
349.978; -295.300;-1224.000;-1137.000
350.111; -166.800; -546.000; -612.000
350.244; -140.100; -596.000; -700.000
350.378;  -33.800; -392.000; -393.000
350.511;  -83.900; -393.000; -426.000
350.644; -206.400; -808.000; -806.000
350.778;   46.000;  168.000;  104.000
350.911;   34.700;  134.000;  140.000
351.044; -164.600; -685.000; -615.000
351.177;  -31.600; -321.000; -281.000
351.310;    8.900;    3.000; -131.000
351.444; -178.300; -888.000; -788.000
351.577;  190.700;  140.000;   90.000
351.710;  230.200;  593.000;  417.000
351.843;  -35.000; -165.000;  -77.000
351.976;    4.000;  149.000;  -79.000
352.109; -173.000; -621.000; -612.000
352.242; -103.600; -464.000; -419.000
352.376; -145.800; -580.000; -636.000
352.509;   99.400; -437.000; -356.000
352.642;  -80.900; -654.000; -604.000
352.775;   74.500; -141.000;  -98.000
352.908; -216.500; -933.000; -904.000
353.041; -203.500; -814.000; -824.000
353.174; -111.500; -551.000; -424.000
353.307; -171.100; -753.000; -764.000
353.440;  171.400;  541.000;  453.000
353.573; -217.900; -957.000;-1008.000
353.706;  -89.700; -384.000; -558.000
353.839;  -20.400; -264.000; -220.000
353.971; -148.700; -657.000; -512.000
354.104; -206.800; -896.000; -835.000
354.237;  -99.300; -627.000; -662.000
354.370; -194.500; -846.000; -879.000
354.503; -321.000;-1231.000;-1308.000
354.636;  -87.300; -529.000; -348.000
354.769; -225.200; -937.000; -860.000
354.902;  -20.300; -230.000; -139.000
355.034;  -10.700; -164.000; -220.000
355.167;  -60.400; -262.000; -162.000
355.300; -196.900;-1061.000; -880.000
355.433;  956.800;  -71.000;  -14.000
355.565; 1456.600; -402.000; -384.000
355.698;  363.300; -356.000; -296.000
355.831;  -81.600; -882.000; -801.000
355.964;   51.000; -285.000; -170.000
356.096; -200.300; -856.000; -843.000
356.229;  -96.600; -523.000; -530.000
356.362;  279.400; -373.000; -266.000
356.494;  616.800; -229.000; -162.000
356.627;  558.300;  269.000;  377.000
356.760;  722.200;  120.000;   53.000
356.892;  899.900; -286.000; -601.000
357.025;  748.100;  403.000;  389.000
357.157;  612.800; -167.000; -179.000
357.290;  663.800; -856.000; -713.000
357.423;  117.100; -667.000; -556.000
357.555;   99.200; -217.000; -228.000
357.688;   90.200; -483.000; -364.000
357.820;  401.500; -870.000; -877.000
357.953; 4033.900; -563.000; -589.000
358.085;  812.000; -632.000; -612.000
358.218; 1029.100;-1131.000; -932.000
358.350;  204.500;  -58.000;  312.000
358.483; -257.100;-1300.000;-1187.000
358.615; -149.600;-1182.000;-1078.000
358.747; -217.100;-1187.000;-1058.000
358.880;  -71.600; -810.000; -744.000
359.012;  -33.900; -376.000; -202.000
359.145;  -74.000; -480.000; -511.000
359.277;  -47.700; -962.000; -913.000
359.409; 3466.100;  536.000;  231.000
359.542;  825.000; -738.000; -688.000
359.674;   75.800;   46.000;   13.000
359.806; -103.800; -565.000; -438.000
359.939; -117.400; -617.000; -516.000
360.071;  -35.100; -583.000; -579.000
360.203;  -38.900; -411.000; -364.000
360.335;   89.100;  164.000;  -16.000
360.468;  206.400; -249.000; -307.000
360.600; 2615.300; -547.000; -454.000
360.732; 2855.200; -546.000; -423.000
360.864;  255.000;-1216.000;-1044.000
360.996;  240.600; -516.000; -554.000
361.129;   -0.100; -389.000; -598.000
361.261;   22.600;  110.000; -113.000
361.393;  -31.000; -252.000; -214.000
361.525;   66.100;   94.000;  244.000
361.657; -109.100; -821.000; -703.000
361.789;   12.700; -139.000; -155.000
361.921;  183.000; -642.000; -593.000
362.053;  356.500;  524.000;  541.000
362.185;  114.400;  288.000;   72.000
362.318; -190.400; -709.000; -705.000
362.450;  232.100;  294.000;  444.000
362.582;  -17.700; -913.000; -870.000
362.714;  -17.000; -353.000; -332.000
362.846; -135.000; -606.000; -490.000
362.978; -257.800; -941.000; -811.000
363.109;   25.700; -161.000; -260.000
363.241;  347.200; -739.000; -749.000
363.373;  374.300; -649.000; -564.000
363.505;  712.300; -186.000;  -91.000
363.637;  122.300; -787.000; -601.000
363.769; -251.100;-1067.000;-1080.000
363.901; -133.500; -596.000; -654.000
364.033; -262.400;-1103.000;-1062.000
364.165;  -30.800; -283.000; -283.000
364.296;   32.900; -316.000; -177.000
364.428; -116.400;-1344.000;-1220.000
364.560;  -99.200; -679.000; -661.000
364.692; -132.900; -738.000; -835.000
364.824;  201.200; -588.000; -456.000
364.955;  384.600; -402.000; -564.000
365.087;  821.400;-1097.000; -852.000
365.219;  -66.600; -686.000; -816.000
365.351; -100.300; -526.000; -572.000
365.482;   86.500;  300.000;  240.000
365.614;  -62.100; -402.000; -314.000
365.746; -177.300; -729.000; -752.000
365.877; -180.000; -706.000; -672.000
366.009;  278.100;  -35.000;  -62.000
366.141; -210.900;-1249.000;-1134.000
366.272; -221.500; -803.000; -719.000
366.404; -185.100;-1005.000; -874.000
366.535;  -27.100; -139.000;  -12.000
366.667; -182.700; -644.000; -649.000
366.799;  115.000;  353.000;  203.000
366.930; -228.600; -862.000; -996.000
367.062;   69.500; -639.000; -613.000
367.193;   74.700; -872.000; -842.000
367.325; -108.000; -580.000; -684.000
367.456;   32.300; -246.000;   31.000
367.588;  122.800; -371.000; -318.000
367.719;   17.700;  -44.000;  -45.000
367.851;  -44.200; -222.000; -241.000
367.982; -160.800; -875.000; -732.000
368.113;   90.800; -475.000; -358.000
368.245; -225.600; -960.000; -841.000
368.376;  -38.500; -254.000; -302.000
368.508;  -48.000; -188.000; -263.000
368.639; -285.600;-1166.000;-1034.000
368.770;  -68.800; -670.000; -589.000
368.902; -165.200; -836.000; -926.000
369.033; -212.300; -906.000; -855.000
369.164; -142.100; -720.000; -653.000
369.296; -153.700; -452.000; -601.000
369.427;    1.200; -209.000; -144.000
369.558;  -85.700; -593.000; -377.000
369.689; -139.900; -721.000; -569.000
369.821; -242.800; -951.000; -845.000
369.952;  -24.600;   42.000; -108.000
370.083;  -48.200; -229.000; -108.000
370.214; -176.000; -735.000; -650.000
370.345;   14.900;   65.000;   81.000
370.477; -151.500; -810.000; -790.000
370.608;  265.600; -328.000; -264.000
370.739; -187.300;-1233.000;-1292.000
370.870; -135.900;-1102.000; -923.000
371.001;   54.100; -378.000; -467.000
371.132; -131.700; -754.000; -735.000
371.263;    2.900;  -42.000; -148.000
371.394; -217.500; -841.000; -748.000
371.525;   87.800;  345.000;  225.000
371.657; -169.800; -808.000; -670.000
371.788;  105.000;  103.000;  199.000
371.919;  198.600; -384.000; -304.000
372.050; 4258.900;  -91.000; -156.000
372.181; 1253.800; -188.000; -294.000
372.311;  427.500;   42.000; -127.000
372.442;    2.300; -457.000; -451.000
372.573;  -76.200; -444.000; -340.000
372.704; -262.100;-1008.000; -980.000
372.835;  110.300; -228.000; -289.000
372.966; -117.000; -646.000; -554.000
373.097; -158.000; -575.000; -711.000
373.228; -144.800; -717.000; -542.000
373.359;   78.700; -824.000; -536.000
373.490;  892.100; -881.000; -727.000
373.620; 1069.600;-1001.000; -803.000
373.751; 2022.700; -332.000; -396.000
373.882;  783.100; -663.000; -733.000
374.013;   90.100; -449.000; -262.000
374.143; -117.400; -581.000; -659.000
374.274; -213.100; -987.000; -908.000
374.405;  179.500; -388.000; -276.000
374.536;  453.400; -526.000; -387.000
374.666; 1115.900; -759.000; -807.000
374.797;  184.900; -817.000; -868.000
374.928;  859.700; -710.000; -560.000
375.058;  846.900; -535.000; -500.000
375.189;   76.700;  -59.000;  -93.000
375.320; -182.700; -928.000;-1034.000
375.450; -127.800; -625.000; -616.000
375.581;  -64.100; -526.000; -436.000
375.712;  -50.400; -574.000; -250.000
375.842;  278.300; -438.000; -415.000
375.973;  145.500; -554.000; -513.000
376.103;  -97.200; -665.000; -648.000
376.234; -153.700; -531.000; -552.000
376.364; -131.600; -944.000; -867.000
376.495;  430.800;  925.000;  529.000
376.625;  -29.700; -472.000; -485.000
376.756;  -20.600; -709.000; -678.000
376.886; -222.400;-1178.000;-1026.000
377.017;  -95.500;-1048.000;-1061.000
377.147;  282.500; -786.000; -782.000
377.278;  145.400;  174.000;  228.000
377.408; -218.100; -801.000; -815.000
377.538; -201.800; -707.000; -693.000
377.669; -119.700; -537.000; -613.000
377.799; -183.100; -645.000; -635.000
377.929;  -99.900; -610.000; -428.000
378.060; -222.600; -781.000; -847.000
378.190; -126.700; -726.000; -531.000
378.320;  -93.700; -401.000; -406.000
378.451;   -1.900; -131.000;  -22.000
378.581;   14.300;  -67.000; -110.000
378.711;  328.000; 1035.000;  866.000
378.841;  -89.400; -533.000; -675.000
378.972; -196.700; -871.000; -751.000
379.102;  -92.400; -652.000; -579.000
379.232;  -29.800; -126.000;  -73.000
379.362; -208.400;-1001.000; -885.000
379.492;  -19.500; -373.000; -424.000
379.623;  159.600;    0.000;  111.000
379.753; -192.500;-1107.000; -974.000
379.883;  249.000;   59.000;  156.000
380.013; -104.600;-1081.000;-1017.000
380.143; -232.000;-1097.000;-1056.000
380.273; -219.100; -985.000; -861.000
380.403;  -24.100; -344.000; -257.000
380.533; -113.800; -651.000; -664.000
380.663;  114.800;  173.000;  128.000
380.793; -236.400;-1027.000;-1074.000
380.923;  -15.700; -103.000;  -34.000
381.053; -145.700; -613.000; -623.000
381.183;  -34.800; -106.000; -248.000
381.313;  -14.400; -656.000; -470.000
381.443;   14.800; -692.000; -473.000
381.573;  179.400; -402.000; -409.000
381.703;  107.900;-1249.000;-1095.000
381.833; -283.900;-1454.000;-1336.000
381.963;  130.800; -134.000;  -87.000
382.093; 1422.900; -925.000; -909.000
382.223;  328.900; -713.000; -602.000
382.353;  -88.000; -801.000; -608.000
382.482;  321.800;-1091.000; -964.000
382.612;  771.800; -872.000; -644.000
382.742;  394.100; -695.000; -622.000
382.872;  219.900; -565.000; -551.000
383.002;  114.300;  347.000; -132.000
383.131;  -35.800; -226.000; -160.000
383.261; -132.100; -706.000; -768.000
383.391;  235.900; -552.000; -377.000
383.521; 3321.700;  451.000;  263.000
383.650;  622.400; -947.000; -904.000
383.780;  -97.500; -783.000; -656.000
383.910;  244.000;  880.000;  802.000
384.039;  -58.800; -794.000; -656.000
384.169;   88.400;-1205.000;-1017.000
384.299;  -91.900; -650.000; -662.000
384.428; -177.500; -764.000; -680.000
384.558;  -73.100; -308.000; -275.000
384.687;  -65.600; -414.000; -334.000
384.817;   34.400;   75.000;   -2.000
384.947;    0.100; -234.000; -141.000
385.076;  429.000;  982.000;  912.000
385.206;  197.900;  369.000;  480.000
385.335;  -76.500; -549.000; -417.000
385.465; -137.200; -655.000; -663.000
385.594;  143.100;  -53.000;  -44.000
385.724;  411.600; -868.000; -838.000
385.853;  120.900; -296.000; -270.000
385.982; 1603.000; -743.000; -787.000
386.112; 2316.800;-1052.000; -871.000
386.241;  139.900; -307.000; -312.000
386.371;   10.300; -174.000;  -87.000
386.500;  -66.000; -825.000; -789.000
386.629;  -85.400; -874.000; -817.000
386.759;  114.400;  -43.000;   68.000
386.888;  -15.600; -170.000; -250.000
387.017; -115.800; -648.000; -620.000
387.147; -193.700; -771.000; -798.000
387.276;  -44.800; -410.000; -397.000
387.405;  -21.100; -398.000; -342.000
387.535; -101.200; -452.000; -361.000
387.664; -135.300; -692.000; -620.000
387.793;   78.900; -198.000; -113.000
387.922;  565.800;  255.000;  200.000
388.052;  -64.600; -576.000; -423.000
388.181;  -46.600; -342.000; -472.000
388.310; -102.100; -889.000; -710.000
388.439; -177.000; -749.000; -742.000
388.568;  265.800;  365.000;  244.000
388.697; 1137.500; -756.000; -653.000
388.826;  182.000; -768.000; -666.000
388.956;   49.000; -285.000; -307.000
389.085;  -39.700; -347.000; -287.000
389.214; -220.300; -842.000; -872.000
389.343;  -86.300; -645.000; -413.000
389.472;  488.900;  126.000;  149.000
389.601;  593.000;   91.000;    0.000
389.730;  -41.200; -568.000; -687.000
389.859;  151.900;  226.000;   46.000
389.988;  190.700; -423.000; -408.000
390.117;  168.100; -168.000; -146.000
390.246;  -23.900; -331.000; -320.000
390.375;   80.800; -673.000; -626.000
390.504; -155.700; -703.000; -621.000
390.633; -158.900; -672.000; -726.000
390.761; -153.400; -732.000; -645.000
390.890;   40.400;   -4.000; -130.000
391.019; -108.300; -421.000; -441.000
391.148; -182.400; -826.000; -855.000
391.277; -119.400; -576.000; -493.000
391.406; -166.300; -821.000; -805.000
391.534;   65.000;  574.000; -301.000
391.663; -116.700; -583.000; -645.000
391.792; -162.400; -673.000; -701.000
391.921;  132.300;   -3.000;   15.000
392.050;  157.700; -287.000; -228.000
392.178; -170.800;-1206.000;-1061.000
392.307;  105.200; -758.000; -712.000
392.436;   28.600; -427.000; -641.000
392.564;   48.700;  166.000;   -6.000
392.693; -168.500; -860.000; -682.000
392.822;  182.700; -529.000; -534.000
392.950;   50.400; -880.000; -714.000
393.079;  350.800; -188.000; -328.000
393.208;  -16.400; -488.000; -511.000
393.336;  -32.000; -170.000; -145.000
393.465;  -12.500; -317.000; -199.000
393.593;   35.200;   62.000;   79.000
393.722; -275.000;-1121.000; -916.000
393.850;  -24.200; -188.000;  -61.000
393.979; -264.500; -926.000; -805.000
394.107; -121.800; -517.000; -537.000
394.236;  -87.100; -570.000; -507.000
394.364;  379.200;  383.000;  206.000
394.493;  443.200; -911.000; -767.000
394.621;  -80.300; -955.000; -916.000
394.750;  621.800; -873.000; -923.000
394.878; 2921.800; -247.000; -149.000
395.007; 3701.700; -721.000; -807.000
395.135;  196.500; -790.000; -721.000
395.263; -195.200;-1038.000;-1040.000
395.392;   -9.700;  -25.000; -107.000
395.520; -116.400; -818.000; -679.000
395.648; -205.100; -865.000; -915.000
395.777;  -62.200; -366.000; -405.000
395.905;  -83.300; -449.000; -564.000
396.033;   82.000;  217.000;  172.000
396.162;  891.800; -399.000; -453.000
396.290;  810.800;  -17.000;   -2.000
396.418;   58.000; -555.000; -514.000
396.546; -151.100; -571.000; -466.000
396.674; -194.500; -850.000; -878.000
396.803;   34.400;  -72.000;  -23.000
396.931;   66.800; -179.000; -199.000
397.059; -117.400;-1026.000; -989.000
397.187; -211.300;-1026.000; -975.000
397.315; -239.100; -884.000; -649.000
397.443; -153.000; -592.000; -443.000
397.572; -162.100; -578.000; -424.000
397.700;  -99.600; -607.000; -614.000
397.828;   18.100;  120.000;  -90.000
397.956; -122.500; -508.000; -478.000
398.084; -139.100; -767.000; -626.000
398.212;   71.000;  137.000;  124.000
398.340;   49.800;  -56.000;  159.000
398.468;   -6.500; -390.000; -169.000
398.596; -249.800; -993.000; -953.000
398.724; -210.700; -762.000; -767.000
398.852; -296.600;-1024.000; -976.000
398.980; -118.200; -560.000; -560.000
399.108; -144.800; -982.000; -735.000
399.236;   27.400;   13.000;    8.000
399.363;   86.400;  222.000;  196.000
399.491; -135.700; -404.000; -398.000
399.619; -216.700; -829.000; -800.000
399.747; -213.500; -859.000; -771.000
399.875;  146.400;  220.000;  234.000
400.003;  -92.100; -359.000; -284.000
400.130;  -92.000; -421.000; -341.000
400.258;    5.600;  -83.000;   38.000
400.386;  -49.900; -352.000; -168.000
400.514;  -89.100; -526.000; -587.000
400.641; -191.200; -928.000; -802.000
400.769; -281.800; -979.000; -888.000
400.897; -186.200; -838.000; -793.000
401.025;   12.500; -166.000; -152.000
401.152;   50.200;  220.000;   38.000
401.280; -136.400; -430.000; -429.000
401.408; -185.700; -712.000; -576.000
401.535; -168.900; -735.000; -758.000
401.663; -339.000;-1134.000;-1054.000
401.790; -138.600; -514.000; -525.000
401.918;  147.200;  436.000;  405.000
402.046;   39.600;  134.000;  122.000
402.173;    3.100;  -18.000;    7.000
402.301; -123.700; -519.000; -397.000
402.428;  125.400;  528.000;  383.000
402.556; -273.700;-1188.000; -913.000
402.683;  -32.200;  -20.000;   -1.000
402.811;  -47.600;  -37.000; -206.000
402.938;   44.400;   20.000;   27.000
403.066;  161.800; -574.000; -558.000
403.193;  398.500;  299.000;  239.000
403.321;  206.100; -396.000; -574.000
403.448;  386.100;   83.000;   27.000
403.575;  163.500;  -90.000;  -46.000
403.703; -165.400; -732.000; -557.000
403.830; -120.900; -531.000; -496.000
403.957; -274.900;-1117.000;-1023.000
404.085;   -0.200;  -61.000; -172.000
404.212;  158.300;  -50.000;   63.000
404.339;  254.300; -566.000; -306.000
404.467; 5660.300; -612.000; -524.000
404.594; 3558.700; -287.000; -227.000
404.721;  780.000; -869.000; -764.000
404.848;   61.200; -113.000; -202.000
404.976; -198.000; -856.000; -783.000
405.103;    4.100;  -14.000;  -82.000
405.230;   63.500;  190.000;  226.000
405.357;   35.600;  117.000;   44.000
405.484;  254.800;  -49.000;    5.000
405.612;  -27.400; -548.000; -563.000
405.739;  -81.000; -488.000; -243.000
405.866;  215.000;  669.000;  385.000
405.993;  -53.800; -398.000; -102.000
406.120; -260.500; -801.000; -887.000
406.247;  -86.000; -323.000; -342.000
406.374;  543.200;  540.000;  629.000
406.501;   28.800; -632.000; -702.000
406.628; -137.400; -621.000; -589.000
406.755; -169.500; -803.000; -620.000
406.882;  -78.400; -228.000; -277.000
407.009; -185.700; -719.000; -628.000
407.136;   25.600; -480.000; -401.000
407.263;   22.400; -939.000; -829.000
407.390; -149.400; -692.000; -614.000
407.517; -273.000;-1139.000;-1187.000
407.644;  -74.100; -332.000; -256.000
407.771;  -85.200; -249.000; -287.000
407.898;   48.700;  168.000;  328.000
408.025;  -86.600; -421.000; -313.000
408.151;   15.200;   82.000;  153.000
408.278;  -65.600; -267.000; -216.000
408.405; -227.900; -931.000; -899.000
408.532; -107.500; -549.000; -542.000
408.659; -172.000; -677.000; -648.000
408.785; -334.500;-1298.000;-1170.000
408.912;  -84.100; -412.000; -296.000
409.039; -168.500; -610.000; -686.000
409.166; -146.000; -591.000; -555.000
409.292; -168.200; -571.000; -534.000
409.419; -197.800; -665.000; -649.000
409.546; -105.400; -431.000; -192.000
409.672; -210.200; -713.000; -545.000
409.799;  -21.800;  -36.000;   34.000
409.926;  -47.500; -180.000; -179.000
410.052; -303.900;-1127.000;-1091.000
410.179; -120.300; -368.000; -392.000
410.305; -103.900; -375.000; -493.000
410.432;  -76.700; -220.000; -333.000
410.558; -129.900; -305.000; -380.000
410.685; -206.300; -688.000; -431.000
410.812; -154.200; -409.000; -588.000
410.938; -250.800; -964.000; -808.000
411.065; -134.000; -671.000; -645.000
411.191;  -12.300; -189.000; -174.000
411.317; -185.200; -823.000; -742.000
411.444;  -53.400; -317.000; -246.000
411.570;  -78.700; -339.000; -294.000
411.697; -203.400; -758.000; -752.000
411.823; -296.800; -989.000; -999.000
411.949;  -31.300;  -56.000;   17.000
412.076; -170.600; -539.000; -519.000
412.202; -206.500; -758.000; -757.000
412.329; -235.700; -798.000; -752.000
412.455; -175.000; -821.000; -657.000
412.581;   17.300;  -15.000;  172.000
412.707; -158.100; -540.000; -457.000
412.834;   46.600;  156.000;  219.000
412.960; -185.300; -785.000; -784.000
413.086; -189.100; -743.000; -701.000
413.212;  221.200;  604.000;  578.000
413.339; -194.700; -685.000; -701.000
413.465;  -40.600; -364.000; -310.000
413.591; -170.000; -757.000; -474.000
413.717; -100.300; -358.000; -366.000
413.843; -214.200; -839.000; -861.000
413.969;  -85.500;  -47.000; -292.000
414.096; -153.100; -679.000; -679.000
414.222;  -27.200;  -33.000;   85.000
414.348;  -64.500; -652.000; -385.000
414.474;  122.400;   38.000;  -52.000
414.600;    8.700; -126.000; -144.000
414.726;  -15.800;  -96.000;  -55.000
414.852;  -91.700; -365.000; -342.000
414.978;   62.500;  104.000;  -18.000
415.104;   78.100;   38.000;   80.000
415.230;  -29.200; -329.000; -330.000
415.356;    3.500; -409.000; -514.000
415.482;  215.200;   13.000;  -35.000
415.608;  281.900; -247.000; -323.000
415.734; 1009.600;   67.000;   38.000
415.860;20812.300; -875.000; -767.000
415.986;13710.800; -685.000; -607.000
416.111; 1064.900; -798.000; -652.000
416.237;  195.300; -424.000; -571.000
416.363; 1155.500; -765.000; -733.000
416.489; 4095.600; -324.000; -251.000
416.615;  312.700; -707.000; -742.000
416.741; -110.300; -677.000; -784.000
416.866; -185.900; -673.000; -736.000
416.992; -213.400; -801.000; -818.000
417.118;  -38.500;  -41.000;  -80.000
417.244; -152.700; -798.000; -531.000
417.369; -151.400; -801.000; -612.000
417.495;   -7.100; -325.000; -254.000
417.621; -186.400;-1015.000; -803.000
417.746;  -70.000; -579.000; -572.000
417.872;   99.000; -254.000; -144.000
417.998;   -6.300; -515.000; -530.000
418.123; 1010.100;-1073.000; -845.000
418.249; 5075.100; -512.000; -601.000
418.374;  567.000; -916.000; -824.000
418.500;   44.100; -383.000; -482.000
418.626;  137.000;   70.000;  -59.000
418.751;   51.900; -549.000; -448.000
418.877;  120.800; -637.000; -643.000
419.002; 1895.400; -688.000; -560.000
419.128;12337.000; -930.000; -721.000
419.253; 2630.100; -967.000; -837.000
419.379;  310.500; -391.000; -338.000
419.504;  442.600;  325.000;  415.000
419.629;  457.000; -393.000; -212.000
419.755; 3701.300; -317.000; -254.000
419.880;20706.100;  -98.000;   67.000
420.006;11553.600; -280.000; -221.000
420.131;29185.300; -662.000; -775.000
420.256; 3781.800; -315.000; -316.000
420.382;  438.400; -665.000; -687.000
420.507;  -38.000; -649.000; -778.000
420.632;  134.400; -337.000; -339.000
420.758;  282.300; -251.000; -425.000
420.883; -157.000; -876.000; -672.000
421.008; -170.100; -775.000; -619.000
421.133; -112.600; -509.000; -467.000
421.259;  -54.600; -325.000; -259.000
421.384; -186.200; -834.000; -693.000
421.509; -154.300;-1052.000; -862.000
421.634; 1313.400; -936.000; -820.000
421.759;  487.000; -359.000; -327.000
421.885; -112.400; -717.000; -656.000
422.010; -159.300; -673.000; -542.000
422.135; -236.200; -695.000; -727.000
422.260;   92.200;  340.000;  280.000
422.385;  -20.600;   12.000;  -98.000
422.510;   86.000;  151.000;  -26.000
422.635;   76.400;  -87.000;  -43.000
422.760;   91.800; -766.000; -791.000
422.885;  105.500;  -57.000;  -80.000
423.010;  -42.700; -112.000; -169.000
423.135; -146.300; -481.000; -561.000
423.260;  -21.700; -150.000; -245.000
423.385;  159.300;  476.000;  222.000
423.510;   67.100;   71.000;  -22.000
423.635;  102.300;  133.000;   45.000
423.760;  112.900;  383.000;  328.000
423.885;  132.200;  336.000;  391.000
424.010;   15.400;  -68.000;  -13.000
424.135;   -0.800;    5.000;  -33.000
424.259; -132.700; -654.000; -457.000
424.384;  -82.500; -279.000; -272.000
424.509;  -58.200; -260.000; -186.000
424.634; -191.800; -761.000; -623.000
424.759;  -86.900; -688.000; -544.000
424.883;  -40.500; -506.000; -527.000
425.008;  125.000; -502.000; -410.000
425.133; 2011.600; -679.000; -653.000
425.258;  773.800; -517.000; -381.000
425.382; 1194.300; -867.000; -774.000
425.507; 2808.600; -487.000; -543.000
425.632;  370.400; -802.000; -663.000
425.756;  425.300; -256.000; -146.000
425.881; 6799.600; -831.000; -857.000
426.006;16779.000; -604.000; -355.000
426.130; 2420.300; -696.000; -508.000
426.255;  268.000; -611.000; -491.000
426.379;  179.700; -189.000; -577.000
426.504;  498.600;  660.000;  544.000
426.629; 4122.000; -519.000; -466.000
426.753; 2615.300;   64.000;  -46.000
426.878;  280.200; -252.000; -288.000
427.002;   39.500; -651.000; -668.000
427.127; 1743.400;  -35.000; -158.000
427.251;11786.800;  372.000;  401.000
427.375; 3024.200; -191.000; -173.000
427.500; 2517.400; -616.000; -610.000
427.624;  820.600; -234.000; -400.000
427.749;  113.400; -216.000; -225.000
427.873; -109.600; -499.000; -412.000
427.997;  -64.100; -222.000; -230.000
428.122;  222.800;  795.000;  703.000
428.246;  129.200;  433.000;  434.000
428.371; -215.900; -869.000; -773.000
428.495; -166.000; -624.000; -646.000
428.619;   10.300; -186.000; -117.000
428.743;   71.600;   65.000;  132.000
428.868;  -68.700; -732.000; -643.000
428.992; 1587.400; -219.000; -326.000
429.116;  586.800; -329.000; -357.000
429.240;  374.900;  419.000;  426.000
429.365;  -40.300; -454.000; -574.000
429.489;  -96.000; -638.000; -647.000
429.613;   15.100; -236.000; -177.000
429.737;    4.100; -563.000; -432.000
429.861;  285.000; -247.000; -133.000
429.985; 5846.400; -425.000; -305.000
430.109; 5682.800; -770.000; -908.000
430.234;  667.200;   76.000;  -50.000
430.358;   48.700; -250.000; -160.000
430.482; -132.400; -672.000; -564.000
430.606;  -95.300; -655.000; -375.000
430.730;  -27.500; -437.000; -388.000
430.854;   46.300; -909.000; -835.000
430.978; -181.000; -795.000; -764.000
431.102; -124.700; -499.000; -422.000
431.226; -224.000; -874.000; -815.000
431.350;   93.600;  345.000;  422.000
431.474; -121.500; -661.000; -373.000
431.597; -270.200;-1060.000; -848.000
431.721;  -92.900; -276.000; -267.000
431.845; -199.100; -704.000; -472.000
431.969; -122.200; -304.000; -349.000
432.093; -150.400; -395.000; -317.000
432.217;    1.400;   32.000;   82.000
432.341; -130.300; -523.000; -518.000
432.464;   14.000;   96.000;   40.000
432.588;  148.100; -401.000; -329.000
432.712;   92.700;  -52.000;  -52.000
432.836;   96.000;  213.000;  263.000
432.959;  -31.600; -372.000; -311.000
433.083;  105.200;   11.000;    2.000
433.207;  456.200;  285.000;  930.000
433.330; 5259.400; -391.000; -200.000
433.454; 5782.400; -654.000; -638.000
433.578; 3538.000;  583.000;  278.000
433.701;  492.300; -623.000; -675.000
433.825;  124.900; -292.000; -299.000
433.949;  177.700;   28.000;  -72.000
434.072;    7.500; -410.000; -323.000
434.196;  -33.400; -309.000; -117.000
434.319; 7731.300;25482.000;25124.000
434.443;  707.700; -656.000; -603.000
434.566; 2641.700;  281.000;   62.000
434.690;  298.000; -637.000; -383.000
434.813;   36.200; -251.000; -173.000
434.937; -135.500; -569.000; -696.000
435.060;  -82.800; -423.000; -332.000
435.184;  313.600; -492.000; -217.000
435.307;  182.000;  159.000;  102.000
435.431;   18.000;  -40.000;   24.000
435.554;  -67.300; -399.000; -240.000
435.677;  -97.900; -350.000; -258.000
435.801;  -36.200;  -25.000;   49.000
435.924;   13.400;    1.000;  -67.000
436.048; -222.100;-1019.000; -732.000
436.171;  -71.800; -240.000;  -66.000
436.294;  -30.100; -248.000; -229.000
436.417;  -44.100; -963.000; -849.000
436.541; -190.000; -814.000; -840.000
436.664;  -30.100; -242.000; -316.000
436.787;   25.700;   13.000;  113.000
436.910; -215.500; -792.000; -422.000
437.034;   67.100;  142.000;  143.000
437.157;   82.200;  -11.000;    0.000
437.280;  -79.200; -392.000; -292.000
437.403; -211.100; -982.000; -869.000
437.526;  663.000; -903.000; -865.000
437.649; 2491.800; -505.000; -332.000
437.772;  260.500; -692.000; -540.000
437.896;  215.800;  700.000;  544.000
438.019; -138.800; -758.000; -503.000
438.142; -152.200; -596.000; -506.000
438.265;  -68.600; -639.000; -670.000
438.388;  504.300; -520.000; -410.000
438.511;   47.300; -597.000; -394.000
438.634;  -77.300; -247.000; -125.000
438.757; -221.300; -693.000; -619.000
438.880;  -14.800;  -34.000;  -57.000
439.003;  -85.000; -417.000; -437.000
439.126;  -99.600; -287.000; -167.000
439.248;  -51.500;  -98.000; -139.000
439.371;  -46.800;    9.000;  -53.000
439.494;  157.700;  510.000;  439.000
439.617;  -55.100;   65.000;  -88.000
439.740; -285.500; -968.000; -816.000
439.863; -218.900; -755.000; -595.000
439.986; -177.400; -476.000; -431.000
440.108;  -79.800; -161.000; -112.000
440.231; -293.100; -950.000; -836.000
440.354;  -35.800;  -64.000; -150.000
440.477;  -68.700; -566.000; -542.000
440.599;  -28.400; -200.000; -225.000
440.722; -156.500; -709.000; -586.000
440.845;  192.300;  751.000;  928.000
440.968; -153.500; -415.000; -311.000
441.090;  -56.300; -199.000;  -33.000
441.213; -291.200;-1021.000; -825.000
441.336;  -42.900; -159.000;   -5.000
441.458;  -93.100; -549.000; -396.000
441.581; -157.700; -628.000; -629.000
441.703;  -64.200; -152.000;   13.000
441.826; -188.100; -557.000; -400.000
441.948;  -43.600;   56.000;   51.000
442.071;  111.600;  555.000;  424.000
442.193; -176.800; -531.000; -485.000
442.316;   77.600;  152.000;   97.000
442.438;   18.800; -233.000;  -10.000
442.561;  116.800;  272.000;  262.000
442.683;  598.800; -809.000; -522.000
442.806; 1282.700;   -8.000;   74.000
442.928;  -77.700; -859.000; -604.000
443.051; -138.800; -577.000; -373.000
443.173; -105.200; -341.000; -339.000
443.295; -146.900; -263.000; -371.000
443.418;  -75.200; -321.000;  -29.000
443.540;   -4.000; -106.000;   -4.000
443.662; -176.200; -563.000; -465.000
443.785;   23.400;  335.000;  199.000
443.907; -169.000; -362.000; -208.000
444.029; -220.600; -767.000; -494.000
444.152; -238.100; -644.000; -554.000
444.274;  -23.900;  -18.000;  -24.000
444.396; -155.200; -461.000; -221.000
444.518; -217.800; -691.000; -454.000
444.640; -115.000; -268.000; -111.000
444.763;    0.600;  388.000;  249.000
444.885; -162.800; -432.000; -392.000
445.007;   -4.600;   35.000;   86.000
445.129; -169.900; -610.000; -515.000
445.251; -153.400; -372.000; -439.000
445.373; -234.500; -537.000; -386.000
445.495;   43.100;  242.000;  350.000
445.617;  201.000;  853.000;  753.000
445.739; -120.000; -215.000;  -97.000
445.861;   10.400; -245.000; -112.000
445.984;  -51.800; -267.000; -101.000
446.105;  234.100; -418.000; -251.000
446.227;  700.600; -176.000;  -19.000
446.349;  -46.200; -358.000; -249.000
446.471; -187.000; -615.000; -448.000
446.593; -106.900; -316.000;   19.000
446.715;   -5.600;  -67.000;   41.000
446.837;  184.800;  697.000;  832.000
446.959; -166.500; -457.000; -478.000
447.081; -180.300; -628.000; -518.000
447.203;  159.900;  862.000;  834.000
447.325;  -97.600; -270.000;   42.000
447.446;   38.000;  286.000;  530.000
447.568; -256.700; -921.000; -803.000
447.690; -116.000; -236.000; -245.000
447.812; -214.000; -798.000; -519.000
447.933;    0.800;  155.000;  127.000
448.055;  -63.200; -306.000; -261.000
448.177;  194.600;   31.000;   79.000
448.299;  -21.500; -935.000; -727.000
448.420;   55.700;  -25.000;  159.000
448.542;  -32.600;   -3.000;   33.000
448.664;   48.000;  109.000;  322.000
448.785;   15.200;  265.000;   83.000
448.907; -142.400; -614.000; -353.000
449.028;  -86.900; -771.000; -471.000
449.150;  156.700;  492.000;  589.000
449.272; -274.200;-1044.000; -913.000
449.393;   99.000;  612.000;  694.000
449.515; -190.900; -634.000; -581.000
449.636; -105.800; -264.000; -155.000
449.758;  186.200;  763.000;  622.000
449.879; -141.900; -498.000; -396.000
450.001;  -66.200; -149.000;  -49.000
450.122;  -29.300;  -95.000;  162.000
450.244;   44.300;   37.000;  364.000
450.365; -146.400; -495.000; -301.000
450.486;   -1.700;   80.000;  268.000
450.608;   75.700;  393.000;  326.000
450.729;  168.900;  578.000;  645.000
450.850; -108.200; -574.000; -466.000
450.972;  748.800; -552.000; -389.000
451.093; 4974.700;  190.000;  588.000
451.214; 1884.500; -516.000; -337.000
451.336;  427.300;  773.000;  579.000
451.457;  122.200;  264.000;  393.000
451.578;  -98.200; -118.000;  -74.000
451.699; -175.200; -546.000; -540.000
451.821;  -82.500; -284.000;  -50.000
451.942;   40.900;  278.000;  285.000
452.063;   83.900;  228.000;  419.000
452.184;  568.700;  -54.000;  -49.000
452.305; 1094.800;  103.000;  170.000
452.427;   25.300; -549.000; -301.000
452.548;  -38.000;   23.000;   79.000
452.669;  -87.500; -257.000;  -89.000
452.790;  -31.900;    3.000;  -18.000
452.911;   42.500;  195.000;  259.000
453.032; -115.200; -289.000;  -60.000
453.153;  -23.100;  -29.000;   81.000
453.274;  138.000;  737.000;  868.000
453.395;  -27.200;  -51.000;  175.000
453.516;  309.900; 1317.000; 1388.000
453.637; -111.800; -205.000; -150.000
453.758;  -67.200;   15.000;   69.000
453.879; -164.200; -462.000; -250.000
454.000;  219.300; 1086.000;  948.000
454.121; -184.200; -554.000; -326.000
454.242; -175.900; -599.000; -383.000
454.362;  -30.800;  -99.000;  114.000
454.483;  -59.100; -309.000; -229.000
454.604;  111.200;  512.000;  580.000
454.725; -224.500; -627.000; -555.000
454.846; -222.500; -474.000; -406.000
454.967;   25.900;  230.000;  539.000
455.087;   -5.500;  179.000;  153.000
455.208;   96.900;  554.000;  856.000
455.329;  -43.000;  -22.000;   82.000
455.450;  111.000;  473.000;  633.000
455.570; -123.600; -234.000; -211.000
455.691;  -24.300;  201.000;  407.000
455.812; -135.300; -270.000;  -92.000
455.932;  -25.100;  107.000;  -97.000
456.053;  -84.700;   36.000;   24.000
456.173; -163.000; -433.000; -355.000
456.294; -178.900; -476.000; -303.000
456.415;  -79.000;  -73.000;   70.000
456.535;    0.400;  297.000;  273.000
456.656;  -47.300;  132.000;  240.000
456.776;  -47.500;    3.000;  298.000
456.897;   79.900;  308.000;  513.000
457.017;  -83.800; -153.000;   -3.000
457.138; -147.900; -402.000; -249.000
457.258;   15.000;  263.000;  224.000
457.379;   17.100;  509.000;  521.000
457.499;   36.100;  443.000;  432.000
457.620; -173.700; -407.000; -231.000
457.740; -126.100; -132.000;  -11.000
457.860;  -42.800;   87.000;   44.000
457.981;   -7.800;  132.000;  124.000
458.101; -115.100;  -89.000;   40.000
458.221;   38.000;  336.000;  402.000
458.342;  -39.100;   -4.000;  -37.000
458.462;   72.000;  617.000;  352.000
458.582;  -58.700; -302.000; -294.000
458.703;   44.500;  303.000;  154.000
458.823;  -22.100;   22.000;  163.000
458.943;   80.100;  341.000;  467.000
459.063;    7.700; 1124.000;  192.000
459.183;    4.700;  328.000;  313.000
459.304;   50.400;  315.000;  517.000
459.424;  -58.200; -246.000;  -89.000
459.544;  429.300;  388.000;  764.000
459.664;  931.400;  499.000;  506.000
459.784;  436.600; 1004.000; 1175.000
459.904;  150.200;  867.000;  744.000
460.024;  192.500;  867.000;  684.000
460.144;   54.100;  449.000;  554.000
460.264;   48.100;  515.000;  327.000
460.385; -135.500; -145.000; -119.000
460.505;  136.100;  905.000;  858.000
460.625; -119.600;  -17.000;  -68.000
460.745;   19.400;  396.000;  541.000
460.864;  -19.900;  153.000;  469.000
460.984;   20.100;  499.000;  573.000
461.104;  365.800; 1656.000; 1775.000
461.224;   92.300;  657.000;  650.000
461.344;   -2.100;  431.000;  360.000
461.464;  -54.100;  258.000;  513.000
461.584;   56.300;  283.000;  466.000
461.704;  -66.800;   58.000;  108.000
461.824;  -36.500;  238.000;  259.000
461.943;  -37.500;  191.000;  130.000
462.063;  -60.400;    2.000;  324.000
462.183;  110.800;  639.000;  717.000
462.303;  278.100; 1678.000; 1230.000
462.422;   90.400;  781.000;  840.000
462.542;    5.800;  271.000;  391.000
462.662;   86.500;  353.000;  380.000
462.782;  312.200;  833.000;  572.000
462.901;  522.900;  545.000;  717.000
463.021;  517.500; 1702.000; 1638.000
463.141;   26.200;  337.000;  770.000
463.260;   27.000;  614.000;  474.000
463.380;  110.100;  902.000;  884.000
463.499;    6.300;  342.000;  332.000
463.619;  -30.100;  581.000;  559.000
463.738;  313.300; 1644.000;  903.000
463.858;  124.600;  657.000;  811.000
463.978;    3.900;  542.000;  396.000
464.097;  180.300;  921.000; 1114.000
464.217;  267.500; 1196.000; 1143.000
464.336;  254.900; 1068.000; 1130.000
464.455;  -19.500;  328.000;  659.000
464.575;  105.000;  597.000;  602.000
464.694;  326.100; 1204.000; 1179.000
464.814;  243.900; 1190.000; 1138.000
464.933;  237.500; 1095.000; 1027.000
465.052;  260.000; 1412.000; 1054.000
465.172;  198.700;  922.000;  799.000
465.291;  272.800; 1376.000; 1320.000
465.410;  117.500;  462.000;  735.000
465.530;  209.500; 1355.000; 1310.000
465.649;  198.900; 1209.000; 1273.000
465.768;  328.400; 1673.000; 1508.000
465.888;  164.400;  941.000; 1174.000
466.007;  252.200; 1335.000; 1440.000
466.126;   65.800;  721.000;  641.000
466.245;  149.700; 1176.000; 1187.000
466.364;  119.700;  950.000; 1060.000
466.484;  181.700; 1024.000; 1213.000
466.603;  169.500; 1101.000; 1222.000
466.722;  288.800; 1490.000; 1769.000
466.841;  225.000; 1151.000; 1401.000
466.960;  144.000; 1069.000;  972.000
467.079;  363.700; 1971.000; 1786.000
467.198;  212.900; 1238.000; 1181.000
467.317;  281.300; 1768.000; 1162.000
467.436;  213.200; 1709.000; 1261.000
467.555;  383.400; 1796.000; 1746.000
467.674;  194.100; 1227.000; 1329.000
467.793;  160.500; 1376.000; 1374.000
467.912;  246.100; 1658.000; 1539.000
468.031;  387.400; 2038.000; 1930.000
468.150;  344.600; 1842.000; 1837.000
468.269;  471.800; 2313.000; 2090.000
468.388;  436.300; 2168.000; 2339.000
468.507;  627.600; 2884.000; 2903.000
468.626;  600.300; 2555.000; 2541.000
468.744;  357.500; 2018.000; 2174.000
468.863;  425.100; 2312.000; 2523.000
468.982;  265.200; 1503.000; 1555.000
469.101;  539.700; 2788.000; 2692.000
469.220;  397.300; 2333.000; 2176.000
469.338;  605.500; 2935.000; 3051.000
469.457;  477.800; 2719.000; 2545.000
469.576;  745.700; 3953.000; 3784.000
469.695;  547.000; 2877.000; 3066.000
469.813;  949.300; 4148.000; 4192.000
469.932;  904.200; 4255.000; 4485.000
470.051;  864.700; 4075.000; 4161.000
470.169; 1387.600; 4470.000; 4338.000
470.288; 1997.000; 4700.000; 4809.000
470.406; 1424.000; 5059.000; 5194.000
470.525; 1281.700; 6101.000; 5787.000
470.644; 1377.800; 6847.000; 6794.000
470.762; 1711.300; 8397.000; 7873.000
470.881; 1852.600; 8651.000; 8464.000
470.999; 2091.100; 9685.000; 9151.000
471.118; 2295.100;11174.000;10711.000

