
Integration time [ms]: 100.000
Averaging Nr. [scans]: 40
Smoothing Nr. [pixels]: 0
Data measured with spectrometer [name]: 2101012U2
Wave   ;Sample   ;Dark     ;Reference
[nm]   ;[counts] ;[counts] ;[counts] 

197.733;   65.500;  516.000;  404.000
197.879;  -72.850; -610.000; -634.000
198.025;  -47.500; -475.000; -420.000
198.171;  -63.775; -602.000; -612.000
198.317;  -31.525; -401.000; -316.000
198.463;  -58.250; -655.000; -404.000
198.609;   26.275;  181.000; -137.000
198.755;  -81.025; -644.000; -410.000
198.901;  -64.125; -505.000; -424.000
199.047;  -63.700; -615.000; -488.000
199.193;  -45.375; -230.000; -468.000
199.339;  -32.675; -222.000; -369.000
199.485;   46.225;  330.000;  271.000
199.631;   25.375;  227.000;  310.000
199.777;  -48.600; -466.000; -398.000
199.923;  -62.100; -610.000; -424.000
200.069;    3.625; -141.000;  -58.000
200.215;   64.825;  128.000;  453.000
200.361;   47.675;  243.000;  477.000
200.507;  -64.550; -600.000; -373.000
200.653;  -27.200; -371.000; -194.000
200.798;  -28.675; -215.000; -125.000
200.944;   -5.400; -146.000;  -41.000
201.090;   42.350;   61.000;  222.000
201.236;   -4.675; -116.000; -158.000
201.382;  131.675;  874.000;  903.000
201.528;   -0.450;  -58.000;  -48.000
201.674;  -47.050; -386.000; -293.000
201.819;  -54.925; -540.000; -439.000
201.965;  -74.400; -699.000; -447.000
202.111;  -15.150; -273.000; -226.000
202.257;  -35.025; -250.000; -238.000
202.402;    6.475;   13.000;  -36.000
202.548;  -17.950; -169.000; -116.000
202.694;   86.750;  410.000; -183.000
202.840;  -61.350; -603.000; -531.000
202.985;  -84.350; -681.000; -639.000
203.131; -101.625; -832.000; -666.000
203.277;  -23.225; -199.000; -262.000
203.423;  -60.875; -434.000; -520.000
203.568;  -32.050; -462.000; -237.000
203.714;  -57.925; -535.000; -542.000
203.860;  -83.350; -682.000; -641.000
204.005;   23.950;  112.000;  167.000
204.151;   85.425;  561.000;  556.000
204.296;  -49.250; -354.000; -221.000
204.442;  -68.825; -600.000; -547.000
204.588;  -72.575; -592.000; -579.000
204.733;   24.275;  178.000;  168.000
204.879; -132.625;-1018.000; -822.000
205.025;   19.725;  -99.000;  126.000
205.170;    7.950;  -17.000;   94.000
205.316;   75.475;  438.000;  661.000
205.461;  -87.600; -698.000; -554.000
205.607;   89.050;  609.000;  665.000
205.752;  -73.050; -626.000; -551.000
205.898;  -55.850; -501.000; -391.000
206.043;  -69.375; -578.000; -506.000
206.189;  -33.525; -243.000; -285.000
206.334;   69.075;  554.000;  606.000
206.480;   78.400;  409.000;  239.000
206.625;  -74.925; -529.000; -552.000
206.771;  -36.700; -451.000; -373.000
206.916;  -27.300; -210.000; -537.000
207.062;  -79.650; -545.000; -591.000
207.207;  -67.900; -546.000; -443.000
207.353;   44.225;  185.000;  460.000
207.498;   27.000;  196.000;   85.000
207.643;  -41.750; -501.000; -370.000
207.789; -125.400;-1069.000; -910.000
207.934;  -91.500; -665.000; -713.000
208.080;  -26.900; -154.000;   66.000
208.225;   -7.425;  -22.000;  -57.000
208.370;  -82.925; -727.000; -619.000
208.516;  -66.175; -741.000; -487.000
208.661;  -18.675; -127.000;  -69.000
208.806;   -7.325; -165.000; -171.000
208.952; -110.125;-1044.000; -731.000
209.097;   84.175;  378.000;  349.000
209.242;  -39.725; -307.000; -382.000
209.387;   69.200;  392.000;  350.000
209.533;  -44.525; -321.000; -350.000
209.678;   76.800;  472.000;  543.000
209.823;  -46.500; -408.000; -310.000
209.969;  -93.200; -860.000; -757.000
210.114; -105.300; -907.000; -719.000
210.259; -101.750; -939.000; -889.000
210.404;  -10.600; -171.000;  103.000
210.549;    8.650;  108.000;    3.000
210.695;   -3.400;   -3.000;  -95.000
210.840;   43.425;   94.000;   67.000
210.985;  -60.225; -484.000; -303.000
211.130;   69.825;  268.000;  406.000
211.275;   24.150;  207.000;  199.000
211.420;  -48.050; -300.000; -289.000
211.566;  -69.125; -536.000; -489.000
211.711;   27.400;  218.000;  157.000
211.856;  -63.200; -545.000; -519.000
212.001;   10.775;  151.000;   44.000
212.146;   31.150;  153.000;   49.000
212.291;  -19.125; -210.000; -186.000
212.436;  -27.600; -280.000;   -6.000
212.581;  -83.850; -685.000; -653.000
212.726;  -63.800; -487.000; -538.000
212.871;  -35.350; -552.000; -217.000
213.016; -159.600;-1172.000;-1029.000
213.161;   70.150;  406.000;  291.000
213.306;  -77.100; -435.000; -577.000
213.451;  -89.925; -778.000; -689.000
213.596;  -44.800; -455.000; -347.000
213.741;  -59.425; -448.000; -538.000
213.886;  -77.700; -498.000; -517.000
214.031;  -19.700; -294.000; -124.000
214.176;  -47.775; -408.000; -341.000
214.321;  -11.500; -296.000; -157.000
214.466;  -24.225; -163.000;  -43.000
214.611;    2.650;  -61.000;  -10.000
214.756; -110.750; -948.000; -858.000
214.901;  -18.925; -388.000; -226.000
215.046; -122.200; -797.000; -825.000
215.191;    8.675;  128.000;   35.000
215.336;   -7.450; -157.000;  -19.000
215.480;  -57.600; -684.000; -505.000
215.625;   -7.325; -175.000;  -19.000
215.770;  -90.325; -757.000; -662.000
215.915;   -4.275;   -5.000;  -97.000
216.060;    6.475; -113.000;  -21.000
216.205; -105.400; -731.000; -779.000
216.349;  -71.425; -470.000; -533.000
216.494; -134.750; -939.000; -867.000
216.639; -112.150; -823.000; -888.000
216.784;  -86.500; -577.000; -525.000
216.929;   58.550;  392.000;  281.000
217.073;  -15.475; -244.000;  -31.000
217.218;    8.425;   78.000;  -47.000
217.363;  -78.050; -656.000; -618.000
217.507;  -79.625; -623.000; -588.000
217.652; -112.775; -845.000; -874.000
217.797;  -93.700; -708.000; -659.000
217.942; -101.500; -856.000; -720.000
218.086;   79.075;  608.000;  539.000
218.231;   -5.850; -174.000;  -26.000
218.376;  -29.000; -337.000; -229.000
218.520;    5.525;  -41.000;   96.000
218.665;  -30.175; -338.000; -204.000
218.810;  -34.700; -275.000; -233.000
218.954;   19.950;  201.000;   35.000
219.099; -109.225; -713.000; -963.000
219.243;  -66.775; -589.000; -554.000
219.388;  -23.325; -264.000; -136.000
219.532;   -5.125; -116.000; -116.000
219.677;  -70.225; -564.000; -521.000
219.822;    0.325;   33.000;   89.000
219.966;    6.775;   17.000;  -99.000
220.111;  -20.075; -328.000;  -40.000
220.255;  -90.925; -797.000; -750.000
220.400;   -8.200; -180.000; -146.000
220.544;  -66.250; -516.000; -450.000
220.689;  -50.875; -422.000; -451.000
220.833;  -19.350; -123.000;  -58.000
220.978;  -37.625; -393.000; -563.000
221.122;   22.525;  319.000;  307.000
221.267; -119.675; -906.000; -837.000
221.411;  -69.800; -478.000; -394.000
221.555;    4.575; -104.000;  -23.000
221.700;  -41.600; -329.000; -222.000
221.844;   40.200;  255.000;  272.000
221.989;  -43.100; -328.000; -311.000
222.133;  -31.200; -289.000; -307.000
222.277;  -11.500;    5.000;   78.000
222.422;   21.050;  227.000;  113.000
222.566;  -37.175; -381.000; -214.000
222.711;  -61.475; -414.000; -479.000
222.855;  -78.850; -643.000; -586.000
222.999;  -73.025; -642.000; -717.000
223.144;  -25.650; -195.000; -194.000
223.288;   58.425;  423.000;  251.000
223.432;   35.950;  184.000;  230.000
223.576;   12.850;  152.000;  -21.000
223.721;   40.725;  364.000;  273.000
223.865;  -64.125; -472.000; -475.000
224.009;  272.650; 1673.000; 1631.000
224.153;  -78.450; -660.000; -671.000
224.298;  -53.900; -531.000; -489.000
224.442;   -2.450;  -74.000;  -33.000
224.586;  -14.125; -169.000; -106.000
224.730;  -97.575; -858.000; -670.000
224.875; -113.975; -739.000; -688.000
225.019;   13.775;  102.000;  188.000
225.163;   54.825;  208.000;  341.000
225.307;   13.575;   97.000;  -91.000
225.451;   57.950;  360.000;  481.000
225.595;   33.425;  264.000;  176.000
225.739;  -13.475; -170.000;  -94.000
225.884;   -3.250;   86.000;    5.000
226.028; -100.600; -760.000; -626.000
226.172;  -40.975; -260.000; -273.000
226.316; -117.225; -941.000; -902.000
226.460;  -67.150; -645.000; -493.000
226.604;  -54.225; -406.000; -400.000
226.748;  -88.125; -836.000; -733.000
226.892;  -32.450; -227.000; -181.000
227.036;  -48.100; -537.000; -447.000
227.180;  -66.400; -551.000; -375.000
227.324;  -62.550; -561.000; -580.000
227.468; -113.425; -819.000; -717.000
227.612;    1.975;  242.000;  -28.000
227.756;  -35.575; -845.000; -698.000
227.900;   49.750;  342.000;  441.000
228.044;  -49.275; -509.000; -290.000
228.188;   64.275;  448.000;  568.000
228.332;  -78.650; -546.000; -472.000
228.476;  -25.675; -223.000; -149.000
228.620;  -33.625; -210.000; -150.000
228.764;   53.625;  431.000;  349.000
228.908;   -7.750; -155.000;   30.000
229.052;  -53.525; -615.000; -528.000
229.195;  -18.025; -172.000;   13.000
229.339;  -22.425; -235.000; -305.000
229.483;  -31.925;    5.000; -162.000
229.627;   -6.425; -156.000;  139.000
229.771;  -42.950; -218.000; -294.000
229.915;   28.075;  230.000;   79.000
230.059;  -88.050; -648.000; -663.000
230.202;  -39.200; -370.000; -317.000
230.346;    4.825; -107.000;  107.000
230.490;  -68.375; -489.000; -521.000
230.634; -117.925; -736.000; -553.000
230.777;   86.500;  478.000;  509.000
230.921;  -56.475; -450.000; -359.000
231.065;  -44.000; -246.000; -286.000
231.209;   36.250;  261.000;  265.000
231.352;   26.125;   54.000;   40.000
231.496;   13.500;  568.000;  188.000
231.640;  -86.075; -693.000; -621.000
231.783;   64.850;  546.000;  525.000
231.927;  -43.900; -294.000; -365.000
232.071; -111.775; -962.000; -736.000
232.214; -120.925; -980.000; -764.000
232.358;  -91.550; -683.000; -599.000
232.502;   16.150;  -19.000;    7.000
232.645; -141.650;-1090.000; -927.000
232.789;  -21.125; -257.000; -218.000
232.933;  -51.375; -407.000; -224.000
233.076; -130.325;-1038.000; -897.000
233.220;  -93.075; -752.000; -777.000
233.363;  -77.325; -669.000; -477.000
233.507;   58.400;  371.000;  129.000
233.650;  -83.750; -764.000; -834.000
233.794;   61.425;  438.000;  461.000
233.938;  -57.200; -530.000; -362.000
234.081;   -3.950;  -93.000;   31.000
234.225;  -68.500; -631.000; -539.000
234.368; -103.150; -773.000; -723.000
234.512;  -44.625; -385.000; -299.000
234.655;  -86.450; -582.000; -555.000
234.798;  -77.100; -493.000; -466.000
234.942; -126.375; -884.000;-1002.000
235.085;  -76.675; -651.000; -443.000
235.229;  -67.300; -405.000; -410.000
235.372;  -46.250; -247.000; -191.000
235.516;  -44.600; -397.000; -321.000
235.659;   24.550;   92.000;  121.000
235.802;  -10.675;  -38.000;  -22.000
235.946;   37.400;  335.000;  215.000
236.089;   23.425;  126.000;  250.000
236.233;   62.750;  275.000;  298.000
236.376;  -62.700; -235.000; -378.000
236.519;  -45.125; -297.000; -319.000
236.663;  -26.675; -215.000; -117.000
236.806; -134.600;-1029.000; -999.000
236.949;   53.350;  543.000;  431.000
237.092;   62.225;  412.000;  391.000
237.236;  -77.550; -589.000; -502.000
237.379;   70.450;  352.000;  428.000
237.522; -116.200; -879.000; -768.000
237.666;  -11.800; -271.000;   18.000
237.809; -115.150; -851.000; -823.000
237.952;   35.625;  469.000;  271.000
238.095;  -75.950; -447.000; -442.000
238.238;   94.600;  688.000;  700.000
238.382;   21.600;  166.000;  103.000
238.525;  -66.750; -598.000; -511.000
238.668; -137.425;-1060.000; -985.000
238.811;  -83.425; -638.000; -643.000
238.954;  -69.875; -483.000; -334.000
239.097;   98.875;  617.000;  664.000
239.241;   29.775;  394.000;  326.000
239.384;  -30.800; -254.000; -214.000
239.527;  -47.500; -424.000; -224.000
239.670; -151.075; -994.000;-1091.000
239.813; -113.825; -696.000; -658.000
239.956;   71.975;  579.000;  473.000
240.099; -108.775; -778.000; -725.000
240.242;   54.125;  428.000;  432.000
240.385;   63.300;  466.000;  450.000
240.528;  -74.925; -706.000; -473.000
240.671;   22.975;  189.000;  134.000
240.814;  -37.525; -441.000; -158.000
240.957;  -86.000; -767.000; -578.000
241.100;  -80.350; -779.000; -755.000
241.243; -138.300;-1234.000; -893.000
241.386;  -68.075; -508.000; -379.000
241.529;  -88.575; -735.000; -547.000
241.672;  -69.475; -566.000; -495.000
241.815; -120.275; -832.000; -808.000
241.958;  -23.950; -125.000; -182.000
242.101;  -79.125; -545.000; -390.000
242.244;  -28.275; -270.000; -325.000
242.387;  -51.100; -304.000; -246.000
242.530;   47.600;  470.000;  134.000
242.673;  -33.075; -381.000; -309.000
242.815; -120.125; -925.000; -899.000
242.958;  -78.325; -482.000; -381.000
243.101;   16.900;  132.000;  187.000
243.244;  -73.900; -564.000; -521.000
243.387;  -49.375; -313.000; -316.000
243.530; -105.075; -657.000; -674.000
243.672;    4.675;   43.000;  -92.000
243.815;  -43.000; -355.000; -283.000
243.958;    8.650;   98.000;  -26.000
244.101;    8.925;   59.000;  -16.000
244.243;    2.150;  -47.000;  101.000
244.386; -102.875; -761.000; -630.000
244.529;  -15.500; -132.000; -139.000
244.672; -167.225;-1154.000; -951.000
244.814;  -84.550; -621.000; -794.000
244.957;  -74.450; -380.000; -304.000
245.100;  -68.500; -489.000; -489.000
245.242;  -64.500; -387.000; -374.000
245.385;   -9.925;  -59.000;  -39.000
245.528; -112.150; -871.000; -705.000
245.670;   88.900;  612.000;  634.000
245.813;  -78.800; -599.000; -547.000
245.956;  -29.950; -324.000; -275.000
246.098;  -72.475; -508.000; -650.000
246.241;    8.700;  194.000;   48.000
246.383;  -12.175; -119.000;  -73.000
246.526;  -70.125; -454.000; -525.000
246.669; -119.975; -889.000; -780.000
246.811;   17.050;  172.000;   -1.000
246.954;  -67.275; -512.000; -426.000
247.096;  -13.500;  -84.000;   -6.000
247.239;  -58.650; -482.000; -445.000
247.381;  -64.975; -647.000; -488.000
247.524;   84.675;  645.000;  679.000
247.666;   -5.450;   58.000;   11.000
247.809; -128.475; -887.000; -691.000
247.951;  -15.500;  -75.000;  138.000
248.094;   21.800;  432.000;  308.000
248.236; -164.050;-1262.000;-1238.000
248.378;    0.900; -356.000;  -81.000
248.521;  -18.100; -334.000; -337.000
248.663;  -40.400; -236.000; -267.000
248.806;  -17.675; -300.000; -266.000
248.948;  -83.075; -886.000; -763.000
249.090;  -50.475; -428.000; -398.000
249.233;  -37.675; -344.000; -381.000
249.375;  -57.075; -474.000; -451.000
249.518;  -21.425;  -83.000; -133.000
249.660;   -4.925; -103.000;    3.000
249.802; -166.925;-1303.000;-1189.000
249.945;  -70.300; -612.000; -540.000
250.087; -116.700; -834.000; -768.000
250.229;  -59.750; -362.000; -480.000
250.371;  -74.400; -494.000; -439.000
250.514;  -44.675; -310.000; -244.000
250.656;   -5.175;   69.000;  102.000
250.798; -102.375; -849.000; -800.000
250.940;  -53.900; -322.000; -322.000
251.083;  -13.650; -335.000; -111.000
251.225;   75.300;  338.000;  310.000
251.367;  -43.050; -274.000; -373.000
251.509;  -26.150; -265.000; -210.000
251.651; -100.825; -731.000; -671.000
251.794;   75.000;  538.000;  632.000
251.936; -108.250; -821.000; -747.000
252.078;  -79.275; -540.000; -461.000
252.220;  -69.100; -645.000; -477.000
252.362;   88.800;  344.000;  462.000
252.504;  -64.025; -677.000; -584.000
252.646; -110.600; -875.000; -722.000
252.788;   -0.525;   14.000; -128.000
252.931;  -22.750; -257.000; -253.000
253.073;  -36.700; -376.000; -317.000
253.215;   -8.975;  141.000;  122.000
253.357;   -9.800;   82.000; -153.000
253.499;  -48.650; -374.000; -234.000
253.641;  -84.250; -749.000; -594.000
253.783;  -88.225; -609.000; -527.000
253.925;  -93.700; -586.000; -591.000
254.067; -102.475; -744.000; -667.000
254.209;  -34.600; -391.000; -259.000
254.351; -135.325; -865.000; -883.000
254.493;  -56.925; -441.000; -417.000
254.635; -137.550; -936.000; -818.000
254.777;  -93.600; -752.000; -687.000
254.918;  -59.250; -512.000; -430.000
255.060;  -64.925; -551.000; -395.000
255.202;  -55.150; -473.000; -261.000
255.344;  -74.475; -658.000; -455.000
255.486;  -53.050; -471.000; -406.000
255.628; -105.025; -780.000; -781.000
255.770;  -96.450; -676.000; -536.000
255.912;  -72.950; -559.000; -468.000
256.053;  -95.025; -730.000; -508.000
256.195;  153.625; 1008.000;  903.000
256.337;  -97.100; -861.000; -595.000
256.479;   71.025;  532.000;  416.000
256.621;  -48.800; -394.000; -212.000
256.762; -101.700; -789.000; -742.000
256.904;   63.325;  485.000;  487.000
257.046;  -38.875; -381.000; -271.000
257.188;  -50.775; -351.000; -264.000
257.329;  -72.600; -525.000; -464.000
257.471; -118.075; -939.000; -807.000
257.613;  -69.375; -584.000; -498.000
257.755; -140.850;-1073.000; -982.000
257.896;   42.250;  286.000;  392.000
258.038;  -65.975; -403.000; -352.000
258.180;  -44.550; -354.000; -279.000
258.321;  -75.000; -581.000; -457.000
258.463;   11.950;  -71.000;  133.000
258.605;  -87.375; -562.000; -570.000
258.746; -104.850; -886.000; -772.000
258.888; -141.525;-1026.000;-1020.000
259.029;   21.775;  121.000;   -8.000
259.171;  -81.800; -614.000; -550.000
259.313;   -6.050;  -49.000;  -47.000
259.454;  -53.250; -536.000; -414.000
259.596;  -48.775; -483.000; -390.000
259.737;  -75.775; -590.000; -474.000
259.879;   28.675;  217.000;  311.000
260.020;   88.050;  901.000;  636.000
260.162;  -26.650; -146.000; -253.000
260.303; -124.725; -768.000; -687.000
260.445;  -81.350; -609.000; -613.000
260.586;   33.050;  392.000;  157.000
260.728;  -43.075; -360.000; -248.000
260.869;  -62.750; -350.000; -343.000
261.011;   84.600;  706.000;  537.000
261.152;  -54.950; -479.000; -319.000
261.293;  -80.675; -576.000; -595.000
261.435;  -39.150; -219.000; -184.000
261.576;  -41.500; -455.000; -325.000
261.718;   63.475;  420.000;  470.000
261.859; -128.075; -940.000; -949.000
262.000; -140.375; -951.000;-1016.000
262.142;  -26.875;  -52.000;  -60.000
262.283; -112.950; -808.000; -691.000
262.424;  -94.700; -666.000; -625.000
262.566; -151.225;-1161.000; -983.000
262.707; -112.050; -840.000; -830.000
262.848; -132.425; -769.000; -726.000
262.990;  -32.700; -362.000; -345.000
263.131;   84.825;  650.000;  681.000
263.272;   13.300;  -61.000;  -41.000
263.413;  -88.400; -589.000; -561.000
263.555;  -61.225; -669.000; -143.000
263.696;  -80.700; -550.000; -641.000
263.837;  -64.525; -449.000; -551.000
263.978;    3.750;   -5.000;  -77.000
264.119;  -43.875; -283.000; -264.000
264.261; -114.675; -847.000; -630.000
264.402;   10.800;   33.000;   40.000
264.543;  -70.000; -509.000; -524.000
264.684;    2.125;   61.000;  -50.000
264.825;  -76.650; -816.000; -538.000
264.966;   -6.950;  -84.000;  -67.000
265.107; -115.275; -646.000; -670.000
265.248; -109.875; -825.000; -812.000
265.390;  -18.425;  152.000;   -9.000
265.531;  -22.200; -238.000; -107.000
265.672;  -94.900; -557.000; -630.000
265.813;   56.025;  563.000;  439.000
265.954; -149.375; -959.000; -940.000
266.095;  -15.100; -372.000; -322.000
266.236;  -85.975; -686.000; -548.000
266.377;  -22.900; -243.000; -297.000
266.518;  -73.100; -619.000; -547.000
266.659;   42.275;  170.000;  268.000
266.800;    9.150;   83.000;   85.000
266.941;  -67.600; -487.000; -478.000
267.082;   35.175;  354.000;   99.000
267.223;  -54.050; -344.000; -273.000
267.364; -131.100; -892.000; -686.000
267.504;  -20.375;    3.000;  135.000
267.645;    0.575;  160.000;   67.000
267.786;  -26.825; -147.000;  -86.000
267.927;  -75.650; -473.000; -379.000
268.068;   -1.875; -186.000;  -61.000
268.209;  -42.100; -175.000; -413.000
268.350;  -67.250; -388.000; -532.000
268.490;  -83.475; -648.000; -521.000
268.631;   36.700;  127.000;  225.000
268.772; -106.375; -874.000; -647.000
268.913;  -44.125; -328.000; -476.000
269.054;   -9.075; -117.000;   12.000
269.194;  -41.475; -418.000; -402.000
269.335; -142.650;-1137.000;-1074.000
269.476;   -7.950;   33.000;  -35.000
269.617;  -39.600; -347.000; -392.000
269.757;  -67.725; -713.000; -646.000
269.898; -100.150; -856.000; -613.000
270.039;  -61.575; -415.000; -405.000
270.180; -127.000; -952.000; -816.000
270.320;  -27.725; -190.000; -250.000
270.461;  -51.450; -277.000; -249.000
270.602;   -9.575; -186.000; -156.000
270.742; -118.325; -868.000; -943.000
270.883;  -60.350; -442.000; -390.000
271.023;  -52.675; -358.000; -357.000
271.164;  -63.075; -607.000; -528.000
271.305; -104.275; -666.000; -654.000
271.445;  -91.975; -722.000; -683.000
271.586;  -57.350; -462.000; -283.000
271.726;  -43.325; -397.000; -322.000
271.867;  -60.325; -594.000; -534.000
272.008;  198.275; -473.000; -285.000
272.148;  139.825;  462.000;  468.000
272.289;   19.425; -113.000; -181.000
272.429;   36.875;   19.000;  185.000
272.570;  -85.650; -633.000; -737.000
272.710;  -85.425; -825.000; -775.000
272.851;  -23.350;  113.000; -130.000
272.991; -159.650;-1173.000;-1077.000
273.131;  -71.750; -419.000; -459.000
273.272;  -96.825; -683.000; -723.000
273.412;   24.550; -143.000;  -31.000
273.553;  -65.975; -488.000; -507.000
273.693;  143.850;  913.000;  858.000
273.834;  -81.100; -894.000; -692.000
273.974;  -60.925; -664.000; -615.000
274.114;  -93.850; -772.000; -560.000
274.255;   81.825;  414.000;  373.000
274.395;   32.425; -180.000; -125.000
274.535;   52.325;  199.000;  350.000
274.676;   24.925;  225.000;   94.000
274.816;    6.825;  110.000;   34.000
274.956;  -78.600; -624.000; -690.000
275.097;  -53.750;-1014.000; -922.000
275.237; -105.000; -913.000; -803.000
275.377;  -97.075; -778.000; -689.000
275.517; -133.200; -878.000; -937.000
275.658;  -50.350; -590.000; -555.000
275.798;  -44.800; -606.000; -413.000
275.938;   31.650;  215.000;  323.000
276.078; -101.800; -626.000; -395.000
276.218;   24.550;   99.000;  104.000
276.359; -132.125;-1026.000;-1024.000
276.499;  -55.975; -605.000; -446.000
276.639;  -36.725; -305.000; -151.000
276.779;  -35.400; -475.000; -357.000
276.919;  -92.000; -783.000; -624.000
277.059;  -16.325; -261.000; -212.000
277.199;  -38.500; -357.000; -259.000
277.340;   65.600;  287.000;  175.000
277.480; -117.550; -840.000; -693.000
277.620;   27.850;  192.000;   16.000
277.760; -188.900;-1533.000;-1294.000
277.900;   28.775;  113.000;   33.000
278.040;   39.575;  137.000;  159.000
278.180;   42.100;  270.000;  170.000
278.320;    1.075;   21.000;   56.000
278.460;  -66.850; -443.000; -469.000
278.600;  -90.100; -708.000; -598.000
278.740;   66.675;  448.000;  224.000
278.880;  -26.925; -768.000; -791.000
279.020;   10.525; -194.000; -144.000
279.160;  -86.700; -672.000; -595.000
279.300; -116.575; -926.000; -873.000
279.440;  -83.075; -709.000; -622.000
279.579;   -4.900;-1014.000; -929.000
279.719;  -54.475; -410.000; -394.000
279.859;   83.500;   -4.000;   41.000
279.999;   31.325; -208.000;  101.000
280.139;  -13.625; -435.000; -387.000
280.279;  -67.000; -708.000; -745.000
280.419;  -15.025; -229.000; -147.000
280.559;  -26.025; -259.000; -180.000
280.698;  -74.475; -790.000; -639.000
280.838;  -78.350; -778.000; -800.000
280.978; -103.750; -846.000; -790.000
281.118; -113.875; -811.000; -704.000
281.257;    1.475;   24.000;    6.000
281.397;  -97.000;-1094.000; -960.000
281.537;  -95.450; -599.000; -712.000
281.677;  -23.700; -150.000; -101.000
281.816;  -79.025; -700.000; -630.000
281.956;  -25.525; -193.000; -257.000
282.096;  -56.300; -539.000; -396.000
282.235; -101.025; -672.000; -638.000
282.375;  -12.875; -243.000;  -98.000
282.515;  -99.100; -715.000; -707.000
282.654;   24.425;   29.000;  106.000
282.794;   22.150;  388.000;  244.000
282.934;  -53.300; -530.000; -491.000
283.073; -130.075;-1030.000; -857.000
283.213;  -42.475; -460.000; -467.000
283.353;  -26.150; -408.000; -349.000
283.492;  -29.375; -264.000; -296.000
283.632;  -34.350; -254.000; -168.000
283.771;  -96.200; -859.000; -730.000
283.911;  -42.925; -369.000; -260.000
284.050; -105.250; -794.000; -748.000
284.190; -162.950;-1229.000;-1096.000
284.329; -139.300;-1055.000; -964.000
284.469;  -55.300; -516.000; -591.000
284.608;  -55.950; -559.000; -598.000
284.748;  -76.325; -614.000; -570.000
284.887;    5.100;  -87.000;  -20.000
285.027; -128.325; -844.000; -892.000
285.166;  -17.075; -192.000; -249.000
285.306;   21.950; -116.000;  -33.000
285.445;  -36.475; -229.000; -343.000
285.584;  -86.150; -630.000; -494.000
285.724;  -45.325; -282.000; -322.000
285.863;  -99.925; -857.000; -507.000
286.002;  -44.675; -366.000; -276.000
286.142;  -96.200; -715.000; -622.000
286.281;  -59.050; -525.000; -493.000
286.420;  -74.850; -554.000; -417.000
286.560;  105.825;  653.000;  623.000
286.699; -134.725; -958.000; -912.000
286.838;  -76.375; -590.000; -591.000
286.978;  -82.100; -533.000; -537.000
287.117; -130.675;-1085.000; -950.000
287.256;  -23.000; -228.000; -211.000
287.395;  -44.250; -197.000; -378.000
287.535;  -40.500; -370.000; -298.000
287.674;  -58.825; -509.000; -484.000
287.813;   62.825;  661.000;  533.000
287.952; -114.675;-1010.000; -871.000
288.091; -137.325;-1049.000; -915.000
288.231;    9.325;   13.000;   15.000
288.370; -171.550;-1217.000;-1200.000
288.509;  -87.775; -728.000; -645.000
288.648;  -80.925; -770.000; -548.000
288.787;  -22.800; -243.000;  -87.000
288.926;  -60.650; -454.000; -475.000
289.065;  133.450;  859.000;  672.000
289.204;  -44.375; -377.000; -217.000
289.344;  -94.800; -791.000; -690.000
289.483;   28.675;  416.000;  304.000
289.622;  -21.750; -291.000; -149.000
289.761;   -7.775; -309.000; -166.000
289.900;  -97.950; -785.000; -626.000
290.039;   -9.625;  -12.000;  -95.000
290.178;  -32.225; -274.000; -180.000
290.317;  -71.675; -618.000; -479.000
290.456;  -61.325; -463.000; -451.000
290.595; -139.475; -961.000; -833.000
290.734; -128.700; -904.000; -891.000
290.873;  -65.025; -456.000; -420.000
291.011; -104.500; -833.000; -843.000
291.150;  -94.250; -770.000; -682.000
291.289;  -21.675; -343.000; -110.000
291.428; -103.525; -599.000; -480.000
291.567;  -56.125; -370.000; -442.000
291.706;   10.200;  109.000;  154.000
291.845;  -77.425; -597.000; -505.000
291.984; -169.975;-1234.000;-1061.000
292.122;   78.050;  602.000;  582.000
292.261;   58.225;  620.000;  463.000
292.400;    9.825; -144.000;  211.000
292.539; -115.175; -959.000; -813.000
292.678;  -33.900; -325.000; -300.000
292.816; -143.025;-1136.000; -965.000
292.955;  -72.750; -844.000; -684.000
293.094;  -24.125; -173.000; -337.000
293.233;  -51.925; -556.000; -400.000
293.371;  -25.775; -225.000;  -84.000
293.510; -108.675; -866.000; -780.000
293.649; -129.200; -959.000; -924.000
293.787;  -40.700;-1083.000;-1012.000
293.926;   12.700; -113.000;  -32.000
294.065;  -29.500; -379.000; -290.000
294.203;   54.850;  298.000;  406.000
294.342;   25.125;   74.000;  156.000
294.481; 5697.575;51180.000; -836.000
294.619;  -16.900; -425.000; -582.000
294.758; -129.175;-1230.000;-1137.000
294.896;   98.275; -125.000;    5.000
295.035; -112.200;-1040.000;-1006.000
295.174; -108.825;-1082.000; -954.000
295.312;  -34.200; -323.000; -203.000
295.451;   -6.325; -307.000; -428.000
295.589;  -39.975; -389.000; -518.000
295.728;   27.900; -292.000; -165.000
295.866;   20.700;  -36.000;  -51.000
296.005;  -41.250; -584.000; -341.000
296.143;  -55.725; -558.000; -596.000
296.282;  -95.225; -957.000; -881.000
296.420;  -85.925; -657.000; -557.000
296.559;  -68.475; -892.000; -633.000
296.697;   54.725; -847.000; -665.000
296.835;  102.150;-1141.000;-1002.000
296.974;   57.325;  -23.000;   39.000
297.112;   29.175; -443.000; -504.000
297.251;  -68.600; -815.000; -755.000
297.389;  120.000; -576.000; -438.000
297.527;   55.275; -145.000;  -83.000
297.666;  -40.375; -486.000; -438.000
297.804;  -43.850; -404.000; -264.000
297.942;   -8.075; -136.000; -161.000
298.081;  -16.750; -183.000;   63.000
298.219;  102.725;  -17.000;  -19.000
298.357;   70.125; -144.000;  -71.000
298.495;   74.700; -810.000; -812.000
298.634;   94.400;  245.000;  219.000
298.772;   93.325; -220.000; -338.000
298.910;  -28.425; -309.000; -182.000
299.048;   -2.150; -130.000; -153.000
299.187;  -19.675; -350.000; -250.000
299.325;   42.150;   52.000;  122.000
299.463;   73.875; -389.000; -299.000
299.601;  145.775; -327.000; -271.000
299.739; -100.950; -908.000; -883.000
299.877;  -62.750; -791.000; -703.000
300.016;  -26.300;-1095.000; -935.000
300.154;  198.875;  -19.000; -161.000
300.292;   69.100; -428.000; -348.000
300.430;   55.400; -408.000; -291.000
300.568;  -85.550; -940.000; -874.000
300.706;  -26.250; -366.000; -469.000
300.844;  -57.100;-1108.000; -979.000
300.982;  133.275;  246.000;  282.000
301.120;  -99.225; -965.000; -866.000
301.258;  -54.800; -812.000; -705.000
301.396;   52.600;  104.000;  -41.000
301.534;  125.425; -218.000; -293.000
301.672;   19.775; -664.000; -521.000
301.810;   59.675; -613.000; -545.000
301.948;  146.575;   53.000;  149.000
302.086;  708.425; -250.000;  -32.000
302.224; 1127.050; -610.000; -585.000
302.362;   65.050; -558.000; -622.000
302.500;   10.725; -923.000; -893.000
302.638;  137.825;  128.000;  245.000
302.776;    5.100; -352.000; -408.000
302.913;   53.650;  447.000;  236.000
303.051;   16.825;  -86.000;  -23.000
303.189;   66.900;   90.000;  118.000
303.327;  -32.800; -341.000; -256.000
303.465;  -65.625; -832.000; -588.000
303.603;  -79.425; -805.000; -604.000
303.740;  117.375;  417.000;  241.000
303.878;   51.550; -800.000; -759.000
304.016;  -87.500; -915.000; -790.000
304.154; -112.925;-1123.000;-1152.000
304.291;  -23.875; -505.000; -554.000
304.429;    4.925;  102.000;   74.000
304.567; -126.075; -908.000; -893.000
304.705;  -49.225; -408.000; -515.000
304.842;  122.350; -616.000; -540.000
304.980;   77.600;  215.000;   35.000
305.118;   94.625; -367.000; -365.000
305.255;  -58.675; -945.000; -927.000
305.393;   67.350;  178.000;  239.000
305.531;  -89.150;-1173.000; -956.000
305.668;  -57.600; -663.000; -582.000
305.806;  110.200; -358.000; -439.000
305.943;  142.700; -629.000; -637.000
306.081;   72.800; -378.000; -267.000
306.219;  -90.225; -863.000; -748.000
306.356;   10.450;  158.000;   27.000
306.494;  109.475;  981.000;  761.000
306.631;   18.325;  -11.000;  -55.000
306.769;   17.200; -613.000; -485.000
306.906;   -8.925; -284.000; -258.000
307.044;  -54.100; -473.000; -488.000
307.181;  -70.100; -410.000; -332.000
307.319;   10.650;  112.000;   87.000
307.456; -161.025;-1191.000;-1153.000
307.594;  -82.625; -980.000; -727.000
307.731;    2.050; -371.000; -164.000
307.868;    1.650;  -15.000;   20.000
308.006; -124.275; -961.000; -847.000
308.143;  -67.125; -618.000; -330.000
308.281;  171.725;  -37.000; -254.000
308.418;    3.775; -748.000; -640.000
308.555;  -65.625; -400.000; -250.000
308.693;  -58.850; -577.000; -573.000
308.830; -107.800; -712.000; -657.000
308.967;   -2.975; -215.000;  -95.000
309.105;  -40.000; -507.000; -396.000
309.242;   46.150; -468.000; -367.000
309.379;  309.300; -577.000; -655.000
309.517;  -50.200; -936.000; -948.000
309.654;  -84.200; -910.000; -734.000
309.791;  -60.225; -662.000; -580.000
309.928; -111.200; -977.000; -914.000
310.065;  206.700;  819.000;  697.000
310.203;   15.500; -825.000; -850.000
310.340;   -1.650; -465.000; -321.000
310.477;  -66.975; -412.000; -516.000
310.614;  -63.750; -383.000; -473.000
310.751;  -65.500; -427.000; -518.000
310.889;  -18.550;    1.000;   11.000
311.026; -140.700;-1161.000; -939.000
311.163;  -35.600; -386.000; -380.000
311.300;  -68.425; -512.000; -479.000
311.437;  -62.975; -658.000; -619.000
311.574; -145.250;-1226.000; -985.000
311.711;  -53.700; -595.000; -433.000
311.848;  -28.375; -380.000; -388.000
311.985;   24.875;  270.000;   93.000
312.122; -101.950; -932.000; -762.000
312.259; -116.625; -941.000; -994.000
312.396;  -64.875; -508.000; -551.000
312.533;  -78.825; -812.000; -790.000
312.670; -111.600;-1070.000; -898.000
312.807;  -32.200; -352.000; -367.000
312.944;  -67.050; -513.000; -611.000
313.081;  -29.875; -150.000; -415.000
313.218; -104.875;-1111.000; -867.000
313.355;   32.725; -531.000; -449.000
313.492;   15.075; -455.000; -292.000
313.629;  144.825;  815.000;  735.000
313.766; -149.200;-1176.000;-1008.000
313.902;   -9.300; -186.000;   21.000
314.039;  -52.450; -372.000; -289.000
314.176;   40.725;  286.000;  192.000
314.313;  -59.625; -569.000; -473.000
314.450;  -65.250; -788.000; -684.000
314.587;  -41.950; -468.000; -480.000
314.723;   15.350;  -78.000;  130.000
314.860;   47.250;  318.000;  332.000
314.997;   41.650;  223.000;  142.000
315.134;  -26.550; -385.000; -368.000
315.270;  -17.075; -480.000; -496.000
315.407; -126.500;-1094.000; -967.000
315.544;  -35.400; -657.000; -538.000
315.681;  -50.025; -681.000; -565.000
315.817;   50.500; -133.000; -176.000
315.954;   37.125; -613.000; -392.000
316.091; -106.750;-1045.000;-1023.000
316.227;  -15.275;  -71.000; -179.000
316.364;    0.400;   23.000;    6.000
316.500;  -25.600; -113.000; -300.000
316.637;  -31.875; -181.000; -302.000
316.774;  -75.375; -625.000; -358.000
316.910;  -88.300; -598.000; -629.000
317.047;  -65.975; -487.000; -351.000
317.183;  -30.650; -435.000; -566.000
317.320;  -18.225; -367.000; -321.000
317.456;  -72.775; -733.000; -805.000
317.593;  -90.375; -598.000; -641.000
317.729;    1.200;  168.000;  -67.000
317.866; -184.250;-1434.000;-1285.000
318.002;  -74.575; -708.000; -948.000
318.139;  -79.950; -883.000; -867.000
318.275;  -89.700;-1003.000; -738.000
318.412;  -47.000; -517.000; -336.000
318.548;   -9.475; -751.000; -720.000
318.685;  -84.150; -985.000; -888.000
318.821;  -87.475; -762.000; -735.000
318.957;   -2.425;   34.000;  -23.000
319.094;   47.200;  297.000;  154.000
319.230;  -35.625; -756.000; -742.000
319.367;  163.350; -471.000; -520.000
319.503;   92.250; -538.000; -436.000
319.639;  -84.675; -877.000; -793.000
319.775;  -33.925; -750.000; -685.000
319.912;  -29.475; -424.000; -519.000
320.048;  -85.400;-1184.000;-1184.000
320.184;   88.900;   59.000;   70.000
320.321;  -60.475; -497.000; -467.000
320.457;   59.175;  475.000;  662.000
320.593;  -56.475; -375.000; -382.000
320.729; -102.450; -732.000; -734.000
320.866;  -62.225; -577.000; -635.000
321.002;  -78.175; -759.000; -809.000
321.138;   -6.900; -135.000; -211.000
321.274;   90.725; -148.000; -115.000
321.410;  -11.175; -585.000; -353.000
321.546;  -14.450;-1011.000; -911.000
321.683;   61.700;  400.000;  185.000
321.819;   21.700;  -48.000; -117.000
321.955; -110.350; -743.000; -722.000
322.091;  -41.175; -585.000; -540.000
322.227;    0.650; -382.000; -202.000
322.363;    2.150; -320.000; -215.000
322.499;  -20.800; -343.000; -331.000
322.635;  167.575;  636.000;  443.000
322.771;   40.525; -139.000;   12.000
322.907;  102.100;  129.000;  327.000
323.043;   -6.525; -115.000; -206.000
323.179;  -32.750; -394.000; -363.000
323.315;   53.950; -401.000; -371.000
323.451;  144.700; -328.000; -236.000
323.587;   75.725;  -60.000;  -77.000
323.723;   34.300; -682.000; -601.000
323.859;   -2.900; -258.000;  -76.000
323.995;  -30.125; -467.000; -409.000
324.131; -120.350; -967.000; -892.000
324.267;  -26.275; -254.000; -276.000
324.402; -124.550; -960.000; -983.000
324.538;    0.125; -279.000; -104.000
324.674;   30.775;  164.000;   77.000
324.810;  156.550;  226.000;  308.000
324.946;   33.300; -810.000; -658.000
325.082;  -60.900; -568.000; -475.000
325.217;   -2.550;  -62.000;   16.000
325.353;  -85.225; -764.000; -659.000
325.489;  -88.125; -540.000; -506.000
325.625;  -55.500; -579.000; -525.000
325.760;   60.275;  517.000;  376.000
325.896;  -34.775; -515.000; -702.000
326.032;  -47.550; -403.000; -352.000
326.168;  -52.350; -462.000; -369.000
326.303;  -53.100; -352.000; -461.000
326.439;  -18.100; -336.000; -276.000
326.575;    8.775; -190.000;  -29.000
326.710;    9.225; -156.000;  -30.000
326.846;   -2.400;  146.000;  103.000
326.982;  -87.025; -530.000; -548.000
327.117;  -76.350; -481.000; -442.000
327.253;  -81.800; -745.000; -742.000
327.388; -156.575;-1137.000;-1153.000
327.524;  -38.550; -811.000; -578.000
327.659;  -12.450;  -58.000;  -22.000
327.795;   -3.175;   69.000;   45.000
327.931;  -77.925; -723.000; -499.000
328.066;   -8.400; -417.000; -276.000
328.202;   13.000;   12.000; -129.000
328.337;  117.850;  957.000;  713.000
328.473;   41.375;  -12.000;  -74.000
328.608;  -24.525; -256.000; -267.000
328.743;  -69.950; -799.000; -664.000
328.879;   43.225;  214.000;  114.000
329.014;  -23.700; -102.000; -122.000
329.150;  -72.450; -358.000; -483.000
329.285;  -76.675; -465.000; -466.000
329.421;  -44.275; -548.000; -246.000
329.556;   -7.625;  -36.000;   85.000
329.691;  -91.500; -633.000; -615.000
329.827;  -73.750; -626.000; -480.000
329.962;  -40.725;  131.000; -301.000
330.097;  -90.175; -673.000; -585.000
330.233;  -43.375; -410.000; -223.000
330.368; -115.550; -839.000; -628.000
330.503;   -2.125;    3.000;   98.000
330.638;   17.650;  -93.000; -125.000
330.774;  -35.475; -609.000; -530.000
330.909;  -27.475; -434.000; -244.000
331.044;  -81.775; -714.000; -708.000
331.179; -168.425;-1217.000;-1109.000
331.315;   17.000;   77.000;   20.000
331.450;   23.725;  157.000;  285.000
331.585;  -81.000; -805.000; -706.000
331.720;  -80.900; -510.000; -460.000
331.855;   -3.825;  -35.000; -102.000
331.990;  209.325;   62.000;  138.000
332.126;  109.375; -110.000;   71.000
332.261;  -13.600; -379.000; -265.000
332.396;   -9.950; -135.000; -242.000
332.531;  -98.925;-1074.000;-1031.000
332.666;   25.000; -519.000; -363.000
332.801;  -92.625; -726.000; -807.000
332.936;  -13.125; -192.000; -122.000
333.071; -115.925; -870.000; -817.000
333.206;   26.800;  307.000;  379.000
333.341;   36.025;  344.000;  418.000
333.476;  -78.875; -627.000; -623.000
333.611;  -30.025; -251.000; -173.000
333.746;  -31.900; -381.000; -464.000
333.881; -107.700; -973.000; -935.000
334.016; -121.050; -936.000; -917.000
334.151; -114.700; -746.000; -702.000
334.286;   57.100;  152.000;  186.000
334.421;    6.850; -125.000; -178.000
334.556;  -54.800; -611.000; -567.000
334.690;  -81.650; -631.000; -577.000
334.825;   76.025;  381.000;   83.000
334.960;  -58.075; -285.000; -413.000
335.095;   19.050;  135.000;  -91.000
335.230;  -77.775; -722.000; -738.000
335.365; -109.800;-1084.000; -990.000
335.499; -111.350;-1108.000;-1037.000
335.634;   43.675;    9.000;  534.000
335.769;  -74.375; -755.000; -720.000
335.904;  -23.975; -603.000; -561.000
336.038;  -51.175; -735.000; -657.000
336.173; -109.350;-1206.000;-1194.000
336.308;   30.750; -116.000; -189.000
336.443;   42.875; -544.000; -634.000
336.577;  -43.675; -936.000; -787.000
336.712;  102.600;   -4.000;  -12.000
336.847;  -11.775; -724.000; -607.000
336.981;  102.250; -272.000; -208.000
337.116;  352.800;  615.000;  501.000
337.250;  198.375; -434.000; -421.000
337.385;  221.400; -297.000; -208.000
337.520;   77.125; -632.000; -603.000
337.654;  -34.200; -215.000; -126.000
337.789; -125.150; -989.000; -933.000
337.923;  -27.075; -104.000; -205.000
338.058;  -86.225; -673.000; -738.000
338.192;  -15.950; -611.000; -488.000
338.327;    0.050;  -18.000; -155.000
338.461;  -50.400; -299.000; -469.000
338.596;  -68.025; -780.000; -638.000
338.730;  -99.125; -767.000; -803.000
338.865;   90.900;  -46.000; -140.000
338.999;  -67.300; -846.000; -702.000
339.134;  -18.350; -634.000; -536.000
339.268;   28.675; -741.000; -603.000
339.403;  322.625; -740.000; -775.000
339.537;   95.175; -894.000; -820.000
339.671; -109.225; -829.000; -813.000
339.806;  -67.250; -556.000; -512.000
339.940;    2.750; -261.000; -235.000
340.074;  -68.850; -685.000; -510.000
340.209;  -24.575; -351.000; -230.000
340.343;  -88.250; -517.000; -573.000
340.477;  157.950;  998.000; 1036.000
340.612;  -62.775;-1033.000; -900.000
340.746;  114.425; -199.000; -243.000
340.880;  -60.150; -924.000; -785.000
341.014;  -10.300;  -45.000; -154.000
341.149; -113.500; -756.000; -718.000
341.283;  -97.350; -839.000; -754.000
341.417;  -79.675;-1124.000; -938.000
341.551;  204.300; -768.000; -708.000
341.685;  -20.925; -633.000; -611.000
341.820;  -46.425; -562.000; -493.000
341.954;  -45.525; -218.000; -349.000
342.088; -142.550;-1102.000;-1019.000
342.222;   56.025;  565.000;  618.000
342.356;  -56.050; -395.000; -335.000
342.490;  -75.375; -880.000; -841.000
342.624;  -37.725; -339.000; -242.000
342.758;   22.275; -364.000; -312.000
342.892;  -67.500; -710.000; -585.000
343.026;  -38.975;  -58.000; -116.000
343.160;  -56.000; -426.000; -376.000
343.294;  -73.800; -474.000; -337.000
343.428;   -4.225; -488.000; -448.000
343.562;   18.400; -172.000;  -23.000
343.696;   -4.050; -385.000; -314.000
343.830;   11.150; -362.000; -356.000
343.964;   24.900; -231.000; -168.000
344.098; 1080.625;  199.000;   70.000
344.232;  912.375; -266.000; -127.000
344.366;   92.225; -567.000; -453.000
344.500;   91.675; -665.000; -744.000
344.634;   48.825; -324.000; -164.000
344.768;   18.025; -531.000; -341.000
344.902;   22.125;  278.000;  256.000
345.035;  -75.300; -556.000; -496.000
345.169; -141.600; -933.000; -656.000
345.303;  -32.150; -308.000; -482.000
345.437;  -62.475; -826.000; -717.000
345.571;  -60.175; -675.000; -594.000
345.704;  -54.725; -309.000; -532.000
345.838;   -5.650; -331.000; -284.000
345.972;   -8.100; -543.000; -495.000
346.106;  133.750; -179.000; -190.000
346.239;  454.700; -312.000; -243.000
346.373;   14.775; -343.000; -302.000
346.507; -132.200; -950.000; -962.000
346.640;  196.225;  -30.000;   13.000
346.774;  -32.525; -650.000; -797.000
346.908;    6.475; -138.000;  -11.000
347.041;  -88.475; -646.000; -593.000
347.175;   20.300;  259.000;   27.000
347.309;  -61.575; -698.000; -628.000
347.442;  -85.025; -883.000; -732.000
347.576;  321.550;  670.000;  668.000
347.709;  243.375; -123.000;  -52.000
347.843;  -85.500; -933.000; -825.000
347.976;   39.550;  235.000;  294.000
348.110; -179.225;-1268.000;-1186.000
348.243;  -88.350; -679.000; -772.000
348.377;    5.725;  -26.000;   60.000
348.510;   66.450;  403.000;  540.000
348.644;  -18.775;  -37.000; -159.000
348.777;    9.750;  180.000;  191.000
348.911;  -43.375; -142.000; -112.000
349.044;  198.200;  471.000;  448.000
349.178;  237.750;-1069.000;-1006.000
349.311;  109.900;  141.000;  255.000
349.444;  -11.050; -927.000; -813.000
349.578;    0.250; -347.000; -200.000
349.711;  -75.900; -959.000; -862.000
349.845;   29.600; -661.000; -591.000
349.978; -136.200;-1224.000;-1137.000
350.111;  -75.700; -546.000; -612.000
350.244;  -67.850; -596.000; -700.000
350.378;   27.125; -392.000; -393.000
350.511;  -69.500; -393.000; -426.000
350.644; -115.625; -808.000; -806.000
350.778;   10.575;  168.000;  104.000
350.911;    4.725;  134.000;  140.000
351.044;  -68.950; -685.000; -615.000
351.177;   -6.525; -321.000; -281.000
351.310;   -1.625;    3.000; -131.000
351.444;  -75.100; -888.000; -788.000
351.577;  144.125;  140.000;   90.000
351.710;  110.950;  593.000;  417.000
351.843;  -29.225; -165.000;  -77.000
351.976;    2.700;  149.000;  -79.000
352.109;  -86.350; -621.000; -612.000
352.242;   -8.100; -464.000; -419.000
352.376;  -46.600; -580.000; -636.000
352.509;  239.825; -437.000; -356.000
352.642;   56.150; -654.000; -604.000
352.775;   95.825; -141.000;  -98.000
352.908; -110.850; -933.000; -904.000
353.041; -101.925; -814.000; -824.000
353.174;  -53.950; -551.000; -424.000
353.307;  -66.300; -753.000; -764.000
353.440;   87.100;  541.000;  453.000
353.573;  -90.050; -957.000;-1008.000
353.706;  -42.250; -384.000; -558.000
353.839;  -10.050; -264.000; -220.000
353.971;  -80.125; -657.000; -512.000
354.104;  -72.875; -896.000; -835.000
354.237;  -18.300; -627.000; -662.000
354.370;  -76.775; -846.000; -879.000
354.503; -168.650;-1231.000;-1308.000
354.636;  -21.250; -529.000; -348.000
354.769; -129.725; -937.000; -860.000
354.902;   10.800; -230.000; -139.000
355.034;  -14.900; -164.000; -220.000
355.167;   -6.550; -262.000; -162.000
355.300;  -79.350;-1061.000; -880.000
355.433;  872.950;  -71.000;  -14.000
355.565; 1349.750; -402.000; -384.000
355.698;  343.200; -356.000; -296.000
355.831;   19.425; -882.000; -801.000
355.964;  131.800; -285.000; -170.000
356.096;  -48.475; -856.000; -843.000
356.229;   31.675; -523.000; -530.000
356.362;  292.375; -373.000; -266.000
356.494;  537.225; -229.000; -162.000
356.627;  558.000;  269.000;  377.000
356.760;  622.825;  120.000;   53.000
356.892;  851.075; -286.000; -601.000
357.025;  791.800;  403.000;  389.000
357.157;  720.550; -167.000; -179.000
357.290;  556.375; -856.000; -713.000
357.423;  181.775; -667.000; -556.000
357.555;  133.325; -217.000; -228.000
357.688;  180.300; -483.000; -364.000
357.820;  519.275; -870.000; -877.000
357.953; 4094.400; -563.000; -589.000
358.085;  958.650; -632.000; -612.000
358.218; 1505.650;-1131.000; -932.000
358.350;  274.175;  -58.000;  312.000
358.483; -103.300;-1300.000;-1187.000
358.615;   22.325;-1182.000;-1078.000
358.747;  -17.125;-1187.000;-1058.000
358.880;   69.975; -810.000; -744.000
359.012;   -6.725; -376.000; -202.000
359.145;  -28.475; -480.000; -511.000
359.277;   98.425; -962.000; -913.000
359.409; 3430.575;  536.000;  231.000
359.542;  901.425; -738.000; -688.000
359.674;   91.425;   46.000;   13.000
359.806;  -54.850; -565.000; -438.000
359.939;  -30.575; -617.000; -516.000
360.071;  -31.825; -583.000; -579.000
360.203;   -5.375; -411.000; -364.000
360.335;   70.075;  164.000;  -16.000
360.468;  221.750; -249.000; -307.000
360.600; 2700.475; -547.000; -454.000
360.732; 2499.225; -546.000; -423.000
360.864;  342.175;-1216.000;-1044.000
360.996;  364.775; -516.000; -554.000
361.129;   72.875; -389.000; -598.000
361.261;   26.850;  110.000; -113.000
361.393;  -21.350; -252.000; -214.000
361.525;   36.600;   94.000;  244.000
361.657;   -5.350; -821.000; -703.000
361.789;   21.500; -139.000; -155.000
361.921;  306.150; -642.000; -593.000
362.053;  294.125;  524.000;  541.000
362.185;   72.700;  288.000;   72.000
362.318;  -61.225; -709.000; -705.000
362.450;  172.350;  294.000;  444.000
362.582;  211.075; -913.000; -870.000
362.714;   -9.275; -353.000; -332.000
362.846;  -74.225; -606.000; -490.000
362.978; -140.500; -941.000; -811.000
363.109;   76.250; -161.000; -260.000
363.241;  537.950; -739.000; -749.000
363.373;  422.100; -649.000; -564.000
363.505;  570.950; -186.000;  -91.000
363.637;  133.675; -787.000; -601.000
363.769; -109.575;-1067.000;-1080.000
363.901;  -57.225; -596.000; -654.000
364.033; -113.600;-1103.000;-1062.000
364.165;    9.700; -283.000; -283.000
364.296;   70.125; -316.000; -177.000
364.428;   39.050;-1344.000;-1220.000
364.560;  -68.650; -679.000; -661.000
364.692;  -52.225; -738.000; -835.000
364.824;  362.900; -588.000; -456.000
364.955;  441.400; -402.000; -564.000
365.087;  735.550;-1097.000; -852.000
365.219;    7.600; -686.000; -816.000
365.351;  -52.375; -526.000; -572.000
365.482;   57.450;  300.000;  240.000
365.614;  -34.300; -402.000; -314.000
365.746;  -91.850; -729.000; -752.000
365.877;  -94.725; -706.000; -672.000
366.009;  237.350;  -35.000;  -62.000
366.141;  -97.675;-1249.000;-1134.000
366.272;  -93.925; -803.000; -719.000
366.404; -114.500;-1005.000; -874.000
366.535;    3.600; -139.000;  -12.000
366.667;  -90.225; -644.000; -649.000
366.799;   46.400;  353.000;  203.000
366.930; -110.475; -862.000; -996.000
367.062;  136.100; -639.000; -613.000
367.193;  117.500; -872.000; -842.000
367.325;  -62.925; -580.000; -684.000
367.456;  106.700; -246.000;   31.000
367.588;  153.125; -371.000; -318.000
367.719;   43.200;  -44.000;  -45.000
367.851;    0.075; -222.000; -241.000
367.982;  -27.325; -875.000; -732.000
368.113;  127.225; -475.000; -358.000
368.245; -104.425; -960.000; -841.000
368.376;    1.775; -254.000; -302.000
368.508;  -25.950; -188.000; -263.000
368.639; -129.600;-1166.000;-1034.000
368.770;    6.275; -670.000; -589.000
368.902;  -33.275; -836.000; -926.000
369.033;  -97.175; -906.000; -855.000
369.164;  -46.875; -720.000; -653.000
369.296; -100.150; -452.000; -601.000
369.427;   15.850; -209.000; -144.000
369.558;  -29.400; -593.000; -377.000
369.689;  -82.575; -721.000; -569.000
369.821; -120.675; -951.000; -845.000
369.952;    4.200;   42.000; -108.000
370.083;  -39.250; -229.000; -108.000
370.214;  -66.075; -735.000; -650.000
370.345;    1.900;   65.000;   81.000
370.477;  -62.750; -810.000; -790.000
370.608;  289.725; -328.000; -264.000
370.739;   -9.150;-1233.000;-1292.000
370.870;   -2.250;-1102.000; -923.000
371.001;  120.050; -378.000; -467.000
371.132;  -53.750; -754.000; -735.000
371.263;   -4.475;  -42.000; -148.000
371.394; -129.975; -841.000; -748.000
371.525;   53.350;  345.000;  225.000
371.657;  -70.400; -808.000; -670.000
371.788;   85.850;  103.000;  199.000
371.919;  221.825; -384.000; -304.000
372.050; 4279.325;  -91.000; -156.000
372.181; 1261.925; -188.000; -294.000
372.311;  475.100;   42.000; -127.000
372.442;   78.625; -457.000; -451.000
372.573;  -15.400; -444.000; -340.000
372.704; -114.025;-1008.000; -980.000
372.835;  115.975; -228.000; -289.000
372.966;  -37.125; -646.000; -554.000
373.097;  -50.175; -575.000; -711.000
373.228;  -17.200; -717.000; -542.000
373.359;  201.475; -824.000; -536.000
373.490; 1142.200; -881.000; -727.000
373.620; 1429.425;-1001.000; -803.000
373.751; 2190.350; -332.000; -396.000
373.882;  968.650; -663.000; -733.000
374.013;  113.850; -449.000; -262.000
374.143;  -11.200; -581.000; -659.000
374.274;  -82.275; -987.000; -908.000
374.405;  219.975; -388.000; -276.000
374.536;  549.925; -526.000; -387.000
374.666; 1418.200; -759.000; -807.000
374.797;  293.125; -817.000; -868.000
374.928; 1092.750; -710.000; -560.000
375.058; 1115.575; -535.000; -500.000
375.189;  101.450;  -59.000;  -93.000
375.320;  -79.350; -928.000;-1034.000
375.450;  -26.550; -625.000; -616.000
375.581;  -29.375; -526.000; -436.000
375.712;  -17.075; -574.000; -250.000
375.842;  383.425; -438.000; -415.000
375.973;  295.125; -554.000; -513.000
376.103;   -8.875; -665.000; -648.000
376.234;  -82.225; -531.000; -552.000
376.364;  -18.975; -944.000; -867.000
376.495;  390.500;  925.000;  529.000
376.625;   33.775; -472.000; -485.000
376.756;  102.725; -709.000; -678.000
376.886;  -53.225;-1178.000;-1026.000
377.017;   33.825;-1048.000;-1061.000
377.147;  281.525; -786.000; -782.000
377.278;   59.200;  174.000;  228.000
377.408; -115.725; -801.000; -815.000
377.538;  -99.000; -707.000; -693.000
377.669;  -63.950; -537.000; -613.000
377.799;  -73.700; -645.000; -635.000
377.929;  -36.275; -610.000; -428.000
378.060; -123.850; -781.000; -847.000
378.190;  -69.050; -726.000; -531.000
378.320;  -31.750; -401.000; -406.000
378.451;   -0.775; -131.000;  -22.000
378.581;   12.700;  -67.000; -110.000
378.711;  188.325; 1035.000;  866.000
378.841;    8.725; -533.000; -675.000
378.972;  -59.750; -871.000; -751.000
379.102;   31.825; -652.000; -579.000
379.232;   -0.150; -126.000;  -73.000
379.362;  -88.550;-1001.000; -885.000
379.492;   46.150; -373.000; -424.000
379.623;  136.875;    0.000;  111.000
379.753;  -85.225;-1107.000; -974.000
379.883;  236.775;   59.000;  156.000
380.013;   40.750;-1081.000;-1017.000
380.143;  -81.150;-1097.000;-1056.000
380.273;  -81.400; -985.000; -861.000
380.403;   13.050; -344.000; -257.000
380.533;  -15.900; -651.000; -664.000
380.663;   87.750;  173.000;  128.000
380.793;  -66.375;-1027.000;-1074.000
380.923;   -6.675; -103.000;  -34.000
381.053;  -76.550; -613.000; -623.000
381.183;  -17.400; -106.000; -248.000
381.313;   68.475; -656.000; -470.000
381.443;   71.925; -692.000; -473.000
381.573;  259.425; -402.000; -409.000
381.703;  376.875;-1249.000;-1095.000
381.833; -104.950;-1454.000;-1336.000
381.963;  137.825; -134.000;  -87.000
382.093; 1623.225; -925.000; -909.000
382.223;  532.475; -713.000; -602.000
382.353;   12.875; -801.000; -608.000
382.482;  498.400;-1091.000; -964.000
382.612;  933.925; -872.000; -644.000
382.742;  516.450; -695.000; -622.000
382.872;  358.225; -565.000; -551.000
383.002;   86.100;  347.000; -132.000
383.131;    2.075; -226.000; -160.000
383.261;  -25.075; -706.000; -768.000
383.391;  284.000; -552.000; -377.000
383.521; 2754.925;  451.000;  263.000
383.650;  597.975; -947.000; -904.000
383.780;   -6.500; -783.000; -656.000
383.910;  112.550;  880.000;  802.000
384.039;   69.850; -794.000; -656.000
384.169;  297.400;-1205.000;-1017.000
384.299;   16.300; -650.000; -662.000
384.428;  -84.675; -764.000; -680.000
384.558;  -41.125; -308.000; -275.000
384.687;  -17.175; -414.000; -334.000
384.817;   22.575;   75.000;   -2.000
384.947;   36.350; -234.000; -141.000
385.076;  338.500;  982.000;  912.000
385.206;  113.250;  369.000;  480.000
385.335;  -27.450; -549.000; -417.000
385.465;  -59.850; -655.000; -663.000
385.594;  169.100;  -53.000;  -44.000
385.724;  582.075; -868.000; -838.000
385.853;  165.350; -296.000; -270.000
385.982; 1700.025; -743.000; -787.000
386.112; 2617.375;-1052.000; -871.000
386.241;  191.600; -307.000; -312.000
386.371;   31.825; -174.000;  -87.000
386.500;   31.050; -825.000; -789.000
386.629;   44.225; -874.000; -817.000
386.759;   75.375;  -43.000;   68.000
386.888;   20.150; -170.000; -250.000
387.017;  -60.950; -648.000; -620.000
387.147;  -78.775; -771.000; -798.000
387.276;   26.525; -410.000; -397.000
387.405;   39.950; -398.000; -342.000
387.535;  -31.975; -452.000; -361.000
387.664;  -61.125; -692.000; -620.000
387.793;   93.925; -198.000; -113.000
387.922;  632.700;  255.000;  200.000
388.052;   54.775; -576.000; -423.000
388.181;   59.675; -342.000; -472.000
388.310;   66.550; -889.000; -710.000
388.439;   -3.125; -749.000; -742.000
388.568;  251.125;  365.000;  244.000
388.697; 1315.525; -756.000; -653.000
388.826;  284.625; -768.000; -666.000
388.956;  104.375; -285.000; -307.000
389.085;  -13.050; -347.000; -287.000
389.214; -101.575; -842.000; -872.000
389.343;  -56.625; -645.000; -413.000
389.472;  372.450;  126.000;  149.000
389.601;  504.250;   91.000;    0.000
389.730;   32.575; -568.000; -687.000
389.859;   79.425;  226.000;   46.000
389.988;  250.025; -423.000; -408.000
390.117;  185.725; -168.000; -146.000
390.246;    7.725; -331.000; -320.000
390.375;  153.500; -673.000; -626.000
390.504;  -44.225; -703.000; -621.000
390.633;  -83.325; -672.000; -726.000
390.761;  -50.150; -732.000; -645.000
390.890;   45.750;   -4.000; -130.000
391.019;   -5.475; -421.000; -441.000
391.148; -127.450; -826.000; -855.000
391.277;  -50.825; -576.000; -493.000
391.406;  -58.700; -821.000; -805.000
391.534;   32.800;  574.000; -301.000
391.663;  -64.200; -583.000; -645.000
391.792;  -69.475; -673.000; -701.000
391.921;  159.625;   -3.000;   15.000
392.050;  270.125; -287.000; -228.000
392.178;    2.600;-1206.000;-1061.000
392.307;  209.875; -758.000; -712.000
392.436;  111.775; -427.000; -641.000
392.564;   31.425;  166.000;   -6.000
392.693;  -70.325; -860.000; -682.000
392.822;  273.400; -529.000; -534.000
392.950;  147.400; -880.000; -714.000
393.079;  400.925; -188.000; -328.000
393.208;   56.775; -488.000; -511.000
393.336;    0.475; -170.000; -145.000
393.465;  -47.100; -317.000; -199.000
393.593;    9.275;   62.000;   79.000
393.722; -153.975;-1121.000; -916.000
393.850;  -39.075; -188.000;  -61.000
393.979; -155.550; -926.000; -805.000
394.107;  -57.700; -517.000; -537.000
394.236;  -23.675; -570.000; -507.000
394.364;  208.775;  383.000;  206.000
394.493;  329.725; -911.000; -767.000
394.621;  -10.200; -955.000; -916.000
394.750;  629.425; -873.000; -923.000
394.878; 2627.850; -247.000; -149.000
395.007; 3544.925; -721.000; -807.000
395.135;  274.825; -790.000; -721.000
395.263;  -80.400;-1038.000;-1040.000
395.392;    5.600;  -25.000; -107.000
395.520; -135.000; -818.000; -679.000
395.648;  -65.800; -865.000; -915.000
395.777;   -4.125; -366.000; -405.000
395.905;  -39.425; -449.000; -564.000
396.033;   15.925;  217.000;  172.000
396.162;  568.550; -399.000; -453.000
396.290;  477.225;  -17.000;   -2.000
396.418;  150.925; -555.000; -514.000
396.546;  -38.850; -571.000; -466.000
396.674;  -87.500; -850.000; -878.000
396.803;   23.475;  -72.000;  -23.000
396.931;  142.900; -179.000; -199.000
397.059;  109.750;-1026.000; -989.000
397.187;  -88.600;-1026.000; -975.000
397.315; -132.025; -884.000; -649.000
397.443;  -99.350; -592.000; -443.000
397.572;  -71.850; -578.000; -424.000
397.700;   20.950; -607.000; -614.000
397.828;   29.975;  120.000;  -90.000
397.956;  -44.575; -508.000; -478.000
398.084;  -69.500; -767.000; -626.000
398.212;   49.800;  137.000;  124.000
398.340;   21.975;  -56.000;  159.000
398.468;   59.375; -390.000; -169.000
398.596; -128.475; -993.000; -953.000
398.724; -131.150; -762.000; -767.000
398.852; -160.475;-1024.000; -976.000
398.980;  -57.700; -560.000; -560.000
399.108;  -40.450; -982.000; -735.000
399.236;   54.625;   13.000;    8.000
399.363;    8.350;  222.000;  196.000
399.491;  -58.300; -404.000; -398.000
399.619; -112.600; -829.000; -800.000
399.747; -103.975; -859.000; -771.000
399.875;  105.450;  220.000;  234.000
400.003;  -62.000; -359.000; -284.000
400.130;  -94.525; -421.000; -341.000
400.258;   -5.425;  -83.000;   38.000
400.386;  -65.550; -352.000; -168.000
400.514;  -27.800; -526.000; -587.000
400.641;  -64.325; -928.000; -802.000
400.769; -134.450; -979.000; -888.000
400.897; -102.700; -838.000; -793.000
401.025;   -6.300; -166.000; -152.000
401.152;    7.950;  220.000;   38.000
401.280;  -79.750; -430.000; -429.000
401.408; -114.825; -712.000; -576.000
401.535;  -99.400; -735.000; -758.000
401.663; -183.800;-1134.000;-1054.000
401.790;  -81.200; -514.000; -525.000
401.918;   58.450;  436.000;  405.000
402.046;  -18.825;  134.000;  122.000
402.173;  -29.350;  -18.000;    7.000
402.301;  -57.025; -519.000; -397.000
402.428;   47.175;  528.000;  383.000
402.556; -146.900;-1188.000; -913.000
402.683;  -28.650;  -20.000;   -1.000
402.811;  -18.725;  -37.000; -206.000
402.938;    1.000;   20.000;   27.000
403.066;  275.650; -574.000; -558.000
403.193;  425.350;  299.000;  239.000
403.321;  333.800; -396.000; -574.000
403.448;  416.100;   83.000;   27.000
403.575;  172.775;  -90.000;  -46.000
403.703;  -88.550; -732.000; -557.000
403.830;  -65.850; -531.000; -496.000
403.957; -143.100;-1117.000;-1023.000
404.085;    9.525;  -61.000; -172.000
404.212;  106.675;  -50.000;   63.000
404.339;  241.875; -566.000; -306.000
404.467; 5157.750; -612.000; -524.000
404.594; 3668.150; -287.000; -227.000
404.721;  972.400; -869.000; -764.000
404.848;   93.450; -113.000; -202.000
404.976;  -98.500; -856.000; -783.000
405.103;   -1.450;  -14.000;  -82.000
405.230;  -14.500;  190.000;  226.000
405.357;   32.675;  117.000;   44.000
405.484;  238.125;  -49.000;    5.000
405.612;   44.425; -548.000; -563.000
405.739;  -59.000; -488.000; -243.000
405.866;   94.475;  669.000;  385.000
405.993;  -32.625; -398.000; -102.000
406.120; -128.925; -801.000; -887.000
406.247;  -45.750; -323.000; -342.000
406.374;  574.600;  540.000;  629.000
406.501;  166.800; -632.000; -702.000
406.628;  -64.475; -621.000; -589.000
406.755;  -94.175; -803.000; -620.000
406.882;  -22.550; -228.000; -277.000
407.009; -109.275; -719.000; -628.000
407.136;   83.050; -480.000; -401.000
407.263;  198.775; -939.000; -829.000
407.390;  -56.750; -692.000; -614.000
407.517; -155.275;-1139.000;-1187.000
407.644;  -47.325; -332.000; -256.000
407.771;  -59.150; -249.000; -287.000
407.898;   22.025;  168.000;  328.000
408.025;  -61.950; -421.000; -313.000
408.151;    3.550;   82.000;  153.000
408.278;  -65.475; -267.000; -216.000
408.405; -102.150; -931.000; -899.000
408.532;  -73.025; -549.000; -542.000
408.659; -107.975; -677.000; -648.000
408.785; -201.100;-1298.000;-1170.000
408.912;  -55.800; -412.000; -296.000
409.039; -113.475; -610.000; -686.000
409.166; -113.500; -591.000; -555.000
409.292; -103.575; -571.000; -534.000
409.419; -116.500; -665.000; -649.000
409.546;  -75.075; -431.000; -192.000
409.672; -113.725; -713.000; -545.000
409.799;  -21.300;  -36.000;   34.000
409.926;  -38.700; -180.000; -179.000
410.052; -177.875;-1127.000;-1091.000
410.179;  -57.050; -368.000; -392.000
410.305;  -86.325; -375.000; -493.000
410.432;  -30.475; -220.000; -333.000
410.558;  -88.200; -305.000; -380.000
410.685; -113.075; -688.000; -431.000
410.812;  -96.975; -409.000; -588.000
410.938; -131.875; -964.000; -808.000
411.065; -102.500; -671.000; -645.000
411.191;  -21.275; -189.000; -174.000
411.317; -115.325; -823.000; -742.000
411.444;  -63.875; -317.000; -246.000
411.570;  -74.200; -339.000; -294.000
411.697; -118.550; -758.000; -752.000
411.823; -175.000; -989.000; -999.000
411.949;  -23.125;  -56.000;   17.000
412.076; -109.575; -539.000; -519.000
412.202; -105.500; -758.000; -757.000
412.329; -122.225; -798.000; -752.000
412.455; -110.125; -821.000; -657.000
412.581;  -14.000;  -15.000;  172.000
412.707;  -59.550; -540.000; -457.000
412.834;   19.150;  156.000;  219.000
412.960;  -68.375; -785.000; -784.000
413.086;  -95.475; -743.000; -701.000
413.212;  198.825;  604.000;  578.000
413.339;  -57.400; -685.000; -701.000
413.465;   36.325; -364.000; -310.000
413.591;  -80.150; -757.000; -474.000
413.717;  -72.400; -358.000; -366.000
413.843; -138.075; -839.000; -861.000
413.969;  -40.325;  -47.000; -292.000
414.096;  -93.500; -679.000; -679.000
414.222;   -5.950;  -33.000;   85.000
414.348;    4.875; -652.000; -385.000
414.474;  134.700;   38.000;  -52.000
414.600;   -3.725; -126.000; -144.000
414.726;  -19.350;  -96.000;  -55.000
414.852;  -50.075; -365.000; -342.000
414.978;   40.525;  104.000;  -18.000
415.104;   51.950;   38.000;   80.000
415.230;   15.175; -329.000; -330.000
415.356;   46.450; -409.000; -514.000
415.482;  190.450;   13.000;  -35.000
415.608;  257.975; -247.000; -323.000
415.734;  922.700;   67.000;   38.000
415.860;18799.975; -875.000; -767.000
415.986;13439.500; -685.000; -607.000
416.111; 1142.825; -798.000; -652.000
416.237;  218.425; -424.000; -571.000
416.363;  997.825; -765.000; -733.000
416.489; 3717.925; -324.000; -251.000
416.615;  377.300; -707.000; -742.000
416.741;  -38.750; -677.000; -784.000
416.866;  -86.450; -673.000; -736.000
416.992; -113.100; -801.000; -818.000
417.118;  -11.550;  -41.000;  -80.000
417.244;  -60.925; -798.000; -531.000
417.369;  -79.825; -801.000; -612.000
417.495;    3.900; -325.000; -254.000
417.621;  -83.175;-1015.000; -803.000
417.746;    2.325; -579.000; -572.000
417.872;   41.750; -254.000; -144.000
417.998;   52.475; -515.000; -530.000
418.123;  946.325;-1073.000; -845.000
418.249; 4834.225; -512.000; -601.000
418.374;  646.650; -916.000; -824.000
418.500;   99.075; -383.000; -482.000
418.626;  118.125;   70.000;  -59.000
418.751;  113.350; -549.000; -448.000
418.877;  175.725; -637.000; -643.000
419.002; 1622.875; -688.000; -560.000
419.128;11380.175; -930.000; -721.000
419.253; 2719.475; -967.000; -837.000
419.379;  348.325; -391.000; -338.000
419.504;  384.900;  325.000;  415.000
419.629;  450.925; -393.000; -212.000
419.755; 3173.125; -317.000; -254.000
419.880;18322.800;  -98.000;   67.000
420.006;10322.350; -280.000; -221.000
420.131;26888.325; -662.000; -775.000
420.256; 3807.575; -315.000; -316.000
420.382;  515.600; -665.000; -687.000
420.507;   54.125; -649.000; -778.000
420.632;  189.850; -337.000; -339.000
420.758;  333.425; -251.000; -425.000
420.883;  -70.700; -876.000; -672.000
421.008;  -91.150; -775.000; -619.000
421.133;  -62.775; -509.000; -467.000
421.259;  -36.825; -325.000; -259.000
421.384;  -96.450; -834.000; -693.000
421.509;  -21.825;-1052.000; -862.000
421.634; 1561.000; -936.000; -820.000
421.759;  674.225; -359.000; -327.000
421.885;  -32.225; -717.000; -656.000
422.010;  -74.475; -673.000; -542.000
422.135; -147.800; -695.000; -727.000
422.260;   58.300;  340.000;  280.000
422.385;  -28.000;   12.000;  -98.000
422.510;    2.425;  151.000;  -26.000
422.635;   39.500;  -87.000;  -43.000
422.760;  112.950; -766.000; -791.000
422.885;   58.750;  -57.000;  -80.000
423.010;  -24.550; -112.000; -169.000
423.135;  -86.350; -481.000; -561.000
423.260;   -0.075; -150.000; -245.000
423.385;   82.525;  476.000;  222.000
423.510;   39.400;   71.000;  -22.000
423.635;   86.575;  133.000;   45.000
423.760;   65.875;  383.000;  328.000
423.885;   63.700;  336.000;  391.000
424.010;   16.950;  -68.000;  -13.000
424.135;  -21.750;    5.000;  -33.000
424.259;  -93.625; -654.000; -457.000
424.384;  -69.375; -279.000; -272.000
424.509;  -22.950; -260.000; -186.000
424.634;  -92.500; -761.000; -623.000
424.759;  -22.600; -688.000; -544.000
424.883;  -15.925; -506.000; -527.000
425.008;  152.850; -502.000; -410.000
425.133; 1835.825; -679.000; -653.000
425.258;  837.850; -517.000; -381.000
425.382; 1201.000; -867.000; -774.000
425.507; 3043.575; -487.000; -543.000
425.632;  472.625; -802.000; -663.000
425.756;  399.875; -256.000; -146.000
425.881; 5606.950; -831.000; -857.000
426.006;14914.050; -604.000; -355.000
426.130; 2346.425; -696.000; -508.000
426.255;  314.175; -611.000; -491.000
426.379;  145.550; -189.000; -577.000
426.504;  353.425;  660.000;  544.000
426.629; 3786.150; -519.000; -466.000
426.753; 2579.500;   64.000;  -46.000
426.878;  285.375; -252.000; -288.000
427.002;  133.050; -651.000; -668.000
427.127; 1506.325;  -35.000; -158.000
427.251;10277.975;  372.000;  401.000
427.375; 2926.575; -191.000; -173.000
427.500; 2615.050; -616.000; -610.000
427.624;  896.375; -234.000; -400.000
427.749;   98.275; -216.000; -225.000
427.873;  -23.475; -499.000; -412.000
427.997;  -51.250; -222.000; -230.000
428.122;   77.350;  795.000;  703.000
428.246;   85.625;  433.000;  434.000
428.371; -118.525; -869.000; -773.000
428.495;  -98.700; -624.000; -646.000
428.619;  -23.075; -186.000; -117.000
428.743;   32.650;   65.000;  132.000
428.868;   42.500; -732.000; -643.000
428.992; 1667.350; -219.000; -326.000
429.116;  686.450; -329.000; -357.000
429.240;  344.275;  419.000;  426.000
429.365;   -8.925; -454.000; -574.000
429.489;  -24.125; -638.000; -647.000
429.613;   32.950; -236.000; -177.000
429.737;   34.425; -563.000; -432.000
429.861;  256.675; -247.000; -133.000
429.985; 5130.425; -425.000; -305.000
430.109; 5531.525; -770.000; -908.000
430.234;  631.500;   76.000;  -50.000
430.358;   57.900; -250.000; -160.000
430.482;  -71.025; -672.000; -564.000
430.606;  -63.725; -655.000; -375.000
430.730;   31.000; -437.000; -388.000
430.854;  197.775; -909.000; -835.000
430.978;  -60.125; -795.000; -764.000
431.102;  -67.425; -499.000; -422.000
431.226; -106.025; -874.000; -815.000
431.350;   52.350;  345.000;  422.000
431.474;  -69.800; -661.000; -373.000
431.597; -130.450;-1060.000; -848.000
431.721;  -93.700; -276.000; -267.000
431.845; -126.950; -704.000; -472.000
431.969;  -78.550; -304.000; -349.000
432.093;  -86.175; -395.000; -317.000
432.217;  -21.350;   32.000;   82.000
432.341;  -82.275; -523.000; -518.000
432.464;   19.525;   96.000;   40.000
432.588;  265.950; -401.000; -329.000
432.712;  134.450;  -52.000;  -52.000
432.836;   55.000;  213.000;  263.000
432.959;  -33.700; -372.000; -311.000
433.083;   85.775;   11.000;    2.000
433.207;  342.875;  285.000;  930.000
433.330; 4556.675; -391.000; -200.000
433.454; 5531.025; -654.000; -638.000
433.578; 3252.200;  583.000;  278.000
433.701;  602.025; -623.000; -675.000
433.825;  177.675; -292.000; -299.000
433.949;  262.625;   28.000;  -72.000
434.072;  109.425; -410.000; -323.000
434.196;  -14.550; -309.000; -117.000
434.319; 3750.875;25482.000;25124.000
434.443;  729.375; -656.000; -603.000
434.566; 2420.450;  281.000;   62.000
434.690;  376.625; -637.000; -383.000
434.813;   39.675; -251.000; -173.000
434.937;  -59.075; -569.000; -696.000
435.060;  -28.425; -423.000; -332.000
435.184;  465.875; -492.000; -217.000
435.307;  241.250;  159.000;  102.000
435.431;  -11.400;  -40.000;   24.000
435.554;  -73.425; -399.000; -240.000
435.677;  -88.425; -350.000; -258.000
435.801;  -31.425;  -25.000;   49.000
435.924;   -7.100;    1.000;  -67.000
436.048; -104.075;-1019.000; -732.000
436.171;  -69.925; -240.000;  -66.000
436.294;  -19.375; -248.000; -229.000
436.417;   65.225; -963.000; -849.000
436.541;  -88.450; -814.000; -840.000
436.664;  -42.000; -242.000; -316.000
436.787;  -23.450;   13.000;  113.000
436.910; -107.200; -792.000; -422.000
437.034;   29.950;  142.000;  143.000
437.157;   75.125;  -11.000;    0.000
437.280;  -27.200; -392.000; -292.000
437.403;  -61.125; -982.000; -869.000
437.526;  904.050; -903.000; -865.000
437.649; 3087.800; -505.000; -332.000
437.772;  474.000; -692.000; -540.000
437.896;  157.775;  700.000;  544.000
438.019;  -89.175; -758.000; -503.000
438.142;  -72.000; -596.000; -506.000
438.265;   17.250; -639.000; -670.000
438.388;  736.450; -520.000; -410.000
438.511;  144.875; -597.000; -394.000
438.634;  -43.050; -247.000; -125.000
438.757; -131.700; -693.000; -619.000
438.880;  -19.975;  -34.000;  -57.000
439.003;  -64.525; -417.000; -437.000
439.126;  -47.575; -287.000; -167.000
439.248;  -56.725;  -98.000; -139.000
439.371;  -57.450;    9.000;  -53.000
439.494;   36.925;  510.000;  439.000
439.617;  -55.875;   65.000;  -88.000
439.740; -187.250; -968.000; -816.000
439.863; -148.550; -755.000; -595.000
439.986; -125.400; -476.000; -431.000
440.108;  -42.300; -161.000; -112.000
440.231; -157.525; -950.000; -836.000
440.354;  -32.675;  -64.000; -150.000
440.477;   71.825; -566.000; -542.000
440.599;   27.250; -200.000; -225.000
440.722; -129.025; -709.000; -586.000
440.845;   69.425;  751.000;  928.000
440.968; -114.875; -415.000; -311.000
441.090;  -53.850; -199.000;  -33.000
441.213; -174.975;-1021.000; -825.000
441.336;  -41.775; -159.000;   -5.000
441.458;  -76.500; -549.000; -396.000
441.581;  -75.125; -628.000; -629.000
441.703;  -75.025; -152.000;   13.000
441.826; -117.600; -557.000; -400.000
441.948;  -52.850;   56.000;   51.000
442.071;   33.450;  555.000;  424.000
442.193; -115.850; -531.000; -485.000
442.316;   24.425;  152.000;   97.000
442.438;   30.200; -233.000;  -10.000
442.561;   93.350;  272.000;  262.000
442.683;  760.075; -809.000; -522.000
442.806; 1546.725;   -8.000;   74.000
442.928;   78.775; -859.000; -604.000
443.051;  -64.150; -577.000; -373.000
443.173;  -87.325; -341.000; -339.000
443.295;  -82.000; -263.000; -371.000
443.418;  -70.050; -321.000;  -29.000
443.540;    3.375; -106.000;   -4.000
443.662; -127.625; -563.000; -465.000
443.785;  -11.850;  335.000;  199.000
443.907; -110.850; -362.000; -208.000
444.029; -114.775; -767.000; -494.000
444.152; -141.850; -644.000; -554.000
444.274;  -35.875;  -18.000;  -24.000
444.396; -125.800; -461.000; -221.000
444.518; -134.975; -691.000; -454.000
444.640;  -99.925; -268.000; -111.000
444.763;  -19.000;  388.000;  249.000
444.885; -131.350; -432.000; -392.000
445.007;  -33.800;   35.000;   86.000
445.129; -110.450; -610.000; -515.000
445.251;  -91.275; -372.000; -439.000
445.373; -137.400; -537.000; -386.000
445.495;    1.900;  242.000;  350.000
445.617;   49.775;  853.000;  753.000
445.739;  -72.650; -215.000;  -97.000
445.861;  -28.650; -245.000; -112.000
445.984;  -25.750; -267.000; -101.000
446.105;  253.100; -418.000; -251.000
446.227;  793.525; -176.000;  -19.000
446.349;   40.225; -358.000; -249.000
446.471;  -88.825; -615.000; -448.000
446.593;  -56.425; -316.000;   19.000
446.715;    7.425;  -67.000;   41.000
446.837;   68.550;  697.000;  832.000
446.959;  -91.300; -457.000; -478.000
447.081; -133.775; -628.000; -518.000
447.203;   59.750;  862.000;  834.000
447.325;  -90.250; -270.000;   42.000
447.446;   -3.525;  286.000;  530.000
447.568; -146.325; -921.000; -803.000
447.690;  -73.100; -236.000; -245.000
447.812; -152.150; -798.000; -519.000
447.933;  -23.750;  155.000;  127.000
448.055;  -62.400; -306.000; -261.000
448.177;  194.625;   31.000;   79.000
448.299;  160.350; -935.000; -727.000
448.420;   36.075;  -25.000;  159.000
448.542;  -42.150;   -3.000;   33.000
448.664;  -21.200;  109.000;  322.000
448.785;  -45.300;  265.000;   83.000
448.907;  -72.550; -614.000; -353.000
449.028;  -28.325; -771.000; -471.000
449.150;   61.800;  492.000;  589.000
449.272; -176.800;-1044.000; -913.000
449.393;   28.425;  612.000;  694.000
449.515; -142.875; -634.000; -581.000
449.636;  -53.450; -264.000; -155.000
449.758;   99.800;  763.000;  622.000
449.879;  -98.025; -498.000; -396.000
450.001;  -76.800; -149.000;  -49.000
450.122;  -28.375;  -95.000;  162.000
450.244;  -18.525;   37.000;  364.000
450.365; -106.125; -495.000; -301.000
450.486;  -31.275;   80.000;  268.000
450.608;   19.000;  393.000;  326.000
450.729;   47.800;  578.000;  645.000
450.850;  -24.950; -574.000; -466.000
450.972;  644.800; -552.000; -389.000
451.093; 4304.150;  190.000;  588.000
451.214; 1818.075; -516.000; -337.000
451.336;  342.625;  773.000;  579.000
451.457;   55.475;  264.000;  393.000
451.578;  -49.375; -118.000;  -74.000
451.699; -118.575; -546.000; -540.000
451.821;  -74.925; -284.000;  -50.000
451.942;  -15.450;  278.000;  285.000
452.063;   17.825;  228.000;  419.000
452.184;  492.575;  -54.000;  -49.000
452.305;  994.125;  103.000;  170.000
452.427;   97.425; -549.000; -301.000
452.548;  -18.425;   23.000;   79.000
452.669;  -56.450; -257.000;  -89.000
452.790;  -39.400;    3.000;  -18.000
452.911;  -14.900;  195.000;  259.000
453.032;  -62.950; -289.000;  -60.000
453.153;  -28.750;  -29.000;   81.000
453.274;   59.400;  737.000;  868.000
453.395;  -32.675;  -51.000;  175.000
453.516;  136.800; 1317.000; 1388.000
453.637;  -60.450; -205.000; -150.000
453.758;  -56.525;   15.000;   69.000
453.879; -123.075; -462.000; -250.000
454.000;   81.650; 1086.000;  948.000
454.121; -112.775; -554.000; -326.000
454.242; -102.375; -599.000; -383.000
454.362;  -58.700;  -99.000;  114.000
454.483;  -21.125; -309.000; -229.000
454.604;   58.325;  512.000;  580.000
454.725; -118.675; -627.000; -555.000
454.846; -139.900; -474.000; -406.000
454.967;  -30.550;  230.000;  539.000
455.087;  -46.200;  179.000;  153.000
455.208;   11.725;  554.000;  856.000
455.329;  -76.825;  -22.000;   82.000
455.450;   26.700;  473.000;  633.000
455.570;  -83.725; -234.000; -211.000
455.691;  -45.125;  201.000;  407.000
455.812; -109.250; -270.000;  -92.000
455.932;  -63.775;  107.000;  -97.000
456.053;  -84.675;   36.000;   24.000
456.173; -113.075; -433.000; -355.000
456.294; -125.000; -476.000; -303.000
456.415;  -64.275;  -73.000;   70.000
456.535;  -42.975;  297.000;  273.000
456.656;  -36.625;  132.000;  240.000
456.776;  -57.700;    3.000;  298.000
456.897;  -10.325;  308.000;  513.000
457.017;  -70.250; -153.000;   -3.000
457.138; -112.425; -402.000; -249.000
457.258;  -32.950;  263.000;  224.000
457.379;   -2.100;  509.000;  521.000
457.499;  -12.025;  443.000;  432.000
457.620; -126.400; -407.000; -231.000
457.740; -108.225; -132.000;  -11.000
457.860;  -63.300;   87.000;   44.000
457.981;  -47.175;  132.000;  124.000
458.101;  -80.375;  -89.000;   40.000
458.221;  -18.550;  336.000;  402.000
458.342;  -57.975;   -4.000;  -37.000
458.462;   28.550;  617.000;  352.000
458.582;  -53.225; -302.000; -294.000
458.703;   -4.100;  303.000;  154.000
458.823;  -48.000;   22.000;  163.000
458.943;   17.225;  341.000;  467.000
459.063;   -5.675; 1124.000;  192.000
459.183;  -21.900;  328.000;  313.000
459.304;    9.000;  315.000;  517.000
459.424;  -48.725; -246.000;  -89.000
459.544;  295.825;  388.000;  764.000
459.664;  751.375;  499.000;  506.000
459.784;  273.050; 1004.000; 1175.000
459.904;   46.025;  867.000;  744.000
460.024;   68.525;  867.000;  684.000
460.144;   28.700;  449.000;  554.000
460.264;    1.875;  515.000;  327.000
460.385;  -97.275; -145.000; -119.000
460.505;   24.400;  905.000;  858.000
460.625;  -91.525;  -17.000;  -68.000
460.745;  -24.875;  396.000;  541.000
460.864;  -48.450;  153.000;  469.000
460.984;   14.675;  499.000;  573.000
461.104;  141.325; 1656.000; 1775.000
461.224;   16.850;  657.000;  650.000
461.344;  -29.775;  431.000;  360.000
461.464;  -30.875;  258.000;  513.000
461.584;  -13.400;  283.000;  466.000
461.704;  -33.650;   58.000;  108.000
461.824;  -66.400;  238.000;  259.000
461.943;  -55.750;  191.000;  130.000
462.063;  -72.750;    2.000;  324.000
462.183;   43.250;  639.000;  717.000
462.303;  113.275; 1678.000; 1230.000
462.422;   37.600;  781.000;  840.000
462.542;  -40.200;  271.000;  391.000
462.662;   36.725;  353.000;  380.000
462.782;  224.150;  833.000;  572.000
462.901;  435.275;  545.000;  717.000
463.021;  271.350; 1702.000; 1638.000
463.141;  -11.875;  337.000;  770.000
463.260;  -24.950;  614.000;  474.000
463.380;   17.725;  902.000;  884.000
463.499;  -36.400;  342.000;  332.000
463.619;  -23.425;  581.000;  559.000
463.738;  110.800; 1644.000;  903.000
463.858;   15.875;  657.000;  811.000
463.978;  -42.600;  542.000;  396.000
464.097;   41.325;  921.000; 1114.000
464.217;  112.400; 1196.000; 1143.000
464.336;   97.300; 1068.000; 1130.000
464.455;  -33.475;  328.000;  659.000
464.575;   39.175;  597.000;  602.000
464.694;  186.800; 1204.000; 1179.000
464.814;  109.425; 1190.000; 1138.000
464.933;   80.925; 1095.000; 1027.000
465.052;  100.575; 1412.000; 1054.000
465.172;  100.900;  922.000;  799.000
465.291;  149.775; 1376.000; 1320.000
465.410;    7.000;  462.000;  735.000
465.530;   89.950; 1355.000; 1310.000
465.649;   86.375; 1209.000; 1273.000
465.768;  143.100; 1673.000; 1508.000
465.888;   52.375;  941.000; 1174.000
466.007;  116.100; 1335.000; 1440.000
466.126;    6.325;  721.000;  641.000
466.245;   53.400; 1176.000; 1187.000
466.364;   23.525;  950.000; 1060.000
466.484;   60.350; 1024.000; 1213.000
466.603;   33.425; 1101.000; 1222.000
466.722;  136.300; 1490.000; 1769.000
466.841;   85.625; 1151.000; 1401.000
466.960;   36.375; 1069.000;  972.000
467.079;  134.950; 1971.000; 1786.000
467.198;   45.450; 1238.000; 1181.000
467.317;   92.750; 1768.000; 1162.000
467.436;   78.925; 1709.000; 1261.000
467.555;  114.250; 1796.000; 1746.000
467.674;   56.600; 1227.000; 1329.000
467.793;   58.875; 1376.000; 1374.000
467.912;   95.625; 1658.000; 1539.000
468.031;  135.825; 2038.000; 1930.000
468.150;  136.425; 1842.000; 1837.000
468.269;  188.650; 2313.000; 2090.000
468.388;  181.375; 2168.000; 2339.000
468.507;  258.625; 2884.000; 2903.000
468.626;  233.700; 2555.000; 2541.000
468.744;  154.975; 2018.000; 2174.000
468.863;  195.150; 2312.000; 2523.000
468.982;  103.825; 1503.000; 1555.000
469.101;  239.700; 2788.000; 2692.000
469.220;  159.775; 2333.000; 2176.000
469.338;  248.650; 2935.000; 3051.000
469.457;  196.375; 2719.000; 2545.000
469.576;  360.025; 3953.000; 3784.000
469.695;  230.800; 2877.000; 3066.000
469.813;  436.550; 4148.000; 4192.000
469.932;  397.725; 4255.000; 4485.000
470.051;  446.400; 4075.000; 4161.000
470.169;  811.400; 4470.000; 4338.000
470.288; 1381.925; 4700.000; 4809.000
470.406;  829.050; 5059.000; 5194.000
470.525;  638.000; 6101.000; 5787.000
470.644;  643.525; 6847.000; 6794.000
470.762;  817.675; 8397.000; 7873.000
470.881;  901.775; 8651.000; 8464.000
470.999; 1029.975; 9685.000; 9151.000
471.118; 1108.600;11174.000;10711.000

