
Integration time [ms]: 100.000
Averaging Nr. [scans]: 40
Smoothing Nr. [pixels]: 0
Data measured with spectrometer [name]: 2101012U2
Wave   ;Sample   ;Dark     ;Reference
[nm]   ;[counts] ;[counts] ;[counts] 

197.733;   51.400;  516.000;  404.000
197.879;  -74.950; -610.000; -634.000
198.025;  -47.700; -475.000; -420.000
198.171;  -58.725; -602.000; -612.000
198.317;  -25.925; -401.000; -316.000
198.463;  -63.600; -655.000; -404.000
198.609;   23.675;  181.000; -137.000
198.755;  -85.125; -644.000; -410.000
198.901;  -69.975; -505.000; -424.000
199.047;  -50.175; -615.000; -488.000
199.193;  -38.500; -230.000; -468.000
199.339;  -38.800; -222.000; -369.000
199.485;   34.200;  330.000;  271.000
199.631;   13.300;  227.000;  310.000
199.777;  -42.925; -466.000; -398.000
199.923;  -53.975; -610.000; -424.000
200.069;  -11.850; -141.000;  -58.000
200.215;   57.700;  128.000;  453.000
200.361;   50.800;  243.000;  477.000
200.507;  -65.750; -600.000; -373.000
200.653;  -30.450; -371.000; -194.000
200.798;  -39.325; -215.000; -125.000
200.944;  -21.900; -146.000;  -41.000
201.090;   37.625;   61.000;  222.000
201.236;   -7.375; -116.000; -158.000
201.382;  119.325;  874.000;  903.000
201.528;   -1.125;  -58.000;  -48.000
201.674;  -29.900; -386.000; -293.000
201.819;  -62.000; -540.000; -439.000
201.965;  -80.650; -699.000; -447.000
202.111;  -20.575; -273.000; -226.000
202.257;  -32.150; -250.000; -238.000
202.402;   -4.625;   13.000;  -36.000
202.548;  -31.775; -169.000; -116.000
202.694;   65.375;  410.000; -183.000
202.840;  -73.550; -603.000; -531.000
202.985;  -83.075; -681.000; -639.000
203.131; -101.025; -832.000; -666.000
203.277;  -23.600; -199.000; -262.000
203.423;  -53.175; -434.000; -520.000
203.568;  -40.525; -462.000; -237.000
203.714;  -66.150; -535.000; -542.000
203.860;  -86.600; -682.000; -641.000
204.005;    6.275;  112.000;  167.000
204.151;   64.000;  561.000;  556.000
204.296;  -34.875; -354.000; -221.000
204.442;  -69.600; -600.000; -547.000
204.588;  -86.375; -592.000; -579.000
204.733;   29.650;  178.000;  168.000
204.879; -116.925;-1018.000; -822.000
205.025;  -14.025;  -99.000;  126.000
205.170;    4.025;  -17.000;   94.000
205.316;   71.825;  438.000;  661.000
205.461;  -88.550; -698.000; -554.000
205.607;   77.975;  609.000;  665.000
205.752;  -74.900; -626.000; -551.000
205.898;  -54.975; -501.000; -391.000
206.043;  -48.475; -578.000; -506.000
206.189;  -48.350; -243.000; -285.000
206.334;   81.400;  554.000;  606.000
206.480;   77.400;  409.000;  239.000
206.625;  -79.650; -529.000; -552.000
206.771;  -53.500; -451.000; -373.000
206.916;  -25.350; -210.000; -537.000
207.062;  -73.875; -545.000; -591.000
207.207;  -58.400; -546.000; -443.000
207.353;   48.200;  185.000;  460.000
207.498;   12.125;  196.000;   85.000
207.643;  -64.275; -501.000; -370.000
207.789; -124.425;-1069.000; -910.000
207.934;  -89.275; -665.000; -713.000
208.080;  -12.475; -154.000;   66.000
208.225;   -9.150;  -22.000;  -57.000
208.370;  -84.425; -727.000; -619.000
208.516;  -90.850; -741.000; -487.000
208.661;  -17.325; -127.000;  -69.000
208.806;  -35.850; -165.000; -171.000
208.952; -125.675;-1044.000; -731.000
209.097;   72.525;  378.000;  349.000
209.242;  -39.400; -307.000; -382.000
209.387;   62.200;  392.000;  350.000
209.533;  -55.925; -321.000; -350.000
209.678;   71.375;  472.000;  543.000
209.823;  -54.150; -408.000; -310.000
209.969; -116.300; -860.000; -757.000
210.114; -108.950; -907.000; -719.000
210.259; -129.925; -939.000; -889.000
210.404;    1.000; -171.000;  103.000
210.549;    5.850;  108.000;    3.000
210.695;  -13.150;   -3.000;  -95.000
210.840;   12.525;   94.000;   67.000
210.985;  -59.925; -484.000; -303.000
211.130;   55.000;  268.000;  406.000
211.275;   18.200;  207.000;  199.000
211.420;  -52.075; -300.000; -289.000
211.566;  -59.800; -536.000; -489.000
211.711;    8.775;  218.000;  157.000
211.856;  -58.275; -545.000; -519.000
212.001;    4.675;  151.000;   44.000
212.146;   31.675;  153.000;   49.000
212.291;  -22.300; -210.000; -186.000
212.436;  -29.950; -280.000;   -6.000
212.581;  -89.775; -685.000; -653.000
212.726;  -75.250; -487.000; -538.000
212.871;  -52.225; -552.000; -217.000
213.016; -136.850;-1172.000;-1029.000
213.161;   47.725;  406.000;  291.000
213.306;  -70.775; -435.000; -577.000
213.451; -106.625; -778.000; -689.000
213.596;  -60.500; -455.000; -347.000
213.741;  -58.000; -448.000; -538.000
213.886;  -73.525; -498.000; -517.000
214.031;  -14.275; -294.000; -124.000
214.176;  -42.125; -408.000; -341.000
214.321;  -24.500; -296.000; -157.000
214.466;  -27.325; -163.000;  -43.000
214.611;  -16.850;  -61.000;  -10.000
214.756; -131.800; -948.000; -858.000
214.901;  -20.675; -388.000; -226.000
215.046; -111.200; -797.000; -825.000
215.191;    8.475;  128.000;   35.000
215.336;  -20.350; -157.000;  -19.000
215.480;  -66.625; -684.000; -505.000
215.625;   -6.275; -175.000;  -19.000
215.770;  -84.200; -757.000; -662.000
215.915;   -4.650;   -5.000;  -97.000
216.060;  -14.375; -113.000;  -21.000
216.205; -100.475; -731.000; -779.000
216.349;  -84.975; -470.000; -533.000
216.494; -121.150; -939.000; -867.000
216.639; -122.225; -823.000; -888.000
216.784;  -83.025; -577.000; -525.000
216.929;   51.625;  392.000;  281.000
217.073;   -5.100; -244.000;  -31.000
217.218;   -9.075;   78.000;  -47.000
217.363;  -89.175; -656.000; -618.000
217.507;  -87.925; -623.000; -588.000
217.652; -116.250; -845.000; -874.000
217.797;  -87.775; -708.000; -659.000
217.942; -116.850; -856.000; -720.000
218.086;   71.150;  608.000;  539.000
218.231;  -23.750; -174.000;  -26.000
218.376;  -42.325; -337.000; -229.000
218.520;   10.275;  -41.000;   96.000
218.665;  -37.025; -338.000; -204.000
218.810;  -34.700; -275.000; -233.000
218.954;   13.950;  201.000;   35.000
219.099; -101.575; -713.000; -963.000
219.243;  -75.750; -589.000; -554.000
219.388;  -37.475; -264.000; -136.000
219.532;  -15.525; -116.000; -116.000
219.677;  -68.025; -564.000; -521.000
219.822;   -1.600;   33.000;   89.000
219.966;    6.050;   17.000;  -99.000
220.111;  -45.875; -328.000;  -40.000
220.255;  -88.775; -797.000; -750.000
220.400;  -31.100; -180.000; -146.000
220.544;  -74.000; -516.000; -450.000
220.689;  -63.525; -422.000; -451.000
220.833;  -24.975; -123.000;  -58.000
220.978;  -52.900; -393.000; -563.000
221.122;   27.325;  319.000;  307.000
221.267; -123.600; -906.000; -837.000
221.411;  -60.825; -478.000; -394.000
221.555;    1.825; -104.000;  -23.000
221.700;  -47.275; -329.000; -222.000
221.844;   24.975;  255.000;  272.000
221.989;  -49.225; -328.000; -311.000
222.133;  -29.825; -289.000; -307.000
222.277;    2.250;    5.000;   78.000
222.422;    9.450;  227.000;  113.000
222.566;  -36.975; -381.000; -214.000
222.711;  -56.800; -414.000; -479.000
222.855;  -83.075; -643.000; -586.000
222.999;  -88.625; -642.000; -717.000
223.144;  -17.325; -195.000; -194.000
223.288;   44.000;  423.000;  251.000
223.432;   18.375;  184.000;  230.000
223.576;    9.350;  152.000;  -21.000
223.721;   49.775;  364.000;  273.000
223.865;  -61.100; -472.000; -475.000
224.009;  249.575; 1673.000; 1631.000
224.153;  -90.850; -660.000; -671.000
224.298;  -63.150; -531.000; -489.000
224.442;  -16.925;  -74.000;  -33.000
224.586;    0.325; -169.000; -106.000
224.730;  -93.500; -858.000; -670.000
224.875; -108.075; -739.000; -688.000
225.019;   12.100;  102.000;  188.000
225.163;   52.550;  208.000;  341.000
225.307;   22.500;   97.000;  -91.000
225.451;   55.425;  360.000;  481.000
225.595;   25.625;  264.000;  176.000
225.739;  -10.850; -170.000;  -94.000
225.884;   -2.050;   86.000;    5.000
226.028;  -98.475; -760.000; -626.000
226.172;  -44.500; -260.000; -273.000
226.316; -109.475; -941.000; -902.000
226.460;  -75.325; -645.000; -493.000
226.604;  -52.250; -406.000; -400.000
226.748;  -96.675; -836.000; -733.000
226.892;  -37.825; -227.000; -181.000
227.036;  -53.575; -537.000; -447.000
227.180;  -44.925; -551.000; -375.000
227.324;  -80.925; -561.000; -580.000
227.468; -100.650; -819.000; -717.000
227.612;    7.600;  242.000;  -28.000
227.756; -103.725; -845.000; -698.000
227.900;   55.050;  342.000;  441.000
228.044;  -61.650; -509.000; -290.000
228.188;   40.475;  448.000;  568.000
228.332;  -84.550; -546.000; -472.000
228.476;  -37.875; -223.000; -149.000
228.620;  -38.625; -210.000; -150.000
228.764;   55.425;  431.000;  349.000
228.908;  -23.450; -155.000;   30.000
229.052;  -77.025; -615.000; -528.000
229.195;  -20.150; -172.000;   13.000
229.339;  -36.800; -235.000; -305.000
229.483;  -13.225;    5.000; -162.000
229.627;   -2.700; -156.000;  139.000
229.771;  -50.850; -218.000; -294.000
229.915;    2.500;  230.000;   79.000
230.059;  -87.300; -648.000; -663.000
230.202;  -49.975; -370.000; -317.000
230.346;  -24.100; -107.000;  107.000
230.490;  -92.350; -489.000; -521.000
230.634; -101.725; -736.000; -553.000
230.777;   58.075;  478.000;  509.000
230.921;  -42.450; -450.000; -359.000
231.065;  -48.500; -246.000; -286.000
231.209;   21.250;  261.000;  265.000
231.352;   22.050;   54.000;   40.000
231.496;   33.650;  568.000;  188.000
231.640;  -77.325; -693.000; -621.000
231.783;   58.300;  546.000;  525.000
231.927;  -42.775; -294.000; -365.000
232.071; -121.725; -962.000; -736.000
232.214; -120.400; -980.000; -764.000
232.358;  -86.375; -683.000; -599.000
232.502;    1.700;  -19.000;    7.000
232.645; -132.500;-1090.000; -927.000
232.789;  -32.350; -257.000; -218.000
232.933;  -48.550; -407.000; -224.000
233.076; -124.325;-1038.000; -897.000
233.220; -104.200; -752.000; -777.000
233.363;  -90.825; -669.000; -477.000
233.507;   58.600;  371.000;  129.000
233.650;  -90.350; -764.000; -834.000
233.794;   43.800;  438.000;  461.000
233.938;  -64.825; -530.000; -362.000
234.081;   -8.800;  -93.000;   31.000
234.225;  -83.775; -631.000; -539.000
234.368; -111.625; -773.000; -723.000
234.512;  -43.000; -385.000; -299.000
234.655;  -95.800; -582.000; -555.000
234.798;  -67.975; -493.000; -466.000
234.942; -120.500; -884.000;-1002.000
235.085;  -84.925; -651.000; -443.000
235.229;  -70.400; -405.000; -410.000
235.372;  -57.650; -247.000; -191.000
235.516;  -50.950; -397.000; -321.000
235.659;   11.225;   92.000;  121.000
235.802;   -8.800;  -38.000;  -22.000
235.946;    0.525;  335.000;  215.000
236.089;   24.500;  126.000;  250.000
236.233;   43.675;  275.000;  298.000
236.376;  -50.150; -235.000; -378.000
236.519;  -47.975; -297.000; -319.000
236.663;  -28.225; -215.000; -117.000
236.806; -144.750;-1029.000; -999.000
236.949;   71.075;  543.000;  431.000
237.092;   48.675;  412.000;  391.000
237.236;  -74.500; -589.000; -502.000
237.379;   63.975;  352.000;  428.000
237.522; -110.350; -879.000; -768.000
237.666;  -11.400; -271.000;   18.000
237.809; -131.075; -851.000; -823.000
237.952;   23.650;  469.000;  271.000
238.095;  -50.550; -447.000; -442.000
238.238;   66.975;  688.000;  700.000
238.382;   -4.375;  166.000;  103.000
238.525;  -64.450; -598.000; -511.000
238.668; -130.075;-1060.000; -985.000
238.811;  -97.225; -638.000; -643.000
238.954;  -65.050; -483.000; -334.000
239.097;   95.225;  617.000;  664.000
239.241;   26.975;  394.000;  326.000
239.384;  -46.025; -254.000; -214.000
239.527;  -66.525; -424.000; -224.000
239.670; -153.875; -994.000;-1091.000
239.813; -102.150; -696.000; -658.000
239.956;   70.550;  579.000;  473.000
240.099; -115.800; -778.000; -725.000
240.242;   46.750;  428.000;  432.000
240.385;   48.550;  466.000;  450.000
240.528;  -83.750; -706.000; -473.000
240.671;   14.525;  189.000;  134.000
240.814;  -44.700; -441.000; -158.000
240.957; -101.700; -767.000; -578.000
241.100;  -95.000; -779.000; -755.000
241.243; -152.500;-1234.000; -893.000
241.386;  -67.100; -508.000; -379.000
241.529;  -96.125; -735.000; -547.000
241.672;  -71.750; -566.000; -495.000
241.815; -105.800; -832.000; -808.000
241.958;  -31.150; -125.000; -182.000
242.101;  -79.100; -545.000; -390.000
242.244;  -50.450; -270.000; -325.000
242.387;  -38.100; -304.000; -246.000
242.530;   43.225;  470.000;  134.000
242.673;  -47.750; -381.000; -309.000
242.815; -121.250; -925.000; -899.000
242.958;  -65.775; -482.000; -381.000
243.101;    8.975;  132.000;  187.000
243.244;  -87.825; -564.000; -521.000
243.387;  -61.400; -313.000; -316.000
243.530;  -97.750; -657.000; -674.000
243.672;   -4.450;   43.000;  -92.000
243.815;  -54.025; -355.000; -283.000
243.958;  -14.100;   98.000;  -26.000
244.101;    0.650;   59.000;  -16.000
244.243;  -26.475;  -47.000;  101.000
244.386; -115.500; -761.000; -630.000
244.529;  -47.600; -132.000; -139.000
244.672; -159.775;-1154.000; -951.000
244.814; -109.150; -621.000; -794.000
244.957;  -69.700; -380.000; -304.000
245.100;  -81.875; -489.000; -489.000
245.242;  -44.500; -387.000; -374.000
245.385;   -2.300;  -59.000;  -39.000
245.528; -113.600; -871.000; -705.000
245.670;   79.625;  612.000;  634.000
245.813;  -87.600; -599.000; -547.000
245.956;  -24.650; -324.000; -275.000
246.098;  -78.200; -508.000; -650.000
246.241;    0.975;  194.000;   48.000
246.383;   -4.225; -119.000;  -73.000
246.526;  -87.675; -454.000; -525.000
246.669; -128.625; -889.000; -780.000
246.811;    5.925;  172.000;   -1.000
246.954;  -71.275; -512.000; -426.000
247.096;  -33.700;  -84.000;   -6.000
247.239;  -68.450; -482.000; -445.000
247.381;  -76.200; -647.000; -488.000
247.524;   91.250;  645.000;  679.000
247.666;  -15.750;   58.000;   11.000
247.809; -117.450; -887.000; -691.000
247.951;  -31.250;  -75.000;  138.000
248.094;   31.800;  432.000;  308.000
248.236; -151.100;-1262.000;-1238.000
248.378;   27.150; -356.000;  -81.000
248.521;  -25.400; -334.000; -337.000
248.663;  -45.525; -236.000; -267.000
248.806;  -27.925; -300.000; -266.000
248.948; -102.450; -886.000; -763.000
249.090;  -43.450; -428.000; -398.000
249.233;  -44.875; -344.000; -381.000
249.375;  -86.475; -474.000; -451.000
249.518;  -16.825;  -83.000; -133.000
249.660;  -10.325; -103.000;    3.000
249.802; -167.350;-1303.000;-1189.000
249.945;  -89.550; -612.000; -540.000
250.087; -102.150; -834.000; -768.000
250.229;  -61.625; -362.000; -480.000
250.371;  -64.025; -494.000; -439.000
250.514;  -64.875; -310.000; -244.000
250.656;  -73.100;   69.000;  102.000
250.798; -120.150; -849.000; -800.000
250.940;  -71.700; -322.000; -322.000
251.083;  -36.650; -335.000; -111.000
251.225;   54.550;  338.000;  310.000
251.367;  -36.400; -274.000; -373.000
251.509;  -35.900; -265.000; -210.000
251.651; -105.950; -731.000; -671.000
251.794;   43.975;  538.000;  632.000
251.936; -103.625; -821.000; -747.000
252.078;  -70.400; -540.000; -461.000
252.220;  -86.975; -645.000; -477.000
252.362;   76.750;  344.000;  462.000
252.504;  -78.875; -677.000; -584.000
252.646; -114.025; -875.000; -722.000
252.788;  -17.500;   14.000; -128.000
252.931;  -37.975; -257.000; -253.000
253.073;  -44.325; -376.000; -317.000
253.215;    6.375;  141.000;  122.000
253.357;  -12.025;   82.000; -153.000
253.499;  -45.725; -374.000; -234.000
253.641;  -91.025; -749.000; -594.000
253.783;  -88.075; -609.000; -527.000
253.925;  -97.625; -586.000; -591.000
254.067;  -99.725; -744.000; -667.000
254.209;  -27.350; -391.000; -259.000
254.351; -142.150; -865.000; -883.000
254.493;  -60.450; -441.000; -417.000
254.635; -130.750; -936.000; -818.000
254.777;  -86.200; -752.000; -687.000
254.918;  -59.525; -512.000; -430.000
255.060;  -62.925; -551.000; -395.000
255.202;  -59.050; -473.000; -261.000
255.344;  -92.250; -658.000; -455.000
255.486;  -80.425; -471.000; -406.000
255.628; -107.525; -780.000; -781.000
255.770;  -83.700; -676.000; -536.000
255.912;  -72.300; -559.000; -468.000
256.053;  -95.350; -730.000; -508.000
256.195;  144.100; 1008.000;  903.000
256.337; -111.375; -861.000; -595.000
256.479;   48.600;  532.000;  416.000
256.621;  -43.850; -394.000; -212.000
256.762; -106.950; -789.000; -742.000
256.904;   46.300;  485.000;  487.000
257.046;  -53.250; -381.000; -271.000
257.188;  -40.200; -351.000; -264.000
257.329;  -75.475; -525.000; -464.000
257.471; -116.975; -939.000; -807.000
257.613;  -71.025; -584.000; -498.000
257.755; -151.850;-1073.000; -982.000
257.896;   30.650;  286.000;  392.000
258.038;  -76.525; -403.000; -352.000
258.180;  -50.375; -354.000; -279.000
258.321;  -91.200; -581.000; -457.000
258.463;   -3.275;  -71.000;  133.000
258.605;  -82.750; -562.000; -570.000
258.746; -109.375; -886.000; -772.000
258.888; -152.200;-1026.000;-1020.000
259.029;    9.275;  121.000;   -8.000
259.171; -103.875; -614.000; -550.000
259.313;   -3.950;  -49.000;  -47.000
259.454;  -64.825; -536.000; -414.000
259.596;  -73.450; -483.000; -390.000
259.737;  -67.350; -590.000; -474.000
259.879;   27.775;  217.000;  311.000
260.020;   82.900;  901.000;  636.000
260.162;  -22.800; -146.000; -253.000
260.303; -117.600; -768.000; -687.000
260.445;  -91.775; -609.000; -613.000
260.586;   22.425;  392.000;  157.000
260.728;  -50.775; -360.000; -248.000
260.869; -106.125; -350.000; -343.000
261.011;   66.525;  706.000;  537.000
261.152;  -60.450; -479.000; -319.000
261.293;  -84.075; -576.000; -595.000
261.435;  -33.650; -219.000; -184.000
261.576;  -66.400; -455.000; -325.000
261.718;   57.175;  420.000;  470.000
261.859; -133.175; -940.000; -949.000
262.000; -138.575; -951.000;-1016.000
262.142;  -29.775;  -52.000;  -60.000
262.283; -116.850; -808.000; -691.000
262.424;  -91.750; -666.000; -625.000
262.566; -159.150;-1161.000; -983.000
262.707; -132.025; -840.000; -830.000
262.848; -116.950; -769.000; -726.000
262.990;  -57.850; -362.000; -345.000
263.131;   74.400;  650.000;  681.000
263.272;  -22.600;  -61.000;  -41.000
263.413; -105.175; -589.000; -561.000
263.555;  -73.375; -669.000; -143.000
263.696;  -97.425; -550.000; -641.000
263.837;  -61.825; -449.000; -551.000
263.978;   -7.400;   -5.000;  -77.000
264.119;  -58.700; -283.000; -264.000
264.261; -111.625; -847.000; -630.000
264.402;  -17.000;   33.000;   40.000
264.543;  -83.225; -509.000; -524.000
264.684;  -21.750;   61.000;  -50.000
264.825;  -84.200; -816.000; -538.000
264.966;  -17.225;  -84.000;  -67.000
265.107; -122.225; -646.000; -670.000
265.248; -132.750; -825.000; -812.000
265.390;   -7.475;  152.000;   -9.000
265.531;  -22.825; -238.000; -107.000
265.672;  -87.475; -557.000; -630.000
265.813;   54.025;  563.000;  439.000
265.954; -154.350; -959.000; -940.000
266.095;  -12.600; -372.000; -322.000
266.236;  -93.925; -686.000; -548.000
266.377;  -57.500; -243.000; -297.000
266.518;  -74.625; -619.000; -547.000
266.659;   23.275;  170.000;  268.000
266.800;    7.125;   83.000;   85.000
266.941;  -77.850; -487.000; -478.000
267.082;   10.375;  354.000;   99.000
267.223;  -53.225; -344.000; -273.000
267.364; -116.800; -892.000; -686.000
267.504;  -22.350;    3.000;  135.000
267.645;   -1.375;  160.000;   67.000
267.786;  -48.025; -147.000;  -86.000
267.927;  -69.650; -473.000; -379.000
268.068;  -18.300; -186.000;  -61.000
268.209;  -43.425; -175.000; -413.000
268.350;  -56.100; -388.000; -532.000
268.490;  -80.750; -648.000; -521.000
268.631;   26.500;  127.000;  225.000
268.772; -100.525; -874.000; -647.000
268.913;  -60.100; -328.000; -476.000
269.054;   -7.125; -117.000;   12.000
269.194;  -60.125; -418.000; -402.000
269.335; -165.550;-1137.000;-1074.000
269.476;  -27.750;   33.000;  -35.000
269.617;  -49.875; -347.000; -392.000
269.757;  -92.500; -713.000; -646.000
269.898; -106.525; -856.000; -613.000
270.039;  -51.125; -415.000; -405.000
270.180; -128.400; -952.000; -816.000
270.320;  -23.250; -190.000; -250.000
270.461;  -56.050; -277.000; -249.000
270.602;  -21.925; -186.000; -156.000
270.742; -117.850; -868.000; -943.000
270.883;  -64.475; -442.000; -390.000
271.023;  -71.800; -358.000; -357.000
271.164;  -90.625; -607.000; -528.000
271.305;  -99.050; -666.000; -654.000
271.445; -109.350; -722.000; -683.000
271.586;  -58.400; -462.000; -283.000
271.726;  -54.875; -397.000; -322.000
271.867;  -52.575; -594.000; -534.000
272.008;  212.000; -473.000; -285.000
272.148;  144.975;  462.000;  468.000
272.289;   11.600; -113.000; -181.000
272.429;   15.900;   19.000;  185.000
272.570;  -91.225; -633.000; -737.000
272.710;  -90.900; -825.000; -775.000
272.851;  -18.750;  113.000; -130.000
272.991; -162.875;-1173.000;-1077.000
273.131;  -77.600; -419.000; -459.000
273.272; -109.350; -683.000; -723.000
273.412;   -0.225; -143.000;  -31.000
273.553;  -44.325; -488.000; -507.000
273.693;  136.375;  913.000;  858.000
273.834;  -80.650; -894.000; -692.000
273.974;  -74.075; -664.000; -615.000
274.114;  -98.475; -772.000; -560.000
274.255;   87.325;  414.000;  373.000
274.395;    8.225; -180.000; -125.000
274.535;   24.300;  199.000;  350.000
274.676;   30.725;  225.000;   94.000
274.816;   -0.475;  110.000;   34.000
274.956;  -81.225; -624.000; -690.000
275.097;  -56.950;-1014.000; -922.000
275.237; -107.800; -913.000; -803.000
275.377;  -96.725; -778.000; -689.000
275.517; -148.750; -878.000; -937.000
275.658;  -59.750; -590.000; -555.000
275.798;  -73.800; -606.000; -413.000
275.938;   21.450;  215.000;  323.000
276.078;  -92.800; -626.000; -395.000
276.218;   -9.400;   99.000;  104.000
276.359; -117.900;-1026.000;-1024.000
276.499;  -68.200; -605.000; -446.000
276.639;  -35.825; -305.000; -151.000
276.779;  -42.675; -475.000; -357.000
276.919;  -97.125; -783.000; -624.000
277.059;   -8.850; -261.000; -212.000
277.199;  -41.300; -357.000; -259.000
277.340;   46.875;  287.000;  175.000
277.480; -101.550; -840.000; -693.000
277.620;   21.525;  192.000;   16.000
277.760; -190.800;-1533.000;-1294.000
277.900;   11.450;  113.000;   33.000
278.040;   13.875;  137.000;  159.000
278.180;   22.625;  270.000;  170.000
278.320;    0.625;   21.000;   56.000
278.460;  -71.500; -443.000; -469.000
278.600;  -87.900; -708.000; -598.000
278.740;   43.000;  448.000;  224.000
278.880;  -32.975; -768.000; -791.000
279.020;   -7.950; -194.000; -144.000
279.160;  -95.500; -672.000; -595.000
279.300; -119.700; -926.000; -873.000
279.440;  -89.700; -709.000; -622.000
279.579;   -9.550;-1014.000; -929.000
279.719;  -39.725; -410.000; -394.000
279.859;   70.725;   -4.000;   41.000
279.999;   39.625; -208.000;  101.000
280.139;  -18.025; -435.000; -387.000
280.279;  -70.075; -708.000; -745.000
280.419;  -13.850; -229.000; -147.000
280.559;  -40.050; -259.000; -180.000
280.698;  -85.275; -790.000; -639.000
280.838;  -82.875; -778.000; -800.000
280.978; -103.100; -846.000; -790.000
281.118; -125.150; -811.000; -704.000
281.257;    0.375;   24.000;    6.000
281.397; -112.625;-1094.000; -960.000
281.537;  -87.975; -599.000; -712.000
281.677;  -22.375; -150.000; -101.000
281.816;  -93.175; -700.000; -630.000
281.956;  -52.525; -193.000; -257.000
282.096;  -73.300; -539.000; -396.000
282.235; -112.450; -672.000; -638.000
282.375;  -31.175; -243.000;  -98.000
282.515;  -99.000; -715.000; -707.000
282.654;   34.700;   29.000;  106.000
282.794;    9.875;  388.000;  244.000
282.934;  -63.525; -530.000; -491.000
283.073; -137.325;-1030.000; -857.000
283.213;  -53.950; -460.000; -467.000
283.353;  -29.150; -408.000; -349.000
283.492;  -42.425; -264.000; -296.000
283.632;  -45.875; -254.000; -168.000
283.771;  -98.200; -859.000; -730.000
283.911;  -57.575; -369.000; -260.000
284.050; -119.650; -794.000; -748.000
284.190; -151.875;-1229.000;-1096.000
284.329; -151.950;-1055.000; -964.000
284.469;  -42.025; -516.000; -591.000
284.608;  -59.825; -559.000; -598.000
284.748;  -89.000; -614.000; -570.000
284.887;  -22.450;  -87.000;  -20.000
285.027; -117.550; -844.000; -892.000
285.166;  -36.175; -192.000; -249.000
285.306;   12.875; -116.000;  -33.000
285.445;  -44.900; -229.000; -343.000
285.584;  -96.200; -630.000; -494.000
285.724;  -50.450; -282.000; -322.000
285.863; -103.250; -857.000; -507.000
286.002;  -59.875; -366.000; -276.000
286.142; -108.275; -715.000; -622.000
286.281;  -78.275; -525.000; -493.000
286.420;  -77.325; -554.000; -417.000
286.560;   75.300;  653.000;  623.000
286.699; -135.775; -958.000; -912.000
286.838;  -96.300; -590.000; -591.000
286.978;  -90.550; -533.000; -537.000
287.117; -141.475;-1085.000; -950.000
287.256;  -29.175; -228.000; -211.000
287.395;  -53.925; -197.000; -378.000
287.535;  -51.075; -370.000; -298.000
287.674;  -88.750; -509.000; -484.000
287.813;   61.350;  661.000;  533.000
287.952; -121.675;-1010.000; -871.000
288.091; -153.825;-1049.000; -915.000
288.231;    9.225;   13.000;   15.000
288.370; -176.825;-1217.000;-1200.000
288.509;  -91.050; -728.000; -645.000
288.648;  -98.325; -770.000; -548.000
288.787;  -30.475; -243.000;  -87.000
288.926;  -65.450; -454.000; -475.000
289.065;  115.475;  859.000;  672.000
289.204;  -58.525; -377.000; -217.000
289.344;  -89.175; -791.000; -690.000
289.483;   28.900;  416.000;  304.000
289.622;  -29.425; -291.000; -149.000
289.761;  -24.450; -309.000; -166.000
289.900; -102.925; -785.000; -626.000
290.039;  -21.650;  -12.000;  -95.000
290.178;  -42.900; -274.000; -180.000
290.317;  -88.725; -618.000; -479.000
290.456;  -56.225; -463.000; -451.000
290.595; -132.850; -961.000; -833.000
290.734; -151.675; -904.000; -891.000
290.873;  -62.675; -456.000; -420.000
291.011; -106.100; -833.000; -843.000
291.150; -101.825; -770.000; -682.000
291.289;  -28.825; -343.000; -110.000
291.428;  -88.450; -599.000; -480.000
291.567;  -63.275; -370.000; -442.000
291.706;   -8.050;  109.000;  154.000
291.845;  -87.600; -597.000; -505.000
291.984; -165.450;-1234.000;-1061.000
292.122;   73.550;  602.000;  582.000
292.261;   52.800;  620.000;  463.000
292.400;    4.775; -144.000;  211.000
292.539; -124.275; -959.000; -813.000
292.678;  -47.250; -325.000; -300.000
292.816; -157.875;-1136.000; -965.000
292.955;  -94.775; -844.000; -684.000
293.094;  -21.125; -173.000; -337.000
293.233;  -56.800; -556.000; -400.000
293.371;  -43.850; -225.000;  -84.000
293.510; -107.225; -866.000; -780.000
293.649; -124.350; -959.000; -924.000
293.787;  -64.050;-1083.000;-1012.000
293.926;    1.750; -113.000;  -32.000
294.065;  -34.400; -379.000; -290.000
294.203;   47.050;  298.000;  406.000
294.342;   14.900;   74.000;  156.000
294.481; 5794.600;51180.000; -836.000
294.619;  -42.400; -425.000; -582.000
294.758; -131.075;-1230.000;-1137.000
294.896;   70.350; -125.000;    5.000
295.035; -125.725;-1040.000;-1006.000
295.174; -124.050;-1082.000; -954.000
295.312;  -34.800; -323.000; -203.000
295.451;    2.525; -307.000; -428.000
295.589;  -44.475; -389.000; -518.000
295.728;   10.500; -292.000; -165.000
295.866;    4.500;  -36.000;  -51.000
296.005;  -70.550; -584.000; -341.000
296.143;  -64.575; -558.000; -596.000
296.282; -103.775; -957.000; -881.000
296.420;  -93.825; -657.000; -557.000
296.559;  -73.800; -892.000; -633.000
296.697;   47.400; -847.000; -665.000
296.835;   87.850;-1141.000;-1002.000
296.974;   37.275;  -23.000;   39.000
297.112;   15.500; -443.000; -504.000
297.251;  -70.300; -815.000; -755.000
297.389;  116.650; -576.000; -438.000
297.527;   29.500; -145.000;  -83.000
297.666;  -49.250; -486.000; -438.000
297.804;  -57.375; -404.000; -264.000
297.942;   -0.750; -136.000; -161.000
298.081;   -8.625; -183.000;   63.000
298.219;   79.775;  -17.000;  -19.000
298.357;   64.400; -144.000;  -71.000
298.495;   61.150; -810.000; -812.000
298.634;   89.175;  245.000;  219.000
298.772;   87.900; -220.000; -338.000
298.910;  -26.775; -309.000; -182.000
299.048;  -11.425; -130.000; -153.000
299.187;  -19.675; -350.000; -250.000
299.325;   13.975;   52.000;  122.000
299.463;   78.825; -389.000; -299.000
299.601;  124.225; -327.000; -271.000
299.739;  -92.375; -908.000; -883.000
299.877;  -79.925; -791.000; -703.000
300.016;  -36.925;-1095.000; -935.000
300.154;  186.500;  -19.000; -161.000
300.292;   73.700; -428.000; -348.000
300.430;   42.075; -408.000; -291.000
300.568; -100.900; -940.000; -874.000
300.706;  -45.800; -366.000; -469.000
300.844;  -61.425;-1108.000; -979.000
300.982;  131.900;  246.000;  282.000
301.120; -101.175; -965.000; -866.000
301.258;  -66.350; -812.000; -705.000
301.396;   38.850;  104.000;  -41.000
301.534;   95.525; -218.000; -293.000
301.672;   12.300; -664.000; -521.000
301.810;   53.950; -613.000; -545.000
301.948;  141.175;   53.000;  149.000
302.086;  721.450; -250.000;  -32.000
302.224; 1122.625; -610.000; -585.000
302.362;   53.400; -558.000; -622.000
302.500;   -4.700; -923.000; -893.000
302.638;  120.000;  128.000;  245.000
302.776;    1.950; -352.000; -408.000
302.913;   41.100;  447.000;  236.000
303.051;    6.300;  -86.000;  -23.000
303.189;   57.375;   90.000;  118.000
303.327;  -34.825; -341.000; -256.000
303.465;  -79.700; -832.000; -588.000
303.603;  -66.750; -805.000; -604.000
303.740;  107.500;  417.000;  241.000
303.878;   54.150; -800.000; -759.000
304.016;  -94.750; -915.000; -790.000
304.154; -113.125;-1123.000;-1152.000
304.291;  -34.175; -505.000; -554.000
304.429;   18.750;  102.000;   74.000
304.567; -125.700; -908.000; -893.000
304.705;  -39.000; -408.000; -515.000
304.842;  125.500; -616.000; -540.000
304.980;   62.100;  215.000;   35.000
305.118;   67.000; -367.000; -365.000
305.255;  -62.225; -945.000; -927.000
305.393;   56.825;  178.000;  239.000
305.531;  -98.550;-1173.000; -956.000
305.668;  -85.725; -663.000; -582.000
305.806;  133.350; -358.000; -439.000
305.943;  141.300; -629.000; -637.000
306.081;   71.600; -378.000; -267.000
306.219;  -96.975; -863.000; -748.000
306.356;   -0.375;  158.000;   27.000
306.494;   99.300;  981.000;  761.000
306.631;   -2.975;  -11.000;  -55.000
306.769;   15.825; -613.000; -485.000
306.906;  -11.350; -284.000; -258.000
307.044;  -69.950; -473.000; -488.000
307.181;  -63.025; -410.000; -332.000
307.319;   -0.025;  112.000;   87.000
307.456; -156.450;-1191.000;-1153.000
307.594; -103.775; -980.000; -727.000
307.731;  -13.825; -371.000; -164.000
307.868;   -0.600;  -15.000;   20.000
308.006; -136.300; -961.000; -847.000
308.143;  -74.350; -618.000; -330.000
308.281;  186.075;  -37.000; -254.000
308.418;   -8.125; -748.000; -640.000
308.555;  -67.450; -400.000; -250.000
308.693;  -77.700; -577.000; -573.000
308.830; -108.775; -712.000; -657.000
308.967;  -24.450; -215.000;  -95.000
309.105;  -45.725; -507.000; -396.000
309.242;   47.525; -468.000; -367.000
309.379;  364.475; -577.000; -655.000
309.517;  -54.100; -936.000; -948.000
309.654; -109.850; -910.000; -734.000
309.791;  -81.550; -662.000; -580.000
309.928; -120.550; -977.000; -914.000
310.065;  183.075;  819.000;  697.000
310.203;   18.200; -825.000; -850.000
310.340;    1.225; -465.000; -321.000
310.477;  -65.550; -412.000; -516.000
310.614;  -79.050; -383.000; -473.000
310.751;  -71.250; -427.000; -518.000
310.889;  -22.000;    1.000;   11.000
311.026; -148.925;-1161.000; -939.000
311.163;  -68.425; -386.000; -380.000
311.300;  -71.075; -512.000; -479.000
311.437;  -85.775; -658.000; -619.000
311.574; -150.400;-1226.000; -985.000
311.711;  -71.625; -595.000; -433.000
311.848;  -39.450; -380.000; -388.000
311.985;   -1.250;  270.000;   93.000
312.122; -117.375; -932.000; -762.000
312.259; -132.250; -941.000; -994.000
312.396;  -89.375; -508.000; -551.000
312.533;  -98.975; -812.000; -790.000
312.670; -123.875;-1070.000; -898.000
312.807;  -47.975; -352.000; -367.000
312.944;  -75.650; -513.000; -611.000
313.081;  -23.775; -150.000; -415.000
313.218;  -92.450;-1111.000; -867.000
313.355;    5.375; -531.000; -449.000
313.492;    9.575; -455.000; -292.000
313.629;  114.350;  815.000;  735.000
313.766; -157.625;-1176.000;-1008.000
313.902;  -14.250; -186.000;   21.000
314.039;  -55.125; -372.000; -289.000
314.176;   16.575;  286.000;  192.000
314.313;  -76.025; -569.000; -473.000
314.450;  -86.500; -788.000; -684.000
314.587;  -51.075; -468.000; -480.000
314.723;    5.600;  -78.000;  130.000
314.860;   28.675;  318.000;  332.000
314.997;   23.800;  223.000;  142.000
315.134;  -48.550; -385.000; -368.000
315.270;  -39.500; -480.000; -496.000
315.407; -111.875;-1094.000; -967.000
315.544;  -50.000; -657.000; -538.000
315.681;  -74.675; -681.000; -565.000
315.817;   27.150; -133.000; -176.000
315.954;   29.925; -613.000; -392.000
316.091; -133.200;-1045.000;-1023.000
316.227;  -19.275;  -71.000; -179.000
316.364;   -4.525;   23.000;    6.000
316.500;  -59.500; -113.000; -300.000
316.637;  -53.650; -181.000; -302.000
316.774;  -85.900; -625.000; -358.000
316.910; -105.175; -598.000; -629.000
317.047;  -56.725; -487.000; -351.000
317.183;  -46.300; -435.000; -566.000
317.320;  -10.775; -367.000; -321.000
317.456;  -78.875; -733.000; -805.000
317.593;  -97.200; -598.000; -641.000
317.729;    1.475;  168.000;  -67.000
317.866; -197.625;-1434.000;-1285.000
318.002;  -95.625; -708.000; -948.000
318.139;  -92.650; -883.000; -867.000
318.275; -115.175;-1003.000; -738.000
318.412;  -58.575; -517.000; -336.000
318.548;   -8.250; -751.000; -720.000
318.685;  -82.025; -985.000; -888.000
318.821; -101.275; -762.000; -735.000
318.957;  -16.425;   34.000;  -23.000
319.094;   27.825;  297.000;  154.000
319.230;  -37.325; -756.000; -742.000
319.367;  150.250; -471.000; -520.000
319.503;   78.600; -538.000; -436.000
319.639; -105.075; -877.000; -793.000
319.775;  -34.825; -750.000; -685.000
319.912;  -52.525; -424.000; -519.000
320.048;  -90.975;-1184.000;-1184.000
320.184;   72.000;   59.000;   70.000
320.321;  -63.750; -497.000; -467.000
320.457;   53.400;  475.000;  662.000
320.593;  -63.150; -375.000; -382.000
320.729; -109.700; -732.000; -734.000
320.866;  -74.900; -577.000; -635.000
321.002;  -83.725; -759.000; -809.000
321.138;    4.525; -135.000; -211.000
321.274;   69.950; -148.000; -115.000
321.410;   -7.350; -585.000; -353.000
321.546;  -26.250;-1011.000; -911.000
321.683;   47.550;  400.000;  185.000
321.819;    5.200;  -48.000; -117.000
321.955; -114.875; -743.000; -722.000
322.091;  -45.600; -585.000; -540.000
322.227;   -5.650; -382.000; -202.000
322.363;  -23.075; -320.000; -215.000
322.499;  -40.425; -343.000; -331.000
322.635;  167.400;  636.000;  443.000
322.771;   48.225; -139.000;   12.000
322.907;   87.325;  129.000;  327.000
323.043;  -17.050; -115.000; -206.000
323.179;  -31.225; -394.000; -363.000
323.315;   41.075; -401.000; -371.000
323.451;  116.825; -328.000; -236.000
323.587;   81.600;  -60.000;  -77.000
323.723;   34.300; -682.000; -601.000
323.859;   -4.900; -258.000;  -76.000
323.995;  -28.075; -467.000; -409.000
324.131; -111.975; -967.000; -892.000
324.267;  -49.700; -254.000; -276.000
324.402; -133.925; -960.000; -983.000
324.538;  -12.775; -279.000; -104.000
324.674;   15.050;  164.000;   77.000
324.810;  156.850;  226.000;  308.000
324.946;   25.875; -810.000; -658.000
325.082;  -71.950; -568.000; -475.000
325.217;  -10.050;  -62.000;   16.000
325.353; -121.350; -764.000; -659.000
325.489;  -86.675; -540.000; -506.000
325.625;  -86.150; -579.000; -525.000
325.760;   55.150;  517.000;  376.000
325.896;  -28.300; -515.000; -702.000
326.032;  -43.350; -403.000; -352.000
326.168;  -74.100; -462.000; -369.000
326.303;  -49.300; -352.000; -461.000
326.439;  -38.425; -336.000; -276.000
326.575;    7.025; -190.000;  -29.000
326.710;  -13.975; -156.000;  -30.000
326.846;   -4.525;  146.000;  103.000
326.982;  -95.125; -530.000; -548.000
327.117;  -74.425; -481.000; -442.000
327.253;  -93.200; -745.000; -742.000
327.388; -145.100;-1137.000;-1153.000
327.524;  -51.950; -811.000; -578.000
327.659;  -23.850;  -58.000;  -22.000
327.795;  -19.975;   69.000;   45.000
327.931;  -83.200; -723.000; -499.000
328.066;  -35.400; -417.000; -276.000
328.202;  -12.750;   12.000; -129.000
328.337;   83.625;  957.000;  713.000
328.473;   41.175;  -12.000;  -74.000
328.608;  -24.500; -256.000; -267.000
328.743;  -85.450; -799.000; -664.000
328.879;   18.125;  214.000;  114.000
329.014;  -25.500; -102.000; -122.000
329.150;  -89.450; -358.000; -483.000
329.285;  -71.700; -465.000; -466.000
329.421;  -50.225; -548.000; -246.000
329.556;  -12.525;  -36.000;   85.000
329.691;  -94.575; -633.000; -615.000
329.827;  -95.200; -626.000; -480.000
329.962;  -45.500;  131.000; -301.000
330.097;  -93.650; -673.000; -585.000
330.233;  -57.675; -410.000; -223.000
330.368; -114.825; -839.000; -628.000
330.503;  -27.225;    3.000;   98.000
330.638;    1.400;  -93.000; -125.000
330.774;  -57.825; -609.000; -530.000
330.909;  -29.200; -434.000; -244.000
331.044; -109.400; -714.000; -708.000
331.179; -162.825;-1217.000;-1109.000
331.315;   -1.325;   77.000;   20.000
331.450;    6.725;  157.000;  285.000
331.585;  -91.100; -805.000; -706.000
331.720;  -81.875; -510.000; -460.000
331.855;  -12.850;  -35.000; -102.000
331.990;  238.250;   62.000;  138.000
332.126;  124.400; -110.000;   71.000
332.261;  -18.725; -379.000; -265.000
332.396;   -3.175; -135.000; -242.000
332.531; -101.525;-1074.000;-1031.000
332.666;   11.675; -519.000; -363.000
332.801;  -94.625; -726.000; -807.000
332.936;  -14.625; -192.000; -122.000
333.071; -152.825; -870.000; -817.000
333.206;   10.175;  307.000;  379.000
333.341;   30.525;  344.000;  418.000
333.476;  -93.325; -627.000; -623.000
333.611;  -34.625; -251.000; -173.000
333.746;  -45.750; -381.000; -464.000
333.881; -112.975; -973.000; -935.000
334.016; -119.150; -936.000; -917.000
334.151; -114.300; -746.000; -702.000
334.286;   15.825;  152.000;  186.000
334.421;  -16.275; -125.000; -178.000
334.556;  -87.125; -611.000; -567.000
334.690;  -77.050; -631.000; -577.000
334.825;   51.675;  381.000;   83.000
334.960;  -51.450; -285.000; -413.000
335.095;    2.975;  135.000;  -91.000
335.230;  -99.275; -722.000; -738.000
335.365; -129.575;-1084.000; -990.000
335.499; -126.675;-1108.000;-1037.000
335.634;   16.050;    9.000;  534.000
335.769;  -99.150; -755.000; -720.000
335.904;  -46.300; -603.000; -561.000
336.038;  -44.500; -735.000; -657.000
336.173; -105.500;-1206.000;-1194.000
336.308;   14.750; -116.000; -189.000
336.443;   24.800; -544.000; -634.000
336.577;  -58.200; -936.000; -787.000
336.712;   63.525;   -4.000;  -12.000
336.847;  -18.800; -724.000; -607.000
336.981;   75.825; -272.000; -208.000
337.116;  313.750;  615.000;  501.000
337.250;  177.950; -434.000; -421.000
337.385;  216.675; -297.000; -208.000
337.520;   65.675; -632.000; -603.000
337.654;  -29.625; -215.000; -126.000
337.789; -130.450; -989.000; -933.000
337.923;  -41.175; -104.000; -205.000
338.058;  -93.825; -673.000; -738.000
338.192;  -29.100; -611.000; -488.000
338.327;  -12.025;  -18.000; -155.000
338.461;  -66.550; -299.000; -469.000
338.596;  -88.875; -780.000; -638.000
338.730; -103.375; -767.000; -803.000
338.865;   65.425;  -46.000; -140.000
338.999;  -59.400; -846.000; -702.000
339.134;  -40.850; -634.000; -536.000
339.268;   11.500; -741.000; -603.000
339.403;  321.600; -740.000; -775.000
339.537;  105.100; -894.000; -820.000
339.671; -121.075; -829.000; -813.000
339.806;  -75.600; -556.000; -512.000
339.940;    5.625; -261.000; -235.000
340.074;  -87.625; -685.000; -510.000
340.209;  -41.550; -351.000; -230.000
340.343;  -88.900; -517.000; -573.000
340.477;  161.475;  998.000; 1036.000
340.612;  -58.425;-1033.000; -900.000
340.746;  103.925; -199.000; -243.000
340.880;  -58.550; -924.000; -785.000
341.014;  -32.650;  -45.000; -154.000
341.149; -109.400; -756.000; -718.000
341.283; -117.650; -839.000; -754.000
341.417;  -75.775;-1124.000; -938.000
341.551;  165.325; -768.000; -708.000
341.685;  -21.400; -633.000; -611.000
341.820;  -58.475; -562.000; -493.000
341.954;  -41.575; -218.000; -349.000
342.088; -163.625;-1102.000;-1019.000
342.222;   50.325;  565.000;  618.000
342.356;  -57.700; -395.000; -335.000
342.490;  -91.450; -880.000; -841.000
342.624;  -44.125; -339.000; -242.000
342.758;   21.050; -364.000; -312.000
342.892;  -73.275; -710.000; -585.000
343.026;  -42.950;  -58.000; -116.000
343.160;  -63.400; -426.000; -376.000
343.294;  -72.775; -474.000; -337.000
343.428;  -22.700; -488.000; -448.000
343.562;  -12.425; -172.000;  -23.000
343.696;  -34.325; -385.000; -314.000
343.830;  -13.175; -362.000; -356.000
343.964;   16.375; -231.000; -168.000
344.098; 1072.475;  199.000;   70.000
344.232;  883.750; -266.000; -127.000
344.366;  113.825; -567.000; -453.000
344.500;   89.175; -665.000; -744.000
344.634;   46.250; -324.000; -164.000
344.768;   -6.450; -531.000; -341.000
344.902;   25.950;  278.000;  256.000
345.035;  -68.225; -556.000; -496.000
345.169; -124.900; -933.000; -656.000
345.303;  -43.925; -308.000; -482.000
345.437;  -72.825; -826.000; -717.000
345.571;  -83.700; -675.000; -594.000
345.704;  -67.950; -309.000; -532.000
345.838;  -10.975; -331.000; -284.000
345.972;  -31.375; -543.000; -495.000
346.106;  156.300; -179.000; -190.000
346.239;  440.650; -312.000; -243.000
346.373;   16.300; -343.000; -302.000
346.507; -132.625; -950.000; -962.000
346.640;  178.300;  -30.000;   13.000
346.774;  -26.475; -650.000; -797.000
346.908;  -21.400; -138.000;  -11.000
347.041; -100.450; -646.000; -593.000
347.175;   -0.775;  259.000;   27.000
347.309;  -68.450; -698.000; -628.000
347.442;  -89.550; -883.000; -732.000
347.576;  305.050;  670.000;  668.000
347.709;  242.275; -123.000;  -52.000
347.843;  -77.825; -933.000; -825.000
347.976;   21.625;  235.000;  294.000
348.110; -170.500;-1268.000;-1186.000
348.243; -104.875; -679.000; -772.000
348.377;   -4.250;  -26.000;   60.000
348.510;   48.700;  403.000;  540.000
348.644;  -28.525;  -37.000; -159.000
348.777;    5.350;  180.000;  191.000
348.911;  -57.075; -142.000; -112.000
349.044;  198.750;  471.000;  448.000
349.178;  212.875;-1069.000;-1006.000
349.311;  127.625;  141.000;  255.000
349.444;   -1.675; -927.000; -813.000
349.578;  -18.100; -347.000; -200.000
349.711;  -96.225; -959.000; -862.000
349.845;   13.225; -661.000; -591.000
349.978; -131.200;-1224.000;-1137.000
350.111;  -77.600; -546.000; -612.000
350.244;  -62.950; -596.000; -700.000
350.378;   -1.150; -392.000; -393.000
350.511;  -68.775; -393.000; -426.000
350.644;  -89.275; -808.000; -806.000
350.778;   12.875;  168.000;  104.000
350.911;    2.875;  134.000;  140.000
351.044;  -84.775; -685.000; -615.000
351.177;  -20.300; -321.000; -281.000
351.310;  -18.225;    3.000; -131.000
351.444;  -83.550; -888.000; -788.000
351.577;  153.300;  140.000;   90.000
351.710;   91.200;  593.000;  417.000
351.843;  -34.075; -165.000;  -77.000
351.976;  -12.775;  149.000;  -79.000
352.109;  -76.225; -621.000; -612.000
352.242;  -23.050; -464.000; -419.000
352.376;  -36.025; -580.000; -636.000
352.509;  205.975; -437.000; -356.000
352.642;   37.350; -654.000; -604.000
352.775;   69.950; -141.000;  -98.000
352.908;  -98.300; -933.000; -904.000
353.041;  -93.025; -814.000; -824.000
353.174;  -54.225; -551.000; -424.000
353.307;  -92.050; -753.000; -764.000
353.440;   67.125;  541.000;  453.000
353.573; -113.675; -957.000;-1008.000
353.706;  -46.075; -384.000; -558.000
353.839;  -21.300; -264.000; -220.000
353.971;  -82.550; -657.000; -512.000
354.104;  -85.025; -896.000; -835.000
354.237;  -23.800; -627.000; -662.000
354.370;  -79.325; -846.000; -879.000
354.503; -170.100;-1231.000;-1308.000
354.636;  -32.475; -529.000; -348.000
354.769; -115.125; -937.000; -860.000
354.902;  -19.125; -230.000; -139.000
355.034;  -23.425; -164.000; -220.000
355.167;  -21.875; -262.000; -162.000
355.300;  -75.650;-1061.000; -880.000
355.433;  903.500;  -71.000;  -14.000
355.565; 1412.250; -402.000; -384.000
355.698;  367.025; -356.000; -296.000
355.831;   17.625; -882.000; -801.000
355.964;   96.375; -285.000; -170.000
356.096;  -69.975; -856.000; -843.000
356.229;   -1.000; -523.000; -530.000
356.362;  297.500; -373.000; -266.000
356.494;  568.650; -229.000; -162.000
356.627;  543.225;  269.000;  377.000
356.760;  632.425;  120.000;   53.000
356.892;  890.625; -286.000; -601.000
357.025;  747.850;  403.000;  389.000
357.157;  711.750; -167.000; -179.000
357.290;  604.575; -856.000; -713.000
357.423;  191.125; -667.000; -556.000
357.555;  117.925; -217.000; -228.000
357.688;  165.450; -483.000; -364.000
357.820;  536.925; -870.000; -877.000
357.953; 4248.150; -563.000; -589.000
358.085;  961.850; -632.000; -612.000
358.218; 1419.225;-1131.000; -932.000
358.350;  264.775;  -58.000;  312.000
358.483; -100.225;-1300.000;-1187.000
358.615;    5.575;-1182.000;-1078.000
358.747;  -23.625;-1187.000;-1058.000
358.880;   40.475; -810.000; -744.000
359.012;   -1.000; -376.000; -202.000
359.145;  -46.925; -480.000; -511.000
359.277;   86.725; -962.000; -913.000
359.409; 3483.525;  536.000;  231.000
359.542;  966.025; -738.000; -688.000
359.674;   67.075;   46.000;   13.000
359.806;  -50.875; -565.000; -438.000
359.939;  -46.225; -617.000; -516.000
360.071;  -25.975; -583.000; -579.000
360.203;  -28.900; -411.000; -364.000
360.335;   62.325;  164.000;  -16.000
360.468;  201.675; -249.000; -307.000
360.600; 2776.625; -547.000; -454.000
360.732; 2680.850; -546.000; -423.000
360.864;  370.175;-1216.000;-1044.000
360.996;  335.900; -516.000; -554.000
361.129;   84.800; -389.000; -598.000
361.261;   21.725;  110.000; -113.000
361.393;  -10.575; -252.000; -214.000
361.525;   23.200;   94.000;  244.000
361.657;  -32.550; -821.000; -703.000
361.789;   16.500; -139.000; -155.000
361.921;  308.875; -642.000; -593.000
362.053;  298.150;  524.000;  541.000
362.185;   60.750;  288.000;   72.000
362.318;  -55.725; -709.000; -705.000
362.450;  141.450;  294.000;  444.000
362.582;  163.600; -913.000; -870.000
362.714;  -36.350; -353.000; -332.000
362.846;  -98.100; -606.000; -490.000
362.978; -137.600; -941.000; -811.000
363.109;   62.625; -161.000; -260.000
363.241;  515.350; -739.000; -749.000
363.373;  423.300; -649.000; -564.000
363.505;  614.925; -186.000;  -91.000
363.637;  143.025; -787.000; -601.000
363.769; -117.300;-1067.000;-1080.000
363.901;  -71.275; -596.000; -654.000
364.033; -108.600;-1103.000;-1062.000
364.165;   -0.200; -283.000; -283.000
364.296;   71.975; -316.000; -177.000
364.428;   57.750;-1344.000;-1220.000
364.560;  -70.775; -679.000; -661.000
364.692;  -61.825; -738.000; -835.000
364.824;  335.575; -588.000; -456.000
364.955;  451.900; -402.000; -564.000
365.087;  836.700;-1097.000; -852.000
365.219;   20.300; -686.000; -816.000
365.351;  -60.100; -526.000; -572.000
365.482;   62.800;  300.000;  240.000
365.614;  -39.775; -402.000; -314.000
365.746;  -93.600; -729.000; -752.000
365.877;  -97.750; -706.000; -672.000
366.009;  224.275;  -35.000;  -62.000
366.141;  -93.800;-1249.000;-1134.000
366.272;  -99.500; -803.000; -719.000
366.404; -116.250;-1005.000; -874.000
366.535;  -15.575; -139.000;  -12.000
366.667;  -91.100; -644.000; -649.000
366.799;   21.050;  353.000;  203.000
366.930; -114.525; -862.000; -996.000
367.062;  110.400; -639.000; -613.000
367.193;  134.900; -872.000; -842.000
367.325;  -76.750; -580.000; -684.000
367.456;   79.875; -246.000;   31.000
367.588;  150.450; -371.000; -318.000
367.719;   21.625;  -44.000;  -45.000
367.851;  -25.475; -222.000; -241.000
367.982;  -32.425; -875.000; -732.000
368.113;  119.875; -475.000; -358.000
368.245; -108.350; -960.000; -841.000
368.376;  -23.000; -254.000; -302.000
368.508;  -16.675; -188.000; -263.000
368.639; -134.750;-1166.000;-1034.000
368.770;   10.300; -670.000; -589.000
368.902;  -44.950; -836.000; -926.000
369.033;  -94.050; -906.000; -855.000
369.164;  -61.150; -720.000; -653.000
369.296; -104.675; -452.000; -601.000
369.427;    6.225; -209.000; -144.000
369.558;  -38.950; -593.000; -377.000
369.689;  -87.050; -721.000; -569.000
369.821; -129.400; -951.000; -845.000
369.952;  -18.000;   42.000; -108.000
370.083;  -46.400; -229.000; -108.000
370.214;  -82.925; -735.000; -650.000
370.345;   12.925;   65.000;   81.000
370.477;  -79.450; -810.000; -790.000
370.608;  286.375; -328.000; -264.000
370.739;  -23.550;-1233.000;-1292.000
370.870;  -21.975;-1102.000; -923.000
371.001;   94.400; -378.000; -467.000
371.132;  -61.125; -754.000; -735.000
371.263;  -15.075;  -42.000; -148.000
371.394; -120.000; -841.000; -748.000
371.525;   38.350;  345.000;  225.000
371.657;  -71.350; -808.000; -670.000
371.788;   70.025;  103.000;  199.000
371.919;  224.800; -384.000; -304.000
372.050; 4203.400;  -91.000; -156.000
372.181; 1281.675; -188.000; -294.000
372.311;  452.525;   42.000; -127.000
372.442;   53.000; -457.000; -451.000
372.573;  -20.975; -444.000; -340.000
372.704; -116.925;-1008.000; -980.000
372.835;   96.850; -228.000; -289.000
372.966;  -51.550; -646.000; -554.000
373.097;  -49.175; -575.000; -711.000
373.228;  -17.725; -717.000; -542.000
373.359;  160.750; -824.000; -536.000
373.490; 1119.650; -881.000; -727.000
373.620; 1413.375;-1001.000; -803.000
373.751; 2130.275; -332.000; -396.000
373.882;  975.775; -663.000; -733.000
374.013;   87.575; -449.000; -262.000
374.143;  -27.200; -581.000; -659.000
374.274;  -93.350; -987.000; -908.000
374.405;  201.225; -388.000; -276.000
374.536;  543.175; -526.000; -387.000
374.666; 1348.975; -759.000; -807.000
374.797;  297.450; -817.000; -868.000
374.928; 1043.050; -710.000; -560.000
375.058; 1088.550; -535.000; -500.000
375.189;   96.025;  -59.000;  -93.000
375.320;  -88.300; -928.000;-1034.000
375.450;  -36.450; -625.000; -616.000
375.581;  -49.050; -526.000; -436.000
375.712;  -40.500; -574.000; -250.000
375.842;  377.275; -438.000; -415.000
375.973;  260.200; -554.000; -513.000
376.103;  -23.425; -665.000; -648.000
376.234;  -70.700; -531.000; -552.000
376.364;  -21.475; -944.000; -867.000
376.495;  355.100;  925.000;  529.000
376.625;   10.825; -472.000; -485.000
376.756;   73.125; -709.000; -678.000
376.886;  -51.800;-1178.000;-1026.000
377.017;   24.675;-1048.000;-1061.000
377.147;  305.275; -786.000; -782.000
377.278;   58.100;  174.000;  228.000
377.408; -118.475; -801.000; -815.000
377.538; -115.575; -707.000; -693.000
377.669;  -75.725; -537.000; -613.000
377.799;  -78.875; -645.000; -635.000
377.929;  -39.325; -610.000; -428.000
378.060; -127.075; -781.000; -847.000
378.190;  -66.350; -726.000; -531.000
378.320;  -53.350; -401.000; -406.000
378.451;   -2.525; -131.000;  -22.000
378.581;    9.000;  -67.000; -110.000
378.711;  178.575; 1035.000;  866.000
378.841;    5.200; -533.000; -675.000
378.972;  -63.025; -871.000; -751.000
379.102;   13.575; -652.000; -579.000
379.232;  -12.675; -126.000;  -73.000
379.362; -101.625;-1001.000; -885.000
379.492;   33.825; -373.000; -424.000
379.623;  123.600;    0.000;  111.000
379.753;  -91.700;-1107.000; -974.000
379.883;  227.800;   59.000;  156.000
380.013;   37.300;-1081.000;-1017.000
380.143; -101.850;-1097.000;-1056.000
380.273;  -98.300; -985.000; -861.000
380.403;    3.700; -344.000; -257.000
380.533;  -26.025; -651.000; -664.000
380.663;   82.500;  173.000;  128.000
380.793;  -69.300;-1027.000;-1074.000
380.923;  -29.850; -103.000;  -34.000
381.053;  -87.725; -613.000; -623.000
381.183;  -20.375; -106.000; -248.000
381.313;   52.250; -656.000; -470.000
381.443;   52.300; -692.000; -473.000
381.573;  239.025; -402.000; -409.000
381.703;  376.075;-1249.000;-1095.000
381.833;  -98.575;-1454.000;-1336.000
381.963;  115.450; -134.000;  -87.000
382.093; 1608.275; -925.000; -909.000
382.223;  523.650; -713.000; -602.000
382.353;    6.250; -801.000; -608.000
382.482;  465.875;-1091.000; -964.000
382.612;  898.375; -872.000; -644.000
382.742;  515.725; -695.000; -622.000
382.872;  323.150; -565.000; -551.000
383.002;   69.750;  347.000; -132.000
383.131;   -1.100; -226.000; -160.000
383.261;  -39.000; -706.000; -768.000
383.391;  292.975; -552.000; -377.000
383.521; 2969.700;  451.000;  263.000
383.650;  729.500; -947.000; -904.000
383.780;  -19.725; -783.000; -656.000
383.910;  117.425;  880.000;  802.000
384.039;   38.825; -794.000; -656.000
384.169;  298.400;-1205.000;-1017.000
384.299;    1.475; -650.000; -662.000
384.428;  -72.350; -764.000; -680.000
384.558;  -46.275; -308.000; -275.000
384.687;  -35.375; -414.000; -334.000
384.817;   16.375;   75.000;   -2.000
384.947;   20.900; -234.000; -141.000
385.076;  305.875;  982.000;  912.000
385.206;  104.750;  369.000;  480.000
385.335;  -28.950; -549.000; -417.000
385.465;  -75.425; -655.000; -663.000
385.594;  171.375;  -53.000;  -44.000
385.724;  546.275; -868.000; -838.000
385.853;  142.125; -296.000; -270.000
385.982; 1613.875; -743.000; -787.000
386.112; 2637.700;-1052.000; -871.000
386.241;  171.725; -307.000; -312.000
386.371;   32.900; -174.000;  -87.000
386.500;   28.950; -825.000; -789.000
386.629;   22.900; -874.000; -817.000
386.759;   53.875;  -43.000;   68.000
386.888;   -8.475; -170.000; -250.000
387.017;  -62.675; -648.000; -620.000
387.147;  -89.750; -771.000; -798.000
387.276;   13.575; -410.000; -397.000
387.405;   24.175; -398.000; -342.000
387.535;  -30.200; -452.000; -361.000
387.664;  -63.475; -692.000; -620.000
387.793;   84.475; -198.000; -113.000
387.922;  609.750;  255.000;  200.000
388.052;   55.075; -576.000; -423.000
388.181;   33.800; -342.000; -472.000
388.310;   26.900; -889.000; -710.000
388.439;  -25.475; -749.000; -742.000
388.568;  226.975;  365.000;  244.000
388.697; 1272.650; -756.000; -653.000
388.826;  284.350; -768.000; -666.000
388.956;   83.175; -285.000; -307.000
389.085;  -36.850; -347.000; -287.000
389.214; -102.225; -842.000; -872.000
389.343;  -61.150; -645.000; -413.000
389.472;  378.275;  126.000;  149.000
389.601;  531.425;   91.000;    0.000
389.730;   18.425; -568.000; -687.000
389.859;   74.425;  226.000;   46.000
389.988;  232.075; -423.000; -408.000
390.117;  166.550; -168.000; -146.000
390.246;   -6.800; -331.000; -320.000
390.375;  174.500; -673.000; -626.000
390.504;  -59.000; -703.000; -621.000
390.633;  -84.850; -672.000; -726.000
390.761;  -53.150; -732.000; -645.000
390.890;   22.600;   -4.000; -130.000
391.019;  -23.975; -421.000; -441.000
391.148; -131.250; -826.000; -855.000
391.277;  -72.300; -576.000; -493.000
391.406;  -58.475; -821.000; -805.000
391.534;   28.400;  574.000; -301.000
391.663;  -63.775; -583.000; -645.000
391.792;  -83.300; -673.000; -701.000
391.921;  124.250;   -3.000;   15.000
392.050;  246.225; -287.000; -228.000
392.178;   -3.225;-1206.000;-1061.000
392.307;  182.175; -758.000; -712.000
392.436;  110.500; -427.000; -641.000
392.564;   12.925;  166.000;   -6.000
392.693;  -70.650; -860.000; -682.000
392.822;  252.350; -529.000; -534.000
392.950;  133.575; -880.000; -714.000
393.079;  384.625; -188.000; -328.000
393.208;   71.475; -488.000; -511.000
393.336;   -4.350; -170.000; -145.000
393.465;  -35.050; -317.000; -199.000
393.593;   -3.850;   62.000;   79.000
393.722; -147.150;-1121.000; -916.000
393.850;  -30.825; -188.000;  -61.000
393.979; -149.700; -926.000; -805.000
394.107;  -46.900; -517.000; -537.000
394.236;  -13.150; -570.000; -507.000
394.364;  214.950;  383.000;  206.000
394.493;  426.425; -911.000; -767.000
394.621;   -3.575; -955.000; -916.000
394.750;  632.800; -873.000; -923.000
394.878; 2738.550; -247.000; -149.000
395.007; 3793.825; -721.000; -807.000
395.135;  281.225; -790.000; -721.000
395.263;  -85.025;-1038.000;-1040.000
395.392;   -7.350;  -25.000; -107.000
395.520; -146.125; -818.000; -679.000
395.648;  -92.600; -865.000; -915.000
395.777;    5.100; -366.000; -405.000
395.905;  -34.625; -449.000; -564.000
396.033;   10.375;  217.000;  172.000
396.162;  649.475; -399.000; -453.000
396.290;  607.125;  -17.000;   -2.000
396.418;  150.575; -555.000; -514.000
396.546;  -59.700; -571.000; -466.000
396.674;  -87.125; -850.000; -878.000
396.803;   15.000;  -72.000;  -23.000
396.931;  122.550; -179.000; -199.000
397.059;  104.575;-1026.000; -989.000
397.187;  -98.500;-1026.000; -975.000
397.315; -132.675; -884.000; -649.000
397.443; -113.725; -592.000; -443.000
397.572;  -98.850; -578.000; -424.000
397.700;    9.575; -607.000; -614.000
397.828;   21.750;  120.000;  -90.000
397.956;  -45.975; -508.000; -478.000
398.084;  -67.275; -767.000; -626.000
398.212;   38.625;  137.000;  124.000
398.340;   24.550;  -56.000;  159.000
398.468;   43.325; -390.000; -169.000
398.596; -126.750; -993.000; -953.000
398.724; -125.250; -762.000; -767.000
398.852; -154.375;-1024.000; -976.000
398.980;  -53.725; -560.000; -560.000
399.108;  -45.850; -982.000; -735.000
399.236;   36.200;   13.000;    8.000
399.363;    4.225;  222.000;  196.000
399.491;  -73.550; -404.000; -398.000
399.619; -127.225; -829.000; -800.000
399.747; -106.700; -859.000; -771.000
399.875;   91.050;  220.000;  234.000
400.003;  -50.450; -359.000; -284.000
400.130;  -90.175; -421.000; -341.000
400.258;  -46.650;  -83.000;   38.000
400.386;  -63.250; -352.000; -168.000
400.514;  -42.300; -526.000; -587.000
400.641;  -77.425; -928.000; -802.000
400.769; -145.375; -979.000; -888.000
400.897; -117.000; -838.000; -793.000
401.025;   -8.875; -166.000; -152.000
401.152;   -7.975;  220.000;   38.000
401.280;  -84.450; -430.000; -429.000
401.408; -122.075; -712.000; -576.000
401.535; -110.850; -735.000; -758.000
401.663; -192.800;-1134.000;-1054.000
401.790;  -93.775; -514.000; -525.000
401.918;   46.050;  436.000;  405.000
402.046;  -31.825;  134.000;  122.000
402.173;  -37.150;  -18.000;    7.000
402.301;  -74.750; -519.000; -397.000
402.428;   27.625;  528.000;  383.000
402.556; -146.025;-1188.000; -913.000
402.683;  -17.250;  -20.000;   -1.000
402.811;  -33.425;  -37.000; -206.000
402.938;  -11.975;   20.000;   27.000
403.066;  224.500; -574.000; -558.000
403.193;  405.150;  299.000;  239.000
403.321;  303.975; -396.000; -574.000
403.448;  394.875;   83.000;   27.000
403.575;  165.825;  -90.000;  -46.000
403.703;  -83.850; -732.000; -557.000
403.830;  -77.750; -531.000; -496.000
403.957; -133.250;-1117.000;-1023.000
404.085;    7.700;  -61.000; -172.000
404.212;  109.250;  -50.000;   63.000
404.339;  249.875; -566.000; -306.000
404.467; 5421.800; -612.000; -524.000
404.594; 3856.100; -287.000; -227.000
404.721; 1006.400; -869.000; -764.000
404.848;   79.975; -113.000; -202.000
404.976;  -83.875; -856.000; -783.000
405.103;  -30.000;  -14.000;  -82.000
405.230;    0.450;  190.000;  226.000
405.357;   23.675;  117.000;   44.000
405.484;  250.850;  -49.000;    5.000
405.612;   37.100; -548.000; -563.000
405.739;  -53.100; -488.000; -243.000
405.866;   77.400;  669.000;  385.000
405.993;  -36.525; -398.000; -102.000
406.120; -133.400; -801.000; -887.000
406.247;  -49.725; -323.000; -342.000
406.374;  494.025;  540.000;  629.000
406.501;  173.675; -632.000; -702.000
406.628;  -91.575; -621.000; -589.000
406.755;  -81.725; -803.000; -620.000
406.882;  -39.250; -228.000; -277.000
407.009; -113.200; -719.000; -628.000
407.136;   55.925; -480.000; -401.000
407.263;  181.750; -939.000; -829.000
407.390;  -75.550; -692.000; -614.000
407.517; -162.425;-1139.000;-1187.000
407.644;  -64.175; -332.000; -256.000
407.771; -130.225; -249.000; -287.000
407.898;   -1.600;  168.000;  328.000
408.025;  -58.325; -421.000; -313.000
408.151;  -19.000;   82.000;  153.000
408.278;  -70.750; -267.000; -216.000
408.405; -121.000; -931.000; -899.000
408.532;  -61.775; -549.000; -542.000
408.659; -124.800; -677.000; -648.000
408.785; -207.525;-1298.000;-1170.000
408.912;  -72.450; -412.000; -296.000
409.039; -106.925; -610.000; -686.000
409.166; -111.650; -591.000; -555.000
409.292; -121.725; -571.000; -534.000
409.419; -136.450; -665.000; -649.000
409.546;  -75.850; -431.000; -192.000
409.672; -122.775; -713.000; -545.000
409.799;  -28.075;  -36.000;   34.000
409.926;  -57.050; -180.000; -179.000
410.052; -161.450;-1127.000;-1091.000
410.179;  -73.100; -368.000; -392.000
410.305;  -85.600; -375.000; -493.000
410.432;  -57.775; -220.000; -333.000
410.558;  -87.875; -305.000; -380.000
410.685; -114.375; -688.000; -431.000
410.812;  -90.450; -409.000; -588.000
410.938; -149.625; -964.000; -808.000
411.065; -104.050; -671.000; -645.000
411.191;  -26.375; -189.000; -174.000
411.317; -112.325; -823.000; -742.000
411.444;  -66.850; -317.000; -246.000
411.570;  -72.775; -339.000; -294.000
411.697; -141.225; -758.000; -752.000
411.823; -165.025; -989.000; -999.000
411.949;  -36.325;  -56.000;   17.000
412.076; -103.375; -539.000; -519.000
412.202; -125.325; -758.000; -757.000
412.329; -120.300; -798.000; -752.000
412.455; -112.600; -821.000; -657.000
412.581;  -21.725;  -15.000;  172.000
412.707;  -63.900; -540.000; -457.000
412.834;   14.975;  156.000;  219.000
412.960;  -79.725; -785.000; -784.000
413.086;  -95.750; -743.000; -701.000
413.212;  167.275;  604.000;  578.000
413.339;  -47.125; -685.000; -701.000
413.465;   16.625; -364.000; -310.000
413.591;  -68.575; -757.000; -474.000
413.717;  -72.700; -358.000; -366.000
413.843; -131.725; -839.000; -861.000
413.969;  -76.025;  -47.000; -292.000
414.096; -104.100; -679.000; -679.000
414.222;  -15.900;  -33.000;   85.000
414.348;  -14.850; -652.000; -385.000
414.474;  116.350;   38.000;  -52.000
414.600;   -9.125; -126.000; -144.000
414.726;  -18.850;  -96.000;  -55.000
414.852;  -67.350; -365.000; -342.000
414.978;   26.300;  104.000;  -18.000
415.104;   27.175;   38.000;   80.000
415.230;    7.975; -329.000; -330.000
415.356;   25.200; -409.000; -514.000
415.482;  191.050;   13.000;  -35.000
415.608;  264.625; -247.000; -323.000
415.734;  927.900;   67.000;   38.000
415.860;18991.450; -875.000; -767.000
415.986;14380.650; -685.000; -607.000
416.111; 1242.250; -798.000; -652.000
416.237;  247.725; -424.000; -571.000
416.363; 1032.350; -765.000; -733.000
416.489; 3956.625; -324.000; -251.000
416.615;  444.250; -707.000; -742.000
416.741;  -21.650; -677.000; -784.000
416.866; -100.750; -673.000; -736.000
416.992; -130.375; -801.000; -818.000
417.118;  -25.725;  -41.000;  -80.000
417.244;  -67.550; -798.000; -531.000
417.369;  -84.625; -801.000; -612.000
417.495;   -5.950; -325.000; -254.000
417.621;  -82.050;-1015.000; -803.000
417.746;   -3.475; -579.000; -572.000
417.872;   42.075; -254.000; -144.000
417.998;   33.725; -515.000; -530.000
418.123;  936.150;-1073.000; -845.000
418.249; 5152.025; -512.000; -601.000
418.374;  742.850; -916.000; -824.000
418.500;  100.900; -383.000; -482.000
418.626;  114.150;   70.000;  -59.000
418.751;  117.375; -549.000; -448.000
418.877;  187.350; -637.000; -643.000
419.002; 1615.725; -688.000; -560.000
419.128;11974.850; -930.000; -721.000
419.253; 3015.775; -967.000; -837.000
419.379;  387.475; -391.000; -338.000
419.504;  358.650;  325.000;  415.000
419.629;  489.075; -393.000; -212.000
419.755; 3223.975; -317.000; -254.000
419.880;19689.925;  -98.000;   67.000
420.006;10743.750; -280.000; -221.000
420.131;28264.750; -662.000; -775.000
420.256; 4268.425; -315.000; -316.000
420.382;  565.450; -665.000; -687.000
420.507;   71.800; -649.000; -778.000
420.632;  156.475; -337.000; -339.000
420.758;  309.175; -251.000; -425.000
420.883;  -72.825; -876.000; -672.000
421.008; -103.900; -775.000; -619.000
421.133;  -79.775; -509.000; -467.000
421.259;  -47.950; -325.000; -259.000
421.384; -113.675; -834.000; -693.000
421.509;  -29.975;-1052.000; -862.000
421.634; 1412.100; -936.000; -820.000
421.759;  648.775; -359.000; -327.000
421.885;  -34.475; -717.000; -656.000
422.010;  -79.275; -673.000; -542.000
422.135; -154.750; -695.000; -727.000
422.260;   30.700;  340.000;  280.000
422.385;  -47.750;   12.000;  -98.000
422.510;   10.100;  151.000;  -26.000
422.635;   16.225;  -87.000;  -43.000
422.760;  120.525; -766.000; -791.000
422.885;   50.625;  -57.000;  -80.000
423.010;  -43.100; -112.000; -169.000
423.135;  -86.600; -481.000; -561.000
423.260;   -4.900; -150.000; -245.000
423.385;   47.850;  476.000;  222.000
423.510;   34.975;   71.000;  -22.000
423.635;  100.425;  133.000;   45.000
423.760;   50.775;  383.000;  328.000
423.885;   55.550;  336.000;  391.000
424.010;   -3.175;  -68.000;  -13.000
424.135;  -24.275;    5.000;  -33.000
424.259;  -91.850; -654.000; -457.000
424.384;  -63.200; -279.000; -272.000
424.509;  -30.150; -260.000; -186.000
424.634;  -88.450; -761.000; -623.000
424.759;  -30.375; -688.000; -544.000
424.883;    0.575; -506.000; -527.000
425.008;  146.225; -502.000; -410.000
425.133; 1918.275; -679.000; -653.000
425.258;  948.000; -517.000; -381.000
425.382; 1135.675; -867.000; -774.000
425.507; 3072.675; -487.000; -543.000
425.632;  505.975; -802.000; -663.000
425.756;  431.625; -256.000; -146.000
425.881; 5835.775; -831.000; -857.000
426.006;16465.025; -604.000; -355.000
426.130; 2705.650; -696.000; -508.000
426.255;  341.075; -611.000; -491.000
426.379;  149.475; -189.000; -577.000
426.504;  381.075;  660.000;  544.000
426.629; 3821.275; -519.000; -466.000
426.753; 2789.450;   64.000;  -46.000
426.878;  321.500; -252.000; -288.000
427.002;  133.250; -651.000; -668.000
427.127; 1507.525;  -35.000; -158.000
427.251;10883.575;  372.000;  401.000
427.375; 3297.250; -191.000; -173.000
427.500; 2594.625; -616.000; -610.000
427.624;  934.225; -234.000; -400.000
427.749;  128.725; -216.000; -225.000
427.873;  -33.350; -499.000; -412.000
427.997;  -41.025; -222.000; -230.000
428.122;   66.000;  795.000;  703.000
428.246;   66.300;  433.000;  434.000
428.371; -118.075; -869.000; -773.000
428.495; -107.650; -624.000; -646.000
428.619;  -34.900; -186.000; -117.000
428.743;   19.450;   65.000;  132.000
428.868;   40.875; -732.000; -643.000
428.992; 1623.100; -219.000; -326.000
429.116;  691.600; -329.000; -357.000
429.240;  317.325;  419.000;  426.000
429.365;   -9.800; -454.000; -574.000
429.489;  -33.075; -638.000; -647.000
429.613;   22.675; -236.000; -177.000
429.737;   34.725; -563.000; -432.000
429.861;  257.225; -247.000; -133.000
429.985; 5212.075; -425.000; -305.000
430.109; 5972.250; -770.000; -908.000
430.234;  694.400;   76.000;  -50.000
430.358;   64.250; -250.000; -160.000
430.482;  -73.825; -672.000; -564.000
430.606;  -61.925; -655.000; -375.000
430.730;    9.150; -437.000; -388.000
430.854;  183.125; -909.000; -835.000
430.978;  -62.600; -795.000; -764.000
431.102;  -73.100; -499.000; -422.000
431.226; -118.700; -874.000; -815.000
431.350;   21.500;  345.000;  422.000
431.474;  -80.375; -661.000; -373.000
431.597; -144.475;-1060.000; -848.000
431.721;  -77.400; -276.000; -267.000
431.845; -121.050; -704.000; -472.000
431.969;  -90.900; -304.000; -349.000
432.093;  -89.550; -395.000; -317.000
432.217;  -33.475;   32.000;   82.000
432.341;  -92.450; -523.000; -518.000
432.464;    9.025;   96.000;   40.000
432.588;  250.250; -401.000; -329.000
432.712;  120.900;  -52.000;  -52.000
432.836;   44.725;  213.000;  263.000
432.959;  -13.025; -372.000; -311.000
433.083;   82.125;   11.000;    2.000
433.207;  353.475;  285.000;  930.000
433.330; 4705.125; -391.000; -200.000
433.454; 5979.800; -654.000; -638.000
433.578; 3452.950;  583.000;  278.000
433.701;  659.175; -623.000; -675.000
433.825;  162.200; -292.000; -299.000
433.949;  213.625;   28.000;  -72.000
434.072;   96.900; -410.000; -323.000
434.196;  -10.525; -309.000; -117.000
434.319; 3628.825;25482.000;25124.000
434.443;  700.200; -656.000; -603.000
434.566; 2573.425;  281.000;   62.000
434.690;  444.275; -637.000; -383.000
434.813;   60.650; -251.000; -173.000
434.937;  -79.425; -569.000; -696.000
435.060;  -18.650; -423.000; -332.000
435.184;  389.325; -492.000; -217.000
435.307;  227.825;  159.000;  102.000
435.431;  -12.300;  -40.000;   24.000
435.554;  -73.500; -399.000; -240.000
435.677;  -90.875; -350.000; -258.000
435.801;  -35.825;  -25.000;   49.000
435.924;   -3.500;    1.000;  -67.000
436.048; -103.200;-1019.000; -732.000
436.171;  -82.775; -240.000;  -66.000
436.294;  -37.475; -248.000; -229.000
436.417;   73.650; -963.000; -849.000
436.541;  -81.050; -814.000; -840.000
436.664;  -48.475; -242.000; -316.000
436.787;  -33.675;   13.000;  113.000
436.910; -109.475; -792.000; -422.000
437.034;    8.300;  142.000;  143.000
437.157;   58.300;  -11.000;    0.000
437.280;  -38.150; -392.000; -292.000
437.403;  -72.800; -982.000; -869.000
437.526;  799.050; -903.000; -865.000
437.649; 2839.050; -505.000; -332.000
437.772;  482.575; -692.000; -540.000
437.896;  148.725;  700.000;  544.000
438.019;  -94.650; -758.000; -503.000
438.142;  -87.900; -596.000; -506.000
438.265;    3.925; -639.000; -670.000
438.388;  690.050; -520.000; -410.000
438.511;  170.525; -597.000; -394.000
438.634;  -45.300; -247.000; -125.000
438.757; -125.775; -693.000; -619.000
438.880;  -21.100;  -34.000;  -57.000
439.003;  -64.275; -417.000; -437.000
439.126;  -74.100; -287.000; -167.000
439.248;  -68.575;  -98.000; -139.000
439.371;  -64.850;    9.000;  -53.000
439.494;   20.125;  510.000;  439.000
439.617;  -49.675;   65.000;  -88.000
439.740; -170.575; -968.000; -816.000
439.863; -151.275; -755.000; -595.000
439.986; -118.475; -476.000; -431.000
440.108;  -50.450; -161.000; -112.000
440.231; -150.550; -950.000; -836.000
440.354;  -43.100;  -64.000; -150.000
440.477;   66.825; -566.000; -542.000
440.599;   15.025; -200.000; -225.000
440.722; -104.050; -709.000; -586.000
440.845;   62.825;  751.000;  928.000
440.968; -104.900; -415.000; -311.000
441.090;  -66.050; -199.000;  -33.000
441.213; -169.425;-1021.000; -825.000
441.336;  -66.425; -159.000;   -5.000
441.458;  -68.175; -549.000; -396.000
441.581;  -76.275; -628.000; -629.000
441.703;  -54.875; -152.000;   13.000
441.826; -123.475; -557.000; -400.000
441.948;  -43.525;   56.000;   51.000
442.071;   21.125;  555.000;  424.000
442.193; -129.125; -531.000; -485.000
442.316;   16.450;  152.000;   97.000
442.438;   52.025; -233.000;  -10.000
442.561;   77.150;  272.000;  262.000
442.683;  664.100; -809.000; -522.000
442.806; 1437.975;   -8.000;   74.000
442.928;   82.175; -859.000; -604.000
443.051;  -67.075; -577.000; -373.000
443.173;  -88.075; -341.000; -339.000
443.295;  -97.925; -263.000; -371.000
443.418;  -52.100; -321.000;  -29.000
443.540;    2.900; -106.000;   -4.000
443.662; -117.925; -563.000; -465.000
443.785;  -26.250;  335.000;  199.000
443.907;  -97.800; -362.000; -208.000
444.029; -123.625; -767.000; -494.000
444.152; -148.575; -644.000; -554.000
444.274;  -28.800;  -18.000;  -24.000
444.396; -116.600; -461.000; -221.000
444.518; -128.550; -691.000; -454.000
444.640; -100.750; -268.000; -111.000
444.763;  -29.750;  388.000;  249.000
444.885; -110.550; -432.000; -392.000
445.007;  -34.425;   35.000;   86.000
445.129; -112.000; -610.000; -515.000
445.251;  -98.225; -372.000; -439.000
445.373; -141.450; -537.000; -386.000
445.495;   -5.550;  242.000;  350.000
445.617;   58.975;  853.000;  753.000
445.739;  -75.175; -215.000;  -97.000
445.861;  -22.750; -245.000; -112.000
445.984;  -28.700; -267.000; -101.000
446.105;  241.725; -418.000; -251.000
446.227;  760.975; -176.000;  -19.000
446.349;   44.800; -358.000; -249.000
446.471;  -94.450; -615.000; -448.000
446.593;  -64.600; -316.000;   19.000
446.715;    1.250;  -67.000;   41.000
446.837;   57.175;  697.000;  832.000
446.959;  -99.450; -457.000; -478.000
447.081; -125.775; -628.000; -518.000
447.203;   49.075;  862.000;  834.000
447.325;  -87.000; -270.000;   42.000
447.446;  -18.000;  286.000;  530.000
447.568; -160.550; -921.000; -803.000
447.690;  -86.375; -236.000; -245.000
447.812; -145.450; -798.000; -519.000
447.933;  -42.075;  155.000;  127.000
448.055;  -59.575; -306.000; -261.000
448.177;  173.750;   31.000;   79.000
448.299;  127.700; -935.000; -727.000
448.420;   23.325;  -25.000;  159.000
448.542;  -49.200;   -3.000;   33.000
448.664;  -20.275;  109.000;  322.000
448.785;  -19.200;  265.000;   83.000
448.907;  -83.875; -614.000; -353.000
449.028;  -11.300; -771.000; -471.000
449.150;   62.175;  492.000;  589.000
449.272; -173.275;-1044.000; -913.000
449.393;   29.800;  612.000;  694.000
449.515; -144.875; -634.000; -581.000
449.636;  -57.600; -264.000; -155.000
449.758;   79.625;  763.000;  622.000
449.879; -105.950; -498.000; -396.000
450.001;  -83.300; -149.000;  -49.000
450.122;  -51.525;  -95.000;  162.000
450.244;  -49.325;   37.000;  364.000
450.365; -106.325; -495.000; -301.000
450.486;  -33.250;   80.000;  268.000
450.608;   15.975;  393.000;  326.000
450.729;   67.850;  578.000;  645.000
450.850;  -11.350; -574.000; -466.000
450.972;  665.775; -552.000; -389.000
451.093; 4537.600;  190.000;  588.000
451.214; 2062.700; -516.000; -337.000
451.336;  369.625;  773.000;  579.000
451.457;   67.375;  264.000;  393.000
451.578;  -48.675; -118.000;  -74.000
451.699; -126.375; -546.000; -540.000
451.821;  -79.875; -284.000;  -50.000
451.942;   -5.050;  278.000;  285.000
452.063;   23.800;  228.000;  419.000
452.184;  493.950;  -54.000;  -49.000
452.305; 1039.075;  103.000;  170.000
452.427;  133.175; -549.000; -301.000
452.548;  -16.025;   23.000;   79.000
452.669;  -38.050; -257.000;  -89.000
452.790;  -49.750;    3.000;  -18.000
452.911;  -12.025;  195.000;  259.000
453.032;  -73.475; -289.000;  -60.000
453.153;  -42.925;  -29.000;   81.000
453.274;   58.450;  737.000;  868.000
453.395;  -67.125;  -51.000;  175.000
453.516;  104.400; 1317.000; 1388.000
453.637;  -54.000; -205.000; -150.000
453.758;  -67.400;   15.000;   69.000
453.879; -129.950; -462.000; -250.000
454.000;   66.950; 1086.000;  948.000
454.121; -112.225; -554.000; -326.000
454.242; -121.775; -599.000; -383.000
454.362;  -66.800;  -99.000;  114.000
454.483;  -43.300; -309.000; -229.000
454.604;   66.325;  512.000;  580.000
454.725; -131.075; -627.000; -555.000
454.846; -122.725; -474.000; -406.000
454.967;  -40.975;  230.000;  539.000
455.087;  -45.975;  179.000;  153.000
455.208;   12.725;  554.000;  856.000
455.329;  -65.175;  -22.000;   82.000
455.450;   19.075;  473.000;  633.000
455.570;  -92.650; -234.000; -211.000
455.691;  -50.425;  201.000;  407.000
455.812; -109.575; -270.000;  -92.000
455.932;  -70.975;  107.000;  -97.000
456.053;  -81.300;   36.000;   24.000
456.173; -126.775; -433.000; -355.000
456.294; -128.400; -476.000; -303.000
456.415;  -78.875;  -73.000;   70.000
456.535;  -49.400;  297.000;  273.000
456.656;  -56.300;  132.000;  240.000
456.776;  -76.925;    3.000;  298.000
456.897;  -14.675;  308.000;  513.000
457.017;  -74.050; -153.000;   -3.000
457.138; -104.425; -402.000; -249.000
457.258;  -23.600;  263.000;  224.000
457.379;  -33.975;  509.000;  521.000
457.499;  -25.725;  443.000;  432.000
457.620; -128.700; -407.000; -231.000
457.740; -120.700; -132.000;  -11.000
457.860;  -67.150;   87.000;   44.000
457.981;  -49.700;  132.000;  124.000
458.101;  -75.300;  -89.000;   40.000
458.221;  -10.225;  336.000;  402.000
458.342;  -64.400;   -4.000;  -37.000
458.462;   11.100;  617.000;  352.000
458.582;  -50.775; -302.000; -294.000
458.703;   -3.025;  303.000;  154.000
458.823;  -27.950;   22.000;  163.000
458.943;   15.025;  341.000;  467.000
459.063;   -8.975; 1124.000;  192.000
459.183;  -11.325;  328.000;  313.000
459.304;   -3.100;  315.000;  517.000
459.424;  -72.600; -246.000;  -89.000
459.544;  299.975;  388.000;  764.000
459.664;  784.400;  499.000;  506.000
459.784;  304.950; 1004.000; 1175.000
459.904;   69.725;  867.000;  744.000
460.024;   58.625;  867.000;  684.000
460.144;   18.050;  449.000;  554.000
460.264;   -4.300;  515.000;  327.000
460.385;  -81.975; -145.000; -119.000
460.505;   13.175;  905.000;  858.000
460.625;  -88.450;  -17.000;  -68.000
460.745;  -25.850;  396.000;  541.000
460.864;  -57.125;  153.000;  469.000
460.984;    4.750;  499.000;  573.000
461.104;  145.000; 1656.000; 1775.000
461.224;    6.500;  657.000;  650.000
461.344;  -26.575;  431.000;  360.000
461.464;  -31.000;  258.000;  513.000
461.584;   -9.000;  283.000;  466.000
461.704;  -49.300;   58.000;  108.000
461.824;  -41.325;  238.000;  259.000
461.943;  -63.525;  191.000;  130.000
462.063;  -73.125;    2.000;  324.000
462.183;   25.900;  639.000;  717.000
462.303;   98.600; 1678.000; 1230.000
462.422;   11.300;  781.000;  840.000
462.542;  -37.200;  271.000;  391.000
462.662;   35.475;  353.000;  380.000
462.782;  226.200;  833.000;  572.000
462.901;  469.125;  545.000;  717.000
463.021;  267.900; 1702.000; 1638.000
463.141;   -2.925;  337.000;  770.000
463.260;  -24.750;  614.000;  474.000
463.380;    3.025;  902.000;  884.000
463.499;  -46.150;  342.000;  332.000
463.619;  -30.900;  581.000;  559.000
463.738;   96.600; 1644.000;  903.000
463.858;    7.475;  657.000;  811.000
463.978;  -28.475;  542.000;  396.000
464.097;   37.900;  921.000; 1114.000
464.217;   89.100; 1196.000; 1143.000
464.336;  110.925; 1068.000; 1130.000
464.455;  -22.925;  328.000;  659.000
464.575;   49.325;  597.000;  602.000
464.694;  175.225; 1204.000; 1179.000
464.814;  137.225; 1190.000; 1138.000
464.933;   79.875; 1095.000; 1027.000
465.052;  103.125; 1412.000; 1054.000
465.172;   77.100;  922.000;  799.000
465.291;  134.025; 1376.000; 1320.000
465.410;   15.200;  462.000;  735.000
465.530;   60.675; 1355.000; 1310.000
465.649;   70.525; 1209.000; 1273.000
465.768;  116.925; 1673.000; 1508.000
465.888;   41.675;  941.000; 1174.000
466.007;   78.625; 1335.000; 1440.000
466.126;   -4.775;  721.000;  641.000
466.245;   38.150; 1176.000; 1187.000
466.364;   25.925;  950.000; 1060.000
466.484;   54.025; 1024.000; 1213.000
466.603;   46.075; 1101.000; 1222.000
466.722;  113.950; 1490.000; 1769.000
466.841;   89.425; 1151.000; 1401.000
466.960;   34.500; 1069.000;  972.000
467.079;  134.725; 1971.000; 1786.000
467.198;   36.325; 1238.000; 1181.000
467.317;   91.000; 1768.000; 1162.000
467.436;   57.850; 1709.000; 1261.000
467.555;  120.600; 1796.000; 1746.000
467.674;   71.550; 1227.000; 1329.000
467.793;   25.675; 1376.000; 1374.000
467.912;   66.450; 1658.000; 1539.000
468.031;  142.075; 2038.000; 1930.000
468.150;  138.925; 1842.000; 1837.000
468.269;  197.500; 2313.000; 2090.000
468.388;  173.275; 2168.000; 2339.000
468.507;  234.000; 2884.000; 2903.000
468.626;  272.750; 2555.000; 2541.000
468.744;  137.100; 2018.000; 2174.000
468.863;  180.975; 2312.000; 2523.000
468.982;   87.750; 1503.000; 1555.000
469.101;  225.150; 2788.000; 2692.000
469.220;  144.375; 2333.000; 2176.000
469.338;  251.275; 2935.000; 3051.000
469.457;  200.400; 2719.000; 2545.000
469.576;  338.925; 3953.000; 3784.000
469.695;  241.125; 2877.000; 3066.000
469.813;  409.900; 4148.000; 4192.000
469.932;  391.950; 4255.000; 4485.000
470.051;  403.525; 4075.000; 4161.000
470.169;  794.625; 4470.000; 4338.000
470.288; 1432.550; 4700.000; 4809.000
470.406;  860.375; 5059.000; 5194.000
470.525;  634.850; 6101.000; 5787.000
470.644;  653.875; 6847.000; 6794.000
470.762;  804.200; 8397.000; 7873.000
470.881;  901.800; 8651.000; 8464.000
470.999; 1010.400; 9685.000; 9151.000
471.118; 1111.625;11174.000;10711.000

