
Integration time [ms]: 100.000
Averaging Nr. [scans]: 40
Smoothing Nr. [pixels]: 0
Data measured with spectrometer [name]: 2101012U2
Wave   ;Sample   ;Dark     ;Reference
[nm]   ;[counts] ;[counts] ;[counts] 

197.733;   58.850;  516.000;  404.000
197.879;  -86.125; -610.000; -634.000
198.025;  -46.075; -475.000; -420.000
198.171;  -75.150; -602.000; -612.000
198.317;  -18.775; -401.000; -316.000
198.463;  -72.325; -655.000; -404.000
198.609;   38.025;  181.000; -137.000
198.755;  -74.200; -644.000; -410.000
198.901;  -73.225; -505.000; -424.000
199.047;  -63.750; -615.000; -488.000
199.193;  -43.975; -230.000; -468.000
199.339;  -51.375; -222.000; -369.000
199.485;   33.875;  330.000;  271.000
199.631;   25.525;  227.000;  310.000
199.777;  -59.350; -466.000; -398.000
199.923;  -43.125; -610.000; -424.000
200.069;    4.400; -141.000;  -58.000
200.215;   41.725;  128.000;  453.000
200.361;   49.475;  243.000;  477.000
200.507;  -51.625; -600.000; -373.000
200.653;  -21.225; -371.000; -194.000
200.798;  -31.350; -215.000; -125.000
200.944;   -0.750; -146.000;  -41.000
201.090;   26.675;   61.000;  222.000
201.236;    2.800; -116.000; -158.000
201.382;  117.225;  874.000;  903.000
201.528;    5.450;  -58.000;  -48.000
201.674;  -39.025; -386.000; -293.000
201.819;  -64.275; -540.000; -439.000
201.965;  -87.650; -699.000; -447.000
202.111;  -18.650; -273.000; -226.000
202.257;  -27.350; -250.000; -238.000
202.402;   -9.375;   13.000;  -36.000
202.548;  -31.325; -169.000; -116.000
202.694;   74.325;  410.000; -183.000
202.840;  -74.275; -603.000; -531.000
202.985;  -74.225; -681.000; -639.000
203.131; -113.275; -832.000; -666.000
203.277;  -22.625; -199.000; -262.000
203.423;  -56.800; -434.000; -520.000
203.568;  -36.400; -462.000; -237.000
203.714;  -69.350; -535.000; -542.000
203.860;  -79.850; -682.000; -641.000
204.005;   11.450;  112.000;  167.000
204.151;   76.625;  561.000;  556.000
204.296;  -46.075; -354.000; -221.000
204.442;  -66.100; -600.000; -547.000
204.588;  -93.100; -592.000; -579.000
204.733;   36.125;  178.000;  168.000
204.879; -142.900;-1018.000; -822.000
205.025;   16.200;  -99.000;  126.000
205.170;   -2.675;  -17.000;   94.000
205.316;   79.475;  438.000;  661.000
205.461;  -77.450; -698.000; -554.000
205.607;   85.625;  609.000;  665.000
205.752;  -70.000; -626.000; -551.000
205.898;  -43.875; -501.000; -391.000
206.043;  -62.425; -578.000; -506.000
206.189;  -33.550; -243.000; -285.000
206.334;   73.625;  554.000;  606.000
206.480;   63.800;  409.000;  239.000
206.625;  -76.450; -529.000; -552.000
206.771;  -47.825; -451.000; -373.000
206.916;  -41.950; -210.000; -537.000
207.062;  -64.700; -545.000; -591.000
207.207;  -57.825; -546.000; -443.000
207.353;   40.875;  185.000;  460.000
207.498;    3.350;  196.000;   85.000
207.643;  -46.600; -501.000; -370.000
207.789; -137.400;-1069.000; -910.000
207.934;  -89.650; -665.000; -713.000
208.080;  -31.475; -154.000;   66.000
208.225;    5.000;  -22.000;  -57.000
208.370;  -93.225; -727.000; -619.000
208.516;  -70.525; -741.000; -487.000
208.661;  -28.775; -127.000;  -69.000
208.806;  -20.950; -165.000; -171.000
208.952; -123.650;-1044.000; -731.000
209.097;   74.425;  378.000;  349.000
209.242;  -42.575; -307.000; -382.000
209.387;   68.500;  392.000;  350.000
209.533;  -57.625; -321.000; -350.000
209.678;   83.625;  472.000;  543.000
209.823;  -62.325; -408.000; -310.000
209.969;  -89.850; -860.000; -757.000
210.114; -102.075; -907.000; -719.000
210.259; -107.550; -939.000; -889.000
210.404;  -13.025; -171.000;  103.000
210.549;   13.675;  108.000;    3.000
210.695;  -20.825;   -3.000;  -95.000
210.840;   32.125;   94.000;   67.000
210.985;  -79.400; -484.000; -303.000
211.130;   72.300;  268.000;  406.000
211.275;   13.500;  207.000;  199.000
211.420;  -46.200; -300.000; -289.000
211.566;  -62.000; -536.000; -489.000
211.711;   22.400;  218.000;  157.000
211.856;  -58.050; -545.000; -519.000
212.001;    5.225;  151.000;   44.000
212.146;   30.300;  153.000;   49.000
212.291;  -16.900; -210.000; -186.000
212.436;  -27.250; -280.000;   -6.000
212.581;  -86.000; -685.000; -653.000
212.726;  -80.075; -487.000; -538.000
212.871;  -44.350; -552.000; -217.000
213.016; -147.350;-1172.000;-1029.000
213.161;   66.575;  406.000;  291.000
213.306;  -79.575; -435.000; -577.000
213.451;  -88.425; -778.000; -689.000
213.596;  -61.850; -455.000; -347.000
213.741;  -57.350; -448.000; -538.000
213.886;  -77.550; -498.000; -517.000
214.031;  -20.550; -294.000; -124.000
214.176;  -43.850; -408.000; -341.000
214.321;  -17.525; -296.000; -157.000
214.466;  -25.550; -163.000;  -43.000
214.611;  -14.150;  -61.000;  -10.000
214.756; -111.025; -948.000; -858.000
214.901;  -19.000; -388.000; -226.000
215.046; -130.275; -797.000; -825.000
215.191;    5.325;  128.000;   35.000
215.336;  -27.825; -157.000;  -19.000
215.480;  -66.700; -684.000; -505.000
215.625;  -17.950; -175.000;  -19.000
215.770;  -80.400; -757.000; -662.000
215.915;    3.950;   -5.000;  -97.000
216.060;  -12.550; -113.000;  -21.000
216.205; -109.275; -731.000; -779.000
216.349;  -69.600; -470.000; -533.000
216.494; -136.300; -939.000; -867.000
216.639; -110.925; -823.000; -888.000
216.784;  -81.800; -577.000; -525.000
216.929;   60.725;  392.000;  281.000
217.073;  -21.350; -244.000;  -31.000
217.218;    9.650;   78.000;  -47.000
217.363;  -88.325; -656.000; -618.000
217.507;  -67.175; -623.000; -588.000
217.652; -131.775; -845.000; -874.000
217.797;  -89.750; -708.000; -659.000
217.942; -125.325; -856.000; -720.000
218.086;   67.000;  608.000;  539.000
218.231;  -34.500; -174.000;  -26.000
218.376;  -27.600; -337.000; -229.000
218.520;  -10.500;  -41.000;   96.000
218.665;  -33.725; -338.000; -204.000
218.810;  -49.150; -275.000; -233.000
218.954;   22.525;  201.000;   35.000
219.099; -114.575; -713.000; -963.000
219.243;  -75.300; -589.000; -554.000
219.388;  -25.200; -264.000; -136.000
219.532;   -9.350; -116.000; -116.000
219.677;  -87.425; -564.000; -521.000
219.822;    5.450;   33.000;   89.000
219.966;   -6.725;   17.000;  -99.000
220.111;  -45.075; -328.000;  -40.000
220.255;  -96.600; -797.000; -750.000
220.400;  -18.000; -180.000; -146.000
220.544;  -66.675; -516.000; -450.000
220.689;  -52.025; -422.000; -451.000
220.833;  -23.400; -123.000;  -58.000
220.978;  -49.125; -393.000; -563.000
221.122;   24.425;  319.000;  307.000
221.267; -113.825; -906.000; -837.000
221.411;  -66.375; -478.000; -394.000
221.555;   -8.375; -104.000;  -23.000
221.700;  -53.575; -329.000; -222.000
221.844;   36.075;  255.000;  272.000
221.989;  -55.125; -328.000; -311.000
222.133;  -22.225; -289.000; -307.000
222.277;  -10.775;    5.000;   78.000
222.422;   21.250;  227.000;  113.000
222.566;  -43.700; -381.000; -214.000
222.711;  -51.625; -414.000; -479.000
222.855;  -83.750; -643.000; -586.000
222.999;  -81.850; -642.000; -717.000
223.144;  -43.200; -195.000; -194.000
223.288;   59.500;  423.000;  251.000
223.432;   17.375;  184.000;  230.000
223.576;   10.325;  152.000;  -21.000
223.721;   32.625;  364.000;  273.000
223.865;  -55.775; -472.000; -475.000
224.009;  253.675; 1673.000; 1631.000
224.153;  -82.550; -660.000; -671.000
224.298;  -57.075; -531.000; -489.000
224.442;  -10.975;  -74.000;  -33.000
224.586;  -12.575; -169.000; -106.000
224.730; -103.250; -858.000; -670.000
224.875; -105.575; -739.000; -688.000
225.019;   13.550;  102.000;  188.000
225.163;   40.925;  208.000;  341.000
225.307;    6.600;   97.000;  -91.000
225.451;   35.075;  360.000;  481.000
225.595;   17.425;  264.000;  176.000
225.739;  -11.250; -170.000;  -94.000
225.884;    1.950;   86.000;    5.000
226.028;  -91.525; -760.000; -626.000
226.172;  -26.100; -260.000; -273.000
226.316; -129.950; -941.000; -902.000
226.460;  -63.850; -645.000; -493.000
226.604;  -59.100; -406.000; -400.000
226.748;  -96.075; -836.000; -733.000
226.892;  -45.200; -227.000; -181.000
227.036;  -41.050; -537.000; -447.000
227.180;  -60.575; -551.000; -375.000
227.324;  -48.525; -561.000; -580.000
227.468; -107.525; -819.000; -717.000
227.612;   11.300;  242.000;  -28.000
227.756;  -92.650; -845.000; -698.000
227.900;   48.225;  342.000;  441.000
228.044;  -65.025; -509.000; -290.000
228.188;   58.425;  448.000;  568.000
228.332;  -83.900; -546.000; -472.000
228.476;  -20.675; -223.000; -149.000
228.620;  -44.700; -210.000; -150.000
228.764;   64.200;  431.000;  349.000
228.908;  -17.775; -155.000;   30.000
229.052;  -62.125; -615.000; -528.000
229.195;  -36.575; -172.000;   13.000
229.339;  -12.800; -235.000; -305.000
229.483;  -37.125;    5.000; -162.000
229.627;   -6.425; -156.000;  139.000
229.771;  -36.425; -218.000; -294.000
229.915;   12.975;  230.000;   79.000
230.059; -103.725; -648.000; -663.000
230.202;  -40.300; -370.000; -317.000
230.346;  -20.125; -107.000;  107.000
230.490;  -70.725; -489.000; -521.000
230.634; -110.450; -736.000; -553.000
230.777;   73.475;  478.000;  509.000
230.921;  -61.850; -450.000; -359.000
231.065;  -50.200; -246.000; -286.000
231.209;   22.500;  261.000;  265.000
231.352;   18.625;   54.000;   40.000
231.496;    7.750;  568.000;  188.000
231.640;  -83.000; -693.000; -621.000
231.783;   43.500;  546.000;  525.000
231.927;  -43.500; -294.000; -365.000
232.071; -124.725; -962.000; -736.000
232.214; -111.125; -980.000; -764.000
232.358; -105.500; -683.000; -599.000
232.502;   11.525;  -19.000;    7.000
232.645; -140.425;-1090.000; -927.000
232.789;  -10.750; -257.000; -218.000
232.933;  -58.100; -407.000; -224.000
233.076; -117.750;-1038.000; -897.000
233.220; -120.525; -752.000; -777.000
233.363;  -77.275; -669.000; -477.000
233.507;   46.575;  371.000;  129.000
233.650; -106.700; -764.000; -834.000
233.794;   38.475;  438.000;  461.000
233.938;  -54.150; -530.000; -362.000
234.081;  -23.400;  -93.000;   31.000
234.225;  -61.700; -631.000; -539.000
234.368; -108.400; -773.000; -723.000
234.512;  -41.825; -385.000; -299.000
234.655;  -91.275; -582.000; -555.000
234.798;  -68.200; -493.000; -466.000
234.942; -128.650; -884.000;-1002.000
235.085;  -86.950; -651.000; -443.000
235.229;  -73.000; -405.000; -410.000
235.372;  -60.325; -247.000; -191.000
235.516;  -70.325; -397.000; -321.000
235.659;   19.000;   92.000;  121.000
235.802;  -25.925;  -38.000;  -22.000
235.946;   29.600;  335.000;  215.000
236.089;   18.550;  126.000;  250.000
236.233;   58.275;  275.000;  298.000
236.376;  -57.350; -235.000; -378.000
236.519;  -46.575; -297.000; -319.000
236.663;  -28.250; -215.000; -117.000
236.806; -131.775;-1029.000; -999.000
236.949;   50.425;  543.000;  431.000
237.092;   61.075;  412.000;  391.000
237.236;  -93.925; -589.000; -502.000
237.379;   58.275;  352.000;  428.000
237.522; -112.675; -879.000; -768.000
237.666;  -14.875; -271.000;   18.000
237.809; -123.300; -851.000; -823.000
237.952;   51.050;  469.000;  271.000
238.095;  -72.300; -447.000; -442.000
238.238;   80.775;  688.000;  700.000
238.382;   -0.175;  166.000;  103.000
238.525;  -58.875; -598.000; -511.000
238.668; -139.750;-1060.000; -985.000
238.811;  -91.850; -638.000; -643.000
238.954;  -70.525; -483.000; -334.000
239.097;   88.325;  617.000;  664.000
239.241;   15.625;  394.000;  326.000
239.384;  -48.750; -254.000; -214.000
239.527;  -58.375; -424.000; -224.000
239.670; -149.575; -994.000;-1091.000
239.813; -109.100; -696.000; -658.000
239.956;   71.675;  579.000;  473.000
240.099; -106.175; -778.000; -725.000
240.242;   52.475;  428.000;  432.000
240.385;   44.875;  466.000;  450.000
240.528;  -64.850; -706.000; -473.000
240.671;    5.725;  189.000;  134.000
240.814;  -34.850; -441.000; -158.000
240.957; -107.650; -767.000; -578.000
241.100;  -93.575; -779.000; -755.000
241.243; -152.200;-1234.000; -893.000
241.386;  -64.825; -508.000; -379.000
241.529;  -91.800; -735.000; -547.000
241.672;  -60.375; -566.000; -495.000
241.815; -119.450; -832.000; -808.000
241.958;  -28.075; -125.000; -182.000
242.101;  -79.525; -545.000; -390.000
242.244;  -40.225; -270.000; -325.000
242.387;  -46.300; -304.000; -246.000
242.530;   52.175;  470.000;  134.000
242.673;  -46.575; -381.000; -309.000
242.815; -110.300; -925.000; -899.000
242.958;  -70.425; -482.000; -381.000
243.101;    3.500;  132.000;  187.000
243.244;  -83.375; -564.000; -521.000
243.387;  -61.175; -313.000; -316.000
243.530;  -97.225; -657.000; -674.000
243.672;  -11.625;   43.000;  -92.000
243.815;  -55.075; -355.000; -283.000
243.958;    5.025;   98.000;  -26.000
244.101;  -10.925;   59.000;  -16.000
244.243;  -10.550;  -47.000;  101.000
244.386; -118.525; -761.000; -630.000
244.529;  -22.425; -132.000; -139.000
244.672; -158.050;-1154.000; -951.000
244.814;  -92.425; -621.000; -794.000
244.957;  -39.350; -380.000; -304.000
245.100;  -78.075; -489.000; -489.000
245.242;  -59.125; -387.000; -374.000
245.385;   -8.775;  -59.000;  -39.000
245.528; -120.350; -871.000; -705.000
245.670;   89.500;  612.000;  634.000
245.813;  -90.575; -599.000; -547.000
245.956;  -37.000; -324.000; -275.000
246.098;  -78.175; -508.000; -650.000
246.241;   -3.275;  194.000;   48.000
246.383;  -29.650; -119.000;  -73.000
246.526;  -75.000; -454.000; -525.000
246.669; -128.400; -889.000; -780.000
246.811;   20.650;  172.000;   -1.000
246.954;  -63.625; -512.000; -426.000
247.096;  -16.400;  -84.000;   -6.000
247.239;  -77.825; -482.000; -445.000
247.381;  -69.275; -647.000; -488.000
247.524;   74.625;  645.000;  679.000
247.666;  -15.150;   58.000;   11.000
247.809; -104.925; -887.000; -691.000
247.951;  -18.850;  -75.000;  138.000
248.094;   10.400;  432.000;  308.000
248.236; -162.325;-1262.000;-1238.000
248.378;   12.325; -356.000;  -81.000
248.521;  -20.775; -334.000; -337.000
248.663;  -42.050; -236.000; -267.000
248.806;  -27.225; -300.000; -266.000
248.948;  -91.275; -886.000; -763.000
249.090;  -39.400; -428.000; -398.000
249.233;  -46.550; -344.000; -381.000
249.375;  -68.400; -474.000; -451.000
249.518;  -35.025;  -83.000; -133.000
249.660;   -0.825; -103.000;    3.000
249.802; -182.100;-1303.000;-1189.000
249.945;  -75.350; -612.000; -540.000
250.087; -113.400; -834.000; -768.000
250.229;  -58.950; -362.000; -480.000
250.371;  -79.450; -494.000; -439.000
250.514;  -41.100; -310.000; -244.000
250.656;  -63.650;   69.000;  102.000
250.798; -112.775; -849.000; -800.000
250.940;  -65.225; -322.000; -322.000
251.083;  -24.475; -335.000; -111.000
251.225;   43.775;  338.000;  310.000
251.367;  -46.700; -274.000; -373.000
251.509;  -35.600; -265.000; -210.000
251.651; -102.175; -731.000; -671.000
251.794;   47.900;  538.000;  632.000
251.936; -100.550; -821.000; -747.000
252.078;  -74.075; -540.000; -461.000
252.220;  -81.300; -645.000; -477.000
252.362;   91.050;  344.000;  462.000
252.504;  -70.525; -677.000; -584.000
252.646; -123.800; -875.000; -722.000
252.788;    0.525;   14.000; -128.000
252.931;  -43.025; -257.000; -253.000
253.073;  -37.275; -376.000; -317.000
253.215;  -10.900;  141.000;  122.000
253.357;  -17.900;   82.000; -153.000
253.499;  -56.375; -374.000; -234.000
253.641;  -88.000; -749.000; -594.000
253.783;  -89.725; -609.000; -527.000
253.925;  -91.475; -586.000; -591.000
254.067; -122.600; -744.000; -667.000
254.209;  -26.075; -391.000; -259.000
254.351; -138.825; -865.000; -883.000
254.493;  -57.075; -441.000; -417.000
254.635; -125.700; -936.000; -818.000
254.777;  -87.150; -752.000; -687.000
254.918;  -68.125; -512.000; -430.000
255.060;  -51.300; -551.000; -395.000
255.202;  -68.525; -473.000; -261.000
255.344;  -78.600; -658.000; -455.000
255.486;  -69.975; -471.000; -406.000
255.628;  -95.250; -780.000; -781.000
255.770;  -94.075; -676.000; -536.000
255.912;  -67.075; -559.000; -468.000
256.053; -101.875; -730.000; -508.000
256.195;  142.675; 1008.000;  903.000
256.337; -108.000; -861.000; -595.000
256.479;   48.675;  532.000;  416.000
256.621;  -52.175; -394.000; -212.000
256.762;  -95.750; -789.000; -742.000
256.904;   38.600;  485.000;  487.000
257.046;  -49.000; -381.000; -271.000
257.188;  -49.775; -351.000; -264.000
257.329;  -69.600; -525.000; -464.000
257.471; -115.125; -939.000; -807.000
257.613;  -63.725; -584.000; -498.000
257.755; -136.550;-1073.000; -982.000
257.896;   28.875;  286.000;  392.000
258.038;  -65.675; -403.000; -352.000
258.180;  -40.250; -354.000; -279.000
258.321;  -95.600; -581.000; -457.000
258.463;   -2.175;  -71.000;  133.000
258.605;  -93.000; -562.000; -570.000
258.746; -106.575; -886.000; -772.000
258.888; -162.800;-1026.000;-1020.000
259.029;   22.100;  121.000;   -8.000
259.171;  -83.800; -614.000; -550.000
259.313;    1.200;  -49.000;  -47.000
259.454;  -74.100; -536.000; -414.000
259.596;  -54.500; -483.000; -390.000
259.737;  -79.925; -590.000; -474.000
259.879;   33.050;  217.000;  311.000
260.020;   94.550;  901.000;  636.000
260.162;  -21.575; -146.000; -253.000
260.303; -122.450; -768.000; -687.000
260.445;  -76.700; -609.000; -613.000
260.586;   20.100;  392.000;  157.000
260.728;  -38.900; -360.000; -248.000
260.869; -105.775; -350.000; -343.000
261.011;   83.950;  706.000;  537.000
261.152;  -63.375; -479.000; -319.000
261.293;  -92.750; -576.000; -595.000
261.435;  -48.650; -219.000; -184.000
261.576;  -43.150; -455.000; -325.000
261.718;   25.775;  420.000;  470.000
261.859; -120.575; -940.000; -949.000
262.000; -141.100; -951.000;-1016.000
262.142;  -22.350;  -52.000;  -60.000
262.283; -127.200; -808.000; -691.000
262.424;  -87.050; -666.000; -625.000
262.566; -158.375;-1161.000; -983.000
262.707; -110.100; -840.000; -830.000
262.848; -137.000; -769.000; -726.000
262.990;  -53.900; -362.000; -345.000
263.131;   68.325;  650.000;  681.000
263.272;  -18.400;  -61.000;  -41.000
263.413;  -96.025; -589.000; -561.000
263.555;  -63.850; -669.000; -143.000
263.696;  -87.200; -550.000; -641.000
263.837;  -47.700; -449.000; -551.000
263.978;  -21.900;   -5.000;  -77.000
264.119;  -39.500; -283.000; -264.000
264.261; -121.550; -847.000; -630.000
264.402;    3.725;   33.000;   40.000
264.543;  -78.725; -509.000; -524.000
264.684;   -6.175;   61.000;  -50.000
264.825;  -82.600; -816.000; -538.000
264.966;   -8.875;  -84.000;  -67.000
265.107; -124.875; -646.000; -670.000
265.248; -115.275; -825.000; -812.000
265.390;   -0.250;  152.000;   -9.000
265.531;  -23.650; -238.000; -107.000
265.672; -104.550; -557.000; -630.000
265.813;   58.400;  563.000;  439.000
265.954; -155.075; -959.000; -940.000
266.095;  -30.275; -372.000; -322.000
266.236; -102.850; -686.000; -548.000
266.377;  -47.350; -243.000; -297.000
266.518;  -78.450; -619.000; -547.000
266.659;   33.425;  170.000;  268.000
266.800;   11.625;   83.000;   85.000
266.941;  -84.675; -487.000; -478.000
267.082;   11.175;  354.000;   99.000
267.223;  -56.000; -344.000; -273.000
267.364; -131.275; -892.000; -686.000
267.504;  -10.125;    3.000;  135.000
267.645;   -2.200;  160.000;   67.000
267.786;  -37.925; -147.000;  -86.000
267.927;  -78.150; -473.000; -379.000
268.068;  -13.300; -186.000;  -61.000
268.209;  -43.225; -175.000; -413.000
268.350;  -60.575; -388.000; -532.000
268.490;  -90.600; -648.000; -521.000
268.631;   37.575;  127.000;  225.000
268.772; -121.000; -874.000; -647.000
268.913;  -37.900; -328.000; -476.000
269.054;  -23.900; -117.000;   12.000
269.194;  -59.325; -418.000; -402.000
269.335; -151.275;-1137.000;-1074.000
269.476;  -24.475;   33.000;  -35.000
269.617;  -48.150; -347.000; -392.000
269.757;  -81.875; -713.000; -646.000
269.898; -108.700; -856.000; -613.000
270.039;  -67.975; -415.000; -405.000
270.180; -141.875; -952.000; -816.000
270.320;  -15.225; -190.000; -250.000
270.461;  -50.325; -277.000; -249.000
270.602;  -10.800; -186.000; -156.000
270.742; -142.025; -868.000; -943.000
270.883;  -69.600; -442.000; -390.000
271.023;  -73.750; -358.000; -357.000
271.164;  -71.700; -607.000; -528.000
271.305; -105.175; -666.000; -654.000
271.445;  -90.975; -722.000; -683.000
271.586;  -71.875; -462.000; -283.000
271.726;  -42.050; -397.000; -322.000
271.867;  -69.800; -594.000; -534.000
272.008;  180.600; -473.000; -285.000
272.148;  114.350;  462.000;  468.000
272.289;   14.075; -113.000; -181.000
272.429;   11.650;   19.000;  185.000
272.570; -101.175; -633.000; -737.000
272.710; -111.200; -825.000; -775.000
272.851;  -21.850;  113.000; -130.000
272.991; -162.400;-1173.000;-1077.000
273.131;  -66.675; -419.000; -459.000
273.272;  -97.925; -683.000; -723.000
273.412;    1.125; -143.000;  -31.000
273.553;  -56.425; -488.000; -507.000
273.693;  125.875;  913.000;  858.000
273.834;  -96.625; -894.000; -692.000
273.974;  -63.275; -664.000; -615.000
274.114; -101.625; -772.000; -560.000
274.255;   65.625;  414.000;  373.000
274.395;    9.550; -180.000; -125.000
274.535;   39.625;  199.000;  350.000
274.676;   16.150;  225.000;   94.000
274.816;    9.575;  110.000;   34.000
274.956;  -89.600; -624.000; -690.000
275.097;  -52.925;-1014.000; -922.000
275.237; -107.525; -913.000; -803.000
275.377;  -95.175; -778.000; -689.000
275.517; -141.825; -878.000; -937.000
275.658;  -62.175; -590.000; -555.000
275.798;  -64.800; -606.000; -413.000
275.938;   15.000;  215.000;  323.000
276.078; -108.200; -626.000; -395.000
276.218;    7.275;   99.000;  104.000
276.359; -130.550;-1026.000;-1024.000
276.499;  -75.375; -605.000; -446.000
276.639;  -46.725; -305.000; -151.000
276.779;  -61.100; -475.000; -357.000
276.919; -117.675; -783.000; -624.000
277.059;  -26.250; -261.000; -212.000
277.199;  -52.475; -357.000; -259.000
277.340;   44.950;  287.000;  175.000
277.480; -113.550; -840.000; -693.000
277.620;   14.050;  192.000;   16.000
277.760; -208.050;-1533.000;-1294.000
277.900;   15.475;  113.000;   33.000
278.040;   18.350;  137.000;  159.000
278.180;   42.225;  270.000;  170.000
278.320;    0.575;   21.000;   56.000
278.460;  -73.025; -443.000; -469.000
278.600; -100.125; -708.000; -598.000
278.740;   46.750;  448.000;  224.000
278.880;  -65.000; -768.000; -791.000
279.020;  -14.275; -194.000; -144.000
279.160;  -85.700; -672.000; -595.000
279.300; -127.025; -926.000; -873.000
279.440;  -77.725; -709.000; -622.000
279.579;  -18.925;-1014.000; -929.000
279.719;  -48.575; -410.000; -394.000
279.859;   72.300;   -4.000;   41.000
279.999;   18.425; -208.000;  101.000
280.139;  -20.975; -435.000; -387.000
280.279;  -86.700; -708.000; -745.000
280.419;  -15.525; -229.000; -147.000
280.559;  -47.775; -259.000; -180.000
280.698;  -95.475; -790.000; -639.000
280.838; -100.475; -778.000; -800.000
280.978;  -94.425; -846.000; -790.000
281.118; -105.825; -811.000; -704.000
281.257;    1.175;   24.000;    6.000
281.397; -123.475;-1094.000; -960.000
281.537;  -89.825; -599.000; -712.000
281.677;  -52.425; -150.000; -101.000
281.816;  -81.575; -700.000; -630.000
281.956;  -37.900; -193.000; -257.000
282.096;  -59.800; -539.000; -396.000
282.235; -109.225; -672.000; -638.000
282.375;  -35.225; -243.000;  -98.000
282.515; -118.375; -715.000; -707.000
282.654;   24.425;   29.000;  106.000
282.794;   17.025;  388.000;  244.000
282.934;  -57.475; -530.000; -491.000
283.073; -139.325;-1030.000; -857.000
283.213;  -59.950; -460.000; -467.000
283.353;  -49.725; -408.000; -349.000
283.492;  -32.950; -264.000; -296.000
283.632;  -36.975; -254.000; -168.000
283.771;  -86.975; -859.000; -730.000
283.911;  -62.425; -369.000; -260.000
284.050; -113.600; -794.000; -748.000
284.190; -167.725;-1229.000;-1096.000
284.329; -146.850;-1055.000; -964.000
284.469;  -72.075; -516.000; -591.000
284.608;  -66.450; -559.000; -598.000
284.748;  -79.575; -614.000; -570.000
284.887;  -25.650;  -87.000;  -20.000
285.027; -126.200; -844.000; -892.000
285.166;  -29.325; -192.000; -249.000
285.306;    0.725; -116.000;  -33.000
285.445;  -36.025; -229.000; -343.000
285.584;  -96.700; -630.000; -494.000
285.724;  -30.700; -282.000; -322.000
285.863; -112.525; -857.000; -507.000
286.002;  -54.950; -366.000; -276.000
286.142; -112.225; -715.000; -622.000
286.281;  -68.175; -525.000; -493.000
286.420;  -84.025; -554.000; -417.000
286.560;  100.375;  653.000;  623.000
286.699; -144.250; -958.000; -912.000
286.838;  -83.800; -590.000; -591.000
286.978;  -95.300; -533.000; -537.000
287.117; -129.575;-1085.000; -950.000
287.256;  -50.625; -228.000; -211.000
287.395;  -48.425; -197.000; -378.000
287.535;  -51.000; -370.000; -298.000
287.674;  -78.925; -509.000; -484.000
287.813;   41.950;  661.000;  533.000
287.952; -133.525;-1010.000; -871.000
288.091; -148.425;-1049.000; -915.000
288.231;   22.300;   13.000;   15.000
288.370; -178.600;-1217.000;-1200.000
288.509;  -89.675; -728.000; -645.000
288.648; -103.900; -770.000; -548.000
288.787;  -40.025; -243.000;  -87.000
288.926;  -66.525; -454.000; -475.000
289.065;  106.650;  859.000;  672.000
289.204;  -60.150; -377.000; -217.000
289.344;  -93.450; -791.000; -690.000
289.483;   18.150;  416.000;  304.000
289.622;  -35.050; -291.000; -149.000
289.761;  -34.150; -309.000; -166.000
289.900;  -98.525; -785.000; -626.000
290.039;  -15.250;  -12.000;  -95.000
290.178;  -41.475; -274.000; -180.000
290.317;  -83.050; -618.000; -479.000
290.456;  -59.025; -463.000; -451.000
290.595; -132.450; -961.000; -833.000
290.734; -141.500; -904.000; -891.000
290.873;  -69.350; -456.000; -420.000
291.011; -113.875; -833.000; -843.000
291.150; -111.775; -770.000; -682.000
291.289;  -22.400; -343.000; -110.000
291.428; -107.550; -599.000; -480.000
291.567;  -51.700; -370.000; -442.000
291.706;   -3.425;  109.000;  154.000
291.845;  -94.775; -597.000; -505.000
291.984; -181.025;-1234.000;-1061.000
292.122;   71.850;  602.000;  582.000
292.261;   50.850;  620.000;  463.000
292.400;    0.825; -144.000;  211.000
292.539; -132.375; -959.000; -813.000
292.678;  -34.500; -325.000; -300.000
292.816; -154.575;-1136.000; -965.000
292.955;  -94.175; -844.000; -684.000
293.094;  -24.225; -173.000; -337.000
293.233;  -48.975; -556.000; -400.000
293.371;  -48.550; -225.000;  -84.000
293.510; -106.425; -866.000; -780.000
293.649; -123.250; -959.000; -924.000
293.787;  -73.650;-1083.000;-1012.000
293.926;  -19.550; -113.000;  -32.000
294.065;  -39.825; -379.000; -290.000
294.203;   37.150;  298.000;  406.000
294.342;   31.350;   74.000;  156.000
294.481; 6147.500;51180.000; -836.000
294.619;  -34.025; -425.000; -582.000
294.758; -156.350;-1230.000;-1137.000
294.896;   54.175; -125.000;    5.000
295.035; -132.700;-1040.000;-1006.000
295.174; -117.975;-1082.000; -954.000
295.312;  -49.500; -323.000; -203.000
295.451;   -5.700; -307.000; -428.000
295.589;  -65.500; -389.000; -518.000
295.728;    9.600; -292.000; -165.000
295.866;  -10.725;  -36.000;  -51.000
296.005;  -55.100; -584.000; -341.000
296.143;  -78.350; -558.000; -596.000
296.282; -100.250; -957.000; -881.000
296.420;  -87.350; -657.000; -557.000
296.559;  -88.250; -892.000; -633.000
296.697;   18.700; -847.000; -665.000
296.835;   44.200;-1141.000;-1002.000
296.974;   31.850;  -23.000;   39.000
297.112;   19.675; -443.000; -504.000
297.251;  -81.875; -815.000; -755.000
297.389;   83.800; -576.000; -438.000
297.527;   27.450; -145.000;  -83.000
297.666;  -59.525; -486.000; -438.000
297.804;  -67.875; -404.000; -264.000
297.942;  -12.525; -136.000; -161.000
298.081;   -7.850; -183.000;   63.000
298.219;   69.875;  -17.000;  -19.000
298.357;   49.550; -144.000;  -71.000
298.495;   18.500; -810.000; -812.000
298.634;   66.800;  245.000;  219.000
298.772;   58.050; -220.000; -338.000
298.910;  -39.950; -309.000; -182.000
299.048;  -12.850; -130.000; -153.000
299.187;  -34.675; -350.000; -250.000
299.325;    8.975;   52.000;  122.000
299.463;   44.775; -389.000; -299.000
299.601;   95.700; -327.000; -271.000
299.739;  -95.325; -908.000; -883.000
299.877;  -93.800; -791.000; -703.000
300.016;  -44.975;-1095.000; -935.000
300.154;  156.925;  -19.000; -161.000
300.292;   45.100; -428.000; -348.000
300.430;   35.250; -408.000; -291.000
300.568; -114.450; -940.000; -874.000
300.706;  -54.800; -366.000; -469.000
300.844;  -85.550;-1108.000; -979.000
300.982;  112.875;  246.000;  282.000
301.120; -111.050; -965.000; -866.000
301.258;  -55.150; -812.000; -705.000
301.396;   17.650;  104.000;  -41.000
301.534;   83.900; -218.000; -293.000
301.672;  -18.950; -664.000; -521.000
301.810;   30.150; -613.000; -545.000
301.948;  106.975;   53.000;  149.000
302.086;  632.950; -250.000;  -32.000
302.224;  944.700; -610.000; -585.000
302.362;   29.675; -558.000; -622.000
302.500;  -25.800; -923.000; -893.000
302.638;  110.975;  128.000;  245.000
302.776;   -5.325; -352.000; -408.000
302.913;   31.525;  447.000;  236.000
303.051;  -10.100;  -86.000;  -23.000
303.189;   56.050;   90.000;  118.000
303.327;  -33.175; -341.000; -256.000
303.465;  -83.425; -832.000; -588.000
303.603; -106.150; -805.000; -604.000
303.740;  117.150;  417.000;  241.000
303.878;   14.225; -800.000; -759.000
304.016;  -98.175; -915.000; -790.000
304.154; -120.325;-1123.000;-1152.000
304.291;  -29.450; -505.000; -554.000
304.429;    2.000;  102.000;   74.000
304.567; -120.250; -908.000; -893.000
304.705;  -63.125; -408.000; -515.000
304.842;   92.400; -616.000; -540.000
304.980;   42.050;  215.000;   35.000
305.118;   35.950; -367.000; -365.000
305.255;  -77.525; -945.000; -927.000
305.393;   47.700;  178.000;  239.000
305.531; -120.375;-1173.000; -956.000
305.668;  -79.175; -663.000; -582.000
305.806;  109.325; -358.000; -439.000
305.943;  107.275; -629.000; -637.000
306.081;   45.900; -378.000; -267.000
306.219;  -95.125; -863.000; -748.000
306.356;   -5.725;  158.000;   27.000
306.494;  106.825;  981.000;  761.000
306.631;   -8.575;  -11.000;  -55.000
306.769;    4.625; -613.000; -485.000
306.906;  -33.175; -284.000; -258.000
307.044;  -74.375; -473.000; -488.000
307.181;  -64.150; -410.000; -332.000
307.319;    9.375;  112.000;   87.000
307.456; -179.400;-1191.000;-1153.000
307.594; -106.175; -980.000; -727.000
307.731;  -23.350; -371.000; -164.000
307.868;   -3.400;  -15.000;   20.000
308.006; -139.375; -961.000; -847.000
308.143;  -65.475; -618.000; -330.000
308.281;  174.150;  -37.000; -254.000
308.418;   -4.650; -748.000; -640.000
308.555;  -84.200; -400.000; -250.000
308.693;  -71.300; -577.000; -573.000
308.830; -127.550; -712.000; -657.000
308.967;    0.200; -215.000;  -95.000
309.105;  -47.800; -507.000; -396.000
309.242;   34.850; -468.000; -367.000
309.379;  306.025; -577.000; -655.000
309.517;  -66.975; -936.000; -948.000
309.654; -110.475; -910.000; -734.000
309.791;  -70.850; -662.000; -580.000
309.928; -124.575; -977.000; -914.000
310.065;  169.800;  819.000;  697.000
310.203;  -10.350; -825.000; -850.000
310.340;   -9.500; -465.000; -321.000
310.477;  -89.350; -412.000; -516.000
310.614;  -90.075; -383.000; -473.000
310.751;  -96.100; -427.000; -518.000
310.889;  -11.450;    1.000;   11.000
311.026; -166.575;-1161.000; -939.000
311.163;  -51.675; -386.000; -380.000
311.300;  -75.825; -512.000; -479.000
311.437;  -81.025; -658.000; -619.000
311.574; -163.600;-1226.000; -985.000
311.711;  -60.400; -595.000; -433.000
311.848;  -45.625; -380.000; -388.000
311.985;    4.150;  270.000;   93.000
312.122; -123.925; -932.000; -762.000
312.259; -122.800; -941.000; -994.000
312.396;  -76.050; -508.000; -551.000
312.533;  -99.125; -812.000; -790.000
312.670; -140.800;-1070.000; -898.000
312.807;  -28.975; -352.000; -367.000
312.944;  -78.225; -513.000; -611.000
313.081;  -41.225; -150.000; -415.000
313.218; -105.425;-1111.000; -867.000
313.355;    8.225; -531.000; -449.000
313.492;  -16.575; -455.000; -292.000
313.629;  126.525;  815.000;  735.000
313.766; -165.375;-1176.000;-1008.000
313.902;  -14.900; -186.000;   21.000
314.039;  -59.075; -372.000; -289.000
314.176;   23.575;  286.000;  192.000
314.313;  -77.900; -569.000; -473.000
314.450;  -69.400; -788.000; -684.000
314.587;  -69.050; -468.000; -480.000
314.723;   -8.525;  -78.000;  130.000
314.860;   20.825;  318.000;  332.000
314.997;   16.000;  223.000;  142.000
315.134;  -55.200; -385.000; -368.000
315.270;  -39.475; -480.000; -496.000
315.407; -125.125;-1094.000; -967.000
315.544;  -55.050; -657.000; -538.000
315.681;  -73.575; -681.000; -565.000
315.817;   35.275; -133.000; -176.000
315.954;    6.375; -613.000; -392.000
316.091; -111.125;-1045.000;-1023.000
316.227;  -34.425;  -71.000; -179.000
316.364;    5.900;   23.000;    6.000
316.500;  -40.225; -113.000; -300.000
316.637;  -44.350; -181.000; -302.000
316.774;  -97.775; -625.000; -358.000
316.910;  -96.825; -598.000; -629.000
317.047;  -81.925; -487.000; -351.000
317.183;  -51.150; -435.000; -566.000
317.320;   -6.425; -367.000; -321.000
317.456;  -65.575; -733.000; -805.000
317.593;  -96.250; -598.000; -641.000
317.729;    1.925;  168.000;  -67.000
317.866; -204.950;-1434.000;-1285.000
318.002;  -87.500; -708.000; -948.000
318.139; -110.450; -883.000; -867.000
318.275; -114.950;-1003.000; -738.000
318.412;  -72.700; -517.000; -336.000
318.548;  -35.500; -751.000; -720.000
318.685; -107.175; -985.000; -888.000
318.821;  -98.300; -762.000; -735.000
318.957;  -18.500;   34.000;  -23.000
319.094;   36.000;  297.000;  154.000
319.230;  -72.525; -756.000; -742.000
319.367;  133.725; -471.000; -520.000
319.503;   54.675; -538.000; -436.000
319.639;  -99.575; -877.000; -793.000
319.775;  -52.500; -750.000; -685.000
319.912;  -51.900; -424.000; -519.000
320.048;  -88.950;-1184.000;-1184.000
320.184;   73.525;   59.000;   70.000
320.321;  -57.275; -497.000; -467.000
320.457;   66.150;  475.000;  662.000
320.593;  -55.975; -375.000; -382.000
320.729; -106.050; -732.000; -734.000
320.866;  -81.700; -577.000; -635.000
321.002;  -82.000; -759.000; -809.000
321.138;    1.900; -135.000; -211.000
321.274;   73.500; -148.000; -115.000
321.410;  -22.675; -585.000; -353.000
321.546;  -36.900;-1011.000; -911.000
321.683;   54.900;  400.000;  185.000
321.819;    3.200;  -48.000; -117.000
321.955; -117.375; -743.000; -722.000
322.091;  -36.075; -585.000; -540.000
322.227;   -4.050; -382.000; -202.000
322.363;  -22.625; -320.000; -215.000
322.499;  -53.550; -343.000; -331.000
322.635;  154.150;  636.000;  443.000
322.771;    8.350; -139.000;   12.000
322.907;   89.425;  129.000;  327.000
323.043;  -19.000; -115.000; -206.000
323.179;  -33.475; -394.000; -363.000
323.315;    7.800; -401.000; -371.000
323.451;   79.450; -328.000; -236.000
323.587;   62.525;  -60.000;  -77.000
323.723;   23.875; -682.000; -601.000
323.859;  -16.525; -258.000;  -76.000
323.995;  -33.025; -467.000; -409.000
324.131; -129.825; -967.000; -892.000
324.267;  -38.750; -254.000; -276.000
324.402; -138.250; -960.000; -983.000
324.538;  -11.350; -279.000; -104.000
324.674;   10.125;  164.000;   77.000
324.810;  113.375;  226.000;  308.000
324.946;  -17.350; -810.000; -658.000
325.082;  -63.775; -568.000; -475.000
325.217;   -8.225;  -62.000;   16.000
325.353; -103.250; -764.000; -659.000
325.489;  -86.200; -540.000; -506.000
325.625;  -72.600; -579.000; -525.000
325.760;   53.900;  517.000;  376.000
325.896;  -13.825; -515.000; -702.000
326.032;  -69.475; -403.000; -352.000
326.168;  -57.575; -462.000; -369.000
326.303;  -66.100; -352.000; -461.000
326.439;  -17.500; -336.000; -276.000
326.575;    9.825; -190.000;  -29.000
326.710;   -8.875; -156.000;  -30.000
326.846;  -16.100;  146.000;  103.000
326.982;  -93.300; -530.000; -548.000
327.117;  -83.075; -481.000; -442.000
327.253;  -77.475; -745.000; -742.000
327.388; -169.450;-1137.000;-1153.000
327.524;  -48.525; -811.000; -578.000
327.659;  -19.800;  -58.000;  -22.000
327.795;  -21.475;   69.000;   45.000
327.931; -102.175; -723.000; -499.000
328.066;  -21.750; -417.000; -276.000
328.202;  -17.525;   12.000; -129.000
328.337;   97.300;  957.000;  713.000
328.473;   18.050;  -12.000;  -74.000
328.608;  -26.525; -256.000; -267.000
328.743;  -90.825; -799.000; -664.000
328.879;    2.875;  214.000;  114.000
329.014;  -41.550; -102.000; -122.000
329.150;  -71.425; -358.000; -483.000
329.285;  -80.300; -465.000; -466.000
329.421;  -47.875; -548.000; -246.000
329.556;  -29.075;  -36.000;   85.000
329.691; -106.175; -633.000; -615.000
329.827;  -85.625; -626.000; -480.000
329.962;  -44.875;  131.000; -301.000
330.097;  -98.425; -673.000; -585.000
330.233;  -57.775; -410.000; -223.000
330.368; -139.375; -839.000; -628.000
330.503;  -15.350;    3.000;   98.000
330.638;    4.450;  -93.000; -125.000
330.774;  -56.125; -609.000; -530.000
330.909;  -42.975; -434.000; -244.000
331.044;  -91.050; -714.000; -708.000
331.179; -165.725;-1217.000;-1109.000
331.315;   -0.975;   77.000;   20.000
331.450;    2.775;  157.000;  285.000
331.585;  -90.500; -805.000; -706.000
331.720;  -89.650; -510.000; -460.000
331.855;    3.225;  -35.000; -102.000
331.990;  248.550;   62.000;  138.000
332.126;  144.700; -110.000;   71.000
332.261;  -28.050; -379.000; -265.000
332.396;  -12.325; -135.000; -242.000
332.531;  -96.675;-1074.000;-1031.000
332.666;   25.425; -519.000; -363.000
332.801; -113.575; -726.000; -807.000
332.936;  -36.150; -192.000; -122.000
333.071; -156.875; -870.000; -817.000
333.206;    7.250;  307.000;  379.000
333.341;   25.075;  344.000;  418.000
333.476;  -97.625; -627.000; -623.000
333.611;  -47.800; -251.000; -173.000
333.746;  -48.350; -381.000; -464.000
333.881; -120.050; -973.000; -935.000
334.016; -134.350; -936.000; -917.000
334.151; -127.375; -746.000; -702.000
334.286;   13.150;  152.000;  186.000
334.421;  -23.700; -125.000; -178.000
334.556;  -81.975; -611.000; -567.000
334.690; -103.850; -631.000; -577.000
334.825;   52.750;  381.000;   83.000
334.960;  -68.325; -285.000; -413.000
335.095;   -5.750;  135.000;  -91.000
335.230; -110.000; -722.000; -738.000
335.365; -131.825;-1084.000; -990.000
335.499; -126.350;-1108.000;-1037.000
335.634;    5.725;    9.000;  534.000
335.769; -107.525; -755.000; -720.000
335.904;  -55.525; -603.000; -561.000
336.038;  -61.525; -735.000; -657.000
336.173; -123.525;-1206.000;-1194.000
336.308;   -5.250; -116.000; -189.000
336.443;   20.550; -544.000; -634.000
336.577;  -77.725; -936.000; -787.000
336.712;   59.225;   -4.000;  -12.000
336.847;  -45.650; -724.000; -607.000
336.981;   54.300; -272.000; -208.000
337.116;  270.350;  615.000;  501.000
337.250;  141.350; -434.000; -421.000
337.385;  247.525; -297.000; -208.000
337.520;   96.400; -632.000; -603.000
337.654;  -50.975; -215.000; -126.000
337.789; -133.500; -989.000; -933.000
337.923;  -38.875; -104.000; -205.000
338.058;  -87.250; -673.000; -738.000
338.192;  -37.275; -611.000; -488.000
338.327;  -17.600;  -18.000; -155.000
338.461;  -80.175; -299.000; -469.000
338.596;  -83.275; -780.000; -638.000
338.730; -105.375; -767.000; -803.000
338.865;  108.325;  -46.000; -140.000
338.999;  -46.675; -846.000; -702.000
339.134;  -24.350; -634.000; -536.000
339.268;    6.950; -741.000; -603.000
339.403;  383.075; -740.000; -775.000
339.537;  123.175; -894.000; -820.000
339.671; -113.975; -829.000; -813.000
339.806;  -76.575; -556.000; -512.000
339.940;    8.475; -261.000; -235.000
340.074;  -98.850; -685.000; -510.000
340.209;  -53.350; -351.000; -230.000
340.343;  -98.350; -517.000; -573.000
340.477;  156.650;  998.000; 1036.000
340.612;  -55.600;-1033.000; -900.000
340.746;  146.825; -199.000; -243.000
340.880;  -67.450; -924.000; -785.000
341.014;  -22.425;  -45.000; -154.000
341.149; -124.450; -756.000; -718.000
341.283; -103.275; -839.000; -754.000
341.417; -102.150;-1124.000; -938.000
341.551;  112.500; -768.000; -708.000
341.685;  -33.500; -633.000; -611.000
341.820;  -45.700; -562.000; -493.000
341.954;  -47.075; -218.000; -349.000
342.088; -148.975;-1102.000;-1019.000
342.222;   50.750;  565.000;  618.000
342.356;  -66.150; -395.000; -335.000
342.490; -110.700; -880.000; -841.000
342.624;  -55.625; -339.000; -242.000
342.758;  -15.475; -364.000; -312.000
342.892;  -64.150; -710.000; -585.000
343.026;  -26.150;  -58.000; -116.000
343.160;  -65.825; -426.000; -376.000
343.294;  -91.000; -474.000; -337.000
343.428;  -23.800; -488.000; -448.000
343.562;  -15.125; -172.000;  -23.000
343.696;  -28.275; -385.000; -314.000
343.830;  -23.975; -362.000; -356.000
343.964;    7.575; -231.000; -168.000
344.098;  891.900;  199.000;   70.000
344.232;  738.025; -266.000; -127.000
344.366;   94.900; -567.000; -453.000
344.500;   51.500; -665.000; -744.000
344.634;   24.800; -324.000; -164.000
344.768;  -16.000; -531.000; -341.000
344.902;   19.200;  278.000;  256.000
345.035;  -61.875; -556.000; -496.000
345.169; -117.025; -933.000; -656.000
345.303;  -40.125; -308.000; -482.000
345.437;  -81.900; -826.000; -717.000
345.571;  -63.925; -675.000; -594.000
345.704;  -68.050; -309.000; -532.000
345.838;   -0.600; -331.000; -284.000
345.972;  -40.200; -543.000; -495.000
346.106;  163.400; -179.000; -190.000
346.239;  416.525; -312.000; -243.000
346.373;   -5.300; -343.000; -302.000
346.507; -144.225; -950.000; -962.000
346.640;  137.575;  -30.000;   13.000
346.774;  -51.450; -650.000; -797.000
346.908;  -34.000; -138.000;  -11.000
347.041;  -97.900; -646.000; -593.000
347.175;    9.150;  259.000;   27.000
347.309;  -69.900; -698.000; -628.000
347.442; -106.400; -883.000; -732.000
347.576;  280.500;  670.000;  668.000
347.709;  190.800; -123.000;  -52.000
347.843; -103.525; -933.000; -825.000
347.976;   36.975;  235.000;  294.000
348.110; -188.050;-1268.000;-1186.000
348.243; -101.225; -679.000; -772.000
348.377;   -4.300;  -26.000;   60.000
348.510;   46.400;  403.000;  540.000
348.644;  -39.600;  -37.000; -159.000
348.777;  -12.000;  180.000;  191.000
348.911;  -56.450; -142.000; -112.000
349.044;  166.950;  471.000;  448.000
349.178;  153.050;-1069.000;-1006.000
349.311;  114.800;  141.000;  255.000
349.444;   -1.850; -927.000; -813.000
349.578;  -10.050; -347.000; -200.000
349.711; -114.275; -959.000; -862.000
349.845;  -11.775; -661.000; -591.000
349.978; -145.750;-1224.000;-1137.000
350.111;  -89.000; -546.000; -612.000
350.244;  -95.975; -596.000; -700.000
350.378;    7.400; -392.000; -393.000
350.511;  -74.725; -393.000; -426.000
350.644; -100.700; -808.000; -806.000
350.778;   -4.500;  168.000;  104.000
350.911;    2.775;  134.000;  140.000
351.044; -102.925; -685.000; -615.000
351.177;  -24.200; -321.000; -281.000
351.310;  -16.950;    3.000; -131.000
351.444;  -69.850; -888.000; -788.000
351.577;  102.650;  140.000;   90.000
351.710;   96.050;  593.000;  417.000
351.843;  -30.075; -165.000;  -77.000
351.976;    4.850;  149.000;  -79.000
352.109; -104.725; -621.000; -612.000
352.242;  -35.800; -464.000; -419.000
352.376;  -68.875; -580.000; -636.000
352.509;  158.950; -437.000; -356.000
352.642;   -2.050; -654.000; -604.000
352.775;   64.875; -141.000;  -98.000
352.908; -115.575; -933.000; -904.000
353.041;  -92.375; -814.000; -824.000
353.174;  -65.025; -551.000; -424.000
353.307;  -81.100; -753.000; -764.000
353.440;   62.500;  541.000;  453.000
353.573; -113.375; -957.000;-1008.000
353.706;  -57.075; -384.000; -558.000
353.839;  -14.800; -264.000; -220.000
353.971;  -94.250; -657.000; -512.000
354.104;  -63.650; -896.000; -835.000
354.237;  -35.900; -627.000; -662.000
354.370;  -94.575; -846.000; -879.000
354.503; -190.175;-1231.000;-1308.000
354.636;  -35.400; -529.000; -348.000
354.769; -128.800; -937.000; -860.000
354.902;  -15.600; -230.000; -139.000
355.034;  -21.400; -164.000; -220.000
355.167;  -18.325; -262.000; -162.000
355.300; -100.350;-1061.000; -880.000
355.433;  995.675;  -71.000;  -14.000
355.565; 1543.625; -402.000; -384.000
355.698;  403.850; -356.000; -296.000
355.831;  -11.050; -882.000; -801.000
355.964;   81.975; -285.000; -170.000
356.096; -100.925; -856.000; -843.000
356.229;   -5.175; -523.000; -530.000
356.362;  343.150; -373.000; -266.000
356.494;  630.950; -229.000; -162.000
356.627;  450.350;  269.000;  377.000
356.760;  645.700;  120.000;   53.000
356.892;  990.250; -286.000; -601.000
357.025;  654.175;  403.000;  389.000
357.157;  585.325; -167.000; -179.000
357.290;  703.775; -856.000; -713.000
357.423;  212.100; -667.000; -556.000
357.555;  113.050; -217.000; -228.000
357.688;  115.200; -483.000; -364.000
357.820;  467.625; -870.000; -877.000
357.953; 3791.825; -563.000; -589.000
358.085;  828.625; -632.000; -612.000
358.218; 1063.875;-1131.000; -932.000
358.350;  196.425;  -58.000;  312.000
358.483; -134.975;-1300.000;-1187.000
358.615;  -17.900;-1182.000;-1078.000
358.747;  -69.900;-1187.000;-1058.000
358.880;   15.900; -810.000; -744.000
359.012;  -10.900; -376.000; -202.000
359.145;  -34.575; -480.000; -511.000
359.277;   56.900; -962.000; -913.000
359.409; 3097.125;  536.000;  231.000
359.542;  839.600; -738.000; -688.000
359.674;   76.750;   46.000;   13.000
359.806;  -58.475; -565.000; -438.000
359.939;  -31.725; -617.000; -516.000
360.071;   -8.550; -583.000; -579.000
360.203;  -21.525; -411.000; -364.000
360.335;   44.600;  164.000;  -16.000
360.468;  213.625; -249.000; -307.000
360.600; 2477.500; -547.000; -454.000
360.732; 2980.525; -546.000; -423.000
360.864;  422.850;-1216.000;-1044.000
360.996;  275.625; -516.000; -554.000
361.129;   24.675; -389.000; -598.000
361.261;   24.300;  110.000; -113.000
361.393;  -29.875; -252.000; -214.000
361.525;   15.725;   94.000;  244.000
361.657;  -38.500; -821.000; -703.000
361.789;   12.175; -139.000; -155.000
361.921;  208.875; -642.000; -593.000
362.053;  254.725;  524.000;  541.000
362.185;   44.675;  288.000;   72.000
362.318;  -80.975; -709.000; -705.000
362.450;  105.500;  294.000;  444.000
362.582;   73.000; -913.000; -870.000
362.714;  -48.175; -353.000; -332.000
362.846;  -86.925; -606.000; -490.000
362.978; -153.975; -941.000; -811.000
363.109;   46.150; -161.000; -260.000
363.241;  413.500; -739.000; -749.000
363.373;  452.275; -649.000; -564.000
363.505;  675.450; -186.000;  -91.000
363.637;  164.725; -787.000; -601.000
363.769; -131.100;-1067.000;-1080.000
363.901;  -62.975; -596.000; -654.000
364.033; -100.975;-1103.000;-1062.000
364.165;  -14.700; -283.000; -283.000
364.296;   70.025; -316.000; -177.000
364.428;   82.100;-1344.000;-1220.000
364.560;  -65.825; -679.000; -661.000
364.692;  -63.450; -738.000; -835.000
364.824;  249.975; -588.000; -456.000
364.955;  451.275; -402.000; -564.000
365.087;  965.775;-1097.000; -852.000
365.219;   46.750; -686.000; -816.000
365.351;  -61.300; -526.000; -572.000
365.482;   40.625;  300.000;  240.000
365.614;  -69.525; -402.000; -314.000
365.746;  -94.725; -729.000; -752.000
365.877; -103.500; -706.000; -672.000
366.009;  251.675;  -35.000;  -62.000
366.141;  -94.250;-1249.000;-1134.000
366.272; -119.400; -803.000; -719.000
366.404; -119.625;-1005.000; -874.000
366.535;  -10.825; -139.000;  -12.000
366.667; -106.700; -644.000; -649.000
366.799;   31.975;  353.000;  203.000
366.930; -125.275; -862.000; -996.000
367.062;  124.450; -639.000; -613.000
367.193;  169.875; -872.000; -842.000
367.325;  -66.925; -580.000; -684.000
367.456;   25.250; -246.000;   31.000
367.588;  171.925; -371.000; -318.000
367.719;   20.600;  -44.000;  -45.000
367.851;  -19.800; -222.000; -241.000
367.982;  -48.500; -875.000; -732.000
368.113;   97.175; -475.000; -358.000
368.245; -125.850; -960.000; -841.000
368.376;  -20.750; -254.000; -302.000
368.508;  -36.500; -188.000; -263.000
368.639; -132.925;-1166.000;-1034.000
368.770;  -22.000; -670.000; -589.000
368.902;  -48.400; -836.000; -926.000
369.033; -125.250; -906.000; -855.000
369.164;  -43.950; -720.000; -653.000
369.296; -115.625; -452.000; -601.000
369.427;   -7.325; -209.000; -144.000
369.558;  -50.725; -593.000; -377.000
369.689;  -87.350; -721.000; -569.000
369.821; -136.925; -951.000; -845.000
369.952;  -16.300;   42.000; -108.000
370.083;  -42.725; -229.000; -108.000
370.214;  -80.150; -735.000; -650.000
370.345;  -20.975;   65.000;   81.000
370.477;  -78.750; -810.000; -790.000
370.608;  216.750; -328.000; -264.000
370.739;  -63.300;-1233.000;-1292.000
370.870;  -52.200;-1102.000; -923.000
371.001;   86.025; -378.000; -467.000
371.132;  -94.175; -754.000; -735.000
371.263;  -20.050;  -42.000; -148.000
371.394; -145.800; -841.000; -748.000
371.525;   13.925;  345.000;  225.000
371.657;  -76.325; -808.000; -670.000
371.788;   70.150;  103.000;  199.000
371.919;  150.900; -384.000; -304.000
372.050; 3595.750;  -91.000; -156.000
372.181; 1092.100; -188.000; -294.000
372.311;  345.575;   42.000; -127.000
372.442;   43.200; -457.000; -451.000
372.573;  -43.675; -444.000; -340.000
372.704; -127.875;-1008.000; -980.000
372.835;   91.875; -228.000; -289.000
372.966;  -66.450; -646.000; -554.000
373.097;  -76.825; -575.000; -711.000
373.228;  -47.950; -717.000; -542.000
373.359;  119.225; -824.000; -536.000
373.490;  890.525; -881.000; -727.000
373.620; 1148.975;-1001.000; -803.000
373.751; 1702.875; -332.000; -396.000
373.882;  787.175; -663.000; -733.000
374.013;   55.150; -449.000; -262.000
374.143;  -50.050; -581.000; -659.000
374.274; -112.850; -987.000; -908.000
374.405;  154.700; -388.000; -276.000
374.536;  436.650; -526.000; -387.000
374.666; 1073.250; -759.000; -807.000
374.797;  196.100; -817.000; -868.000
374.928;  831.975; -710.000; -560.000
375.058;  847.525; -535.000; -500.000
375.189;   94.575;  -59.000;  -93.000
375.320; -106.225; -928.000;-1034.000
375.450;  -33.575; -625.000; -616.000
375.581;  -62.475; -526.000; -436.000
375.712;  -30.625; -574.000; -250.000
375.842;  304.450; -438.000; -415.000
375.973;  210.600; -554.000; -513.000
376.103;  -55.500; -665.000; -648.000
376.234;  -72.175; -531.000; -552.000
376.364;  -46.875; -944.000; -867.000
376.495;  330.625;  925.000;  529.000
376.625;  -19.925; -472.000; -485.000
376.756;   42.650; -709.000; -678.000
376.886;  -66.450;-1178.000;-1026.000
377.017;   48.125;-1048.000;-1061.000
377.147;  364.250; -786.000; -782.000
377.278;   57.650;  174.000;  228.000
377.408; -128.675; -801.000; -815.000
377.538; -102.100; -707.000; -693.000
377.669;  -87.125; -537.000; -613.000
377.799;  -85.125; -645.000; -635.000
377.929;  -73.600; -610.000; -428.000
378.060; -142.725; -781.000; -847.000
378.190;  -67.075; -726.000; -531.000
378.320;  -49.150; -401.000; -406.000
378.451;  -34.875; -131.000;  -22.000
378.581;   -8.550;  -67.000; -110.000
378.711;  124.600; 1035.000;  866.000
378.841;  -16.225; -533.000; -675.000
378.972;  -90.800; -871.000; -751.000
379.102;  -13.375; -652.000; -579.000
379.232;  -32.200; -126.000;  -73.000
379.362; -107.075;-1001.000; -885.000
379.492;   -4.675; -373.000; -424.000
379.623;   99.075;    0.000;  111.000
379.753; -103.000;-1107.000; -974.000
379.883;  195.500;   59.000;  156.000
380.013;  -12.625;-1081.000;-1017.000
380.143; -104.550;-1097.000;-1056.000
380.273; -114.075; -985.000; -861.000
380.403;   -0.650; -344.000; -257.000
380.533;  -36.800; -651.000; -664.000
380.663;   52.450;  173.000;  128.000
380.793; -105.725;-1027.000;-1074.000
380.923;  -20.550; -103.000;  -34.000
381.053; -110.825; -613.000; -623.000
381.183;  -28.000; -106.000; -248.000
381.313;   28.225; -656.000; -470.000
381.443;   37.175; -692.000; -473.000
381.573;  184.025; -402.000; -409.000
381.703;  272.400;-1249.000;-1095.000
381.833; -124.675;-1454.000;-1336.000
381.963;   98.425; -134.000;  -87.000
382.093; 1390.450; -925.000; -909.000
382.223;  454.025; -713.000; -602.000
382.353;  -31.225; -801.000; -608.000
382.482;  345.225;-1091.000; -964.000
382.612;  736.450; -872.000; -644.000
382.742;  445.225; -695.000; -622.000
382.872;  260.375; -565.000; -551.000
383.002;   65.600;  347.000; -132.000
383.131;  -31.100; -226.000; -160.000
383.261;  -42.675; -706.000; -768.000
383.391;  272.525; -552.000; -377.000
383.521; 3357.425;  451.000;  263.000
383.650;  833.150; -947.000; -904.000
383.780;  -14.900; -783.000; -656.000
383.910;  100.600;  880.000;  802.000
384.039;   18.225; -794.000; -656.000
384.169;  185.250;-1205.000;-1017.000
384.299;   -9.650; -650.000; -662.000
384.428; -109.950; -764.000; -680.000
384.558;  -42.875; -308.000; -275.000
384.687;  -57.075; -414.000; -334.000
384.817;   -5.200;   75.000;   -2.000
384.947;   -0.075; -234.000; -141.000
385.076;  266.800;  982.000;  912.000
385.206;   78.075;  369.000;  480.000
385.335;  -37.925; -549.000; -417.000
385.465;  -91.450; -655.000; -663.000
385.594;  134.800;  -53.000;  -44.000
385.724;  404.875; -868.000; -838.000
385.853;  113.300; -296.000; -270.000
385.982; 1273.650; -743.000; -787.000
386.112; 2159.200;-1052.000; -871.000
386.241;  134.850; -307.000; -312.000
386.371;   13.175; -174.000;  -87.000
386.500;   -7.550; -825.000; -789.000
386.629;   13.025; -874.000; -817.000
386.759;   53.100;  -43.000;   68.000
386.888;   -5.975; -170.000; -250.000
387.017;  -88.275; -648.000; -620.000
387.147;  -99.750; -771.000; -798.000
387.276;  -18.500; -410.000; -397.000
387.405;   -0.975; -398.000; -342.000
387.535;  -64.950; -452.000; -361.000
387.664;  -65.600; -692.000; -620.000
387.793;   43.325; -198.000; -113.000
387.922;  480.575;  255.000;  200.000
388.052;    0.350; -576.000; -423.000
388.181;  -19.300; -342.000; -472.000
388.310;  -36.625; -889.000; -710.000
388.439;  -57.475; -749.000; -742.000
388.568;  163.675;  365.000;  244.000
388.697; 1009.050; -756.000; -653.000
388.826;  210.825; -768.000; -666.000
388.956;   57.375; -285.000; -307.000
389.085;  -58.225; -347.000; -287.000
389.214; -104.225; -842.000; -872.000
389.343;  -82.775; -645.000; -413.000
389.472;  402.175;  126.000;  149.000
389.601;  520.000;   91.000;    0.000
389.730;   14.725; -568.000; -687.000
389.859;   48.075;  226.000;   46.000
389.988;  158.900; -423.000; -408.000
390.117;  149.400; -168.000; -146.000
390.246;  -12.600; -331.000; -320.000
390.375;   96.325; -673.000; -626.000
390.504;  -61.250; -703.000; -621.000
390.633; -102.225; -672.000; -726.000
390.761;  -68.325; -732.000; -645.000
390.890;    5.025;   -4.000; -130.000
391.019;  -32.175; -421.000; -441.000
391.148; -141.775; -826.000; -855.000
391.277;  -63.875; -576.000; -493.000
391.406;  -96.600; -821.000; -805.000
391.534;    3.875;  574.000; -301.000
391.663;  -69.975; -583.000; -645.000
391.792;  -86.000; -673.000; -701.000
391.921;   65.100;   -3.000;   15.000
392.050;  166.850; -287.000; -228.000
392.178;  -46.175;-1206.000;-1061.000
392.307;  135.650; -758.000; -712.000
392.436;   65.400; -427.000; -641.000
392.564;   15.300;  166.000;   -6.000
392.693;  -93.825; -860.000; -682.000
392.822;  185.400; -529.000; -534.000
392.950;   89.300; -880.000; -714.000
393.079;  301.975; -188.000; -328.000
393.208;   19.450; -488.000; -511.000
393.336;  -26.350; -170.000; -145.000
393.465;  -60.050; -317.000; -199.000
393.593;   -2.750;   62.000;   79.000
393.722; -150.000;-1121.000; -916.000
393.850;  -43.500; -188.000;  -61.000
393.979; -160.175; -926.000; -805.000
394.107;  -70.000; -517.000; -537.000
394.236;  -38.400; -570.000; -507.000
394.364;  196.200;  383.000;  206.000
394.493;  353.025; -911.000; -767.000
394.621;    0.650; -955.000; -916.000
394.750;  710.200; -873.000; -923.000
394.878; 2996.475; -247.000; -149.000
395.007; 4203.850; -721.000; -807.000
395.135;  320.250; -790.000; -721.000
395.263;  -97.075;-1038.000;-1040.000
395.392;    3.275;  -25.000; -107.000
395.520; -139.450; -818.000; -679.000
395.648;  -82.900; -865.000; -915.000
395.777;  -12.975; -366.000; -405.000
395.905;  -56.750; -449.000; -564.000
396.033;  -10.775;  217.000;  172.000
396.162;  557.200; -399.000; -453.000
396.290;  525.100;  -17.000;   -2.000
396.418;   97.450; -555.000; -514.000
396.546;  -86.975; -571.000; -466.000
396.674;  -96.600; -850.000; -878.000
396.803;   -0.500;  -72.000;  -23.000
396.931;   83.250; -179.000; -199.000
397.059;   35.775;-1026.000; -989.000
397.187; -128.925;-1026.000; -975.000
397.315; -144.600; -884.000; -649.000
397.443;  -85.450; -592.000; -443.000
397.572; -100.475; -578.000; -424.000
397.700;  -27.700; -607.000; -614.000
397.828;    0.125;  120.000;  -90.000
397.956;  -62.900; -508.000; -478.000
398.084;  -71.725; -767.000; -626.000
398.212;   44.775;  137.000;  124.000
398.340;    2.525;  -56.000;  159.000
398.468;   31.275; -390.000; -169.000
398.596; -150.825; -993.000; -953.000
398.724; -124.950; -762.000; -767.000
398.852; -168.550;-1024.000; -976.000
398.980;  -74.875; -560.000; -560.000
399.108;  -62.825; -982.000; -735.000
399.236;   30.575;   13.000;    8.000
399.363;    3.200;  222.000;  196.000
399.491;  -62.400; -404.000; -398.000
399.619; -128.875; -829.000; -800.000
399.747;  -93.575; -859.000; -771.000
399.875;   52.100;  220.000;  234.000
400.003;  -52.825; -359.000; -284.000
400.130;  -96.075; -421.000; -341.000
400.258;  -38.125;  -83.000;   38.000
400.386;  -72.375; -352.000; -168.000
400.514;  -38.850; -526.000; -587.000
400.641;  -98.300; -928.000; -802.000
400.769; -139.275; -979.000; -888.000
400.897; -131.000; -838.000; -793.000
401.025;  -33.300; -166.000; -152.000
401.152;  -11.200;  220.000;   38.000
401.280;  -77.900; -430.000; -429.000
401.408; -123.175; -712.000; -576.000
401.535;  -99.525; -735.000; -758.000
401.663; -199.400;-1134.000;-1054.000
401.790;  -95.400; -514.000; -525.000
401.918;   25.000;  436.000;  405.000
402.046;  -30.175;  134.000;  122.000
402.173;  -43.300;  -18.000;    7.000
402.301;  -72.275; -519.000; -397.000
402.428;   17.575;  528.000;  383.000
402.556; -150.075;-1188.000; -913.000
402.683;  -41.875;  -20.000;   -1.000
402.811;  -18.950;  -37.000; -206.000
402.938;  -21.925;   20.000;   27.000
403.066;  172.225; -574.000; -558.000
403.193;  313.575;  299.000;  239.000
403.321;  256.525; -396.000; -574.000
403.448;  301.900;   83.000;   27.000
403.575;  141.550;  -90.000;  -46.000
403.703;  -98.325; -732.000; -557.000
403.830;  -69.800; -531.000; -496.000
403.957; -145.300;-1117.000;-1023.000
404.085;    0.200;  -61.000; -172.000
404.212;   99.800;  -50.000;   63.000
404.339;  257.175; -566.000; -306.000
404.467; 5921.225; -612.000; -524.000
404.594; 3981.875; -287.000; -227.000
404.721;  936.200; -869.000; -764.000
404.848;   88.125; -113.000; -202.000
404.976; -113.975; -856.000; -783.000
405.103;  -25.375;  -14.000;  -82.000
405.230;   -4.325;  190.000;  226.000
405.357;   25.175;  117.000;   44.000
405.484;  267.125;  -49.000;    5.000
405.612;   38.625; -548.000; -563.000
405.739;  -62.575; -488.000; -243.000
405.866;   76.300;  669.000;  385.000
405.993;  -53.850; -398.000; -102.000
406.120; -136.950; -801.000; -887.000
406.247;  -61.950; -323.000; -342.000
406.374;  405.175;  540.000;  629.000
406.501;   92.625; -632.000; -702.000
406.628;  -75.150; -621.000; -589.000
406.755; -103.325; -803.000; -620.000
406.882;  -42.675; -228.000; -277.000
407.009; -124.225; -719.000; -628.000
407.136;   42.025; -480.000; -401.000
407.263;  114.750; -939.000; -829.000
407.390;  -92.175; -692.000; -614.000
407.517; -175.300;-1139.000;-1187.000
407.644;  -73.900; -332.000; -256.000
407.771;  -75.225; -249.000; -287.000
407.898;   -0.475;  168.000;  328.000
408.025;  -68.425; -421.000; -313.000
408.151;  -26.300;   82.000;  153.000
408.278;  -77.675; -267.000; -216.000
408.405; -117.200; -931.000; -899.000
408.532;  -83.175; -549.000; -542.000
408.659; -116.625; -677.000; -648.000
408.785; -202.850;-1298.000;-1170.000
408.912;  -63.225; -412.000; -296.000
409.039; -126.625; -610.000; -686.000
409.166; -121.125; -591.000; -555.000
409.292; -121.650; -571.000; -534.000
409.419; -122.100; -665.000; -649.000
409.546;  -96.225; -431.000; -192.000
409.672; -106.800; -713.000; -545.000
409.799;  -29.200;  -36.000;   34.000
409.926;  -41.500; -180.000; -179.000
410.052; -187.800;-1127.000;-1091.000
410.179;  -47.800; -368.000; -392.000
410.305;  -76.500; -375.000; -493.000
410.432;  -43.500; -220.000; -333.000
410.558;  -92.425; -305.000; -380.000
410.685; -113.425; -688.000; -431.000
410.812; -104.050; -409.000; -588.000
410.938; -141.225; -964.000; -808.000
411.065;  -92.225; -671.000; -645.000
411.191;  -20.875; -189.000; -174.000
411.317; -130.550; -823.000; -742.000
411.444;  -57.500; -317.000; -246.000
411.570;  -79.275; -339.000; -294.000
411.697; -124.850; -758.000; -752.000
411.823; -174.975; -989.000; -999.000
411.949;  -46.325;  -56.000;   17.000
412.076; -126.250; -539.000; -519.000
412.202; -119.325; -758.000; -757.000
412.329; -134.525; -798.000; -752.000
412.455; -120.500; -821.000; -657.000
412.581;  -22.675;  -15.000;  172.000
412.707;  -85.375; -540.000; -457.000
412.834;    9.125;  156.000;  219.000
412.960;  -72.550; -785.000; -784.000
413.086; -110.325; -743.000; -701.000
413.212;  134.400;  604.000;  578.000
413.339;  -70.600; -685.000; -701.000
413.465;   -0.875; -364.000; -310.000
413.591;  -92.025; -757.000; -474.000
413.717;  -60.750; -358.000; -366.000
413.843; -149.175; -839.000; -861.000
413.969;  -68.025;  -47.000; -292.000
414.096; -104.150; -679.000; -679.000
414.222;  -12.275;  -33.000;   85.000
414.348;  -31.375; -652.000; -385.000
414.474;   80.300;   38.000;  -52.000
414.600;  -15.650; -126.000; -144.000
414.726;  -14.100;  -96.000;  -55.000
414.852;  -66.975; -365.000; -342.000
414.978;   41.200;  104.000;  -18.000
415.104;   27.775;   38.000;   80.000
415.230;   15.200; -329.000; -330.000
415.356;   34.275; -409.000; -514.000
415.482;  195.850;   13.000;  -35.000
415.608;  264.350; -247.000; -323.000
415.734;  950.375;   67.000;   38.000
415.860;20049.925; -875.000; -767.000
415.986;15459.125; -685.000; -607.000
416.111; 1362.175; -798.000; -652.000
416.237;  275.550; -424.000; -571.000
416.363; 1097.750; -765.000; -733.000
416.489; 4420.800; -324.000; -251.000
416.615;  506.275; -707.000; -742.000
416.741;  -12.350; -677.000; -784.000
416.866;  -90.025; -673.000; -736.000
416.992; -126.450; -801.000; -818.000
417.118;  -32.325;  -41.000;  -80.000
417.244;  -63.900; -798.000; -531.000
417.369;  -93.300; -801.000; -612.000
417.495;   -8.575; -325.000; -254.000
417.621;  -94.850;-1015.000; -803.000
417.746;   14.250; -579.000; -572.000
417.872;   51.550; -254.000; -144.000
417.998;   54.125; -515.000; -530.000
418.123; 1042.250;-1073.000; -845.000
418.249; 5618.475; -512.000; -601.000
418.374;  821.475; -916.000; -824.000
418.500;  125.000; -383.000; -482.000
418.626;  107.600;   70.000;  -59.000
418.751;  140.225; -549.000; -448.000
418.877;  190.775; -637.000; -643.000
419.002; 1763.175; -688.000; -560.000
419.128;13056.500; -930.000; -721.000
419.253; 3386.525; -967.000; -837.000
419.379;  440.600; -391.000; -338.000
419.504;  402.200;  325.000;  415.000
419.629;  523.350; -393.000; -212.000
419.755; 3578.325; -317.000; -254.000
419.880;22131.900;  -98.000;   67.000
420.006;11804.075; -280.000; -221.000
420.131;30788.025; -662.000; -775.000
420.256; 4690.350; -315.000; -316.000
420.382;  620.675; -665.000; -687.000
420.507;   90.800; -649.000; -778.000
420.632;  116.300; -337.000; -339.000
420.758;  216.825; -251.000; -425.000
420.883;  -94.175; -876.000; -672.000
421.008; -113.125; -775.000; -619.000
421.133;  -83.725; -509.000; -467.000
421.259;  -51.500; -325.000; -259.000
421.384; -121.100; -834.000; -693.000
421.509;  -55.400;-1052.000; -862.000
421.634; 1041.500; -936.000; -820.000
421.759;  495.075; -359.000; -327.000
421.885;  -64.450; -717.000; -656.000
422.010;  -81.050; -673.000; -542.000
422.135; -149.200; -695.000; -727.000
422.260;   17.350;  340.000;  280.000
422.385;  -49.600;   12.000;  -98.000
422.510;    6.675;  151.000;  -26.000
422.635;   17.325;  -87.000;  -43.000
422.760;  103.475; -766.000; -791.000
422.885;   58.475;  -57.000;  -80.000
423.010;  -42.050; -112.000; -169.000
423.135; -100.525; -481.000; -561.000
423.260;  -19.275; -150.000; -245.000
423.385;   46.825;  476.000;  222.000
423.510;   29.950;   71.000;  -22.000
423.635;   71.300;  133.000;   45.000
423.760;   51.225;  383.000;  328.000
423.885;   55.325;  336.000;  391.000
424.010;   11.675;  -68.000;  -13.000
424.135;  -23.550;    5.000;  -33.000
424.259;  -93.425; -654.000; -457.000
424.384;  -60.625; -279.000; -272.000
424.509;  -30.325; -260.000; -186.000
424.634; -112.375; -761.000; -623.000
424.759;  -26.050; -688.000; -544.000
424.883;  -22.550; -506.000; -527.000
425.008;  157.850; -502.000; -410.000
425.133; 2041.725; -679.000; -653.000
425.258; 1024.575; -517.000; -381.000
425.382;  993.550; -867.000; -774.000
425.507; 2665.025; -487.000; -543.000
425.632;  445.775; -802.000; -663.000
425.756;  475.225; -256.000; -146.000
425.881; 6609.325; -831.000; -857.000
426.006;19011.400; -604.000; -355.000
426.130; 3115.450; -696.000; -508.000
426.255;  408.625; -611.000; -491.000
426.379;  177.000; -189.000; -577.000
426.504;  364.950;  660.000;  544.000
426.629; 3987.400; -519.000; -466.000
426.753; 2988.475;   64.000;  -46.000
426.878;  316.300; -252.000; -288.000
427.002;  143.050; -651.000; -668.000
427.127; 1552.725;  -35.000; -158.000
427.251;11798.175;  372.000;  401.000
427.375; 3540.075; -191.000; -173.000
427.500; 2299.725; -616.000; -610.000
427.624;  822.450; -234.000; -400.000
427.749;   94.425; -216.000; -225.000
427.873;  -37.250; -499.000; -412.000
427.997;  -44.975; -222.000; -230.000
428.122;   56.825;  795.000;  703.000
428.246;   62.950;  433.000;  434.000
428.371; -136.825; -869.000; -773.000
428.495;  -97.525; -624.000; -646.000
428.619;  -39.775; -186.000; -117.000
428.743;   11.525;   65.000;  132.000
428.868;    2.200; -732.000; -643.000
428.992; 1388.350; -219.000; -326.000
429.116;  558.275; -329.000; -357.000
429.240;  263.050;  419.000;  426.000
429.365;  -26.600; -454.000; -574.000
429.489;  -47.875; -638.000; -647.000
429.613;   12.525; -236.000; -177.000
429.737;   34.400; -563.000; -432.000
429.861;  274.625; -247.000; -133.000
429.985; 5550.825; -425.000; -305.000
430.109; 6524.450; -770.000; -908.000
430.234;  769.350;   76.000;  -50.000
430.358;   72.700; -250.000; -160.000
430.482;  -73.350; -672.000; -564.000
430.606;  -62.400; -655.000; -375.000
430.730;  -12.425; -437.000; -388.000
430.854;   95.425; -909.000; -835.000
430.978;  -81.000; -795.000; -764.000
431.102;  -88.075; -499.000; -422.000
431.226; -130.350; -874.000; -815.000
431.350;   26.100;  345.000;  422.000
431.474;  -72.800; -661.000; -373.000
431.597; -163.050;-1060.000; -848.000
431.721;  -78.925; -276.000; -267.000
431.845; -135.675; -704.000; -472.000
431.969;  -90.350; -304.000; -349.000
432.093; -111.825; -395.000; -317.000
432.217;  -17.450;   32.000;   82.000
432.341;  -96.350; -523.000; -518.000
432.464;   -8.600;   96.000;   40.000
432.588;  165.325; -401.000; -329.000
432.712;  101.750;  -52.000;  -52.000
432.836;   34.075;  213.000;  263.000
432.959;  -21.125; -372.000; -311.000
433.083;   87.850;   11.000;    2.000
433.207;  376.250;  285.000;  930.000
433.330; 5112.475; -391.000; -200.000
433.454; 6644.075; -654.000; -638.000
433.578; 3777.900;  583.000;  278.000
433.701;  736.000; -623.000; -675.000
433.825;  133.825; -292.000; -299.000
433.949;  148.725;   28.000;  -72.000
434.072;   24.175; -410.000; -323.000
434.196;  -18.075; -309.000; -117.000
434.319; 3609.725;25482.000;25124.000
434.443;  717.375; -656.000; -603.000
434.566; 2761.450;  281.000;   62.000
434.690;  510.250; -637.000; -383.000
434.813;   52.775; -251.000; -173.000
434.937;  -68.625; -569.000; -696.000
435.060;  -59.025; -423.000; -332.000
435.184;  269.525; -492.000; -217.000
435.307;  147.650;  159.000;  102.000
435.431;  -11.000;  -40.000;   24.000
435.554;  -86.500; -399.000; -240.000
435.677;  -94.750; -350.000; -258.000
435.801;  -66.175;  -25.000;   49.000
435.924;  -22.075;    1.000;  -67.000
436.048; -126.875;-1019.000; -732.000
436.171;  -71.975; -240.000;  -66.000
436.294;  -36.775; -248.000; -229.000
436.417;  107.925; -963.000; -849.000
436.541;  -76.075; -814.000; -840.000
436.664;  -57.525; -242.000; -316.000
436.787;  -42.600;   13.000;  113.000
436.910; -132.350; -792.000; -422.000
437.034;   -1.025;  142.000;  143.000
437.157;   34.400;  -11.000;    0.000
437.280;  -63.550; -392.000; -292.000
437.403;  -81.575; -982.000; -869.000
437.526;  498.875; -903.000; -865.000
437.649; 2058.225; -505.000; -332.000
437.772;  312.600; -692.000; -540.000
437.896;  115.050;  700.000;  544.000
438.019;  -94.000; -758.000; -503.000
438.142;  -92.475; -596.000; -506.000
438.265;  -30.550; -639.000; -670.000
438.388;  492.300; -520.000; -410.000
438.511;   77.400; -597.000; -394.000
438.634;  -60.975; -247.000; -125.000
438.757; -138.300; -693.000; -619.000
438.880;  -20.150;  -34.000;  -57.000
439.003;  -73.475; -417.000; -437.000
439.126;  -70.850; -287.000; -167.000
439.248;  -66.725;  -98.000; -139.000
439.371;  -47.300;    9.000;  -53.000
439.494;   14.950;  510.000;  439.000
439.617;  -63.225;   65.000;  -88.000
439.740; -182.075; -968.000; -816.000
439.863; -136.600; -755.000; -595.000
439.986; -124.225; -476.000; -431.000
440.108;  -54.500; -161.000; -112.000
440.231; -175.050; -950.000; -836.000
440.354;  -43.175;  -64.000; -150.000
440.477;    8.500; -566.000; -542.000
440.599;   -5.875; -200.000; -225.000
440.722; -132.050; -709.000; -586.000
440.845;   54.825;  751.000;  928.000
440.968; -124.425; -415.000; -311.000
441.090;  -71.350; -199.000;  -33.000
441.213; -167.200;-1021.000; -825.000
441.336;  -55.775; -159.000;   -5.000
441.458;  -86.875; -549.000; -396.000
441.581;  -94.450; -628.000; -629.000
441.703;  -79.475; -152.000;   13.000
441.826; -116.900; -557.000; -400.000
441.948;  -54.400;   56.000;   51.000
442.071;    5.475;  555.000;  424.000
442.193; -135.925; -531.000; -485.000
442.316;    2.350;  152.000;   97.000
442.438;   25.150; -233.000;  -10.000
442.561;   63.950;  272.000;  262.000
442.683;  445.275; -809.000; -522.000
442.806; 1095.525;   -8.000;   74.000
442.928;   12.275; -859.000; -604.000
443.051;  -74.400; -577.000; -373.000
443.173; -103.425; -341.000; -339.000
443.295;  -80.075; -263.000; -371.000
443.418;  -82.650; -321.000;  -29.000
443.540;  -22.275; -106.000;   -4.000
443.662; -126.075; -563.000; -465.000
443.785;  -18.550;  335.000;  199.000
443.907;  -98.950; -362.000; -208.000
444.029; -116.850; -767.000; -494.000
444.152; -149.900; -644.000; -554.000
444.274;  -33.950;  -18.000;  -24.000
444.396; -107.225; -461.000; -221.000
444.518; -137.175; -691.000; -454.000
444.640; -121.775; -268.000; -111.000
444.763;  -28.450;  388.000;  249.000
444.885; -124.300; -432.000; -392.000
445.007;  -40.000;   35.000;   86.000
445.129; -128.650; -610.000; -515.000
445.251; -107.725; -372.000; -439.000
445.373; -135.850; -537.000; -386.000
445.495;   -2.825;  242.000;  350.000
445.617;   36.100;  853.000;  753.000
445.739;  -72.475; -215.000;  -97.000
445.861;  -46.775; -245.000; -112.000
445.984;  -47.000; -267.000; -101.000
446.105;  157.225; -418.000; -251.000
446.227;  577.700; -176.000;  -19.000
446.349;   -8.075; -358.000; -249.000
446.471;  -95.350; -615.000; -448.000
446.593;  -74.750; -316.000;   19.000
446.715;  -12.075;  -67.000;   41.000
446.837;   56.175;  697.000;  832.000
446.959; -108.000; -457.000; -478.000
447.081; -133.850; -628.000; -518.000
447.203;   44.175;  862.000;  834.000
447.325; -105.850; -270.000;   42.000
447.446;   -5.925;  286.000;  530.000
447.568; -155.850; -921.000; -803.000
447.690;  -82.425; -236.000; -245.000
447.812; -142.775; -798.000; -519.000
447.933;  -33.125;  155.000;  127.000
448.055;  -68.175; -306.000; -261.000
448.177;  105.325;   31.000;   79.000
448.299;   69.400; -935.000; -727.000
448.420;   21.475;  -25.000;  159.000
448.542;  -68.725;   -3.000;   33.000
448.664;  -30.850;  109.000;  322.000
448.785;  -44.425;  265.000;   83.000
448.907;  -90.775; -614.000; -353.000
449.028;  -43.100; -771.000; -471.000
449.150;   55.425;  492.000;  589.000
449.272; -178.325;-1044.000; -913.000
449.393;   15.600;  612.000;  694.000
449.515; -145.800; -634.000; -581.000
449.636;  -59.850; -264.000; -155.000
449.758;   61.650;  763.000;  622.000
449.879; -108.550; -498.000; -396.000
450.001;  -79.425; -149.000;  -49.000
450.122;  -31.675;  -95.000;  162.000
450.244;  -35.850;   37.000;  364.000
450.365;  -85.275; -495.000; -301.000
450.486;  -39.925;   80.000;  268.000
450.608;   13.925;  393.000;  326.000
450.729;   59.675;  578.000;  645.000
450.850;    7.550; -574.000; -466.000
450.972;  745.550; -552.000; -389.000
451.093; 5076.300;  190.000;  588.000
451.214; 2356.825; -516.000; -337.000
451.336;  423.550;  773.000;  579.000
451.457;   58.325;  264.000;  393.000
451.578;  -41.750; -118.000;  -74.000
451.699; -139.575; -546.000; -540.000
451.821;  -66.450; -284.000;  -50.000
451.942;  -25.725;  278.000;  285.000
452.063;   30.050;  228.000;  419.000
452.184;  548.000;  -54.000;  -49.000
452.305; 1162.725;  103.000;  170.000
452.427;  146.425; -549.000; -301.000
452.548;   -2.450;   23.000;   79.000
452.669;  -53.450; -257.000;  -89.000
452.790;  -56.775;    3.000;  -18.000
452.911;   -6.525;  195.000;  259.000
453.032;  -66.300; -289.000;  -60.000
453.153;  -49.275;  -29.000;   81.000
453.274;   57.425;  737.000;  868.000
453.395;  -60.175;  -51.000;  175.000
453.516;  114.875; 1317.000; 1388.000
453.637;  -76.950; -205.000; -150.000
453.758;  -60.175;   15.000;   69.000
453.879; -111.450; -462.000; -250.000
454.000;   73.600; 1086.000;  948.000
454.121; -129.250; -554.000; -326.000
454.242; -112.675; -599.000; -383.000
454.362;  -54.250;  -99.000;  114.000
454.483;  -46.975; -309.000; -229.000
454.604;   38.600;  512.000;  580.000
454.725; -132.975; -627.000; -555.000
454.846; -118.075; -474.000; -406.000
454.967;  -27.900;  230.000;  539.000
455.087;  -57.600;  179.000;  153.000
455.208;   12.150;  554.000;  856.000
455.329;  -64.850;  -22.000;   82.000
455.450;   39.600;  473.000;  633.000
455.570;  -89.800; -234.000; -211.000
455.691;  -50.900;  201.000;  407.000
455.812; -104.525; -270.000;  -92.000
455.932;  -66.500;  107.000;  -97.000
456.053;  -74.150;   36.000;   24.000
456.173; -120.600; -433.000; -355.000
456.294; -138.600; -476.000; -303.000
456.415;  -60.650;  -73.000;   70.000
456.535;  -37.800;  297.000;  273.000
456.656;  -44.450;  132.000;  240.000
456.776;  -72.200;    3.000;  298.000
456.897;   -3.575;  308.000;  513.000
457.017;  -81.875; -153.000;   -3.000
457.138; -110.875; -402.000; -249.000
457.258;  -49.350;  263.000;  224.000
457.379;  -10.725;  509.000;  521.000
457.499;  -40.575;  443.000;  432.000
457.620; -130.250; -407.000; -231.000
457.740;  -97.800; -132.000;  -11.000
457.860;  -60.425;   87.000;   44.000
457.981;  -50.375;  132.000;  124.000
458.101;  -60.650;  -89.000;   40.000
458.221;  -31.725;  336.000;  402.000
458.342;  -54.300;   -4.000;  -37.000
458.462;   15.250;  617.000;  352.000
458.582;  -30.150; -302.000; -294.000
458.703;   11.525;  303.000;  154.000
458.823;  -31.325;   22.000;  163.000
458.943;    6.175;  341.000;  467.000
459.063;  -14.150; 1124.000;  192.000
459.183;  -31.375;  328.000;  313.000
459.304;    9.750;  315.000;  517.000
459.424;  -74.475; -246.000;  -89.000
459.544;  319.425;  388.000;  764.000
459.664;  868.050;  499.000;  506.000
459.784;  327.075; 1004.000; 1175.000
459.904;   56.000;  867.000;  744.000
460.024;   55.650;  867.000;  684.000
460.144;   -1.275;  449.000;  554.000
460.264;   -9.050;  515.000;  327.000
460.385; -101.750; -145.000; -119.000
460.505;   32.150;  905.000;  858.000
460.625; -107.100;  -17.000;  -68.000
460.745;  -26.400;  396.000;  541.000
460.864;  -49.075;  153.000;  469.000
460.984;    8.275;  499.000;  573.000
461.104;  122.125; 1656.000; 1775.000
461.224;    6.725;  657.000;  650.000
461.344;  -40.400;  431.000;  360.000
461.464;  -34.475;  258.000;  513.000
461.584;  -25.450;  283.000;  466.000
461.704;  -36.375;   58.000;  108.000
461.824;  -54.325;  238.000;  259.000
461.943;  -35.825;  191.000;  130.000
462.063;  -83.800;    2.000;  324.000
462.183;   33.200;  639.000;  717.000
462.303;   87.625; 1678.000; 1230.000
462.422;   18.750;  781.000;  840.000
462.542;  -53.000;  271.000;  391.000
462.662;   38.500;  353.000;  380.000
462.782;  240.725;  833.000;  572.000
462.901;  502.000;  545.000;  717.000
463.021;  275.825; 1702.000; 1638.000
463.141;  -10.775;  337.000;  770.000
463.260;  -30.575;  614.000;  474.000
463.380;   14.250;  902.000;  884.000
463.499;  -49.550;  342.000;  332.000
463.619;  -35.175;  581.000;  559.000
463.738;   96.150; 1644.000;  903.000
463.858;   18.450;  657.000;  811.000
463.978;  -38.050;  542.000;  396.000
464.097;   61.450;  921.000; 1114.000
464.217;   95.550; 1196.000; 1143.000
464.336;  102.125; 1068.000; 1130.000
464.455;  -34.875;  328.000;  659.000
464.575;   35.875;  597.000;  602.000
464.694;  154.900; 1204.000; 1179.000
464.814;  116.275; 1190.000; 1138.000
464.933;   62.825; 1095.000; 1027.000
465.052;   82.250; 1412.000; 1054.000
465.172;   64.575;  922.000;  799.000
465.291;  140.325; 1376.000; 1320.000
465.410;    1.200;  462.000;  735.000
465.530;   63.450; 1355.000; 1310.000
465.649;   63.200; 1209.000; 1273.000
465.768;  137.250; 1673.000; 1508.000
465.888;   37.250;  941.000; 1174.000
466.007;   88.575; 1335.000; 1440.000
466.126;   -7.400;  721.000;  641.000
466.245;   52.150; 1176.000; 1187.000
466.364;   20.175;  950.000; 1060.000
466.484;   58.200; 1024.000; 1213.000
466.603;   23.900; 1101.000; 1222.000
466.722;  111.650; 1490.000; 1769.000
466.841;   67.725; 1151.000; 1401.000
466.960;   40.075; 1069.000;  972.000
467.079;  123.800; 1971.000; 1786.000
467.198;   59.675; 1238.000; 1181.000
467.317;   71.150; 1768.000; 1162.000
467.436;   68.500; 1709.000; 1261.000
467.555;  130.975; 1796.000; 1746.000
467.674;   65.650; 1227.000; 1329.000
467.793;   43.575; 1376.000; 1374.000
467.912;   83.200; 1658.000; 1539.000
468.031;  116.325; 2038.000; 1930.000
468.150;  144.175; 1842.000; 1837.000
468.269;  198.550; 2313.000; 2090.000
468.388;  189.800; 2168.000; 2339.000
468.507;  232.775; 2884.000; 2903.000
468.626;  265.125; 2555.000; 2541.000
468.744;  126.125; 2018.000; 2174.000
468.863;  198.750; 2312.000; 2523.000
468.982;   71.575; 1503.000; 1555.000
469.101;  209.750; 2788.000; 2692.000
469.220;  158.625; 2333.000; 2176.000
469.338;  239.575; 2935.000; 3051.000
469.457;  192.550; 2719.000; 2545.000
469.576;  342.225; 3953.000; 3784.000
469.695;  232.275; 2877.000; 3066.000
469.813;  417.100; 4148.000; 4192.000
469.932;  406.900; 4255.000; 4485.000
470.051;  412.350; 4075.000; 4161.000
470.169;  832.075; 4470.000; 4338.000
470.288; 1500.300; 4700.000; 4809.000
470.406;  888.200; 5059.000; 5194.000
470.525;  641.475; 6101.000; 5787.000
470.644;  628.400; 6847.000; 6794.000
470.762;  835.250; 8397.000; 7873.000
470.881;  899.125; 8651.000; 8464.000
470.999; 1033.125; 9685.000; 9151.000
471.118; 1104.675;11174.000;10711.000

