
Integration time [ms]: 100.000
Averaging Nr. [scans]: 40
Smoothing Nr. [pixels]: 0
Data measured with spectrometer [name]: 2101012U2
Wave   ;Sample   ;Dark     ;Reference
[nm]   ;[counts] ;[counts] ;[counts] 

197.733;   64.200;  516.000;  404.000
197.879;  -81.125; -610.000; -634.000
198.025;  -49.225; -475.000; -420.000
198.171;  -60.325; -602.000; -612.000
198.317;  -28.700; -401.000; -316.000
198.463;  -50.975; -655.000; -404.000
198.609;   22.175;  181.000; -137.000
198.755;  -89.625; -644.000; -410.000
198.901;  -52.025; -505.000; -424.000
199.047;  -47.000; -615.000; -488.000
199.193;  -32.925; -230.000; -468.000
199.339;  -38.350; -222.000; -369.000
199.485;   44.375;  330.000;  271.000
199.631;   19.075;  227.000;  310.000
199.777;  -53.150; -466.000; -398.000
199.923;  -49.650; -610.000; -424.000
200.069;    1.900; -141.000;  -58.000
200.215;   60.400;  128.000;  453.000
200.361;   51.125;  243.000;  477.000
200.507;  -56.975; -600.000; -373.000
200.653;  -18.200; -371.000; -194.000
200.798;  -42.550; -215.000; -125.000
200.944;   -8.525; -146.000;  -41.000
201.090;   42.925;   61.000;  222.000
201.236;    2.225; -116.000; -158.000
201.382;  130.850;  874.000;  903.000
201.528;    4.575;  -58.000;  -48.000
201.674;  -50.475; -386.000; -293.000
201.819;  -60.750; -540.000; -439.000
201.965;  -83.850; -699.000; -447.000
202.111;  -15.750; -273.000; -226.000
202.257;  -29.000; -250.000; -238.000
202.402;   17.600;   13.000;  -36.000
202.548;  -29.350; -169.000; -116.000
202.694;   92.575;  410.000; -183.000
202.840;  -65.875; -603.000; -531.000
202.985;  -67.350; -681.000; -639.000
203.131; -104.350; -832.000; -666.000
203.277;  -20.375; -199.000; -262.000
203.423;  -45.425; -434.000; -520.000
203.568;  -27.775; -462.000; -237.000
203.714;  -55.500; -535.000; -542.000
203.860;  -77.400; -682.000; -641.000
204.005;   21.400;  112.000;  167.000
204.151;   79.600;  561.000;  556.000
204.296;  -32.450; -354.000; -221.000
204.442;  -79.275; -600.000; -547.000
204.588;  -69.200; -592.000; -579.000
204.733;   23.700;  178.000;  168.000
204.879; -130.375;-1018.000; -822.000
205.025;    9.450;  -99.000;  126.000
205.170;   15.450;  -17.000;   94.000
205.316;   83.675;  438.000;  661.000
205.461;  -84.675; -698.000; -554.000
205.607;   89.550;  609.000;  665.000
205.752;  -76.525; -626.000; -551.000
205.898;  -57.225; -501.000; -391.000
206.043;  -43.600; -578.000; -506.000
206.189;  -44.600; -243.000; -285.000
206.334;   80.200;  554.000;  606.000
206.480;   97.650;  409.000;  239.000
206.625;  -83.250; -529.000; -552.000
206.771;  -38.025; -451.000; -373.000
206.916;  -28.450; -210.000; -537.000
207.062;  -71.175; -545.000; -591.000
207.207;  -54.150; -546.000; -443.000
207.353;   68.050;  185.000;  460.000
207.498;   15.375;  196.000;   85.000
207.643;  -41.475; -501.000; -370.000
207.789; -128.375;-1069.000; -910.000
207.934;  -92.400; -665.000; -713.000
208.080;  -30.525; -154.000;   66.000
208.225;    3.200;  -22.000;  -57.000
208.370;  -92.425; -727.000; -619.000
208.516;  -68.250; -741.000; -487.000
208.661;  -23.200; -127.000;  -69.000
208.806;  -14.550; -165.000; -171.000
208.952; -128.075;-1044.000; -731.000
209.097;   79.850;  378.000;  349.000
209.242;  -41.025; -307.000; -382.000
209.387;   62.075;  392.000;  350.000
209.533;  -45.250; -321.000; -350.000
209.678;   80.550;  472.000;  543.000
209.823;  -46.775; -408.000; -310.000
209.969; -100.525; -860.000; -757.000
210.114; -106.875; -907.000; -719.000
210.259; -117.975; -939.000; -889.000
210.404;   -1.350; -171.000;  103.000
210.549;   13.350;  108.000;    3.000
210.695;  -21.525;   -3.000;  -95.000
210.840;   31.625;   94.000;   67.000
210.985;  -69.250; -484.000; -303.000
211.130;   85.575;  268.000;  406.000
211.275;   16.225;  207.000;  199.000
211.420;  -54.175; -300.000; -289.000
211.566;  -63.250; -536.000; -489.000
211.711;   17.075;  218.000;  157.000
211.856;  -78.075; -545.000; -519.000
212.001;   13.975;  151.000;   44.000
212.146;   39.150;  153.000;   49.000
212.291;   -9.250; -210.000; -186.000
212.436;  -23.150; -280.000;   -6.000
212.581;  -72.650; -685.000; -653.000
212.726;  -79.375; -487.000; -538.000
212.871;  -43.975; -552.000; -217.000
213.016; -141.875;-1172.000;-1029.000
213.161;   64.325;  406.000;  291.000
213.306;  -67.400; -435.000; -577.000
213.451;  -97.150; -778.000; -689.000
213.596;  -48.200; -455.000; -347.000
213.741;  -59.625; -448.000; -538.000
213.886;  -60.975; -498.000; -517.000
214.031;  -24.625; -294.000; -124.000
214.176;  -40.375; -408.000; -341.000
214.321;  -16.350; -296.000; -157.000
214.466;  -19.625; -163.000;  -43.000
214.611;   -4.475;  -61.000;  -10.000
214.756; -122.600; -948.000; -858.000
214.901;  -26.350; -388.000; -226.000
215.046; -132.975; -797.000; -825.000
215.191;   27.375;  128.000;   35.000
215.336;  -16.650; -157.000;  -19.000
215.480;  -60.675; -684.000; -505.000
215.625;    0.600; -175.000;  -19.000
215.770;  -69.900; -757.000; -662.000
215.915;  -14.550;   -5.000;  -97.000
216.060;   14.925; -113.000;  -21.000
216.205; -118.450; -731.000; -779.000
216.349;  -58.950; -470.000; -533.000
216.494; -133.050; -939.000; -867.000
216.639; -116.525; -823.000; -888.000
216.784;  -80.400; -577.000; -525.000
216.929;   54.425;  392.000;  281.000
217.073;  -13.750; -244.000;  -31.000
217.218;   20.675;   78.000;  -47.000
217.363;  -79.575; -656.000; -618.000
217.507;  -82.675; -623.000; -588.000
217.652; -124.925; -845.000; -874.000
217.797;  -87.000; -708.000; -659.000
217.942;  -96.125; -856.000; -720.000
218.086;  100.725;  608.000;  539.000
218.231;  -15.225; -174.000;  -26.000
218.376;  -35.025; -337.000; -229.000
218.520;   13.075;  -41.000;   96.000
218.665;  -27.300; -338.000; -204.000
218.810;  -32.450; -275.000; -233.000
218.954;   35.950;  201.000;   35.000
219.099; -116.400; -713.000; -963.000
219.243;  -61.125; -589.000; -554.000
219.388;  -23.125; -264.000; -136.000
219.532;  -12.500; -116.000; -116.000
219.677;  -80.200; -564.000; -521.000
219.822;   16.525;   33.000;   89.000
219.966;   18.625;   17.000;  -99.000
220.111;  -21.125; -328.000;  -40.000
220.255;  -85.650; -797.000; -750.000
220.400;  -17.675; -180.000; -146.000
220.544;  -74.425; -516.000; -450.000
220.689;  -59.375; -422.000; -451.000
220.833;   -7.975; -123.000;  -58.000
220.978;  -30.775; -393.000; -563.000
221.122;   20.425;  319.000;  307.000
221.267; -112.200; -906.000; -837.000
221.411;  -66.600; -478.000; -394.000
221.555;   -2.700; -104.000;  -23.000
221.700;  -40.525; -329.000; -222.000
221.844;   53.325;  255.000;  272.000
221.989;  -29.950; -328.000; -311.000
222.133;  -36.975; -289.000; -307.000
222.277;    4.425;    5.000;   78.000
222.422;   21.425;  227.000;  113.000
222.566;  -27.350; -381.000; -214.000
222.711;  -74.800; -414.000; -479.000
222.855;  -74.400; -643.000; -586.000
222.999;  -85.900; -642.000; -717.000
223.144;  -11.400; -195.000; -194.000
223.288;   53.425;  423.000;  251.000
223.432;   35.200;  184.000;  230.000
223.576;   22.050;  152.000;  -21.000
223.721;   43.725;  364.000;  273.000
223.865;  -52.275; -472.000; -475.000
224.009;  243.825; 1673.000; 1631.000
224.153;  -71.900; -660.000; -671.000
224.298;  -68.225; -531.000; -489.000
224.442;   -7.875;  -74.000;  -33.000
224.586;   -2.350; -169.000; -106.000
224.730;  -88.825; -858.000; -670.000
224.875; -103.250; -739.000; -688.000
225.019;   19.325;  102.000;  188.000
225.163;   69.625;  208.000;  341.000
225.307;   15.900;   97.000;  -91.000
225.451;   62.875;  360.000;  481.000
225.595;   46.375;  264.000;  176.000
225.739;  -25.250; -170.000;  -94.000
225.884;    6.625;   86.000;    5.000
226.028; -101.200; -760.000; -626.000
226.172;  -25.350; -260.000; -273.000
226.316; -128.225; -941.000; -902.000
226.460;  -64.975; -645.000; -493.000
226.604;  -51.075; -406.000; -400.000
226.748;  -97.600; -836.000; -733.000
226.892;  -25.225; -227.000; -181.000
227.036;  -40.825; -537.000; -447.000
227.180;  -52.350; -551.000; -375.000
227.324;  -58.525; -561.000; -580.000
227.468; -126.925; -819.000; -717.000
227.612;   24.650;  242.000;  -28.000
227.756; -109.575; -845.000; -698.000
227.900;   47.750;  342.000;  441.000
228.044;  -54.050; -509.000; -290.000
228.188;   65.125;  448.000;  568.000
228.332;  -82.325; -546.000; -472.000
228.476;  -33.450; -223.000; -149.000
228.620;  -30.375; -210.000; -150.000
228.764;   69.800;  431.000;  349.000
228.908;  -13.025; -155.000;   30.000
229.052;  -70.550; -615.000; -528.000
229.195;   -2.050; -172.000;   13.000
229.339;  -26.750; -235.000; -305.000
229.483;  -24.325;    5.000; -162.000
229.627;   18.375; -156.000;  139.000
229.771;  -44.900; -218.000; -294.000
229.915;   19.175;  230.000;   79.000
230.059;  -96.275; -648.000; -663.000
230.202;  -42.000; -370.000; -317.000
230.346;   -7.825; -107.000;  107.000
230.490;  -62.000; -489.000; -521.000
230.634; -118.575; -736.000; -553.000
230.777;   74.850;  478.000;  509.000
230.921;  -67.225; -450.000; -359.000
231.065;  -23.875; -246.000; -286.000
231.209;   27.225;  261.000;  265.000
231.352;   22.750;   54.000;   40.000
231.496;   29.400;  568.000;  188.000
231.640;  -69.300; -693.000; -621.000
231.783;   64.175;  546.000;  525.000
231.927;  -41.975; -294.000; -365.000
232.071; -113.050; -962.000; -736.000
232.214; -113.025; -980.000; -764.000
232.358;  -93.275; -683.000; -599.000
232.502;   11.825;  -19.000;    7.000
232.645; -137.300;-1090.000; -927.000
232.789;  -19.875; -257.000; -218.000
232.933;  -32.425; -407.000; -224.000
233.076; -124.000;-1038.000; -897.000
233.220;  -96.775; -752.000; -777.000
233.363;  -62.550; -669.000; -477.000
233.507;   57.725;  371.000;  129.000
233.650;  -91.625; -764.000; -834.000
233.794;   46.000;  438.000;  461.000
233.938;  -58.575; -530.000; -362.000
234.081;   -7.800;  -93.000;   31.000
234.225;  -63.250; -631.000; -539.000
234.368; -115.300; -773.000; -723.000
234.512;  -25.225; -385.000; -299.000
234.655;  -92.750; -582.000; -555.000
234.798;  -57.225; -493.000; -466.000
234.942; -136.150; -884.000;-1002.000
235.085;  -73.875; -651.000; -443.000
235.229;  -73.425; -405.000; -410.000
235.372;  -26.150; -247.000; -191.000
235.516;  -65.425; -397.000; -321.000
235.659;   14.975;   92.000;  121.000
235.802;   -3.200;  -38.000;  -22.000
235.946;   33.300;  335.000;  215.000
236.089;   39.525;  126.000;  250.000
236.233;   64.550;  275.000;  298.000
236.376;  -40.925; -235.000; -378.000
236.519;  -36.675; -297.000; -319.000
236.663;  -20.800; -215.000; -117.000
236.806; -134.100;-1029.000; -999.000
236.949;   70.275;  543.000;  431.000
237.092;   66.050;  412.000;  391.000
237.236;  -93.800; -589.000; -502.000
237.379;   74.000;  352.000;  428.000
237.522; -124.250; -879.000; -768.000
237.666;   -8.975; -271.000;   18.000
237.809; -125.225; -851.000; -823.000
237.952;   24.125;  469.000;  271.000
238.095;  -57.250; -447.000; -442.000
238.238;   96.825;  688.000;  700.000
238.382;   -2.775;  166.000;  103.000
238.525;  -82.200; -598.000; -511.000
238.668; -141.625;-1060.000; -985.000
238.811;  -74.500; -638.000; -643.000
238.954;  -54.975; -483.000; -334.000
239.097;  110.425;  617.000;  664.000
239.241;   30.825;  394.000;  326.000
239.384;  -29.350; -254.000; -214.000
239.527;  -49.500; -424.000; -224.000
239.670; -158.100; -994.000;-1091.000
239.813; -109.825; -696.000; -658.000
239.956;   93.925;  579.000;  473.000
240.099; -108.975; -778.000; -725.000
240.242;   71.550;  428.000;  432.000
240.385;   53.725;  466.000;  450.000
240.528;  -67.575; -706.000; -473.000
240.671;   23.025;  189.000;  134.000
240.814;  -43.075; -441.000; -158.000
240.957; -100.500; -767.000; -578.000
241.100; -102.075; -779.000; -755.000
241.243; -158.000;-1234.000; -893.000
241.386;  -67.050; -508.000; -379.000
241.529;  -99.325; -735.000; -547.000
241.672;  -61.700; -566.000; -495.000
241.815; -108.775; -832.000; -808.000
241.958;  -25.775; -125.000; -182.000
242.101;  -80.250; -545.000; -390.000
242.244;  -34.350; -270.000; -325.000
242.387;  -25.250; -304.000; -246.000
242.530;   52.675;  470.000;  134.000
242.673;  -44.200; -381.000; -309.000
242.815; -126.475; -925.000; -899.000
242.958;  -75.250; -482.000; -381.000
243.101;   19.525;  132.000;  187.000
243.244;  -93.750; -564.000; -521.000
243.387;  -55.525; -313.000; -316.000
243.530;  -76.975; -657.000; -674.000
243.672;  -11.650;   43.000;  -92.000
243.815;  -55.000; -355.000; -283.000
243.958;    2.400;   98.000;  -26.000
244.101;    2.100;   59.000;  -16.000
244.243;  -20.150;  -47.000;  101.000
244.386; -102.300; -761.000; -630.000
244.529;  -17.700; -132.000; -139.000
244.672; -146.675;-1154.000; -951.000
244.814;  -95.750; -621.000; -794.000
244.957;  -60.500; -380.000; -304.000
245.100;  -77.050; -489.000; -489.000
245.242;  -52.475; -387.000; -374.000
245.385;  -10.375;  -59.000;  -39.000
245.528; -126.650; -871.000; -705.000
245.670;   95.475;  612.000;  634.000
245.813;  -81.275; -599.000; -547.000
245.956;  -24.625; -324.000; -275.000
246.098;  -63.900; -508.000; -650.000
246.241;   14.525;  194.000;   48.000
246.383;   -6.900; -119.000;  -73.000
246.526;  -79.525; -454.000; -525.000
246.669; -116.425; -889.000; -780.000
246.811;   13.300;  172.000;   -1.000
246.954;  -56.700; -512.000; -426.000
247.096;  -16.125;  -84.000;   -6.000
247.239;  -61.175; -482.000; -445.000
247.381;  -74.550; -647.000; -488.000
247.524;   85.475;  645.000;  679.000
247.666;   -7.650;   58.000;   11.000
247.809; -121.200; -887.000; -691.000
247.951;    6.550;  -75.000;  138.000
248.094;   34.125;  432.000;  308.000
248.236; -155.325;-1262.000;-1238.000
248.378;    5.450; -356.000;  -81.000
248.521;  -22.025; -334.000; -337.000
248.663;  -20.425; -236.000; -267.000
248.806;  -24.550; -300.000; -266.000
248.948; -113.075; -886.000; -763.000
249.090;  -53.175; -428.000; -398.000
249.233;  -58.200; -344.000; -381.000
249.375;  -66.800; -474.000; -451.000
249.518;   -5.050;  -83.000; -133.000
249.660;  -10.575; -103.000;    3.000
249.802; -165.375;-1303.000;-1189.000
249.945;  -83.350; -612.000; -540.000
250.087; -115.750; -834.000; -768.000
250.229;  -45.500; -362.000; -480.000
250.371;  -77.150; -494.000; -439.000
250.514;  -42.350; -310.000; -244.000
250.656;   -2.975;   69.000;  102.000
250.798; -110.975; -849.000; -800.000
250.940;  -60.725; -322.000; -322.000
251.083;  -37.025; -335.000; -111.000
251.225;   57.900;  338.000;  310.000
251.367;  -34.925; -274.000; -373.000
251.509;  -35.525; -265.000; -210.000
251.651;  -85.650; -731.000; -671.000
251.794;   54.425;  538.000;  632.000
251.936; -118.400; -821.000; -747.000
252.078;  -67.275; -540.000; -461.000
252.220;  -72.000; -645.000; -477.000
252.362;   74.975;  344.000;  462.000
252.504;  -76.475; -677.000; -584.000
252.646; -111.100; -875.000; -722.000
252.788;    3.275;   14.000; -128.000
252.931;  -35.650; -257.000; -253.000
253.073;  -29.200; -376.000; -317.000
253.215;    2.650;  141.000;  122.000
253.357;  -10.325;   82.000; -153.000
253.499;  -53.875; -374.000; -234.000
253.641;  -83.200; -749.000; -594.000
253.783;  -86.900; -609.000; -527.000
253.925;  -77.275; -586.000; -591.000
254.067; -117.800; -744.000; -667.000
254.209;  -37.250; -391.000; -259.000
254.351; -137.100; -865.000; -883.000
254.493;  -72.300; -441.000; -417.000
254.635; -118.875; -936.000; -818.000
254.777;  -84.150; -752.000; -687.000
254.918;  -72.275; -512.000; -430.000
255.060;  -63.275; -551.000; -395.000
255.202;  -51.450; -473.000; -261.000
255.344;  -83.075; -658.000; -455.000
255.486;  -72.450; -471.000; -406.000
255.628; -111.800; -780.000; -781.000
255.770;  -92.025; -676.000; -536.000
255.912;  -64.300; -559.000; -468.000
256.053;  -94.300; -730.000; -508.000
256.195;  152.900; 1008.000;  903.000
256.337;  -91.650; -861.000; -595.000
256.479;   79.925;  532.000;  416.000
256.621;  -49.600; -394.000; -212.000
256.762;  -93.050; -789.000; -742.000
256.904;   46.050;  485.000;  487.000
257.046;  -46.550; -381.000; -271.000
257.188;  -44.075; -351.000; -264.000
257.329;  -69.700; -525.000; -464.000
257.471; -117.300; -939.000; -807.000
257.613;  -75.650; -584.000; -498.000
257.755; -144.350;-1073.000; -982.000
257.896;   42.950;  286.000;  392.000
258.038;  -68.200; -403.000; -352.000
258.180;  -46.500; -354.000; -279.000
258.321;  -80.075; -581.000; -457.000
258.463;    0.800;  -71.000;  133.000
258.605;  -83.700; -562.000; -570.000
258.746; -112.550; -886.000; -772.000
258.888; -152.975;-1026.000;-1020.000
259.029;   26.600;  121.000;   -8.000
259.171;  -98.675; -614.000; -550.000
259.313;   -6.025;  -49.000;  -47.000
259.454;  -63.875; -536.000; -414.000
259.596;  -57.175; -483.000; -390.000
259.737;  -72.725; -590.000; -474.000
259.879;   38.100;  217.000;  311.000
260.020;   89.900;  901.000;  636.000
260.162;  -23.000; -146.000; -253.000
260.303; -121.150; -768.000; -687.000
260.445;  -76.700; -609.000; -613.000
260.586;   36.925;  392.000;  157.000
260.728;  -28.575; -360.000; -248.000
260.869; -109.075; -350.000; -343.000
261.011;   86.300;  706.000;  537.000
261.152;  -50.625; -479.000; -319.000
261.293;  -76.450; -576.000; -595.000
261.435;  -32.650; -219.000; -184.000
261.576;  -36.400; -455.000; -325.000
261.718;   62.075;  420.000;  470.000
261.859; -121.225; -940.000; -949.000
262.000; -134.200; -951.000;-1016.000
262.142;  -11.700;  -52.000;  -60.000
262.283; -110.550; -808.000; -691.000
262.424;  -86.200; -666.000; -625.000
262.566; -153.350;-1161.000; -983.000
262.707; -118.700; -840.000; -830.000
262.848; -120.575; -769.000; -726.000
262.990;  -43.325; -362.000; -345.000
263.131;  104.250;  650.000;  681.000
263.272;   -9.975;  -61.000;  -41.000
263.413; -100.325; -589.000; -561.000
263.555;  -69.800; -669.000; -143.000
263.696;  -90.450; -550.000; -641.000
263.837;  -60.025; -449.000; -551.000
263.978;   -5.600;   -5.000;  -77.000
264.119;  -38.875; -283.000; -264.000
264.261; -134.975; -847.000; -630.000
264.402;   -0.025;   33.000;   40.000
264.543;  -79.125; -509.000; -524.000
264.684;  -11.075;   61.000;  -50.000
264.825;  -81.700; -816.000; -538.000
264.966;    0.525;  -84.000;  -67.000
265.107; -125.375; -646.000; -670.000
265.248; -123.475; -825.000; -812.000
265.390;   -0.450;  152.000;   -9.000
265.531;  -21.300; -238.000; -107.000
265.672;  -89.575; -557.000; -630.000
265.813;   80.100;  563.000;  439.000
265.954; -146.950; -959.000; -940.000
266.095;  -11.175; -372.000; -322.000
266.236;  -92.075; -686.000; -548.000
266.377;  -46.900; -243.000; -297.000
266.518;  -75.775; -619.000; -547.000
266.659;   31.350;  170.000;  268.000
266.800;   19.300;   83.000;   85.000
266.941;  -78.200; -487.000; -478.000
267.082;   12.525;  354.000;   99.000
267.223;  -50.175; -344.000; -273.000
267.364; -121.675; -892.000; -686.000
267.504;   -5.025;    3.000;  135.000
267.645;   -7.925;  160.000;   67.000
267.786;  -14.600; -147.000;  -86.000
267.927;  -68.550; -473.000; -379.000
268.068;  -15.750; -186.000;  -61.000
268.209;  -48.025; -175.000; -413.000
268.350;  -53.825; -388.000; -532.000
268.490;  -81.900; -648.000; -521.000
268.631;   35.625;  127.000;  225.000
268.772; -124.375; -874.000; -647.000
268.913;  -48.750; -328.000; -476.000
269.054;  -19.825; -117.000;   12.000
269.194;  -48.950; -418.000; -402.000
269.335; -166.550;-1137.000;-1074.000
269.476;  -20.800;   33.000;  -35.000
269.617;  -54.725; -347.000; -392.000
269.757;  -88.575; -713.000; -646.000
269.898;  -98.775; -856.000; -613.000
270.039;  -66.775; -415.000; -405.000
270.180; -151.350; -952.000; -816.000
270.320;  -22.975; -190.000; -250.000
270.461;  -46.800; -277.000; -249.000
270.602;  -26.050; -186.000; -156.000
270.742; -113.125; -868.000; -943.000
270.883;  -56.625; -442.000; -390.000
271.023;  -50.250; -358.000; -357.000
271.164;  -59.125; -607.000; -528.000
271.305;  -90.650; -666.000; -654.000
271.445;  -83.475; -722.000; -683.000
271.586;  -70.225; -462.000; -283.000
271.726;  -48.650; -397.000; -322.000
271.867;  -67.575; -594.000; -534.000
272.008;  163.250; -473.000; -285.000
272.148;  118.875;  462.000;  468.000
272.289;   17.125; -113.000; -181.000
272.429;   35.575;   19.000;  185.000
272.570;  -92.675; -633.000; -737.000
272.710;  -99.500; -825.000; -775.000
272.851;  -26.975;  113.000; -130.000
272.991; -167.300;-1173.000;-1077.000
273.131;  -61.150; -419.000; -459.000
273.272; -100.800; -683.000; -723.000
273.412;    7.450; -143.000;  -31.000
273.553;  -57.900; -488.000; -507.000
273.693;  129.450;  913.000;  858.000
273.834; -107.075; -894.000; -692.000
273.974;  -84.175; -664.000; -615.000
274.114; -114.525; -772.000; -560.000
274.255;   83.500;  414.000;  373.000
274.395;   -2.200; -180.000; -125.000
274.535;   35.925;  199.000;  350.000
274.676;   28.575;  225.000;   94.000
274.816;   15.100;  110.000;   34.000
274.956;  -82.025; -624.000; -690.000
275.097;  -74.375;-1014.000; -922.000
275.237; -107.850; -913.000; -803.000
275.377; -102.950; -778.000; -689.000
275.517; -159.250; -878.000; -937.000
275.658;  -55.600; -590.000; -555.000
275.798;  -68.700; -606.000; -413.000
275.938;   13.900;  215.000;  323.000
276.078;  -76.900; -626.000; -395.000
276.218;    3.150;   99.000;  104.000
276.359; -136.550;-1026.000;-1024.000
276.499;  -73.600; -605.000; -446.000
276.639;  -36.225; -305.000; -151.000
276.779;  -52.000; -475.000; -357.000
276.919; -101.200; -783.000; -624.000
277.059;  -16.675; -261.000; -212.000
277.199;  -48.550; -357.000; -259.000
277.340;   38.325;  287.000;  175.000
277.480; -104.700; -840.000; -693.000
277.620;   36.700;  192.000;   16.000
277.760; -196.050;-1533.000;-1294.000
277.900;    4.150;  113.000;   33.000
278.040;    5.125;  137.000;  159.000
278.180;   41.000;  270.000;  170.000
278.320;    1.025;   21.000;   56.000
278.460;  -70.525; -443.000; -469.000
278.600;  -80.450; -708.000; -598.000
278.740;   64.950;  448.000;  224.000
278.880;  -76.825; -768.000; -791.000
279.020;  -16.200; -194.000; -144.000
279.160;  -94.775; -672.000; -595.000
279.300; -113.800; -926.000; -873.000
279.440;  -86.825; -709.000; -622.000
279.579;  -32.250;-1014.000; -929.000
279.719;  -47.300; -410.000; -394.000
279.859;   60.250;   -4.000;   41.000
279.999;   19.875; -208.000;  101.000
280.139;  -18.650; -435.000; -387.000
280.279;  -72.225; -708.000; -745.000
280.419;  -16.025; -229.000; -147.000
280.559;  -27.750; -259.000; -180.000
280.698;  -92.400; -790.000; -639.000
280.838; -101.550; -778.000; -800.000
280.978; -106.000; -846.000; -790.000
281.118; -112.700; -811.000; -704.000
281.257;    3.450;   24.000;    6.000
281.397; -126.450;-1094.000; -960.000
281.537;  -84.900; -599.000; -712.000
281.677;  -10.775; -150.000; -101.000
281.816;  -79.325; -700.000; -630.000
281.956;  -31.625; -193.000; -257.000
282.096;  -63.800; -539.000; -396.000
282.235; -102.550; -672.000; -638.000
282.375;  -29.075; -243.000;  -98.000
282.515; -105.900; -715.000; -707.000
282.654;   12.925;   29.000;  106.000
282.794;   20.275;  388.000;  244.000
282.934;  -48.475; -530.000; -491.000
283.073; -141.600;-1030.000; -857.000
283.213;  -43.350; -460.000; -467.000
283.353;  -51.400; -408.000; -349.000
283.492;  -27.900; -264.000; -296.000
283.632;  -32.575; -254.000; -168.000
283.771;  -99.025; -859.000; -730.000
283.911;  -44.050; -369.000; -260.000
284.050; -105.000; -794.000; -748.000
284.190; -164.875;-1229.000;-1096.000
284.329; -139.750;-1055.000; -964.000
284.469;  -74.625; -516.000; -591.000
284.608;  -62.500; -559.000; -598.000
284.748;  -81.350; -614.000; -570.000
284.887;  -11.625;  -87.000;  -20.000
285.027; -127.600; -844.000; -892.000
285.166;  -31.425; -192.000; -249.000
285.306;    4.950; -116.000;  -33.000
285.445;  -36.250; -229.000; -343.000
285.584; -103.875; -630.000; -494.000
285.724;  -47.125; -282.000; -322.000
285.863; -102.975; -857.000; -507.000
286.002;  -55.825; -366.000; -276.000
286.142; -107.750; -715.000; -622.000
286.281;  -70.675; -525.000; -493.000
286.420;  -80.700; -554.000; -417.000
286.560;   99.250;  653.000;  623.000
286.699; -141.100; -958.000; -912.000
286.838;  -83.775; -590.000; -591.000
286.978;  -82.525; -533.000; -537.000
287.117; -144.675;-1085.000; -950.000
287.256;  -39.025; -228.000; -211.000
287.395;  -50.900; -197.000; -378.000
287.535;  -54.850; -370.000; -298.000
287.674;  -78.425; -509.000; -484.000
287.813;   45.025;  661.000;  533.000
287.952; -131.450;-1010.000; -871.000
288.091; -153.125;-1049.000; -915.000
288.231;    7.625;   13.000;   15.000
288.370; -182.400;-1217.000;-1200.000
288.509;  -89.000; -728.000; -645.000
288.648;  -96.725; -770.000; -548.000
288.787;  -27.675; -243.000;  -87.000
288.926;  -71.800; -454.000; -475.000
289.065;  118.050;  859.000;  672.000
289.204;  -52.950; -377.000; -217.000
289.344;  -92.800; -791.000; -690.000
289.483;   31.600;  416.000;  304.000
289.622;  -28.000; -291.000; -149.000
289.761;  -12.950; -309.000; -166.000
289.900; -115.575; -785.000; -626.000
290.039;  -10.900;  -12.000;  -95.000
290.178;  -43.975; -274.000; -180.000
290.317;  -77.875; -618.000; -479.000
290.456;  -65.075; -463.000; -451.000
290.595; -137.800; -961.000; -833.000
290.734; -143.700; -904.000; -891.000
290.873;  -69.750; -456.000; -420.000
291.011; -111.950; -833.000; -843.000
291.150; -115.825; -770.000; -682.000
291.289;  -15.200; -343.000; -110.000
291.428; -101.525; -599.000; -480.000
291.567;  -52.275; -370.000; -442.000
291.706;   -1.325;  109.000;  154.000
291.845;  -94.525; -597.000; -505.000
291.984; -164.625;-1234.000;-1061.000
292.122;   75.375;  602.000;  582.000
292.261;   49.550;  620.000;  463.000
292.400;   16.750; -144.000;  211.000
292.539; -130.275; -959.000; -813.000
292.678;  -34.550; -325.000; -300.000
292.816; -159.425;-1136.000; -965.000
292.955;  -84.725; -844.000; -684.000
293.094;  -16.425; -173.000; -337.000
293.233;  -48.275; -556.000; -400.000
293.371;  -30.425; -225.000;  -84.000
293.510; -112.875; -866.000; -780.000
293.649; -134.000; -959.000; -924.000
293.787;  -75.075;-1083.000;-1012.000
293.926;   -1.700; -113.000;  -32.000
294.065;  -41.150; -379.000; -290.000
294.203;   49.900;  298.000;  406.000
294.342;   21.700;   74.000;  156.000
294.481; 6228.700;51180.000; -836.000
294.619;  -31.200; -425.000; -582.000
294.758; -159.550;-1230.000;-1137.000
294.896;   50.800; -125.000;    5.000
295.035; -128.725;-1040.000;-1006.000
295.174; -116.450;-1082.000; -954.000
295.312;  -42.450; -323.000; -203.000
295.451;  -26.825; -307.000; -428.000
295.589;  -62.825; -389.000; -518.000
295.728;   17.650; -292.000; -165.000
295.866;    5.000;  -36.000;  -51.000
296.005;  -58.850; -584.000; -341.000
296.143;  -74.100; -558.000; -596.000
296.282; -117.900; -957.000; -881.000
296.420;  -89.125; -657.000; -557.000
296.559;  -94.450; -892.000; -633.000
296.697;    2.850; -847.000; -665.000
296.835;   12.550;-1141.000;-1002.000
296.974;   47.150;  -23.000;   39.000
297.112;   -6.200; -443.000; -504.000
297.251;  -92.700; -815.000; -755.000
297.389;   65.150; -576.000; -438.000
297.527;   50.525; -145.000;  -83.000
297.666;  -73.250; -486.000; -438.000
297.804;  -52.125; -404.000; -264.000
297.942;   -2.700; -136.000; -161.000
298.081;    4.050; -183.000;   63.000
298.219;   62.750;  -17.000;  -19.000
298.357;   39.975; -144.000;  -71.000
298.495;    5.750; -810.000; -812.000
298.634;   69.700;  245.000;  219.000
298.772;   39.300; -220.000; -338.000
298.910;  -41.000; -309.000; -182.000
299.048;  -15.875; -130.000; -153.000
299.187;  -34.575; -350.000; -250.000
299.325;    6.800;   52.000;  122.000
299.463;   24.700; -389.000; -299.000
299.601;   79.450; -327.000; -271.000
299.739; -121.575; -908.000; -883.000
299.877;  -85.325; -791.000; -703.000
300.016;  -57.975;-1095.000; -935.000
300.154;  124.250;  -19.000; -161.000
300.292;   26.125; -428.000; -348.000
300.430;    2.350; -408.000; -291.000
300.568;  -96.500; -940.000; -874.000
300.706;  -56.250; -366.000; -469.000
300.844;  -97.200;-1108.000; -979.000
300.982;   95.675;  246.000;  282.000
301.120; -114.175; -965.000; -866.000
301.258;  -77.175; -812.000; -705.000
301.396;   27.550;  104.000;  -41.000
301.534;   47.150; -218.000; -293.000
301.672;  -13.775; -664.000; -521.000
301.810;   18.225; -613.000; -545.000
301.948;   85.925;   53.000;  149.000
302.086;  513.375; -250.000;  -32.000
302.224;  796.250; -610.000; -585.000
302.362;   12.350; -558.000; -622.000
302.500;  -42.650; -923.000; -893.000
302.638;   91.075;  128.000;  245.000
302.776;  -12.750; -352.000; -408.000
302.913;   44.925;  447.000;  236.000
303.051;  -20.800;  -86.000;  -23.000
303.189;   41.575;   90.000;  118.000
303.327;  -41.075; -341.000; -256.000
303.465;  -74.925; -832.000; -588.000
303.603; -104.075; -805.000; -604.000
303.740;   98.925;  417.000;  241.000
303.878;  -14.675; -800.000; -759.000
304.016;  -94.625; -915.000; -790.000
304.154; -139.550;-1123.000;-1152.000
304.291;  -43.275; -505.000; -554.000
304.429;    3.200;  102.000;   74.000
304.567; -129.925; -908.000; -893.000
304.705;  -57.175; -408.000; -515.000
304.842;   63.075; -616.000; -540.000
304.980;   54.450;  215.000;   35.000
305.118;   25.150; -367.000; -365.000
305.255;  -90.400; -945.000; -927.000
305.393;   53.075;  178.000;  239.000
305.531; -118.850;-1173.000; -956.000
305.668;  -70.625; -663.000; -582.000
305.806;   79.975; -358.000; -439.000
305.943;   71.675; -629.000; -637.000
306.081;   52.200; -378.000; -267.000
306.219; -102.875; -863.000; -748.000
306.356;   10.275;  158.000;   27.000
306.494;   99.625;  981.000;  761.000
306.631;   -9.925;  -11.000;  -55.000
306.769;  -18.300; -613.000; -485.000
306.906;  -27.425; -284.000; -258.000
307.044;  -65.700; -473.000; -488.000
307.181;  -46.550; -410.000; -332.000
307.319;   -7.850;  112.000;   87.000
307.456; -169.050;-1191.000;-1153.000
307.594;  -96.475; -980.000; -727.000
307.731;  -25.575; -371.000; -164.000
307.868;   -7.625;  -15.000;   20.000
308.006; -133.850; -961.000; -847.000
308.143;  -69.675; -618.000; -330.000
308.281;   94.650;  -37.000; -254.000
308.418;  -41.225; -748.000; -640.000
308.555;  -82.425; -400.000; -250.000
308.693;  -80.325; -577.000; -573.000
308.830; -105.025; -712.000; -657.000
308.967;   -3.625; -215.000;  -95.000
309.105;  -45.450; -507.000; -396.000
309.242;   12.550; -468.000; -367.000
309.379;  176.275; -577.000; -655.000
309.517;  -82.875; -936.000; -948.000
309.654; -110.125; -910.000; -734.000
309.791;  -69.925; -662.000; -580.000
309.928; -123.175; -977.000; -914.000
310.065;  166.325;  819.000;  697.000
310.203;  -42.625; -825.000; -850.000
310.340;  -12.175; -465.000; -321.000
310.477;  -87.875; -412.000; -516.000
310.614;  -75.125; -383.000; -473.000
310.751;  -78.250; -427.000; -518.000
310.889;  -20.675;    1.000;   11.000
311.026; -156.350;-1161.000; -939.000
311.163;  -42.200; -386.000; -380.000
311.300;  -75.350; -512.000; -479.000
311.437;  -87.175; -658.000; -619.000
311.574; -156.575;-1226.000; -985.000
311.711;  -52.375; -595.000; -433.000
311.848;  -35.225; -380.000; -388.000
311.985;    5.900;  270.000;   93.000
312.122; -119.300; -932.000; -762.000
312.259; -123.475; -941.000; -994.000
312.396;  -99.975; -508.000; -551.000
312.533;  -96.375; -812.000; -790.000
312.670; -136.650;-1070.000; -898.000
312.807;  -50.100; -352.000; -367.000
312.944;  -72.525; -513.000; -611.000
313.081;  -39.850; -150.000; -415.000
313.218; -102.025;-1111.000; -867.000
313.355;    5.000; -531.000; -449.000
313.492;   -4.325; -455.000; -292.000
313.629;  121.500;  815.000;  735.000
313.766; -162.000;-1176.000;-1008.000
313.902;   -8.600; -186.000;   21.000
314.039;  -55.150; -372.000; -289.000
314.176;   23.950;  286.000;  192.000
314.313;  -71.750; -569.000; -473.000
314.450;  -71.375; -788.000; -684.000
314.587;  -66.400; -468.000; -480.000
314.723;    5.425;  -78.000;  130.000
314.860;   26.875;  318.000;  332.000
314.997;   27.875;  223.000;  142.000
315.134;  -46.600; -385.000; -368.000
315.270;  -32.600; -480.000; -496.000
315.407; -125.450;-1094.000; -967.000
315.544;  -68.575; -657.000; -538.000
315.681;  -75.250; -681.000; -565.000
315.817;    9.625; -133.000; -176.000
315.954;   19.025; -613.000; -392.000
316.091; -129.850;-1045.000;-1023.000
316.227;  -22.750;  -71.000; -179.000
316.364;   -3.675;   23.000;    6.000
316.500;  -46.600; -113.000; -300.000
316.637;  -48.075; -181.000; -302.000
316.774;  -86.875; -625.000; -358.000
316.910;  -99.425; -598.000; -629.000
317.047;  -64.275; -487.000; -351.000
317.183;  -60.150; -435.000; -566.000
317.320;   -3.475; -367.000; -321.000
317.456;  -66.275; -733.000; -805.000
317.593; -103.725; -598.000; -641.000
317.729;    9.025;  168.000;  -67.000
317.866; -200.025;-1434.000;-1285.000
318.002;  -99.025; -708.000; -948.000
318.139; -113.700; -883.000; -867.000
318.275; -114.175;-1003.000; -738.000
318.412;  -70.200; -517.000; -336.000
318.548;  -43.825; -751.000; -720.000
318.685; -108.275; -985.000; -888.000
318.821; -101.925; -762.000; -735.000
318.957;  -14.575;   34.000;  -23.000
319.094;   44.950;  297.000;  154.000
319.230;  -81.200; -756.000; -742.000
319.367;  103.500; -471.000; -520.000
319.503;   22.925; -538.000; -436.000
319.639; -105.275; -877.000; -793.000
319.775;  -74.125; -750.000; -685.000
319.912;  -40.825; -424.000; -519.000
320.048; -100.525;-1184.000;-1184.000
320.184;   77.125;   59.000;   70.000
320.321;  -58.475; -497.000; -467.000
320.457;   68.850;  475.000;  662.000
320.593;  -59.600; -375.000; -382.000
320.729; -107.250; -732.000; -734.000
320.866;  -81.575; -577.000; -635.000
321.002;  -75.500; -759.000; -809.000
321.138;  -18.500; -135.000; -211.000
321.274;   60.950; -148.000; -115.000
321.410;  -32.600; -585.000; -353.000
321.546;  -59.475;-1011.000; -911.000
321.683;   47.375;  400.000;  185.000
321.819;  -14.125;  -48.000; -117.000
321.955; -110.475; -743.000; -722.000
322.091;  -42.775; -585.000; -540.000
322.227;  -30.350; -382.000; -202.000
322.363;  -18.025; -320.000; -215.000
322.499;  -45.200; -343.000; -331.000
322.635;  152.725;  636.000;  443.000
322.771;    7.150; -139.000;   12.000
322.907;   84.550;  129.000;  327.000
323.043;  -29.825; -115.000; -206.000
323.179;  -49.600; -394.000; -363.000
323.315;    0.925; -401.000; -371.000
323.451;   69.975; -328.000; -236.000
323.587;   60.400;  -60.000;  -77.000
323.723;  -11.325; -682.000; -601.000
323.859;  -27.250; -258.000;  -76.000
323.995;  -53.950; -467.000; -409.000
324.131; -132.425; -967.000; -892.000
324.267;  -30.275; -254.000; -276.000
324.402; -134.725; -960.000; -983.000
324.538;  -28.075; -279.000; -104.000
324.674;   22.400;  164.000;   77.000
324.810;   96.975;  226.000;  308.000
324.946;  -17.575; -810.000; -658.000
325.082;  -76.400; -568.000; -475.000
325.217;   -3.800;  -62.000;   16.000
325.353; -117.350; -764.000; -659.000
325.489;  -86.650; -540.000; -506.000
325.625;  -68.625; -579.000; -525.000
325.760;   53.850;  517.000;  376.000
325.896;  -32.450; -515.000; -702.000
326.032;  -49.975; -403.000; -352.000
326.168;  -63.600; -462.000; -369.000
326.303;  -63.700; -352.000; -461.000
326.439;  -14.650; -336.000; -276.000
326.575;    3.825; -190.000;  -29.000
326.710;   -8.200; -156.000;  -30.000
326.846;    0.950;  146.000;  103.000
326.982;  -96.000; -530.000; -548.000
327.117;  -95.325; -481.000; -442.000
327.253;  -88.475; -745.000; -742.000
327.388; -146.550;-1137.000;-1153.000
327.524;  -62.100; -811.000; -578.000
327.659;  -28.300;  -58.000;  -22.000
327.795;   -6.600;   69.000;   45.000
327.931;  -83.575; -723.000; -499.000
328.066;  -32.850; -417.000; -276.000
328.202;  -19.800;   12.000; -129.000
328.337;   98.025;  957.000;  713.000
328.473;   43.175;  -12.000;  -74.000
328.608;  -15.675; -256.000; -267.000
328.743;  -91.075; -799.000; -664.000
328.879;   16.000;  214.000;  114.000
329.014;  -44.375; -102.000; -122.000
329.150;  -88.300; -358.000; -483.000
329.285;  -83.525; -465.000; -466.000
329.421;  -50.825; -548.000; -246.000
329.556;  -21.550;  -36.000;   85.000
329.691; -102.350; -633.000; -615.000
329.827;  -82.925; -626.000; -480.000
329.962;  -44.475;  131.000; -301.000
330.097;  -99.800; -673.000; -585.000
330.233;  -55.875; -410.000; -223.000
330.368; -135.875; -839.000; -628.000
330.503;  -18.725;    3.000;   98.000
330.638;   -0.700;  -93.000; -125.000
330.774;  -59.650; -609.000; -530.000
330.909;  -46.050; -434.000; -244.000
331.044; -109.400; -714.000; -708.000
331.179; -171.125;-1217.000;-1109.000
331.315;   12.600;   77.000;   20.000
331.450;    4.150;  157.000;  285.000
331.585;  -85.325; -805.000; -706.000
331.720;  -81.725; -510.000; -460.000
331.855;   -2.925;  -35.000; -102.000
331.990;  265.325;   62.000;  138.000
332.126;  136.475; -110.000;   71.000
332.261;  -28.250; -379.000; -265.000
332.396;   -5.800; -135.000; -242.000
332.531;  -88.175;-1074.000;-1031.000
332.666;   31.275; -519.000; -363.000
332.801;  -99.425; -726.000; -807.000
332.936;  -10.575; -192.000; -122.000
333.071; -158.825; -870.000; -817.000
333.206;    9.300;  307.000;  379.000
333.341;   25.075;  344.000;  418.000
333.476;  -98.975; -627.000; -623.000
333.611;  -42.750; -251.000; -173.000
333.746;  -59.325; -381.000; -464.000
333.881; -122.250; -973.000; -935.000
334.016; -140.250; -936.000; -917.000
334.151; -126.850; -746.000; -702.000
334.286;   21.500;  152.000;  186.000
334.421;  -15.725; -125.000; -178.000
334.556;  -92.500; -611.000; -567.000
334.690;  -90.600; -631.000; -577.000
334.825;   53.175;  381.000;   83.000
334.960;  -72.875; -285.000; -413.000
335.095;   -5.550;  135.000;  -91.000
335.230; -117.900; -722.000; -738.000
335.365; -132.425;-1084.000; -990.000
335.499; -136.475;-1108.000;-1037.000
335.634;   21.075;    9.000;  534.000
335.769; -102.650; -755.000; -720.000
335.904;  -67.450; -603.000; -561.000
336.038;  -63.375; -735.000; -657.000
336.173; -140.325;-1206.000;-1194.000
336.308;   -4.425; -116.000; -189.000
336.443;   35.700; -544.000; -634.000
336.577;  -83.975; -936.000; -787.000
336.712;   50.950;   -4.000;  -12.000
336.847;  -46.000; -724.000; -607.000
336.981;   32.950; -272.000; -208.000
337.116;  260.850;  615.000;  501.000
337.250;  125.750; -434.000; -421.000
337.385;  261.000; -297.000; -208.000
337.520;  100.500; -632.000; -603.000
337.654;  -29.075; -215.000; -126.000
337.789; -130.200; -989.000; -933.000
337.923;  -26.300; -104.000; -205.000
338.058;  -96.500; -673.000; -738.000
338.192;  -36.550; -611.000; -488.000
338.327;  -17.350;  -18.000; -155.000
338.461;  -65.100; -299.000; -469.000
338.596;  -95.825; -780.000; -638.000
338.730; -107.200; -767.000; -803.000
338.865;   79.475;  -46.000; -140.000
338.999;  -46.775; -846.000; -702.000
339.134;  -31.875; -634.000; -536.000
339.268;   -1.800; -741.000; -603.000
339.403;  375.225; -740.000; -775.000
339.537;  131.425; -894.000; -820.000
339.671; -129.325; -829.000; -813.000
339.806;  -56.225; -556.000; -512.000
339.940;   21.625; -261.000; -235.000
340.074; -107.175; -685.000; -510.000
340.209;  -42.250; -351.000; -230.000
340.343; -103.825; -517.000; -573.000
340.477;  151.850;  998.000; 1036.000
340.612;  -48.050;-1033.000; -900.000
340.746;  143.100; -199.000; -243.000
340.880;  -90.175; -924.000; -785.000
341.014;  -34.175;  -45.000; -154.000
341.149; -102.675; -756.000; -718.000
341.283; -119.850; -839.000; -754.000
341.417; -122.825;-1124.000; -938.000
341.551;   86.925; -768.000; -708.000
341.685;  -40.675; -633.000; -611.000
341.820;  -61.925; -562.000; -493.000
341.954;  -61.325; -218.000; -349.000
342.088; -152.125;-1102.000;-1019.000
342.222;   64.600;  565.000;  618.000
342.356;  -67.950; -395.000; -335.000
342.490; -101.275; -880.000; -841.000
342.624;  -51.575; -339.000; -242.000
342.758;  -14.175; -364.000; -312.000
342.892;  -79.500; -710.000; -585.000
343.026;  -42.875;  -58.000; -116.000
343.160;  -61.975; -426.000; -376.000
343.294;  -80.275; -474.000; -337.000
343.428;  -37.425; -488.000; -448.000
343.562;  -24.675; -172.000;  -23.000
343.696;  -29.775; -385.000; -314.000
343.830;  -20.750; -362.000; -356.000
343.964;  -15.425; -231.000; -168.000
344.098;  759.000;  199.000;   70.000
344.232;  624.425; -266.000; -127.000
344.366;   73.375; -567.000; -453.000
344.500;   30.400; -665.000; -744.000
344.634;   12.400; -324.000; -164.000
344.768;  -26.600; -531.000; -341.000
344.902;   31.875;  278.000;  256.000
345.035;  -68.950; -556.000; -496.000
345.169; -123.800; -933.000; -656.000
345.303;  -38.175; -308.000; -482.000
345.437;  -84.675; -826.000; -717.000
345.571;  -73.225; -675.000; -594.000
345.704;  -69.050; -309.000; -532.000
345.838;  -14.525; -331.000; -284.000
345.972;  -38.925; -543.000; -495.000
346.106;  171.800; -179.000; -190.000
346.239;  402.950; -312.000; -243.000
346.373;    2.850; -343.000; -302.000
346.507; -139.075; -950.000; -962.000
346.640;  128.800;  -30.000;   13.000
346.774;  -63.350; -650.000; -797.000
346.908;  -14.500; -138.000;  -11.000
347.041;  -92.450; -646.000; -593.000
347.175;   -8.725;  259.000;   27.000
347.309;  -89.625; -698.000; -628.000
347.442;  -99.000; -883.000; -732.000
347.576;  245.900;  670.000;  668.000
347.709;  155.875; -123.000;  -52.000
347.843; -100.500; -933.000; -825.000
347.976;   29.050;  235.000;  294.000
348.110; -182.675;-1268.000;-1186.000
348.243; -113.500; -679.000; -772.000
348.377;   -3.100;  -26.000;   60.000
348.510;   66.725;  403.000;  540.000
348.644;  -44.000;  -37.000; -159.000
348.777;    2.450;  180.000;  191.000
348.911;  -47.075; -142.000; -112.000
349.044;  142.350;  471.000;  448.000
349.178;   91.450;-1069.000;-1006.000
349.311;  105.975;  141.000;  255.000
349.444;  -15.800; -927.000; -813.000
349.578;  -22.750; -347.000; -200.000
349.711; -119.975; -959.000; -862.000
349.845;  -17.625; -661.000; -591.000
349.978; -162.925;-1224.000;-1137.000
350.111;  -86.775; -546.000; -612.000
350.244;  -85.050; -596.000; -700.000
350.378;  -18.100; -392.000; -393.000
350.511;  -74.000; -393.000; -426.000
350.644; -113.150; -808.000; -806.000
350.778;    1.675;  168.000;  104.000
350.911;   10.250;  134.000;  140.000
351.044; -101.075; -685.000; -615.000
351.177;  -37.000; -321.000; -281.000
351.310;  -22.775;    3.000; -131.000
351.444;  -91.600; -888.000; -788.000
351.577;  100.025;  140.000;   90.000
351.710;  100.800;  593.000;  417.000
351.843;  -39.975; -165.000;  -77.000
351.976;   -1.850;  149.000;  -79.000
352.109; -109.425; -621.000; -612.000
352.242;  -36.500; -464.000; -419.000
352.376;  -69.675; -580.000; -636.000
352.509;  133.900; -437.000; -356.000
352.642;  -16.975; -654.000; -604.000
352.775;   56.375; -141.000;  -98.000
352.908; -133.400; -933.000; -904.000
353.041; -102.050; -814.000; -824.000
353.174;  -66.700; -551.000; -424.000
353.307;  -89.225; -753.000; -764.000
353.440;   54.350;  541.000;  453.000
353.573; -117.700; -957.000;-1008.000
353.706;  -32.400; -384.000; -558.000
353.839;  -23.800; -264.000; -220.000
353.971;  -90.650; -657.000; -512.000
354.104;  -91.025; -896.000; -835.000
354.237;  -55.150; -627.000; -662.000
354.370;  -93.225; -846.000; -879.000
354.503; -187.050;-1231.000;-1308.000
354.636;  -41.375; -529.000; -348.000
354.769; -127.150; -937.000; -860.000
354.902;  -15.675; -230.000; -139.000
355.034;  -19.950; -164.000; -220.000
355.167;  -19.075; -262.000; -162.000
355.300;  -97.200;-1061.000; -880.000
355.433; 1016.325;  -71.000;  -14.000
355.565; 1528.900; -402.000; -384.000
355.698;  372.600; -356.000; -296.000
355.831;  -16.825; -882.000; -801.000
355.964;   64.875; -285.000; -170.000
356.096;  -87.750; -856.000; -843.000
356.229;  -13.175; -523.000; -530.000
356.362;  331.575; -373.000; -266.000
356.494;  597.850; -229.000; -162.000
356.627;  416.600;  269.000;  377.000
356.760;  654.850;  120.000;   53.000
356.892;  978.975; -286.000; -601.000
357.025;  568.925;  403.000;  389.000
357.157;  501.375; -167.000; -179.000
357.290;  704.225; -856.000; -713.000
357.423;  185.200; -667.000; -556.000
357.555;  101.425; -217.000; -228.000
357.688;   97.000; -483.000; -364.000
357.820;  391.325; -870.000; -877.000
357.953; 3260.200; -563.000; -589.000
358.085;  657.975; -632.000; -612.000
358.218;  864.300;-1131.000; -932.000
358.350;  175.875;  -58.000;  312.000
358.483; -142.000;-1300.000;-1187.000
358.615;  -52.650;-1182.000;-1078.000
358.747;  -87.075;-1187.000;-1058.000
358.880;   -3.525; -810.000; -744.000
359.012;  -10.175; -376.000; -202.000
359.145;  -54.200; -480.000; -511.000
359.277;   40.875; -962.000; -913.000
359.409; 2665.450;  536.000;  231.000
359.542;  677.350; -738.000; -688.000
359.674;   65.975;   46.000;   13.000
359.806;  -71.750; -565.000; -438.000
359.939;  -39.375; -617.000; -516.000
360.071;  -16.600; -583.000; -579.000
360.203;  -24.300; -411.000; -364.000
360.335;   56.750;  164.000;  -16.000
360.468;  172.550; -249.000; -307.000
360.600; 2198.050; -547.000; -454.000
360.732; 2922.275; -546.000; -423.000
360.864;  372.100;-1216.000;-1044.000
360.996;  205.925; -516.000; -554.000
361.129;   31.800; -389.000; -598.000
361.261;   21.825;  110.000; -113.000
361.393;  -29.450; -252.000; -214.000
361.525;   25.350;   94.000;  244.000
361.657;  -61.225; -821.000; -703.000
361.789;    0.175; -139.000; -155.000
361.921;  149.850; -642.000; -593.000
362.053;  214.625;  524.000;  541.000
362.185;   45.425;  288.000;   72.000
362.318;  -99.175; -709.000; -705.000
362.450;   95.925;  294.000;  444.000
362.582;   29.900; -913.000; -870.000
362.714;  -49.475; -353.000; -332.000
362.846;  -92.625; -606.000; -490.000
362.978; -150.350; -941.000; -811.000
363.109;    9.550; -161.000; -260.000
363.241;  356.700; -739.000; -749.000
363.373;  425.900; -649.000; -564.000
363.505;  686.925; -186.000;  -91.000
363.637;  156.425; -787.000; -601.000
363.769; -128.675;-1067.000;-1080.000
363.901;  -64.525; -596.000; -654.000
364.033; -134.150;-1103.000;-1062.000
364.165;   -7.875; -283.000; -283.000
364.296;   63.600; -316.000; -177.000
364.428;   73.500;-1344.000;-1220.000
364.560;  -67.375; -679.000; -661.000
364.692;  -62.875; -738.000; -835.000
364.824;  179.975; -588.000; -456.000
364.955;  426.950; -402.000; -564.000
365.087;  994.825;-1097.000; -852.000
365.219;   32.575; -686.000; -816.000
365.351;  -69.625; -526.000; -572.000
365.482;   29.875;  300.000;  240.000
365.614;  -44.775; -402.000; -314.000
365.746; -101.250; -729.000; -752.000
365.877;  -96.775; -706.000; -672.000
366.009;  272.775;  -35.000;  -62.000
366.141;  -92.600;-1249.000;-1134.000
366.272; -113.550; -803.000; -719.000
366.404; -129.550;-1005.000; -874.000
366.535;   -2.225; -139.000;  -12.000
366.667;  -98.950; -644.000; -649.000
366.799;   33.150;  353.000;  203.000
366.930; -129.850; -862.000; -996.000
367.062;  100.050; -639.000; -613.000
367.193;  142.100; -872.000; -842.000
367.325;  -56.150; -580.000; -684.000
367.456;   49.575; -246.000;   31.000
367.588;  159.575; -371.000; -318.000
367.719;   17.100;  -44.000;  -45.000
367.851;  -18.175; -222.000; -241.000
367.982;  -66.475; -875.000; -732.000
368.113;   62.700; -475.000; -358.000
368.245; -134.000; -960.000; -841.000
368.376;  -30.600; -254.000; -302.000
368.508;  -41.025; -188.000; -263.000
368.639; -145.175;-1166.000;-1034.000
368.770;  -36.725; -670.000; -589.000
368.902;  -77.800; -836.000; -926.000
369.033; -119.375; -906.000; -855.000
369.164;  -51.625; -720.000; -653.000
369.296; -105.700; -452.000; -601.000
369.427;   -5.925; -209.000; -144.000
369.558;  -58.175; -593.000; -377.000
369.689;  -83.450; -721.000; -569.000
369.821; -127.550; -951.000; -845.000
369.952;  -15.850;   42.000; -108.000
370.083;  -44.025; -229.000; -108.000
370.214;  -93.650; -735.000; -650.000
370.345;   -4.150;   65.000;   81.000
370.477; -100.925; -810.000; -790.000
370.608;  189.775; -328.000; -264.000
370.739;  -82.000;-1233.000;-1292.000
370.870;  -77.025;-1102.000; -923.000
371.001;   61.600; -378.000; -467.000
371.132;  -86.900; -754.000; -735.000
371.263;  -11.625;  -42.000; -148.000
371.394; -138.300; -841.000; -748.000
371.525;   38.075;  345.000;  225.000
371.657;  -97.650; -808.000; -670.000
371.788;   65.175;  103.000;  199.000
371.919;  123.275; -384.000; -304.000
372.050; 3096.400;  -91.000; -156.000
372.181;  902.675; -188.000; -294.000
372.311;  304.050;   42.000; -127.000
372.442;    8.675; -457.000; -451.000
372.573;  -28.700; -444.000; -340.000
372.704; -118.450;-1008.000; -980.000
372.835;   55.475; -228.000; -289.000
372.966;  -70.100; -646.000; -554.000
373.097;  -91.450; -575.000; -711.000
373.228;  -48.775; -717.000; -542.000
373.359;   87.250; -824.000; -536.000
373.490;  751.600; -881.000; -727.000
373.620;  922.150;-1001.000; -803.000
373.751; 1479.325; -332.000; -396.000
373.882;  636.375; -663.000; -733.000
374.013;   42.875; -449.000; -262.000
374.143;  -54.950; -581.000; -659.000
374.274; -106.975; -987.000; -908.000
374.405;  141.425; -388.000; -276.000
374.536;  364.250; -526.000; -387.000
374.666;  903.325; -759.000; -807.000
374.797;  155.875; -817.000; -868.000
374.928;  677.200; -710.000; -560.000
375.058;  718.325; -535.000; -500.000
375.189;   59.275;  -59.000;  -93.000
375.320; -114.900; -928.000;-1034.000
375.450;  -44.075; -625.000; -616.000
375.581;  -34.675; -526.000; -436.000
375.712;  -36.250; -574.000; -250.000
375.842;  235.675; -438.000; -415.000
375.973;  156.450; -554.000; -513.000
376.103;  -58.275; -665.000; -648.000
376.234;  -71.200; -531.000; -552.000
376.364;  -62.275; -944.000; -867.000
376.495;  285.275;  925.000;  529.000
376.625;  -28.150; -472.000; -485.000
376.756;   28.025; -709.000; -678.000
376.886;  -97.100;-1178.000;-1026.000
377.017;   46.025;-1048.000;-1061.000
377.147;  364.225; -786.000; -782.000
377.278;   77.500;  174.000;  228.000
377.408; -137.975; -801.000; -815.000
377.538; -112.100; -707.000; -693.000
377.669;  -80.525; -537.000; -613.000
377.799;  -86.250; -645.000; -635.000
377.929;  -70.725; -610.000; -428.000
378.060; -124.850; -781.000; -847.000
378.190;  -57.825; -726.000; -531.000
378.320;  -52.000; -401.000; -406.000
378.451;  -14.725; -131.000;  -22.000
378.581;  -24.300;  -67.000; -110.000
378.711;  138.675; 1035.000;  866.000
378.841;  -43.625; -533.000; -675.000
378.972;  -82.850; -871.000; -751.000
379.102;  -31.225; -652.000; -579.000
379.232;  -15.750; -126.000;  -73.000
379.362; -112.850;-1001.000; -885.000
379.492;  -20.675; -373.000; -424.000
379.623;  100.300;    0.000;  111.000
379.753; -108.250;-1107.000; -974.000
379.883;  166.875;   59.000;  156.000
380.013;  -25.425;-1081.000;-1017.000
380.143; -112.150;-1097.000;-1056.000
380.273; -110.925; -985.000; -861.000
380.403;   -5.475; -344.000; -257.000
380.533;  -45.650; -651.000; -664.000
380.663;   59.725;  173.000;  128.000
380.793; -121.800;-1027.000;-1074.000
380.923;  -28.525; -103.000;  -34.000
381.053; -109.950; -613.000; -623.000
381.183;  -31.875; -106.000; -248.000
381.313;    3.450; -656.000; -470.000
381.443;   17.275; -692.000; -473.000
381.573;  135.900; -402.000; -409.000
381.703;  169.350;-1249.000;-1095.000
381.833; -142.225;-1454.000;-1336.000
381.963;   91.900; -134.000;  -87.000
382.093; 1191.950; -925.000; -909.000
382.223;  334.500; -713.000; -602.000
382.353;  -33.825; -801.000; -608.000
382.482;  267.500;-1091.000; -964.000
382.612;  642.875; -872.000; -644.000
382.742;  330.500; -695.000; -622.000
382.872;  181.100; -565.000; -551.000
383.002;   40.350;  347.000; -132.000
383.131;   -8.275; -226.000; -160.000
383.261;  -58.800; -706.000; -768.000
383.391;  288.425; -552.000; -377.000
383.521; 3368.650;  451.000;  263.000
383.650;  764.900; -947.000; -904.000
383.780;  -20.075; -783.000; -656.000
383.910;  110.150;  880.000;  802.000
384.039;   -7.575; -794.000; -656.000
384.169;  119.350;-1205.000;-1017.000
384.299;  -37.025; -650.000; -662.000
384.428; -112.150; -764.000; -680.000
384.558;  -49.250; -308.000; -275.000
384.687;  -47.025; -414.000; -334.000
384.817;    5.700;   75.000;   -2.000
384.947;    9.225; -234.000; -141.000
385.076;  254.125;  982.000;  912.000
385.206;   79.700;  369.000;  480.000
385.335;  -55.450; -549.000; -417.000
385.465; -102.300; -655.000; -663.000
385.594;  106.825;  -53.000;  -44.000
385.724;  325.075; -868.000; -838.000
385.853;   99.725; -296.000; -270.000
385.982; 1133.150; -743.000; -787.000
386.112; 1742.850;-1052.000; -871.000
386.241;  105.700; -307.000; -312.000
386.371;   10.775; -174.000;  -87.000
386.500;  -33.625; -825.000; -789.000
386.629;    7.350; -874.000; -817.000
386.759;   50.325;  -43.000;   68.000
386.888;  -15.575; -170.000; -250.000
387.017;  -85.550; -648.000; -620.000
387.147; -100.025; -771.000; -798.000
387.276;  -16.000; -410.000; -397.000
387.405;    6.050; -398.000; -342.000
387.535;  -54.725; -452.000; -361.000
387.664;  -60.950; -692.000; -620.000
387.793;   42.100; -198.000; -113.000
387.922;  435.650;  255.000;  200.000
388.052;  -13.275; -576.000; -423.000
388.181;  -22.375; -342.000; -472.000
388.310;  -43.300; -889.000; -710.000
388.439;  -68.525; -749.000; -742.000
388.568;  140.450;  365.000;  244.000
388.697;  846.875; -756.000; -653.000
388.826;  147.800; -768.000; -666.000
388.956;   38.975; -285.000; -307.000
389.085;  -33.850; -347.000; -287.000
389.214; -118.525; -842.000; -872.000
389.343;  -67.850; -645.000; -413.000
389.472;  426.250;  126.000;  149.000
389.601;  491.525;   91.000;    0.000
389.730;  -13.100; -568.000; -687.000
389.859;   40.975;  226.000;   46.000
389.988;  126.050; -423.000; -408.000
390.117;  113.850; -168.000; -146.000
390.246;  -26.700; -331.000; -320.000
390.375;   52.525; -673.000; -626.000
390.504;  -61.250; -703.000; -621.000
390.633; -103.925; -672.000; -726.000
390.761;  -84.475; -732.000; -645.000
390.890;   18.150;   -4.000; -130.000
391.019;  -50.425; -421.000; -441.000
391.148; -132.775; -826.000; -855.000
391.277;  -80.150; -576.000; -493.000
391.406; -100.100; -821.000; -805.000
391.534;   25.425;  574.000; -301.000
391.663;  -69.650; -583.000; -645.000
391.792;  -85.775; -673.000; -701.000
391.921;   64.800;   -3.000;   15.000
392.050;  132.625; -287.000; -228.000
392.178;  -68.600;-1206.000;-1061.000
392.307;   98.100; -758.000; -712.000
392.436;   46.575; -427.000; -641.000
392.564;   20.200;  166.000;   -6.000
392.693;  -98.650; -860.000; -682.000
392.822;  147.275; -529.000; -534.000
392.950;   38.625; -880.000; -714.000
393.079;  245.425; -188.000; -328.000
393.208;    9.750; -488.000; -511.000
393.336;  -30.850; -170.000; -145.000
393.465;  -54.000; -317.000; -199.000
393.593;    7.150;   62.000;   79.000
393.722; -155.025;-1121.000; -916.000
393.850;  -28.200; -188.000;  -61.000
393.979; -154.525; -926.000; -805.000
394.107;  -66.250; -517.000; -537.000
394.236;  -41.200; -570.000; -507.000
394.364;  164.250;  383.000;  206.000
394.493;  170.075; -911.000; -767.000
394.621;  -32.625; -955.000; -916.000
394.750;  752.750; -873.000; -923.000
394.878; 3035.375; -247.000; -149.000
395.007; 4026.200; -721.000; -807.000
395.135;  290.000; -790.000; -721.000
395.263;  -86.925;-1038.000;-1040.000
395.392;    3.650;  -25.000; -107.000
395.520; -151.425; -818.000; -679.000
395.648; -116.550; -865.000; -915.000
395.777;  -28.300; -366.000; -405.000
395.905;  -62.675; -449.000; -564.000
396.033;   -6.250;  217.000;  172.000
396.162;  341.575; -399.000; -453.000
396.290;  297.300;  -17.000;   -2.000
396.418;   38.750; -555.000; -514.000
396.546; -100.800; -571.000; -466.000
396.674; -100.600; -850.000; -878.000
396.803;   -1.050;  -72.000;  -23.000
396.931;   63.775; -179.000; -199.000
397.059;   -6.975;-1026.000; -989.000
397.187; -116.575;-1026.000; -975.000
397.315; -136.200; -884.000; -649.000
397.443;  -98.225; -592.000; -443.000
397.572;  -83.025; -578.000; -424.000
397.700;  -42.100; -607.000; -614.000
397.828;  -17.600;  120.000;  -90.000
397.956;  -51.400; -508.000; -478.000
398.084;  -67.475; -767.000; -626.000
398.212;   28.650;  137.000;  124.000
398.340;  -19.000;  -56.000;  159.000
398.468;    5.975; -390.000; -169.000
398.596; -153.575; -993.000; -953.000
398.724; -123.550; -762.000; -767.000
398.852; -169.275;-1024.000; -976.000
398.980;  -75.925; -560.000; -560.000
399.108;  -69.100; -982.000; -735.000
399.236;   26.200;   13.000;    8.000
399.363;   -6.000;  222.000;  196.000
399.491;  -68.650; -404.000; -398.000
399.619; -136.275; -829.000; -800.000
399.747; -112.125; -859.000; -771.000
399.875;   58.550;  220.000;  234.000
400.003;  -57.175; -359.000; -284.000
400.130;  -94.750; -421.000; -341.000
400.258;  -27.700;  -83.000;   38.000
400.386;  -52.825; -352.000; -168.000
400.514;  -44.700; -526.000; -587.000
400.641; -100.050; -928.000; -802.000
400.769; -148.625; -979.000; -888.000
400.897; -129.050; -838.000; -793.000
401.025;  -29.050; -166.000; -152.000
401.152;    1.175;  220.000;   38.000
401.280;  -80.150; -430.000; -429.000
401.408; -124.350; -712.000; -576.000
401.535; -117.750; -735.000; -758.000
401.663; -195.775;-1134.000;-1054.000
401.790;  -92.050; -514.000; -525.000
401.918;   40.275;  436.000;  405.000
402.046;  -22.725;  134.000;  122.000
402.173;  -33.100;  -18.000;    7.000
402.301;  -86.250; -519.000; -397.000
402.428;   42.200;  528.000;  383.000
402.556; -141.175;-1188.000; -913.000
402.683;  -34.375;  -20.000;   -1.000
402.811;  -16.750;  -37.000; -206.000
402.938;  -17.950;   20.000;   27.000
403.066;  154.750; -574.000; -558.000
403.193;  292.975;  299.000;  239.000
403.321;  206.000; -396.000; -574.000
403.448;  274.775;   83.000;   27.000
403.575;  106.000;  -90.000;  -46.000
403.703; -112.925; -732.000; -557.000
403.830;  -70.650; -531.000; -496.000
403.957; -141.325;-1117.000;-1023.000
404.085;    4.650;  -61.000; -172.000
404.212;   85.025;  -50.000;   63.000
404.339;  271.825; -566.000; -306.000
404.467; 6098.800; -612.000; -524.000
404.594; 3690.150; -287.000; -227.000
404.721;  783.750; -869.000; -764.000
404.848;   81.350; -113.000; -202.000
404.976; -114.525; -856.000; -783.000
405.103;  -14.875;  -14.000;  -82.000
405.230;   -4.950;  190.000;  226.000
405.357;   28.525;  117.000;   44.000
405.484;  277.250;  -49.000;    5.000
405.612;   29.450; -548.000; -563.000
405.739;  -50.300; -488.000; -243.000
405.866;   80.475;  669.000;  385.000
405.993;  -49.800; -398.000; -102.000
406.120; -141.600; -801.000; -887.000
406.247;  -79.950; -323.000; -342.000
406.374;  351.675;  540.000;  629.000
406.501;   52.750; -632.000; -702.000
406.628;  -89.475; -621.000; -589.000
406.755; -108.200; -803.000; -620.000
406.882;  -43.025; -228.000; -277.000
407.009; -114.650; -719.000; -628.000
407.136;   29.600; -480.000; -401.000
407.263;   56.975; -939.000; -829.000
407.390;  -88.575; -692.000; -614.000
407.517; -186.300;-1139.000;-1187.000
407.644;  -59.850; -332.000; -256.000
407.771;  -70.400; -249.000; -287.000
407.898;    5.875;  168.000;  328.000
408.025;  -61.975; -421.000; -313.000
408.151;  -25.500;   82.000;  153.000
408.278;  -69.400; -267.000; -216.000
408.405; -121.600; -931.000; -899.000
408.532;  -83.900; -549.000; -542.000
408.659; -135.975; -677.000; -648.000
408.785; -205.925;-1298.000;-1170.000
408.912;  -72.100; -412.000; -296.000
409.039; -112.050; -610.000; -686.000
409.166; -107.675; -591.000; -555.000
409.292; -111.825; -571.000; -534.000
409.419; -130.475; -665.000; -649.000
409.546;  -86.350; -431.000; -192.000
409.672; -100.625; -713.000; -545.000
409.799;  -30.600;  -36.000;   34.000
409.926;  -29.500; -180.000; -179.000
410.052; -187.425;-1127.000;-1091.000
410.179;  -60.225; -368.000; -392.000
410.305; -100.475; -375.000; -493.000
410.432;  -57.775; -220.000; -333.000
410.558;  -99.650; -305.000; -380.000
410.685; -104.975; -688.000; -431.000
410.812;  -95.700; -409.000; -588.000
410.938; -129.200; -964.000; -808.000
411.065;  -90.500; -671.000; -645.000
411.191;  -28.275; -189.000; -174.000
411.317; -117.525; -823.000; -742.000
411.444;  -65.925; -317.000; -246.000
411.570;  -71.800; -339.000; -294.000
411.697; -132.650; -758.000; -752.000
411.823; -166.850; -989.000; -999.000
411.949;  -40.800;  -56.000;   17.000
412.076; -127.400; -539.000; -519.000
412.202; -131.325; -758.000; -757.000
412.329; -123.650; -798.000; -752.000
412.455; -140.300; -821.000; -657.000
412.581;  -11.300;  -15.000;  172.000
412.707;  -75.100; -540.000; -457.000
412.834;   20.975;  156.000;  219.000
412.960;  -99.475; -785.000; -784.000
413.086; -116.150; -743.000; -701.000
413.212;  133.650;  604.000;  578.000
413.339;  -75.100; -685.000; -701.000
413.465;  -21.300; -364.000; -310.000
413.591; -100.850; -757.000; -474.000
413.717;  -73.550; -358.000; -366.000
413.843; -134.000; -839.000; -861.000
413.969;  -65.225;  -47.000; -292.000
414.096;  -97.250; -679.000; -679.000
414.222;   -2.425;  -33.000;   85.000
414.348;  -49.150; -652.000; -385.000
414.474;   67.425;   38.000;  -52.000
414.600;  -15.550; -126.000; -144.000
414.726;   -3.850;  -96.000;  -55.000
414.852;  -56.025; -365.000; -342.000
414.978;   32.475;  104.000;  -18.000
415.104;   37.175;   38.000;   80.000
415.230;   14.650; -329.000; -330.000
415.356;   23.000; -409.000; -514.000
415.482;  185.950;   13.000;  -35.000
415.608;  263.550; -247.000; -323.000
415.734; 1012.775;   67.000;   38.000
415.860;20662.925; -875.000; -767.000
415.986;14328.075; -685.000; -607.000
416.111; 1185.700; -798.000; -652.000
416.237;  255.100; -424.000; -571.000
416.363; 1210.025; -765.000; -733.000
416.489; 4335.750; -324.000; -251.000
416.615;  433.825; -707.000; -742.000
416.741;  -24.225; -677.000; -784.000
416.866;  -88.225; -673.000; -736.000
416.992; -118.625; -801.000; -818.000
417.118;  -34.400;  -41.000;  -80.000
417.244;  -72.275; -798.000; -531.000
417.369;  -95.800; -801.000; -612.000
417.495;  -14.250; -325.000; -254.000
417.621;  -87.575;-1015.000; -803.000
417.746;    8.275; -579.000; -572.000
417.872;   54.550; -254.000; -144.000
417.998;   67.525; -515.000; -530.000
418.123; 1143.700;-1073.000; -845.000
418.249; 5544.925; -512.000; -601.000
418.374;  729.625; -916.000; -824.000
418.500;  102.875; -383.000; -482.000
418.626;  117.300;   70.000;  -59.000
418.751;  124.575; -549.000; -448.000
418.877;  191.450; -637.000; -643.000
419.002; 1932.475; -688.000; -560.000
419.128;13081.825; -930.000; -721.000
419.253; 3017.400; -967.000; -837.000
419.379;  398.700; -391.000; -338.000
419.504;  405.350;  325.000;  415.000
419.629;  541.000; -393.000; -212.000
419.755; 3903.700; -317.000; -254.000
419.880;22298.200;  -98.000;   67.000
420.006;11953.100; -280.000; -221.000
420.131;29948.150; -662.000; -775.000
420.256; 4095.950; -315.000; -316.000
420.382;  539.325; -665.000; -687.000
420.507;   51.125; -649.000; -778.000
420.632;   99.525; -337.000; -339.000
420.758;  180.000; -251.000; -425.000
420.883;  -87.000; -876.000; -672.000
421.008; -102.175; -775.000; -619.000
421.133;  -82.225; -509.000; -467.000
421.259;  -53.625; -325.000; -259.000
421.384; -123.600; -834.000; -693.000
421.509;  -56.700;-1052.000; -862.000
421.634;  875.000; -936.000; -820.000
421.759;  358.475; -359.000; -327.000
421.885;  -67.475; -717.000; -656.000
422.010;  -76.850; -673.000; -542.000
422.135; -151.650; -695.000; -727.000
422.260;   17.325;  340.000;  280.000
422.385;  -46.075;   12.000;  -98.000
422.510;   17.300;  151.000;  -26.000
422.635;    6.775;  -87.000;  -43.000
422.760;   78.650; -766.000; -791.000
422.885;   50.675;  -57.000;  -80.000
423.010;  -34.700; -112.000; -169.000
423.135; -104.850; -481.000; -561.000
423.260;  -21.725; -150.000; -245.000
423.385;   58.100;  476.000;  222.000
423.510;   30.225;   71.000;  -22.000
423.635;   70.800;  133.000;   45.000
423.760;   45.550;  383.000;  328.000
423.885;   44.300;  336.000;  391.000
424.010;    9.625;  -68.000;  -13.000
424.135;  -16.250;    5.000;  -33.000
424.259;  -85.825; -654.000; -457.000
424.384;  -59.750; -279.000; -272.000
424.509;  -28.225; -260.000; -186.000
424.634;  -96.600; -761.000; -623.000
424.759;  -34.350; -688.000; -544.000
424.883;   -2.900; -506.000; -527.000
425.008;  161.550; -502.000; -410.000
425.133; 2056.950; -679.000; -653.000
425.258;  902.850; -517.000; -381.000
425.382;  910.025; -867.000; -774.000
425.507; 2246.225; -487.000; -543.000
425.632;  384.050; -802.000; -663.000
425.756;  488.675; -256.000; -146.000
425.881; 7229.625; -831.000; -857.000
426.006;18704.850; -604.000; -355.000
426.130; 2738.375; -696.000; -508.000
426.255;  358.325; -611.000; -491.000
426.379;  161.200; -189.000; -577.000
426.504;  392.250;  660.000;  544.000
426.629; 4196.750; -519.000; -466.000
426.753; 2701.825;   64.000;  -46.000
426.878;  310.125; -252.000; -288.000
427.002;  145.225; -651.000; -668.000
427.127; 1680.850;  -35.000; -158.000
427.251;11904.025;  372.000;  401.000
427.375; 3187.500; -191.000; -173.000
427.500; 2035.850; -616.000; -610.000
427.624;  643.250; -234.000; -400.000
427.749;   75.850; -216.000; -225.000
427.873;  -55.875; -499.000; -412.000
427.997;  -53.850; -222.000; -230.000
428.122;   64.600;  795.000;  703.000
428.246;   67.625;  433.000;  434.000
428.371; -134.525; -869.000; -773.000
428.495;  -93.950; -624.000; -646.000
428.619;  -37.925; -186.000; -117.000
428.743;   18.700;   65.000;  132.000
428.868;    4.125; -732.000; -643.000
428.992; 1193.300; -219.000; -326.000
429.116;  444.275; -329.000; -357.000
429.240;  209.675;  419.000;  426.000
429.365;  -32.350; -454.000; -574.000
429.489;  -55.525; -638.000; -647.000
429.613;    8.750; -236.000; -177.000
429.737;   23.975; -563.000; -432.000
429.861;  295.450; -247.000; -133.000
429.985; 5897.600; -425.000; -305.000
430.109; 6149.250; -770.000; -908.000
430.234;  686.800;   76.000;  -50.000
430.358;   57.000; -250.000; -160.000
430.482;  -68.450; -672.000; -564.000
430.606;  -65.750; -655.000; -375.000
430.730;   -1.450; -437.000; -388.000
430.854;   54.825; -909.000; -835.000
430.978;  -91.200; -795.000; -764.000
431.102;  -89.800; -499.000; -422.000
431.226; -127.050; -874.000; -815.000
431.350;   36.925;  345.000;  422.000
431.474;  -86.025; -661.000; -373.000
431.597; -161.300;-1060.000; -848.000
431.721;  -86.875; -276.000; -267.000
431.845; -126.250; -704.000; -472.000
431.969;  -80.400; -304.000; -349.000
432.093;  -93.575; -395.000; -317.000
432.217;  -26.750;   32.000;   82.000
432.341;  -95.400; -523.000; -518.000
432.464;    2.275;   96.000;   40.000
432.588;  127.750; -401.000; -329.000
432.712;   69.350;  -52.000;  -52.000
432.836;   51.050;  213.000;  263.000
432.959;  -10.350; -372.000; -311.000
433.083;   85.825;   11.000;    2.000
433.207;  401.950;  285.000;  930.000
433.330; 5416.025; -391.000; -200.000
433.454; 6392.800; -654.000; -638.000
433.578; 3687.550;  583.000;  278.000
433.701;  632.650; -623.000; -675.000
433.825;  106.125; -292.000; -299.000
433.949;  125.775;   28.000;  -72.000
434.072;   32.250; -410.000; -323.000
434.196;  -21.375; -309.000; -117.000
434.319; 3818.975;25482.000;25124.000
434.443;  727.650; -656.000; -603.000
434.566; 2720.700;  281.000;   62.000
434.690;  425.700; -637.000; -383.000
434.813;   34.225; -251.000; -173.000
434.937;  -86.950; -569.000; -696.000
435.060;  -43.375; -423.000; -332.000
435.184;  203.350; -492.000; -217.000
435.307;  111.275;  159.000;  102.000
435.431;  -22.400;  -40.000;   24.000
435.554;  -86.250; -399.000; -240.000
435.677;  -97.750; -350.000; -258.000
435.801;  -45.950;  -25.000;   49.000
435.924;  -18.500;    1.000;  -67.000
436.048; -137.750;-1019.000; -732.000
436.171;  -75.025; -240.000;  -66.000
436.294;  -34.075; -248.000; -229.000
436.417;   95.775; -963.000; -849.000
436.541;  -88.000; -814.000; -840.000
436.664;  -57.625; -242.000; -316.000
436.787;  -39.075;   13.000;  113.000
436.910; -118.600; -792.000; -422.000
437.034;    2.525;  142.000;  143.000
437.157;   44.200;  -11.000;    0.000
437.280;  -65.300; -392.000; -292.000
437.403; -119.475; -982.000; -869.000
437.526;  449.250; -903.000; -865.000
437.649; 1696.900; -505.000; -332.000
437.772;  208.400; -692.000; -540.000
437.896;   94.825;  700.000;  544.000
438.019; -105.500; -758.000; -503.000
438.142;  -98.375; -596.000; -506.000
438.265;  -48.375; -639.000; -670.000
438.388;  396.375; -520.000; -410.000
438.511;   54.825; -597.000; -394.000
438.634;  -79.450; -247.000; -125.000
438.757; -140.075; -693.000; -619.000
438.880;  -29.325;  -34.000;  -57.000
439.003;  -96.450; -417.000; -437.000
439.126;  -61.825; -287.000; -167.000
439.248;  -66.050;  -98.000; -139.000
439.371;  -43.050;    9.000;  -53.000
439.494;   17.125;  510.000;  439.000
439.617;  -43.150;   65.000;  -88.000
439.740; -186.975; -968.000; -816.000
439.863; -145.475; -755.000; -595.000
439.986; -146.025; -476.000; -431.000
440.108;  -62.400; -161.000; -112.000
440.231; -160.825; -950.000; -836.000
440.354;  -33.850;  -64.000; -150.000
440.477;  -21.050; -566.000; -542.000
440.599;  -41.475; -200.000; -225.000
440.722; -132.375; -709.000; -586.000
440.845;   70.175;  751.000;  928.000
440.968; -121.975; -415.000; -311.000
441.090;  -82.675; -199.000;  -33.000
441.213; -169.525;-1021.000; -825.000
441.336;  -61.675; -159.000;   -5.000
441.458;  -86.975; -549.000; -396.000
441.581;  -97.800; -628.000; -629.000
441.703;  -68.025; -152.000;   13.000
441.826; -120.000; -557.000; -400.000
441.948;  -52.950;   56.000;   51.000
442.071;   35.450;  555.000;  424.000
442.193; -122.025; -531.000; -485.000
442.316;   13.600;  152.000;   97.000
442.438;   28.850; -233.000;  -10.000
442.561;   58.450;  272.000;  262.000
442.683;  397.950; -809.000; -522.000
442.806;  877.175;   -8.000;   74.000
442.928;  -27.025; -859.000; -604.000
443.051;  -87.675; -577.000; -373.000
443.173; -106.225; -341.000; -339.000
443.295; -100.200; -263.000; -371.000
443.418;  -77.850; -321.000;  -29.000
443.540;  -38.425; -106.000;   -4.000
443.662; -130.875; -563.000; -465.000
443.785;  -20.400;  335.000;  199.000
443.907; -117.075; -362.000; -208.000
444.029; -134.200; -767.000; -494.000
444.152; -143.175; -644.000; -554.000
444.274;  -26.025;  -18.000;  -24.000
444.396; -120.625; -461.000; -221.000
444.518; -123.525; -691.000; -454.000
444.640; -109.775; -268.000; -111.000
444.763;  -12.075;  388.000;  249.000
444.885; -115.350; -432.000; -392.000
445.007;  -42.550;   35.000;   86.000
445.129; -120.025; -610.000; -515.000
445.251; -112.975; -372.000; -439.000
445.373; -139.675; -537.000; -386.000
445.495;    8.625;  242.000;  350.000
445.617;   44.400;  853.000;  753.000
445.739;  -66.275; -215.000;  -97.000
445.861;  -37.525; -245.000; -112.000
445.984;  -54.325; -267.000; -101.000
446.105;  142.850; -418.000; -251.000
446.227;  478.100; -176.000;  -19.000
446.349;  -25.000; -358.000; -249.000
446.471; -103.050; -615.000; -448.000
446.593;  -82.825; -316.000;   19.000
446.715;   -4.325;  -67.000;   41.000
446.837;   69.050;  697.000;  832.000
446.959; -103.050; -457.000; -478.000
447.081; -142.300; -628.000; -518.000
447.203;   50.050;  862.000;  834.000
447.325; -103.875; -270.000;   42.000
447.446;   -7.550;  286.000;  530.000
447.568; -155.450; -921.000; -803.000
447.690;  -80.125; -236.000; -245.000
447.812; -152.075; -798.000; -519.000
447.933;  -23.725;  155.000;  127.000
448.055;  -66.100; -306.000; -261.000
448.177;  114.100;   31.000;   79.000
448.299;   30.400; -935.000; -727.000
448.420;   12.250;  -25.000;  159.000
448.542;  -46.925;   -3.000;   33.000
448.664;  -34.425;  109.000;  322.000
448.785;  -54.000;  265.000;   83.000
448.907;  -85.875; -614.000; -353.000
449.028;  -65.450; -771.000; -471.000
449.150;   63.500;  492.000;  589.000
449.272; -193.600;-1044.000; -913.000
449.393;   39.175;  612.000;  694.000
449.515; -151.225; -634.000; -581.000
449.636;  -80.675; -264.000; -155.000
449.758;   84.000;  763.000;  622.000
449.879;  -91.550; -498.000; -396.000
450.001;  -85.500; -149.000;  -49.000
450.122;  -47.150;  -95.000;  162.000
450.244;  -29.075;   37.000;  364.000
450.365;  -81.300; -495.000; -301.000
450.486;  -25.700;   80.000;  268.000
450.608;    9.625;  393.000;  326.000
450.729;   75.450;  578.000;  645.000
450.850;   10.675; -574.000; -466.000
450.972;  832.200; -552.000; -389.000
451.093; 5265.750;  190.000;  588.000
451.214; 2144.150; -516.000; -337.000
451.336;  396.625;  773.000;  579.000
451.457;   58.875;  264.000;  393.000
451.578;  -32.950; -118.000;  -74.000
451.699; -127.650; -546.000; -540.000
451.821;  -73.650; -284.000;  -50.000
451.942;   -2.100;  278.000;  285.000
452.063;   37.125;  228.000;  419.000
452.184;  600.300;  -54.000;  -49.000
452.305; 1112.675;  103.000;  170.000
452.427;  132.750; -549.000; -301.000
452.548;  -26.875;   23.000;   79.000
452.669;  -60.200; -257.000;  -89.000
452.790;  -45.850;    3.000;  -18.000
452.911;  -11.850;  195.000;  259.000
453.032;  -76.450; -289.000;  -60.000
453.153;  -52.175;  -29.000;   81.000
453.274;   53.700;  737.000;  868.000
453.395;  -56.975;  -51.000;  175.000
453.516;  117.625; 1317.000; 1388.000
453.637;  -95.200; -205.000; -150.000
453.758;  -54.450;   15.000;   69.000
453.879; -115.650; -462.000; -250.000
454.000;   76.575; 1086.000;  948.000
454.121; -132.300; -554.000; -326.000
454.242; -123.650; -599.000; -383.000
454.362;  -62.050;  -99.000;  114.000
454.483;  -40.625; -309.000; -229.000
454.604;   35.675;  512.000;  580.000
454.725; -139.775; -627.000; -555.000
454.846; -123.975; -474.000; -406.000
454.967;  -35.275;  230.000;  539.000
455.087;  -47.100;  179.000;  153.000
455.208;   26.575;  554.000;  856.000
455.329;  -54.000;  -22.000;   82.000
455.450;   34.200;  473.000;  633.000
455.570;  -90.200; -234.000; -211.000
455.691;  -41.250;  201.000;  407.000
455.812; -111.000; -270.000;  -92.000
455.932;  -64.900;  107.000;  -97.000
456.053;  -80.450;   36.000;   24.000
456.173; -103.650; -433.000; -355.000
456.294; -130.925; -476.000; -303.000
456.415;  -73.775;  -73.000;   70.000
456.535;  -31.750;  297.000;  273.000
456.656;  -41.575;  132.000;  240.000
456.776;  -68.825;    3.000;  298.000
456.897;   -4.750;  308.000;  513.000
457.017;  -76.200; -153.000;   -3.000
457.138; -118.825; -402.000; -249.000
457.258;  -42.000;  263.000;  224.000
457.379;  -11.375;  509.000;  521.000
457.499;  -22.125;  443.000;  432.000
457.620; -128.850; -407.000; -231.000
457.740;  -97.300; -132.000;  -11.000
457.860;  -66.950;   87.000;   44.000
457.981;  -51.900;  132.000;  124.000
458.101;  -79.150;  -89.000;   40.000
458.221;   -7.800;  336.000;  402.000
458.342;  -59.600;   -4.000;  -37.000
458.462;   43.425;  617.000;  352.000
458.582;  -34.000; -302.000; -294.000
458.703;   17.175;  303.000;  154.000
458.823;  -21.600;   22.000;  163.000
458.943;   20.850;  341.000;  467.000
459.063;  -33.975; 1124.000;  192.000
459.183;  -29.725;  328.000;  313.000
459.304;   -6.800;  315.000;  517.000
459.424;  -57.125; -246.000;  -89.000
459.544;  353.550;  388.000;  764.000
459.664;  877.800;  499.000;  506.000
459.784;  307.100; 1004.000; 1175.000
459.904;   46.125;  867.000;  744.000
460.024;   65.975;  867.000;  684.000
460.144;    0.275;  449.000;  554.000
460.264;   -7.500;  515.000;  327.000
460.385;  -76.250; -145.000; -119.000
460.505;   35.425;  905.000;  858.000
460.625; -101.175;  -17.000;  -68.000
460.745;  -28.900;  396.000;  541.000
460.864;  -49.425;  153.000;  469.000
460.984;   13.950;  499.000;  573.000
461.104;  141.950; 1656.000; 1775.000
461.224;   29.850;  657.000;  650.000
461.344;  -26.100;  431.000;  360.000
461.464;  -45.275;  258.000;  513.000
461.584;  -27.225;  283.000;  466.000
461.704;  -56.000;   58.000;  108.000
461.824;  -60.650;  238.000;  259.000
461.943;  -56.650;  191.000;  130.000
462.063;  -89.375;    2.000;  324.000
462.183;   22.375;  639.000;  717.000
462.303;  104.425; 1678.000; 1230.000
462.422;   23.625;  781.000;  840.000
462.542;  -42.200;  271.000;  391.000
462.662;   29.975;  353.000;  380.000
462.782;  251.900;  833.000;  572.000
462.901;  494.375;  545.000;  717.000
463.021;  274.300; 1702.000; 1638.000
463.141;  -12.850;  337.000;  770.000
463.260;  -16.400;  614.000;  474.000
463.380;    8.050;  902.000;  884.000
463.499;  -38.725;  342.000;  332.000
463.619;  -38.825;  581.000;  559.000
463.738;  104.125; 1644.000;  903.000
463.858;   17.675;  657.000;  811.000
463.978;  -26.625;  542.000;  396.000
464.097;   46.825;  921.000; 1114.000
464.217;  113.500; 1196.000; 1143.000
464.336;  122.750; 1068.000; 1130.000
464.455;  -40.350;  328.000;  659.000
464.575;   37.875;  597.000;  602.000
464.694;  152.150; 1204.000; 1179.000
464.814;  131.575; 1190.000; 1138.000
464.933;   84.950; 1095.000; 1027.000
465.052;   91.350; 1412.000; 1054.000
465.172;   53.750;  922.000;  799.000
465.291;  138.500; 1376.000; 1320.000
465.410;   15.800;  462.000;  735.000
465.530;   73.275; 1355.000; 1310.000
465.649;   59.850; 1209.000; 1273.000
465.768;  126.350; 1673.000; 1508.000
465.888;   35.100;  941.000; 1174.000
466.007;   97.200; 1335.000; 1440.000
466.126;    1.600;  721.000;  641.000
466.245;   50.925; 1176.000; 1187.000
466.364;   32.750;  950.000; 1060.000
466.484;   54.850; 1024.000; 1213.000
466.603;   23.375; 1101.000; 1222.000
466.722;  116.150; 1490.000; 1769.000
466.841;   74.350; 1151.000; 1401.000
466.960;   41.075; 1069.000;  972.000
467.079;  137.150; 1971.000; 1786.000
467.198;   41.675; 1238.000; 1181.000
467.317;   79.425; 1768.000; 1162.000
467.436;   71.325; 1709.000; 1261.000
467.555;  116.500; 1796.000; 1746.000
467.674;   56.800; 1227.000; 1329.000
467.793;   54.250; 1376.000; 1374.000
467.912;   73.400; 1658.000; 1539.000
468.031;  126.775; 2038.000; 1930.000
468.150;  121.125; 1842.000; 1837.000
468.269;  196.025; 2313.000; 2090.000
468.388;  193.000; 2168.000; 2339.000
468.507;  248.100; 2884.000; 2903.000
468.626;  281.750; 2555.000; 2541.000
468.744;  141.975; 2018.000; 2174.000
468.863;  203.875; 2312.000; 2523.000
468.982;   82.325; 1503.000; 1555.000
469.101;  227.350; 2788.000; 2692.000
469.220;  143.975; 2333.000; 2176.000
469.338;  247.500; 2935.000; 3051.000
469.457;  203.225; 2719.000; 2545.000
469.576;  358.900; 3953.000; 3784.000
469.695;  246.325; 2877.000; 3066.000
469.813;  412.225; 4148.000; 4192.000
469.932;  406.075; 4255.000; 4485.000
470.051;  426.725; 4075.000; 4161.000
470.169;  880.800; 4470.000; 4338.000
470.288; 1524.475; 4700.000; 4809.000
470.406;  866.050; 5059.000; 5194.000
470.525;  637.150; 6101.000; 5787.000
470.644;  662.500; 6847.000; 6794.000
470.762;  811.375; 8397.000; 7873.000
470.881;  913.050; 8651.000; 8464.000
470.999; 1069.425; 9685.000; 9151.000
471.118; 1120.050;11174.000;10711.000

