
Integration time [ms]: 100.000
Averaging Nr. [scans]: 40
Smoothing Nr. [pixels]: 0
Data measured with spectrometer [name]: 2101012U2
Wave   ;Sample   ;Dark     ;Reference
[nm]   ;[counts] ;[counts] ;[counts] 

197.733;   65.750;  516.000;  404.000
197.879;  -72.625; -610.000; -634.000
198.025;  -46.275; -475.000; -420.000
198.171;  -73.525; -602.000; -612.000
198.317;  -39.400; -401.000; -316.000
198.463;  -56.600; -655.000; -404.000
198.609;   30.275;  181.000; -137.000
198.755;  -84.275; -644.000; -410.000
198.901;  -59.425; -505.000; -424.000
199.047;  -57.950; -615.000; -488.000
199.193;  -26.750; -230.000; -468.000
199.339;  -34.575; -222.000; -369.000
199.485;   40.450;  330.000;  271.000
199.631;   21.275;  227.000;  310.000
199.777;  -52.675; -466.000; -398.000
199.923;  -59.350; -610.000; -424.000
200.069;   -6.800; -141.000;  -58.000
200.215;   47.375;  128.000;  453.000
200.361;   46.825;  243.000;  477.000
200.507;  -69.000; -600.000; -373.000
200.653;  -33.225; -371.000; -194.000
200.798;  -29.875; -215.000; -125.000
200.944;   -2.350; -146.000;  -41.000
201.090;   32.950;   61.000;  222.000
201.236;    5.975; -116.000; -158.000
201.382;  133.425;  874.000;  903.000
201.528;    6.475;  -58.000;  -48.000
201.674;  -35.975; -386.000; -293.000
201.819;  -64.900; -540.000; -439.000
201.965;  -78.675; -699.000; -447.000
202.111;  -28.975; -273.000; -226.000
202.257;  -31.825; -250.000; -238.000
202.402;   15.975;   13.000;  -36.000
202.548;  -30.500; -169.000; -116.000
202.694;   80.550;  410.000; -183.000
202.840;  -74.475; -603.000; -531.000
202.985;  -74.350; -681.000; -639.000
203.131; -101.350; -832.000; -666.000
203.277;  -19.325; -199.000; -262.000
203.423;  -53.750; -434.000; -520.000
203.568;  -33.975; -462.000; -237.000
203.714;  -66.650; -535.000; -542.000
203.860;  -74.750; -682.000; -641.000
204.005;   20.750;  112.000;  167.000
204.151;   78.850;  561.000;  556.000
204.296;  -42.375; -354.000; -221.000
204.442;  -67.100; -600.000; -547.000
204.588;  -71.375; -592.000; -579.000
204.733;   30.575;  178.000;  168.000
204.879; -130.200;-1018.000; -822.000
205.025;    9.475;  -99.000;  126.000
205.170;    1.700;  -17.000;   94.000
205.316;   89.900;  438.000;  661.000
205.461;  -80.425; -698.000; -554.000
205.607;   88.000;  609.000;  665.000
205.752;  -78.175; -626.000; -551.000
205.898;  -52.875; -501.000; -391.000
206.043;  -63.850; -578.000; -506.000
206.189;  -38.550; -243.000; -285.000
206.334;   85.950;  554.000;  606.000
206.480;   90.200;  409.000;  239.000
206.625;  -80.100; -529.000; -552.000
206.771;  -40.775; -451.000; -373.000
206.916;  -44.275; -210.000; -537.000
207.062;  -70.050; -545.000; -591.000
207.207;  -68.425; -546.000; -443.000
207.353;   59.850;  185.000;  460.000
207.498;   16.325;  196.000;   85.000
207.643;  -46.850; -501.000; -370.000
207.789; -137.475;-1069.000; -910.000
207.934; -101.300; -665.000; -713.000
208.080;  -30.250; -154.000;   66.000
208.225;   -3.000;  -22.000;  -57.000
208.370;  -73.775; -727.000; -619.000
208.516;  -80.050; -741.000; -487.000
208.661;  -29.100; -127.000;  -69.000
208.806;  -12.750; -165.000; -171.000
208.952; -127.375;-1044.000; -731.000
209.097;   83.750;  378.000;  349.000
209.242;  -45.750; -307.000; -382.000
209.387;   77.575;  392.000;  350.000
209.533;  -48.925; -321.000; -350.000
209.678;   74.550;  472.000;  543.000
209.823;  -54.500; -408.000; -310.000
209.969;  -97.925; -860.000; -757.000
210.114; -103.875; -907.000; -719.000
210.259; -119.200; -939.000; -889.000
210.404;  -15.850; -171.000;  103.000
210.549;    9.975;  108.000;    3.000
210.695;   -7.725;   -3.000;  -95.000
210.840;   26.975;   94.000;   67.000
210.985;  -54.975; -484.000; -303.000
211.130;   75.175;  268.000;  406.000
211.275;   21.650;  207.000;  199.000
211.420;  -46.925; -300.000; -289.000
211.566;  -68.275; -536.000; -489.000
211.711;   27.350;  218.000;  157.000
211.856;  -68.100; -545.000; -519.000
212.001;   11.975;  151.000;   44.000
212.146;   25.775;  153.000;   49.000
212.291;  -28.400; -210.000; -186.000
212.436;  -34.750; -280.000;   -6.000
212.581;  -86.100; -685.000; -653.000
212.726;  -73.475; -487.000; -538.000
212.871;  -44.450; -552.000; -217.000
213.016; -161.425;-1172.000;-1029.000
213.161;   69.650;  406.000;  291.000
213.306;  -73.025; -435.000; -577.000
213.451;  -88.350; -778.000; -689.000
213.596;  -46.825; -455.000; -347.000
213.741;  -51.150; -448.000; -538.000
213.886;  -84.425; -498.000; -517.000
214.031;  -21.025; -294.000; -124.000
214.176;  -55.650; -408.000; -341.000
214.321;  -25.800; -296.000; -157.000
214.466;  -20.425; -163.000;  -43.000
214.611;   -0.400;  -61.000;  -10.000
214.756; -127.450; -948.000; -858.000
214.901;  -16.750; -388.000; -226.000
215.046; -128.475; -797.000; -825.000
215.191;    5.700;  128.000;   35.000
215.336;  -16.925; -157.000;  -19.000
215.480;  -64.350; -684.000; -505.000
215.625;  -12.875; -175.000;  -19.000
215.770;  -82.725; -757.000; -662.000
215.915;   -7.175;   -5.000;  -97.000
216.060;   -5.500; -113.000;  -21.000
216.205; -102.875; -731.000; -779.000
216.349;  -64.375; -470.000; -533.000
216.494; -129.675; -939.000; -867.000
216.639; -115.275; -823.000; -888.000
216.784;  -88.125; -577.000; -525.000
216.929;   58.175;  392.000;  281.000
217.073;  -14.775; -244.000;  -31.000
217.218;    8.300;   78.000;  -47.000
217.363;  -88.700; -656.000; -618.000
217.507;  -85.675; -623.000; -588.000
217.652; -121.650; -845.000; -874.000
217.797;  -83.000; -708.000; -659.000
217.942; -110.250; -856.000; -720.000
218.086;   79.075;  608.000;  539.000
218.231;  -21.175; -174.000;  -26.000
218.376;  -24.900; -337.000; -229.000
218.520;   20.425;  -41.000;   96.000
218.665;  -37.075; -338.000; -204.000
218.810;  -37.575; -275.000; -233.000
218.954;   30.350;  201.000;   35.000
219.099; -119.975; -713.000; -963.000
219.243;  -75.925; -589.000; -554.000
219.388;  -32.600; -264.000; -136.000
219.532;   -6.150; -116.000; -116.000
219.677;  -67.975; -564.000; -521.000
219.822;    5.350;   33.000;   89.000
219.966;    5.800;   17.000;  -99.000
220.111;  -40.450; -328.000;  -40.000
220.255; -103.300; -797.000; -750.000
220.400;  -25.975; -180.000; -146.000
220.544;  -52.075; -516.000; -450.000
220.689;  -51.700; -422.000; -451.000
220.833;  -20.350; -123.000;  -58.000
220.978;  -36.050; -393.000; -563.000
221.122;   22.675;  319.000;  307.000
221.267; -121.075; -906.000; -837.000
221.411;  -65.575; -478.000; -394.000
221.555;   -2.650; -104.000;  -23.000
221.700;  -64.550; -329.000; -222.000
221.844;   25.450;  255.000;  272.000
221.989;  -47.275; -328.000; -311.000
222.133;  -29.525; -289.000; -307.000
222.277;  -17.400;    5.000;   78.000
222.422;   14.550;  227.000;  113.000
222.566;  -38.250; -381.000; -214.000
222.711;  -43.125; -414.000; -479.000
222.855;  -75.650; -643.000; -586.000
222.999;  -87.400; -642.000; -717.000
223.144;  -38.550; -195.000; -194.000
223.288;   57.825;  423.000;  251.000
223.432;   36.800;  184.000;  230.000
223.576;   28.225;  152.000;  -21.000
223.721;   34.775;  364.000;  273.000
223.865;  -56.100; -472.000; -475.000
224.009;  285.275; 1673.000; 1631.000
224.153;  -82.775; -660.000; -671.000
224.298;  -66.075; -531.000; -489.000
224.442;  -14.975;  -74.000;  -33.000
224.586;   -8.325; -169.000; -106.000
224.730; -106.475; -858.000; -670.000
224.875;  -96.725; -739.000; -688.000
225.019;   24.125;  102.000;  188.000
225.163;   56.325;  208.000;  341.000
225.307;   10.125;   97.000;  -91.000
225.451;   50.100;  360.000;  481.000
225.595;   30.825;  264.000;  176.000
225.739;  -23.775; -170.000;  -94.000
225.884;    9.125;   86.000;    5.000
226.028;  -99.300; -760.000; -626.000
226.172;  -42.550; -260.000; -273.000
226.316; -118.125; -941.000; -902.000
226.460;  -61.075; -645.000; -493.000
226.604;  -57.900; -406.000; -400.000
226.748;  -88.625; -836.000; -733.000
226.892;  -29.000; -227.000; -181.000
227.036;  -50.150; -537.000; -447.000
227.180;  -64.800; -551.000; -375.000
227.324;  -53.400; -561.000; -580.000
227.468; -111.075; -819.000; -717.000
227.612;    7.950;  242.000;  -28.000
227.756; -104.850; -845.000; -698.000
227.900;   49.950;  342.000;  441.000
228.044;  -59.300; -509.000; -290.000
228.188;   43.750;  448.000;  568.000
228.332;  -91.350; -546.000; -472.000
228.476;  -32.500; -223.000; -149.000
228.620;  -29.175; -210.000; -150.000
228.764;   68.800;  431.000;  349.000
228.908;  -20.800; -155.000;   30.000
229.052;  -61.775; -615.000; -528.000
229.195;   -5.975; -172.000;   13.000
229.339;  -26.625; -235.000; -305.000
229.483;  -18.700;    5.000; -162.000
229.627;   -0.925; -156.000;  139.000
229.771;  -49.900; -218.000; -294.000
229.915;    8.550;  230.000;   79.000
230.059;  -85.775; -648.000; -663.000
230.202;  -38.600; -370.000; -317.000
230.346;  -18.975; -107.000;  107.000
230.490;  -63.500; -489.000; -521.000
230.634; -122.125; -736.000; -553.000
230.777;   67.800;  478.000;  509.000
230.921;  -58.250; -450.000; -359.000
231.065;  -42.425; -246.000; -286.000
231.209;   20.450;  261.000;  265.000
231.352;   12.800;   54.000;   40.000
231.496;   26.250;  568.000;  188.000
231.640;  -87.400; -693.000; -621.000
231.783;   56.925;  546.000;  525.000
231.927;  -43.900; -294.000; -365.000
232.071; -131.400; -962.000; -736.000
232.214; -103.800; -980.000; -764.000
232.358; -100.525; -683.000; -599.000
232.502;   10.125;  -19.000;    7.000
232.645; -142.175;-1090.000; -927.000
232.789;  -31.500; -257.000; -218.000
232.933;  -37.025; -407.000; -224.000
233.076; -122.600;-1038.000; -897.000
233.220; -113.750; -752.000; -777.000
233.363;  -61.600; -669.000; -477.000
233.507;   54.825;  371.000;  129.000
233.650;  -96.575; -764.000; -834.000
233.794;   48.125;  438.000;  461.000
233.938;  -65.775; -530.000; -362.000
234.081;  -13.450;  -93.000;   31.000
234.225;  -66.200; -631.000; -539.000
234.368; -112.750; -773.000; -723.000
234.512;  -29.350; -385.000; -299.000
234.655;  -86.125; -582.000; -555.000
234.798;  -75.500; -493.000; -466.000
234.942; -129.975; -884.000;-1002.000
235.085;  -65.750; -651.000; -443.000
235.229;  -78.700; -405.000; -410.000
235.372;  -40.625; -247.000; -191.000
235.516;  -57.725; -397.000; -321.000
235.659;   18.125;   92.000;  121.000
235.802;  -12.625;  -38.000;  -22.000
235.946;   25.875;  335.000;  215.000
236.089;   31.100;  126.000;  250.000
236.233;   60.575;  275.000;  298.000
236.376;  -38.900; -235.000; -378.000
236.519;  -45.775; -297.000; -319.000
236.663;  -16.975; -215.000; -117.000
236.806; -141.575;-1029.000; -999.000
236.949;   39.375;  543.000;  431.000
237.092;   65.050;  412.000;  391.000
237.236;  -92.475; -589.000; -502.000
237.379;   85.975;  352.000;  428.000
237.522; -115.175; -879.000; -768.000
237.666;   -7.500; -271.000;   18.000
237.809; -126.475; -851.000; -823.000
237.952;   41.700;  469.000;  271.000
238.095;  -63.725; -447.000; -442.000
238.238;   92.725;  688.000;  700.000
238.382;    3.100;  166.000;  103.000
238.525;  -74.750; -598.000; -511.000
238.668; -142.875;-1060.000; -985.000
238.811;  -87.525; -638.000; -643.000
238.954;  -54.850; -483.000; -334.000
239.097;   94.200;  617.000;  664.000
239.241;   28.925;  394.000;  326.000
239.384;  -27.700; -254.000; -214.000
239.527;  -54.725; -424.000; -224.000
239.670; -147.475; -994.000;-1091.000
239.813; -113.250; -696.000; -658.000
239.956;   90.375;  579.000;  473.000
240.099; -121.650; -778.000; -725.000
240.242;   81.875;  428.000;  432.000
240.385;   52.250;  466.000;  450.000
240.528;  -66.650; -706.000; -473.000
240.671;   15.925;  189.000;  134.000
240.814;  -35.575; -441.000; -158.000
240.957; -101.700; -767.000; -578.000
241.100;  -87.575; -779.000; -755.000
241.243; -137.525;-1234.000; -893.000
241.386;  -71.650; -508.000; -379.000
241.529;  -95.550; -735.000; -547.000
241.672;  -68.225; -566.000; -495.000
241.815; -122.250; -832.000; -808.000
241.958;  -25.625; -125.000; -182.000
242.101;  -80.650; -545.000; -390.000
242.244;  -35.875; -270.000; -325.000
242.387;  -43.700; -304.000; -246.000
242.530;   53.600;  470.000;  134.000
242.673;  -38.125; -381.000; -309.000
242.815; -117.750; -925.000; -899.000
242.958;  -68.850; -482.000; -381.000
243.101;   20.800;  132.000;  187.000
243.244;  -88.925; -564.000; -521.000
243.387;  -54.125; -313.000; -316.000
243.530;  -98.175; -657.000; -674.000
243.672;    8.850;   43.000;  -92.000
243.815;  -55.300; -355.000; -283.000
243.958;   15.125;   98.000;  -26.000
244.101;   -5.750;   59.000;  -16.000
244.243;  -14.300;  -47.000;  101.000
244.386; -109.050; -761.000; -630.000
244.529;  -17.950; -132.000; -139.000
244.672; -165.775;-1154.000; -951.000
244.814; -106.300; -621.000; -794.000
244.957;  -69.750; -380.000; -304.000
245.100;  -66.875; -489.000; -489.000
245.242;  -58.125; -387.000; -374.000
245.385;  -19.575;  -59.000;  -39.000
245.528; -123.325; -871.000; -705.000
245.670;   99.650;  612.000;  634.000
245.813;  -92.850; -599.000; -547.000
245.956;  -24.400; -324.000; -275.000
246.098;  -81.000; -508.000; -650.000
246.241;   17.325;  194.000;   48.000
246.383;  -22.225; -119.000;  -73.000
246.526;  -70.675; -454.000; -525.000
246.669; -120.275; -889.000; -780.000
246.811;   22.575;  172.000;   -1.000
246.954;  -63.475; -512.000; -426.000
247.096;   -8.600;  -84.000;   -6.000
247.239;  -73.800; -482.000; -445.000
247.381;  -67.500; -647.000; -488.000
247.524;   75.575;  645.000;  679.000
247.666;   -4.700;   58.000;   11.000
247.809; -111.525; -887.000; -691.000
247.951;   -2.050;  -75.000;  138.000
248.094;   28.000;  432.000;  308.000
248.236; -150.450;-1262.000;-1238.000
248.378;    3.075; -356.000;  -81.000
248.521;  -31.275; -334.000; -337.000
248.663;  -42.350; -236.000; -267.000
248.806;  -27.125; -300.000; -266.000
248.948;  -92.225; -886.000; -763.000
249.090;  -50.075; -428.000; -398.000
249.233;  -48.050; -344.000; -381.000
249.375;  -55.425; -474.000; -451.000
249.518;  -20.925;  -83.000; -133.000
249.660;   -6.675; -103.000;    3.000
249.802; -173.150;-1303.000;-1189.000
249.945;  -81.450; -612.000; -540.000
250.087; -112.150; -834.000; -768.000
250.229;  -42.925; -362.000; -480.000
250.371;  -64.975; -494.000; -439.000
250.514;  -45.875; -310.000; -244.000
250.656;  -58.825;   69.000;  102.000
250.798; -121.300; -849.000; -800.000
250.940;  -68.475; -322.000; -322.000
251.083;  -23.875; -335.000; -111.000
251.225;   62.150;  338.000;  310.000
251.367;  -37.625; -274.000; -373.000
251.509;  -31.325; -265.000; -210.000
251.651;  -96.675; -731.000; -671.000
251.794;   49.800;  538.000;  632.000
251.936; -110.500; -821.000; -747.000
252.078;  -78.800; -540.000; -461.000
252.220;  -61.875; -645.000; -477.000
252.362;   87.875;  344.000;  462.000
252.504;  -65.700; -677.000; -584.000
252.646; -117.800; -875.000; -722.000
252.788;  -11.975;   14.000; -128.000
252.931;  -34.575; -257.000; -253.000
253.073;  -36.125; -376.000; -317.000
253.215;  -11.525;  141.000;  122.000
253.357;  -20.375;   82.000; -153.000
253.499;  -49.875; -374.000; -234.000
253.641;  -86.875; -749.000; -594.000
253.783; -108.100; -609.000; -527.000
253.925;  -90.125; -586.000; -591.000
254.067; -113.950; -744.000; -667.000
254.209;  -31.650; -391.000; -259.000
254.351; -136.250; -865.000; -883.000
254.493;  -64.300; -441.000; -417.000
254.635; -125.300; -936.000; -818.000
254.777; -100.125; -752.000; -687.000
254.918;  -73.375; -512.000; -430.000
255.060;  -61.925; -551.000; -395.000
255.202;  -54.775; -473.000; -261.000
255.344;  -69.475; -658.000; -455.000
255.486;  -78.775; -471.000; -406.000
255.628; -101.650; -780.000; -781.000
255.770;  -86.475; -676.000; -536.000
255.912;  -70.350; -559.000; -468.000
256.053;  -97.875; -730.000; -508.000
256.195;  154.825; 1008.000;  903.000
256.337;  -93.900; -861.000; -595.000
256.479;   70.100;  532.000;  416.000
256.621;  -47.250; -394.000; -212.000
256.762;  -97.750; -789.000; -742.000
256.904;   45.675;  485.000;  487.000
257.046;  -36.550; -381.000; -271.000
257.188;  -51.075; -351.000; -264.000
257.329;  -70.150; -525.000; -464.000
257.471; -106.875; -939.000; -807.000
257.613;  -63.650; -584.000; -498.000
257.755; -160.250;-1073.000; -982.000
257.896;   31.775;  286.000;  392.000
258.038;  -69.575; -403.000; -352.000
258.180;  -32.375; -354.000; -279.000
258.321;  -77.550; -581.000; -457.000
258.463;   -4.700;  -71.000;  133.000
258.605;  -92.750; -562.000; -570.000
258.746; -107.475; -886.000; -772.000
258.888; -152.900;-1026.000;-1020.000
259.029;   24.175;  121.000;   -8.000
259.171;  -84.875; -614.000; -550.000
259.313;    3.500;  -49.000;  -47.000
259.454;  -76.200; -536.000; -414.000
259.596;  -53.675; -483.000; -390.000
259.737;  -79.425; -590.000; -474.000
259.879;   38.600;  217.000;  311.000
260.020;   70.575;  901.000;  636.000
260.162;  -20.800; -146.000; -253.000
260.303; -111.275; -768.000; -687.000
260.445;  -71.175; -609.000; -613.000
260.586;   27.275;  392.000;  157.000
260.728;  -44.575; -360.000; -248.000
260.869; -114.800; -350.000; -343.000
261.011;   90.400;  706.000;  537.000
261.152;  -56.925; -479.000; -319.000
261.293;  -81.225; -576.000; -595.000
261.435;  -30.775; -219.000; -184.000
261.576;  -51.325; -455.000; -325.000
261.718;   49.225;  420.000;  470.000
261.859; -132.625; -940.000; -949.000
262.000; -134.500; -951.000;-1016.000
262.142;  -31.225;  -52.000;  -60.000
262.283; -115.300; -808.000; -691.000
262.424;  -88.150; -666.000; -625.000
262.566; -165.275;-1161.000; -983.000
262.707; -113.200; -840.000; -830.000
262.848; -123.625; -769.000; -726.000
262.990;  -46.400; -362.000; -345.000
263.131;   76.850;  650.000;  681.000
263.272;   -1.425;  -61.000;  -41.000
263.413; -104.425; -589.000; -561.000
263.555;  -59.050; -669.000; -143.000
263.696;  -97.725; -550.000; -641.000
263.837;  -64.650; -449.000; -551.000
263.978;  -17.725;   -5.000;  -77.000
264.119;  -41.925; -283.000; -264.000
264.261; -120.650; -847.000; -630.000
264.402;   -1.825;   33.000;   40.000
264.543;  -71.675; -509.000; -524.000
264.684;   -0.650;   61.000;  -50.000
264.825;  -79.400; -816.000; -538.000
264.966;   -1.600;  -84.000;  -67.000
265.107; -123.575; -646.000; -670.000
265.248; -126.250; -825.000; -812.000
265.390;  -22.175;  152.000;   -9.000
265.531;  -27.150; -238.000; -107.000
265.672;  -82.900; -557.000; -630.000
265.813;   74.300;  563.000;  439.000
265.954; -159.025; -959.000; -940.000
266.095;  -18.775; -372.000; -322.000
266.236;  -95.100; -686.000; -548.000
266.377;  -51.400; -243.000; -297.000
266.518;  -72.525; -619.000; -547.000
266.659;   31.050;  170.000;  268.000
266.800;    3.800;   83.000;   85.000
266.941;  -75.475; -487.000; -478.000
267.082;   34.125;  354.000;   99.000
267.223;  -57.950; -344.000; -273.000
267.364; -116.000; -892.000; -686.000
267.504;  -17.200;    3.000;  135.000
267.645;   -2.650;  160.000;   67.000
267.786;  -36.750; -147.000;  -86.000
267.927;  -67.825; -473.000; -379.000
268.068;   -6.025; -186.000;  -61.000
268.209;  -54.275; -175.000; -413.000
268.350;  -56.200; -388.000; -532.000
268.490;  -83.825; -648.000; -521.000
268.631;   32.125;  127.000;  225.000
268.772; -109.400; -874.000; -647.000
268.913;  -47.275; -328.000; -476.000
269.054;  -18.325; -117.000;   12.000
269.194;  -49.225; -418.000; -402.000
269.335; -148.550;-1137.000;-1074.000
269.476;   -9.475;   33.000;  -35.000
269.617;  -49.000; -347.000; -392.000
269.757;  -82.900; -713.000; -646.000
269.898; -104.650; -856.000; -613.000
270.039;  -57.600; -415.000; -405.000
270.180; -140.575; -952.000; -816.000
270.320;  -21.600; -190.000; -250.000
270.461;  -43.575; -277.000; -249.000
270.602;  -27.425; -186.000; -156.000
270.742; -123.450; -868.000; -943.000
270.883;  -62.550; -442.000; -390.000
271.023;  -54.175; -358.000; -357.000
271.164;  -67.675; -607.000; -528.000
271.305; -100.275; -666.000; -654.000
271.445;  -88.975; -722.000; -683.000
271.586;  -46.850; -462.000; -283.000
271.726;  -46.550; -397.000; -322.000
271.867;  -55.900; -594.000; -534.000
272.008;  160.750; -473.000; -285.000
272.148;  129.200;  462.000;  468.000
272.289;   11.825; -113.000; -181.000
272.429;    2.025;   19.000;  185.000
272.570;  -99.050; -633.000; -737.000
272.710; -104.925; -825.000; -775.000
272.851;  -31.600;  113.000; -130.000
272.991; -174.075;-1173.000;-1077.000
273.131;  -75.350; -419.000; -459.000
273.272;  -96.025; -683.000; -723.000
273.412;   -0.500; -143.000;  -31.000
273.553;  -62.425; -488.000; -507.000
273.693;  133.750;  913.000;  858.000
273.834;  -95.400; -894.000; -692.000
273.974;  -75.775; -664.000; -615.000
274.114; -114.050; -772.000; -560.000
274.255;   67.825;  414.000;  373.000
274.395;   12.175; -180.000; -125.000
274.535;   45.650;  199.000;  350.000
274.676;   10.375;  225.000;   94.000
274.816;    5.475;  110.000;   34.000
274.956;  -80.825; -624.000; -690.000
275.097;  -83.450;-1014.000; -922.000
275.237;  -98.800; -913.000; -803.000
275.377;  -79.975; -778.000; -689.000
275.517; -136.275; -878.000; -937.000
275.658;  -57.200; -590.000; -555.000
275.798;  -70.450; -606.000; -413.000
275.938;    9.475;  215.000;  323.000
276.078; -101.525; -626.000; -395.000
276.218;   16.075;   99.000;  104.000
276.359; -128.075;-1026.000;-1024.000
276.499;  -74.525; -605.000; -446.000
276.639;  -27.625; -305.000; -151.000
276.779;  -53.275; -475.000; -357.000
276.919; -106.900; -783.000; -624.000
277.059;  -21.450; -261.000; -212.000
277.199;  -53.150; -357.000; -259.000
277.340;   43.875;  287.000;  175.000
277.480; -114.200; -840.000; -693.000
277.620;   28.800;  192.000;   16.000
277.760; -204.150;-1533.000;-1294.000
277.900;   13.900;  113.000;   33.000
278.040;   -2.975;  137.000;  159.000
278.180;   40.175;  270.000;  170.000
278.320;    0.275;   21.000;   56.000
278.460;  -71.950; -443.000; -469.000
278.600;  -83.675; -708.000; -598.000
278.740;   50.350;  448.000;  224.000
278.880;  -81.225; -768.000; -791.000
279.020;    1.000; -194.000; -144.000
279.160;  -80.725; -672.000; -595.000
279.300; -109.575; -926.000; -873.000
279.440;  -84.500; -709.000; -622.000
279.579;  -37.300;-1014.000; -929.000
279.719;  -67.250; -410.000; -394.000
279.859;   55.100;   -4.000;   41.000
279.999;   20.725; -208.000;  101.000
280.139;  -30.625; -435.000; -387.000
280.279;  -70.575; -708.000; -745.000
280.419;  -18.525; -229.000; -147.000
280.559;  -35.250; -259.000; -180.000
280.698;  -86.950; -790.000; -639.000
280.838;  -97.675; -778.000; -800.000
280.978; -102.650; -846.000; -790.000
281.118; -118.575; -811.000; -704.000
281.257;   15.075;   24.000;    6.000
281.397; -116.525;-1094.000; -960.000
281.537;  -80.975; -599.000; -712.000
281.677;  -21.850; -150.000; -101.000
281.816;  -92.275; -700.000; -630.000
281.956;  -30.175; -193.000; -257.000
282.096;  -56.725; -539.000; -396.000
282.235; -117.125; -672.000; -638.000
282.375;  -19.300; -243.000;  -98.000
282.515; -100.750; -715.000; -707.000
282.654;   23.375;   29.000;  106.000
282.794;   20.275;  388.000;  244.000
282.934;  -44.900; -530.000; -491.000
283.073; -140.125;-1030.000; -857.000
283.213;  -62.025; -460.000; -467.000
283.353;  -42.925; -408.000; -349.000
283.492;  -27.200; -264.000; -296.000
283.632;  -46.725; -254.000; -168.000
283.771; -101.175; -859.000; -730.000
283.911;  -54.950; -369.000; -260.000
284.050; -107.500; -794.000; -748.000
284.190; -172.575;-1229.000;-1096.000
284.329; -149.050;-1055.000; -964.000
284.469;  -73.175; -516.000; -591.000
284.608;  -69.800; -559.000; -598.000
284.748;  -87.225; -614.000; -570.000
284.887;    2.150;  -87.000;  -20.000
285.027; -129.900; -844.000; -892.000
285.166;  -30.975; -192.000; -249.000
285.306;   -5.650; -116.000;  -33.000
285.445;  -33.825; -229.000; -343.000
285.584;  -89.825; -630.000; -494.000
285.724;  -41.050; -282.000; -322.000
285.863; -114.975; -857.000; -507.000
286.002;  -50.500; -366.000; -276.000
286.142; -107.550; -715.000; -622.000
286.281;  -63.700; -525.000; -493.000
286.420;  -71.425; -554.000; -417.000
286.560;   87.975;  653.000;  623.000
286.699; -154.400; -958.000; -912.000
286.838;  -85.150; -590.000; -591.000
286.978;  -82.000; -533.000; -537.000
287.117; -141.625;-1085.000; -950.000
287.256;  -31.650; -228.000; -211.000
287.395;  -37.500; -197.000; -378.000
287.535;  -59.475; -370.000; -298.000
287.674;  -86.525; -509.000; -484.000
287.813;   56.625;  661.000;  533.000
287.952; -127.375;-1010.000; -871.000
288.091; -138.000;-1049.000; -915.000
288.231;    4.950;   13.000;   15.000
288.370; -179.350;-1217.000;-1200.000
288.509;  -87.975; -728.000; -645.000
288.648; -103.400; -770.000; -548.000
288.787;  -35.200; -243.000;  -87.000
288.926;  -71.750; -454.000; -475.000
289.065;  107.525;  859.000;  672.000
289.204;  -56.550; -377.000; -217.000
289.344;  -90.375; -791.000; -690.000
289.483;   18.375;  416.000;  304.000
289.622;  -40.125; -291.000; -149.000
289.761;  -23.200; -309.000; -166.000
289.900; -110.425; -785.000; -626.000
290.039;  -24.875;  -12.000;  -95.000
290.178;  -26.975; -274.000; -180.000
290.317;  -93.550; -618.000; -479.000
290.456;  -70.950; -463.000; -451.000
290.595; -137.750; -961.000; -833.000
290.734; -134.775; -904.000; -891.000
290.873;  -68.325; -456.000; -420.000
291.011; -112.750; -833.000; -843.000
291.150; -104.425; -770.000; -682.000
291.289;  -34.725; -343.000; -110.000
291.428;  -93.075; -599.000; -480.000
291.567;  -60.975; -370.000; -442.000
291.706;   -1.000;  109.000;  154.000
291.845;  -96.400; -597.000; -505.000
291.984; -172.225;-1234.000;-1061.000
292.122;   78.725;  602.000;  582.000
292.261;   60.600;  620.000;  463.000
292.400;   11.325; -144.000;  211.000
292.539; -126.900; -959.000; -813.000
292.678;  -34.425; -325.000; -300.000
292.816; -166.375;-1136.000; -965.000
292.955;  -85.700; -844.000; -684.000
293.094;  -37.050; -173.000; -337.000
293.233;  -45.175; -556.000; -400.000
293.371;  -31.075; -225.000;  -84.000
293.510; -103.625; -866.000; -780.000
293.649; -126.775; -959.000; -924.000
293.787;  -74.125;-1083.000;-1012.000
293.926;   -2.775; -113.000;  -32.000
294.065;  -51.650; -379.000; -290.000
294.203;   41.150;  298.000;  406.000
294.342;   17.850;   74.000;  156.000
294.481; 6975.125;51180.000; -836.000
294.619;  -32.050; -425.000; -582.000
294.758; -142.775;-1230.000;-1137.000
294.896;   70.175; -125.000;    5.000
295.035; -122.450;-1040.000;-1006.000
295.174; -128.775;-1082.000; -954.000
295.312;  -49.400; -323.000; -203.000
295.451;  -10.400; -307.000; -428.000
295.589;  -64.675; -389.000; -518.000
295.728;   12.775; -292.000; -165.000
295.866;    0.450;  -36.000;  -51.000
296.005;  -74.100; -584.000; -341.000
296.143;  -61.125; -558.000; -596.000
296.282; -102.850; -957.000; -881.000
296.420;  -95.125; -657.000; -557.000
296.559;  -92.825; -892.000; -633.000
296.697;   -4.600; -847.000; -665.000
296.835;   16.700;-1141.000;-1002.000
296.974;   44.500;  -23.000;   39.000
297.112;  -14.625; -443.000; -504.000
297.251;  -81.675; -815.000; -755.000
297.389;   63.575; -576.000; -438.000
297.527;   22.525; -145.000;  -83.000
297.666;  -55.550; -486.000; -438.000
297.804;  -54.825; -404.000; -264.000
297.942;   -7.100; -136.000; -161.000
298.081;    1.050; -183.000;   63.000
298.219;   51.750;  -17.000;  -19.000
298.357;   44.775; -144.000;  -71.000
298.495;   23.450; -810.000; -812.000
298.634;   55.650;  245.000;  219.000
298.772;   42.275; -220.000; -338.000
298.910;  -35.350; -309.000; -182.000
299.048;   -5.825; -130.000; -153.000
299.187;  -30.350; -350.000; -250.000
299.325;   30.350;   52.000;  122.000
299.463;   22.725; -389.000; -299.000
299.601;   89.750; -327.000; -271.000
299.739; -117.100; -908.000; -883.000
299.877;  -71.275; -791.000; -703.000
300.016;  -58.225;-1095.000; -935.000
300.154;  128.575;  -19.000; -161.000
300.292;   37.725; -428.000; -348.000
300.430;   19.625; -408.000; -291.000
300.568; -117.800; -940.000; -874.000
300.706;  -51.275; -366.000; -469.000
300.844;  -80.150;-1108.000; -979.000
300.982;  104.325;  246.000;  282.000
301.120; -118.050; -965.000; -866.000
301.258;  -71.075; -812.000; -705.000
301.396;   33.875;  104.000;  -41.000
301.534;   46.400; -218.000; -293.000
301.672;  -25.250; -664.000; -521.000
301.810;    7.500; -613.000; -545.000
301.948;   82.850;   53.000;  149.000
302.086;  544.775; -250.000;  -32.000
302.224;  818.125; -610.000; -585.000
302.362;   22.700; -558.000; -622.000
302.500;  -55.100; -923.000; -893.000
302.638;  102.600;  128.000;  245.000
302.776;    2.050; -352.000; -408.000
302.913;   42.000;  447.000;  236.000
303.051;   -1.975;  -86.000;  -23.000
303.189;   32.125;   90.000;  118.000
303.327;  -34.100; -341.000; -256.000
303.465;  -93.100; -832.000; -588.000
303.603;  -85.425; -805.000; -604.000
303.740;   99.550;  417.000;  241.000
303.878;   -1.025; -800.000; -759.000
304.016; -105.525; -915.000; -790.000
304.154; -134.975;-1123.000;-1152.000
304.291;  -36.775; -505.000; -554.000
304.429;    2.000;  102.000;   74.000
304.567; -149.650; -908.000; -893.000
304.705;  -50.025; -408.000; -515.000
304.842;   71.475; -616.000; -540.000
304.980;   66.000;  215.000;   35.000
305.118;   13.175; -367.000; -365.000
305.255;  -93.125; -945.000; -927.000
305.393;   52.050;  178.000;  239.000
305.531; -113.175;-1173.000; -956.000
305.668;  -67.175; -663.000; -582.000
305.806;   91.200; -358.000; -439.000
305.943;   89.900; -629.000; -637.000
306.081;   40.025; -378.000; -267.000
306.219; -102.275; -863.000; -748.000
306.356;   12.200;  158.000;   27.000
306.494;  112.025;  981.000;  761.000
306.631;   -5.850;  -11.000;  -55.000
306.769;   -5.500; -613.000; -485.000
306.906;  -21.475; -284.000; -258.000
307.044;  -44.250; -473.000; -488.000
307.181;  -59.575; -410.000; -332.000
307.319;   17.100;  112.000;   87.000
307.456; -181.475;-1191.000;-1153.000
307.594; -101.325; -980.000; -727.000
307.731;  -15.650; -371.000; -164.000
307.868;   -7.275;  -15.000;   20.000
308.006; -150.700; -961.000; -847.000
308.143;  -73.950; -618.000; -330.000
308.281;  102.350;  -37.000; -254.000
308.418;  -40.650; -748.000; -640.000
308.555;  -75.350; -400.000; -250.000
308.693;  -62.950; -577.000; -573.000
308.830; -111.750; -712.000; -657.000
308.967;  -16.175; -215.000;  -95.000
309.105;  -60.200; -507.000; -396.000
309.242;    7.525; -468.000; -367.000
309.379;  200.450; -577.000; -655.000
309.517;  -85.050; -936.000; -948.000
309.654; -111.675; -910.000; -734.000
309.791;  -82.050; -662.000; -580.000
309.928; -121.800; -977.000; -914.000
310.065;  171.650;  819.000;  697.000
310.203;  -16.075; -825.000; -850.000
310.340;  -12.825; -465.000; -321.000
310.477;  -88.225; -412.000; -516.000
310.614;  -68.350; -383.000; -473.000
310.751;  -85.800; -427.000; -518.000
310.889;  -27.500;    1.000;   11.000
311.026; -161.575;-1161.000; -939.000
311.163;  -47.850; -386.000; -380.000
311.300;  -70.475; -512.000; -479.000
311.437;  -71.700; -658.000; -619.000
311.574; -150.900;-1226.000; -985.000
311.711;  -60.200; -595.000; -433.000
311.848;  -58.800; -380.000; -388.000
311.985;    6.625;  270.000;   93.000
312.122; -124.100; -932.000; -762.000
312.259; -134.375; -941.000; -994.000
312.396;  -77.825; -508.000; -551.000
312.533;  -92.400; -812.000; -790.000
312.670; -142.350;-1070.000; -898.000
312.807;  -42.750; -352.000; -367.000
312.944;  -73.350; -513.000; -611.000
313.081;  -29.275; -150.000; -415.000
313.218; -109.125;-1111.000; -867.000
313.355;    1.425; -531.000; -449.000
313.492;   -2.625; -455.000; -292.000
313.629;  137.275;  815.000;  735.000
313.766; -166.125;-1176.000;-1008.000
313.902;   -7.425; -186.000;   21.000
314.039;  -71.175; -372.000; -289.000
314.176;   30.050;  286.000;  192.000
314.313;  -80.575; -569.000; -473.000
314.450;  -81.875; -788.000; -684.000
314.587;  -56.400; -468.000; -480.000
314.723;  -15.025;  -78.000;  130.000
314.860;   19.400;  318.000;  332.000
314.997;   27.475;  223.000;  142.000
315.134;  -47.450; -385.000; -368.000
315.270;  -47.325; -480.000; -496.000
315.407; -123.550;-1094.000; -967.000
315.544;  -45.200; -657.000; -538.000
315.681;  -75.375; -681.000; -565.000
315.817;   15.425; -133.000; -176.000
315.954;   -7.300; -613.000; -392.000
316.091; -128.725;-1045.000;-1023.000
316.227;  -26.525;  -71.000; -179.000
316.364;   -0.875;   23.000;    6.000
316.500;  -46.450; -113.000; -300.000
316.637;  -35.850; -181.000; -302.000
316.774;  -80.600; -625.000; -358.000
316.910;  -78.550; -598.000; -629.000
317.047;  -70.500; -487.000; -351.000
317.183;  -43.675; -435.000; -566.000
317.320;   -7.950; -367.000; -321.000
317.456;  -80.600; -733.000; -805.000
317.593;  -97.850; -598.000; -641.000
317.729;    5.050;  168.000;  -67.000
317.866; -210.725;-1434.000;-1285.000
318.002;  -92.425; -708.000; -948.000
318.139; -112.125; -883.000; -867.000
318.275; -112.725;-1003.000; -738.000
318.412;  -72.325; -517.000; -336.000
318.548;  -50.750; -751.000; -720.000
318.685; -106.050; -985.000; -888.000
318.821; -104.825; -762.000; -735.000
318.957;  -22.450;   34.000;  -23.000
319.094;   40.400;  297.000;  154.000
319.230;  -65.050; -756.000; -742.000
319.367;  127.175; -471.000; -520.000
319.503;   32.125; -538.000; -436.000
319.639;  -94.825; -877.000; -793.000
319.775;  -76.025; -750.000; -685.000
319.912;  -71.000; -424.000; -519.000
320.048; -104.400;-1184.000;-1184.000
320.184;   63.525;   59.000;   70.000
320.321;  -56.100; -497.000; -467.000
320.457;   70.400;  475.000;  662.000
320.593;  -76.775; -375.000; -382.000
320.729; -106.300; -732.000; -734.000
320.866;  -80.325; -577.000; -635.000
321.002;  -86.875; -759.000; -809.000
321.138;  -27.275; -135.000; -211.000
321.274;   56.900; -148.000; -115.000
321.410;  -38.600; -585.000; -353.000
321.546;  -37.025;-1011.000; -911.000
321.683;   47.375;  400.000;  185.000
321.819;    8.550;  -48.000; -117.000
321.955; -111.750; -743.000; -722.000
322.091;  -49.550; -585.000; -540.000
322.227;  -26.475; -382.000; -202.000
322.363;  -23.975; -320.000; -215.000
322.499;  -56.925; -343.000; -331.000
322.635;  135.675;  636.000;  443.000
322.771;   18.600; -139.000;   12.000
322.907;   86.775;  129.000;  327.000
323.043;  -20.925; -115.000; -206.000
323.179;  -34.050; -394.000; -363.000
323.315;   -4.150; -401.000; -371.000
323.451;   83.700; -328.000; -236.000
323.587;   62.200;  -60.000;  -77.000
323.723;    5.500; -682.000; -601.000
323.859;  -18.375; -258.000;  -76.000
323.995;  -35.950; -467.000; -409.000
324.131; -131.275; -967.000; -892.000
324.267;  -44.475; -254.000; -276.000
324.402; -117.975; -960.000; -983.000
324.538;  -16.600; -279.000; -104.000
324.674;   10.625;  164.000;   77.000
324.810;  114.850;  226.000;  308.000
324.946;  -19.425; -810.000; -658.000
325.082;  -64.425; -568.000; -475.000
325.217;  -16.175;  -62.000;   16.000
325.353;  -93.725; -764.000; -659.000
325.489;  -79.875; -540.000; -506.000
325.625;  -67.550; -579.000; -525.000
325.760;   51.325;  517.000;  376.000
325.896;  -19.000; -515.000; -702.000
326.032;  -47.400; -403.000; -352.000
326.168;  -76.100; -462.000; -369.000
326.303;  -59.675; -352.000; -461.000
326.439;  -25.975; -336.000; -276.000
326.575;   11.000; -190.000;  -29.000
326.710;   -6.700; -156.000;  -30.000
326.846;  -24.775;  146.000;  103.000
326.982;  -94.600; -530.000; -548.000
327.117;  -68.925; -481.000; -442.000
327.253;  -84.200; -745.000; -742.000
327.388; -168.425;-1137.000;-1153.000
327.524;  -69.225; -811.000; -578.000
327.659;  -38.450;  -58.000;  -22.000
327.795;   -6.075;   69.000;   45.000
327.931;  -84.975; -723.000; -499.000
328.066;  -37.600; -417.000; -276.000
328.202;  -26.775;   12.000; -129.000
328.337;  102.050;  957.000;  713.000
328.473;   30.300;  -12.000;  -74.000
328.608;  -25.275; -256.000; -267.000
328.743;  -97.800; -799.000; -664.000
328.879;   15.175;  214.000;  114.000
329.014;  -24.700; -102.000; -122.000
329.150;  -87.775; -358.000; -483.000
329.285;  -80.475; -465.000; -466.000
329.421;  -56.325; -548.000; -246.000
329.556;  -35.600;  -36.000;   85.000
329.691; -104.875; -633.000; -615.000
329.827;  -84.150; -626.000; -480.000
329.962;  -46.550;  131.000; -301.000
330.097;  -90.025; -673.000; -585.000
330.233;  -53.625; -410.000; -223.000
330.368; -141.775; -839.000; -628.000
330.503;  -15.050;    3.000;   98.000
330.638;   -6.500;  -93.000; -125.000
330.774;  -70.900; -609.000; -530.000
330.909;  -42.850; -434.000; -244.000
331.044;  -96.500; -714.000; -708.000
331.179; -172.850;-1217.000;-1109.000
331.315;    4.125;   77.000;   20.000
331.450;   16.300;  157.000;  285.000
331.585;  -73.850; -805.000; -706.000
331.720;  -81.350; -510.000; -460.000
331.855;   -9.475;  -35.000; -102.000
331.990;  255.575;   62.000;  138.000
332.126;  141.525; -110.000;   71.000
332.261;  -29.450; -379.000; -265.000
332.396;    4.225; -135.000; -242.000
332.531; -108.275;-1074.000;-1031.000
332.666;   41.100; -519.000; -363.000
332.801; -107.525; -726.000; -807.000
332.936;  -32.200; -192.000; -122.000
333.071; -149.200; -870.000; -817.000
333.206;   25.725;  307.000;  379.000
333.341;   14.375;  344.000;  418.000
333.476; -108.575; -627.000; -623.000
333.611;  -49.475; -251.000; -173.000
333.746;  -47.625; -381.000; -464.000
333.881; -124.750; -973.000; -935.000
334.016; -128.250; -936.000; -917.000
334.151; -142.300; -746.000; -702.000
334.286;   23.525;  152.000;  186.000
334.421;  -19.550; -125.000; -178.000
334.556;  -79.650; -611.000; -567.000
334.690;  -88.425; -631.000; -577.000
334.825;   47.975;  381.000;   83.000
334.960;  -77.275; -285.000; -413.000
335.095;   19.275;  135.000;  -91.000
335.230;  -94.025; -722.000; -738.000
335.365; -141.200;-1084.000; -990.000
335.499; -150.650;-1108.000;-1037.000
335.634;   23.000;    9.000;  534.000
335.769; -105.750; -755.000; -720.000
335.904;  -68.075; -603.000; -561.000
336.038;  -77.100; -735.000; -657.000
336.173; -123.050;-1206.000;-1194.000
336.308;   12.075; -116.000; -189.000
336.443;   10.425; -544.000; -634.000
336.577;  -85.900; -936.000; -787.000
336.712;   47.150;   -4.000;  -12.000
336.847;  -49.625; -724.000; -607.000
336.981;   58.525; -272.000; -208.000
337.116;  267.225;  615.000;  501.000
337.250;  120.625; -434.000; -421.000
337.385;  272.050; -297.000; -208.000
337.520;  103.600; -632.000; -603.000
337.654;  -42.250; -215.000; -126.000
337.789; -127.925; -989.000; -933.000
337.923;  -37.725; -104.000; -205.000
338.058; -104.850; -673.000; -738.000
338.192;  -50.550; -611.000; -488.000
338.327;  -10.825;  -18.000; -155.000
338.461;  -80.825; -299.000; -469.000
338.596;  -85.575; -780.000; -638.000
338.730; -104.150; -767.000; -803.000
338.865;   97.425;  -46.000; -140.000
338.999;  -56.200; -846.000; -702.000
339.134;  -24.250; -634.000; -536.000
339.268;   18.050; -741.000; -603.000
339.403;  366.575; -740.000; -775.000
339.537;  120.700; -894.000; -820.000
339.671; -118.925; -829.000; -813.000
339.806;  -48.350; -556.000; -512.000
339.940;   21.825; -261.000; -235.000
340.074; -105.875; -685.000; -510.000
340.209;  -59.250; -351.000; -230.000
340.343;  -74.775; -517.000; -573.000
340.477;  155.325;  998.000; 1036.000
340.612;  -47.425;-1033.000; -900.000
340.746;  141.825; -199.000; -243.000
340.880;  -86.225; -924.000; -785.000
341.014;  -25.400;  -45.000; -154.000
341.149; -116.025; -756.000; -718.000
341.283; -106.300; -839.000; -754.000
341.417; -109.575;-1124.000; -938.000
341.551;   97.125; -768.000; -708.000
341.685;  -45.625; -633.000; -611.000
341.820;  -61.950; -562.000; -493.000
341.954;  -48.475; -218.000; -349.000
342.088; -149.250;-1102.000;-1019.000
342.222;   57.975;  565.000;  618.000
342.356;  -74.425; -395.000; -335.000
342.490; -107.200; -880.000; -841.000
342.624;  -42.725; -339.000; -242.000
342.758;   -8.275; -364.000; -312.000
342.892;  -74.675; -710.000; -585.000
343.026;  -44.450;  -58.000; -116.000
343.160;  -68.900; -426.000; -376.000
343.294;  -91.050; -474.000; -337.000
343.428;  -28.800; -488.000; -448.000
343.562;  -23.675; -172.000;  -23.000
343.696;  -22.550; -385.000; -314.000
343.830;  -34.100; -362.000; -356.000
343.964;   -6.325; -231.000; -168.000
344.098;  799.000;  199.000;   70.000
344.232;  651.375; -266.000; -127.000
344.366;   70.775; -567.000; -453.000
344.500;   40.300; -665.000; -744.000
344.634;    6.925; -324.000; -164.000
344.768;  -34.625; -531.000; -341.000
344.902;    9.800;  278.000;  256.000
345.035;  -82.275; -556.000; -496.000
345.169; -146.275; -933.000; -656.000
345.303;  -62.450; -308.000; -482.000
345.437;  -79.700; -826.000; -717.000
345.571;  -92.200; -675.000; -594.000
345.704;  -75.750; -309.000; -532.000
345.838;  -23.775; -331.000; -284.000
345.972;  -42.125; -543.000; -495.000
346.106;  165.175; -179.000; -190.000
346.239;  381.275; -312.000; -243.000
346.373;   -9.100; -343.000; -302.000
346.507; -150.875; -950.000; -962.000
346.640;  117.550;  -30.000;   13.000
346.774;  -43.900; -650.000; -797.000
346.908;  -23.500; -138.000;  -11.000
347.041; -100.850; -646.000; -593.000
347.175;   -1.975;  259.000;   27.000
347.309;  -78.100; -698.000; -628.000
347.442; -102.750; -883.000; -732.000
347.576;  255.300;  670.000;  668.000
347.709;  163.550; -123.000;  -52.000
347.843;  -97.300; -933.000; -825.000
347.976;   37.800;  235.000;  294.000
348.110; -184.700;-1268.000;-1186.000
348.243; -109.700; -679.000; -772.000
348.377;  -12.975;  -26.000;   60.000
348.510;   51.075;  403.000;  540.000
348.644;  -31.100;  -37.000; -159.000
348.777;   -5.125;  180.000;  191.000
348.911;  -55.275; -142.000; -112.000
349.044;  154.475;  471.000;  448.000
349.178;  109.400;-1069.000;-1006.000
349.311;  109.575;  141.000;  255.000
349.444;  -25.100; -927.000; -813.000
349.578;  -23.325; -347.000; -200.000
349.711; -103.300; -959.000; -862.000
349.845;   -5.725; -661.000; -591.000
349.978; -154.950;-1224.000;-1137.000
350.111;  -81.275; -546.000; -612.000
350.244; -101.250; -596.000; -700.000
350.378;  -10.850; -392.000; -393.000
350.511;  -78.125; -393.000; -426.000
350.644; -107.500; -808.000; -806.000
350.778;   17.750;  168.000;  104.000
350.911;   10.000;  134.000;  140.000
351.044;  -99.400; -685.000; -615.000
351.177;  -29.150; -321.000; -281.000
351.310;  -20.925;    3.000; -131.000
351.444;  -87.125; -888.000; -788.000
351.577;   92.900;  140.000;   90.000
351.710;  100.600;  593.000;  417.000
351.843;  -30.800; -165.000;  -77.000
351.976;   -4.525;  149.000;  -79.000
352.109;  -97.175; -621.000; -612.000
352.242;  -29.200; -464.000; -419.000
352.376;  -70.275; -580.000; -636.000
352.509;  138.375; -437.000; -356.000
352.642;  -20.075; -654.000; -604.000
352.775;   43.125; -141.000;  -98.000
352.908; -128.275; -933.000; -904.000
353.041; -112.275; -814.000; -824.000
353.174;  -71.425; -551.000; -424.000
353.307;  -89.500; -753.000; -764.000
353.440;   64.550;  541.000;  453.000
353.573; -120.000; -957.000;-1008.000
353.706;  -65.350; -384.000; -558.000
353.839;  -27.575; -264.000; -220.000
353.971; -102.150; -657.000; -512.000
354.104; -103.450; -896.000; -835.000
354.237;  -50.275; -627.000; -662.000
354.370;  -99.575; -846.000; -879.000
354.503; -188.300;-1231.000;-1308.000
354.636;  -40.925; -529.000; -348.000
354.769; -135.125; -937.000; -860.000
354.902;    2.875; -230.000; -139.000
355.034;  -26.075; -164.000; -220.000
355.167;  -21.700; -262.000; -162.000
355.300;  -88.250;-1061.000; -880.000
355.433;  991.000;  -71.000;  -14.000
355.565; 1520.925; -402.000; -384.000
355.698;  393.350; -356.000; -296.000
355.831;  -17.450; -882.000; -801.000
355.964;   45.300; -285.000; -170.000
356.096;  -98.500; -856.000; -843.000
356.229;   -5.625; -523.000; -530.000
356.362;  335.875; -373.000; -266.000
356.494;  609.375; -229.000; -162.000
356.627;  420.650;  269.000;  377.000
356.760;  670.075;  120.000;   53.000
356.892;  966.400; -286.000; -601.000
357.025;  586.450;  403.000;  389.000
357.157;  509.850; -167.000; -179.000
357.290;  708.425; -856.000; -713.000
357.423;  199.150; -667.000; -556.000
357.555;  108.050; -217.000; -228.000
357.688;  107.550; -483.000; -364.000
357.820;  401.125; -870.000; -877.000
357.953; 3392.150; -563.000; -589.000
358.085;  686.375; -632.000; -612.000
358.218;  905.725;-1131.000; -932.000
358.350;  185.875;  -58.000;  312.000
358.483; -137.275;-1300.000;-1187.000
358.615;  -44.800;-1182.000;-1078.000
358.747;  -73.250;-1187.000;-1058.000
358.880;   -4.625; -810.000; -744.000
359.012;  -26.500; -376.000; -202.000
359.145;  -55.525; -480.000; -511.000
359.277;   32.525; -962.000; -913.000
359.409; 2780.275;  536.000;  231.000
359.542;  713.475; -738.000; -688.000
359.674;   60.850;   46.000;   13.000
359.806;  -73.525; -565.000; -438.000
359.939;  -34.050; -617.000; -516.000
360.071;  -10.725; -583.000; -579.000
360.203;  -22.475; -411.000; -364.000
360.335;   50.650;  164.000;  -16.000
360.468;  174.450; -249.000; -307.000
360.600; 2232.175; -547.000; -454.000
360.732; 2889.375; -546.000; -423.000
360.864;  401.000;-1216.000;-1044.000
360.996;  235.325; -516.000; -554.000
361.129;   16.900; -389.000; -598.000
361.261;   20.575;  110.000; -113.000
361.393;  -36.650; -252.000; -214.000
361.525;   30.775;   94.000;  244.000
361.657;  -60.625; -821.000; -703.000
361.789;   -4.400; -139.000; -155.000
361.921;  159.250; -642.000; -593.000
362.053;  226.525;  524.000;  541.000
362.185;   28.950;  288.000;   72.000
362.318;  -82.075; -709.000; -705.000
362.450;  109.400;  294.000;  444.000
362.582;   43.875; -913.000; -870.000
362.714;  -62.500; -353.000; -332.000
362.846;  -88.925; -606.000; -490.000
362.978; -152.125; -941.000; -811.000
363.109;   27.600; -161.000; -260.000
363.241;  347.900; -739.000; -749.000
363.373;  427.925; -649.000; -564.000
363.505;  679.900; -186.000;  -91.000
363.637;  159.425; -787.000; -601.000
363.769; -133.600;-1067.000;-1080.000
363.901;  -75.200; -596.000; -654.000
364.033; -118.975;-1103.000;-1062.000
364.165;   -9.675; -283.000; -283.000
364.296;   83.875; -316.000; -177.000
364.428;   69.325;-1344.000;-1220.000
364.560;  -71.050; -679.000; -661.000
364.692;  -63.450; -738.000; -835.000
364.824;  198.825; -588.000; -456.000
364.955;  420.800; -402.000; -564.000
365.087;  989.450;-1097.000; -852.000
365.219;   25.325; -686.000; -816.000
365.351;  -60.475; -526.000; -572.000
365.482;   50.075;  300.000;  240.000
365.614;  -55.075; -402.000; -314.000
365.746; -103.525; -729.000; -752.000
365.877; -104.600; -706.000; -672.000
366.009;  270.650;  -35.000;  -62.000
366.141;  -92.475;-1249.000;-1134.000
366.272; -113.600; -803.000; -719.000
366.404; -115.700;-1005.000; -874.000
366.535;  -18.825; -139.000;  -12.000
366.667; -111.575; -644.000; -649.000
366.799;   34.900;  353.000;  203.000
366.930; -129.250; -862.000; -996.000
367.062;  118.275; -639.000; -613.000
367.193;  172.225; -872.000; -842.000
367.325;  -75.200; -580.000; -684.000
367.456;    8.775; -246.000;   31.000
367.588;  176.375; -371.000; -318.000
367.719;   22.450;  -44.000;  -45.000
367.851;  -25.900; -222.000; -241.000
367.982;  -72.300; -875.000; -732.000
368.113;   72.250; -475.000; -358.000
368.245; -146.025; -960.000; -841.000
368.376;  -24.425; -254.000; -302.000
368.508;  -47.200; -188.000; -263.000
368.639; -136.950;-1166.000;-1034.000
368.770;  -40.825; -670.000; -589.000
368.902;  -84.525; -836.000; -926.000
369.033; -107.150; -906.000; -855.000
369.164;  -56.550; -720.000; -653.000
369.296; -102.400; -452.000; -601.000
369.427;   -7.900; -209.000; -144.000
369.558;  -54.325; -593.000; -377.000
369.689;  -88.250; -721.000; -569.000
369.821; -138.775; -951.000; -845.000
369.952;  -17.050;   42.000; -108.000
370.083;  -46.225; -229.000; -108.000
370.214;  -84.150; -735.000; -650.000
370.345;  -21.050;   65.000;   81.000
370.477;  -87.500; -810.000; -790.000
370.608;  188.800; -328.000; -264.000
370.739;  -60.325;-1233.000;-1292.000
370.870;  -62.975;-1102.000; -923.000
371.001;   65.150; -378.000; -467.000
371.132;  -87.425; -754.000; -735.000
371.263;  -19.425;  -42.000; -148.000
371.394; -144.050; -841.000; -748.000
371.525;   26.125;  345.000;  225.000
371.657; -101.200; -808.000; -670.000
371.788;   64.575;  103.000;  199.000
371.919;  119.650; -384.000; -304.000
372.050; 3283.675;  -91.000; -156.000
372.181;  928.275; -188.000; -294.000
372.311;  313.500;   42.000; -127.000
372.442;   18.175; -457.000; -451.000
372.573;  -36.050; -444.000; -340.000
372.704; -126.625;-1008.000; -980.000
372.835;   53.575; -228.000; -289.000
372.966;  -71.775; -646.000; -554.000
373.097;  -83.325; -575.000; -711.000
373.228;  -58.900; -717.000; -542.000
373.359;   97.275; -824.000; -536.000
373.490;  790.600; -881.000; -727.000
373.620;  980.175;-1001.000; -803.000
373.751; 1526.175; -332.000; -396.000
373.882;  690.300; -663.000; -733.000
374.013;   45.400; -449.000; -262.000
374.143;  -40.500; -581.000; -659.000
374.274; -127.300; -987.000; -908.000
374.405;  146.100; -388.000; -276.000
374.536;  370.125; -526.000; -387.000
374.666;  949.675; -759.000; -807.000
374.797;  170.925; -817.000; -868.000
374.928;  727.575; -710.000; -560.000
375.058;  755.700; -535.000; -500.000
375.189;   65.900;  -59.000;  -93.000
375.320; -124.150; -928.000;-1034.000
375.450;  -54.325; -625.000; -616.000
375.581;  -54.275; -526.000; -436.000
375.712;  -35.800; -574.000; -250.000
375.842;  252.175; -438.000; -415.000
375.973;  169.050; -554.000; -513.000
376.103;  -79.025; -665.000; -648.000
376.234;  -71.500; -531.000; -552.000
376.364;  -54.225; -944.000; -867.000
376.495;  303.525;  925.000;  529.000
376.625;  -28.550; -472.000; -485.000
376.756;   29.650; -709.000; -678.000
376.886;  -88.775;-1178.000;-1026.000
377.017;   43.075;-1048.000;-1061.000
377.147;  353.200; -786.000; -782.000
377.278;   65.500;  174.000;  228.000
377.408; -132.325; -801.000; -815.000
377.538; -103.575; -707.000; -693.000
377.669;  -84.025; -537.000; -613.000
377.799;  -90.200; -645.000; -635.000
377.929;  -79.025; -610.000; -428.000
378.060; -133.775; -781.000; -847.000
378.190;  -67.975; -726.000; -531.000
378.320;  -59.675; -401.000; -406.000
378.451;  -39.225; -131.000;  -22.000
378.581;  -24.400;  -67.000; -110.000
378.711;  132.700; 1035.000;  866.000
378.841;  -15.025; -533.000; -675.000
378.972;  -98.875; -871.000; -751.000
379.102;  -21.525; -652.000; -579.000
379.232;  -30.875; -126.000;  -73.000
379.362; -113.450;-1001.000; -885.000
379.492;  -11.700; -373.000; -424.000
379.623;   91.525;    0.000;  111.000
379.753; -105.250;-1107.000; -974.000
379.883;  170.525;   59.000;  156.000
380.013;  -32.600;-1081.000;-1017.000
380.143; -103.575;-1097.000;-1056.000
380.273; -122.200; -985.000; -861.000
380.403;    1.975; -344.000; -257.000
380.533;  -47.375; -651.000; -664.000
380.663;   67.275;  173.000;  128.000
380.793; -124.700;-1027.000;-1074.000
380.923;  -21.600; -103.000;  -34.000
381.053; -101.775; -613.000; -623.000
381.183;  -26.900; -106.000; -248.000
381.313;    6.250; -656.000; -470.000
381.443;    1.475; -692.000; -473.000
381.573;  149.375; -402.000; -409.000
381.703;  186.300;-1249.000;-1095.000
381.833; -149.675;-1454.000;-1336.000
381.963;   93.125; -134.000;  -87.000
382.093; 1239.000; -925.000; -909.000
382.223;  366.725; -713.000; -602.000
382.353;  -37.825; -801.000; -608.000
382.482;  301.500;-1091.000; -964.000
382.612;  668.550; -872.000; -644.000
382.742;  361.975; -695.000; -622.000
382.872;  188.425; -565.000; -551.000
383.002;   52.875;  347.000; -132.000
383.131;  -24.075; -226.000; -160.000
383.261;  -53.025; -706.000; -768.000
383.391;  259.800; -552.000; -377.000
383.521; 3372.875;  451.000;  263.000
383.650;  798.525; -947.000; -904.000
383.780;  -16.175; -783.000; -656.000
383.910;   83.850;  880.000;  802.000
384.039;   -6.900; -794.000; -656.000
384.169;  132.350;-1205.000;-1017.000
384.299;  -32.650; -650.000; -662.000
384.428;  -96.125; -764.000; -680.000
384.558;  -60.100; -308.000; -275.000
384.687;  -60.350; -414.000; -334.000
384.817;    6.850;   75.000;   -2.000
384.947;   -2.450; -234.000; -141.000
385.076;  253.150;  982.000;  912.000
385.206;  100.600;  369.000;  480.000
385.335;  -54.000; -549.000; -417.000
385.465;  -86.375; -655.000; -663.000
385.594;  113.350;  -53.000;  -44.000
385.724;  326.325; -868.000; -838.000
385.853;   79.375; -296.000; -270.000
385.982; 1184.600; -743.000; -787.000
386.112; 1851.150;-1052.000; -871.000
386.241;  110.425; -307.000; -312.000
386.371;   -1.750; -174.000;  -87.000
386.500;  -24.050; -825.000; -789.000
386.629;    8.675; -874.000; -817.000
386.759;   62.675;  -43.000;   68.000
386.888;  -10.525; -170.000; -250.000
387.017; -100.675; -648.000; -620.000
387.147;  -90.900; -771.000; -798.000
387.276;  -28.525; -410.000; -397.000
387.405;   -0.100; -398.000; -342.000
387.535;  -48.200; -452.000; -361.000
387.664;  -63.025; -692.000; -620.000
387.793;   34.050; -198.000; -113.000
387.922;  453.050;  255.000;  200.000
388.052;    3.300; -576.000; -423.000
388.181;  -10.450; -342.000; -472.000
388.310;  -35.125; -889.000; -710.000
388.439;  -81.100; -749.000; -742.000
388.568;  140.875;  365.000;  244.000
388.697;  893.500; -756.000; -653.000
388.826;  149.600; -768.000; -666.000
388.956;   30.275; -285.000; -307.000
389.085;  -53.400; -347.000; -287.000
389.214; -108.700; -842.000; -872.000
389.343;  -84.000; -645.000; -413.000
389.472;  428.500;  126.000;  149.000
389.601;  496.175;   91.000;    0.000
389.730;    2.725; -568.000; -687.000
389.859;   51.700;  226.000;   46.000
389.988;  155.425; -423.000; -408.000
390.117;  107.750; -168.000; -146.000
390.246;  -14.875; -331.000; -320.000
390.375;   57.750; -673.000; -626.000
390.504;  -67.550; -703.000; -621.000
390.633; -107.850; -672.000; -726.000
390.761;  -84.400; -732.000; -645.000
390.890;   14.075;   -4.000; -130.000
391.019;  -40.500; -421.000; -441.000
391.148; -132.225; -826.000; -855.000
391.277;  -80.800; -576.000; -493.000
391.406;  -98.875; -821.000; -805.000
391.534;   35.375;  574.000; -301.000
391.663;  -71.250; -583.000; -645.000
391.792; -104.150; -673.000; -701.000
391.921;   78.900;   -3.000;   15.000
392.050;  127.700; -287.000; -228.000
392.178;  -68.975;-1206.000;-1061.000
392.307;  113.350; -758.000; -712.000
392.436;   32.725; -427.000; -641.000
392.564;    8.275;  166.000;   -6.000
392.693;  -96.900; -860.000; -682.000
392.822;  171.400; -529.000; -534.000
392.950;   58.825; -880.000; -714.000
393.079;  268.825; -188.000; -328.000
393.208;   -2.875; -488.000; -511.000
393.336;  -13.000; -170.000; -145.000
393.465;  -47.275; -317.000; -199.000
393.593;   -3.450;   62.000;   79.000
393.722; -153.475;-1121.000; -916.000
393.850;  -30.250; -188.000;  -61.000
393.979; -168.725; -926.000; -805.000
394.107;  -54.975; -517.000; -537.000
394.236;  -18.725; -570.000; -507.000
394.364;  178.350;  383.000;  206.000
394.493;  205.650; -911.000; -767.000
394.621;  -29.325; -955.000; -916.000
394.750;  745.375; -873.000; -923.000
394.878; 3048.800; -247.000; -149.000
395.007; 4080.425; -721.000; -807.000
395.135;  296.800; -790.000; -721.000
395.263;  -79.975;-1038.000;-1040.000
395.392;    2.750;  -25.000; -107.000
395.520; -141.050; -818.000; -679.000
395.648;  -95.325; -865.000; -915.000
395.777;  -32.000; -366.000; -405.000
395.905;  -59.475; -449.000; -564.000
396.033;    2.575;  217.000;  172.000
396.162;  387.925; -399.000; -453.000
396.290;  338.900;  -17.000;   -2.000
396.418;   57.175; -555.000; -514.000
396.546;  -98.625; -571.000; -466.000
396.674; -105.825; -850.000; -878.000
396.803;   22.475;  -72.000;  -23.000
396.931;   65.900; -179.000; -199.000
397.059;   -2.125;-1026.000; -989.000
397.187; -124.775;-1026.000; -975.000
397.315; -149.625; -884.000; -649.000
397.443; -100.450; -592.000; -443.000
397.572;  -95.575; -578.000; -424.000
397.700;  -24.350; -607.000; -614.000
397.828;   -7.500;  120.000;  -90.000
397.956;  -38.425; -508.000; -478.000
398.084;  -81.425; -767.000; -626.000
398.212;   28.825;  137.000;  124.000
398.340;    4.450;  -56.000;  159.000
398.468;    1.350; -390.000; -169.000
398.596; -146.950; -993.000; -953.000
398.724; -115.675; -762.000; -767.000
398.852; -165.300;-1024.000; -976.000
398.980;  -75.575; -560.000; -560.000
399.108;  -75.675; -982.000; -735.000
399.236;   19.700;   13.000;    8.000
399.363;    5.250;  222.000;  196.000
399.491;  -79.925; -404.000; -398.000
399.619; -129.850; -829.000; -800.000
399.747; -103.625; -859.000; -771.000
399.875;   56.650;  220.000;  234.000
400.003;  -58.100; -359.000; -284.000
400.130;  -96.975; -421.000; -341.000
400.258;  -24.775;  -83.000;   38.000
400.386;  -66.300; -352.000; -168.000
400.514;  -52.225; -526.000; -587.000
400.641; -113.500; -928.000; -802.000
400.769; -133.750; -979.000; -888.000
400.897; -134.275; -838.000; -793.000
401.025;  -15.475; -166.000; -152.000
401.152;  -14.075;  220.000;   38.000
401.280;  -94.775; -430.000; -429.000
401.408; -121.375; -712.000; -576.000
401.535; -112.675; -735.000; -758.000
401.663; -197.650;-1134.000;-1054.000
401.790;  -85.725; -514.000; -525.000
401.918;   26.650;  436.000;  405.000
402.046;  -17.400;  134.000;  122.000
402.173;  -23.675;  -18.000;    7.000
402.301;  -70.100; -519.000; -397.000
402.428;   30.400;  528.000;  383.000
402.556; -150.975;-1188.000; -913.000
402.683;  -35.175;  -20.000;   -1.000
402.811;  -21.600;  -37.000; -206.000
402.938;  -16.700;   20.000;   27.000
403.066;  161.025; -574.000; -558.000
403.193;  283.200;  299.000;  239.000
403.321;  208.850; -396.000; -574.000
403.448;  282.325;   83.000;   27.000
403.575;  118.500;  -90.000;  -46.000
403.703; -101.250; -732.000; -557.000
403.830;  -67.175; -531.000; -496.000
403.957; -148.175;-1117.000;-1023.000
404.085;    7.450;  -61.000; -172.000
404.212;   90.450;  -50.000;   63.000
404.339;  276.800; -566.000; -306.000
404.467; 6040.125; -612.000; -524.000
404.594; 3739.550; -287.000; -227.000
404.721;  814.425; -869.000; -764.000
404.848;   64.200; -113.000; -202.000
404.976; -122.700; -856.000; -783.000
405.103;  -11.100;  -14.000;  -82.000
405.230;    4.100;  190.000;  226.000
405.357;   26.050;  117.000;   44.000
405.484;  255.275;  -49.000;    5.000
405.612;   42.750; -548.000; -563.000
405.739;  -63.875; -488.000; -243.000
405.866;   82.550;  669.000;  385.000
405.993;  -46.150; -398.000; -102.000
406.120; -134.200; -801.000; -887.000
406.247;  -68.350; -323.000; -342.000
406.374;  368.500;  540.000;  629.000
406.501;   47.250; -632.000; -702.000
406.628;  -83.850; -621.000; -589.000
406.755; -106.325; -803.000; -620.000
406.882;  -52.950; -228.000; -277.000
407.009; -103.625; -719.000; -628.000
407.136;   26.075; -480.000; -401.000
407.263;   70.525; -939.000; -829.000
407.390;  -87.100; -692.000; -614.000
407.517; -189.975;-1139.000;-1187.000
407.644;  -64.125; -332.000; -256.000
407.771;  -71.200; -249.000; -287.000
407.898;  -13.525;  168.000;  328.000
408.025;  -80.450; -421.000; -313.000
408.151;  -20.700;   82.000;  153.000
408.278;  -59.525; -267.000; -216.000
408.405; -110.550; -931.000; -899.000
408.532;  -70.325; -549.000; -542.000
408.659; -123.375; -677.000; -648.000
408.785; -202.600;-1298.000;-1170.000
408.912;  -63.225; -412.000; -296.000
409.039; -114.600; -610.000; -686.000
409.166; -123.500; -591.000; -555.000
409.292; -112.250; -571.000; -534.000
409.419; -118.750; -665.000; -649.000
409.546;  -90.475; -431.000; -192.000
409.672; -105.600; -713.000; -545.000
409.799;  -20.075;  -36.000;   34.000
409.926;  -37.700; -180.000; -179.000
410.052; -173.525;-1127.000;-1091.000
410.179;  -68.725; -368.000; -392.000
410.305;  -87.050; -375.000; -493.000
410.432;  -55.300; -220.000; -333.000
410.558;  -92.450; -305.000; -380.000
410.685;  -92.300; -688.000; -431.000
410.812; -116.875; -409.000; -588.000
410.938; -147.600; -964.000; -808.000
411.065; -102.700; -671.000; -645.000
411.191;  -22.100; -189.000; -174.000
411.317; -139.575; -823.000; -742.000
411.444;  -69.950; -317.000; -246.000
411.570;  -90.550; -339.000; -294.000
411.697; -122.700; -758.000; -752.000
411.823; -163.875; -989.000; -999.000
411.949;  -36.600;  -56.000;   17.000
412.076; -122.625; -539.000; -519.000
412.202; -126.200; -758.000; -757.000
412.329; -141.725; -798.000; -752.000
412.455; -118.900; -821.000; -657.000
412.581;  -12.625;  -15.000;  172.000
412.707;  -77.575; -540.000; -457.000
412.834;    4.575;  156.000;  219.000
412.960;  -92.600; -785.000; -784.000
413.086; -112.100; -743.000; -701.000
413.212;  121.925;  604.000;  578.000
413.339;  -66.325; -685.000; -701.000
413.465;   -9.150; -364.000; -310.000
413.591;  -99.425; -757.000; -474.000
413.717;  -56.000; -358.000; -366.000
413.843; -140.350; -839.000; -861.000
413.969;  -55.925;  -47.000; -292.000
414.096; -104.725; -679.000; -679.000
414.222;  -15.600;  -33.000;   85.000
414.348;  -56.550; -652.000; -385.000
414.474;   74.075;   38.000;  -52.000
414.600;  -12.925; -126.000; -144.000
414.726;  -13.000;  -96.000;  -55.000
414.852;  -59.775; -365.000; -342.000
414.978;   24.725;  104.000;  -18.000
415.104;   34.975;   38.000;   80.000
415.230;   21.925; -329.000; -330.000
415.356;   36.975; -409.000; -514.000
415.482;  196.550;   13.000;  -35.000
415.608;  262.825; -247.000; -323.000
415.734;  993.075;   67.000;   38.000
415.860;20535.825; -875.000; -767.000
415.986;14546.350; -685.000; -607.000
416.111; 1214.375; -798.000; -652.000
416.237;  236.800; -424.000; -571.000
416.363; 1197.200; -765.000; -733.000
416.489; 4314.775; -324.000; -251.000
416.615;  440.350; -707.000; -742.000
416.741;  -25.300; -677.000; -784.000
416.866; -106.175; -673.000; -736.000
416.992; -120.000; -801.000; -818.000
417.118;  -28.025;  -41.000;  -80.000
417.244;  -81.200; -798.000; -531.000
417.369; -103.025; -801.000; -612.000
417.495;  -13.800; -325.000; -254.000
417.621;  -92.500;-1015.000; -803.000
417.746;    4.100; -579.000; -572.000
417.872;   46.875; -254.000; -144.000
417.998;   48.450; -515.000; -530.000
418.123; 1119.400;-1073.000; -845.000
418.249; 5607.125; -512.000; -601.000
418.374;  765.150; -916.000; -824.000
418.500;  121.050; -383.000; -482.000
418.626;  115.775;   70.000;  -59.000
418.751;  124.775; -549.000; -448.000
418.877;  185.450; -637.000; -643.000
419.002; 1876.925; -688.000; -560.000
419.128;13011.400; -930.000; -721.000
419.253; 3096.950; -967.000; -837.000
419.379;  413.200; -391.000; -338.000
419.504;  383.300;  325.000;  415.000
419.629;  509.550; -393.000; -212.000
419.755; 3794.100; -317.000; -254.000
419.880;22244.525;  -98.000;   67.000
420.006;11837.725; -280.000; -221.000
420.131;30146.375; -662.000; -775.000
420.256; 4191.925; -315.000; -316.000
420.382;  544.150; -665.000; -687.000
420.507;   67.675; -649.000; -778.000
420.632;  104.225; -337.000; -339.000
420.758;  199.250; -251.000; -425.000
420.883;  -91.300; -876.000; -672.000
421.008; -101.800; -775.000; -619.000
421.133;  -93.600; -509.000; -467.000
421.259;  -59.650; -325.000; -259.000
421.384; -118.100; -834.000; -693.000
421.509;  -57.825;-1052.000; -862.000
421.634;  934.650; -936.000; -820.000
421.759;  392.250; -359.000; -327.000
421.885;  -79.325; -717.000; -656.000
422.010;  -86.450; -673.000; -542.000
422.135; -162.625; -695.000; -727.000
422.260;   30.200;  340.000;  280.000
422.385;  -52.900;   12.000;  -98.000
422.510;   13.750;  151.000;  -26.000
422.635;    5.525;  -87.000;  -43.000
422.760;   71.275; -766.000; -791.000
422.885;   63.025;  -57.000;  -80.000
423.010;   -8.550; -112.000; -169.000
423.135; -109.875; -481.000; -561.000
423.260;  -18.450; -150.000; -245.000
423.385;   66.050;  476.000;  222.000
423.510;   11.600;   71.000;  -22.000
423.635;   66.125;  133.000;   45.000
423.760;   51.175;  383.000;  328.000
423.885;   42.150;  336.000;  391.000
424.010;    3.950;  -68.000;  -13.000
424.135;  -29.400;    5.000;  -33.000
424.259;  -91.425; -654.000; -457.000
424.384;  -73.800; -279.000; -272.000
424.509;  -27.500; -260.000; -186.000
424.634; -110.300; -761.000; -623.000
424.759;  -21.800; -688.000; -544.000
424.883;  -24.775; -506.000; -527.000
425.008;  155.725; -502.000; -410.000
425.133; 2087.100; -679.000; -653.000
425.258;  948.275; -517.000; -381.000
425.382;  931.325; -867.000; -774.000
425.507; 2337.675; -487.000; -543.000
425.632;  391.375; -802.000; -663.000
425.756;  477.325; -256.000; -146.000
425.881; 7047.200; -831.000; -857.000
426.006;18800.825; -604.000; -355.000
426.130; 2841.250; -696.000; -508.000
426.255;  350.775; -611.000; -491.000
426.379;  148.775; -189.000; -577.000
426.504;  384.475;  660.000;  544.000
426.629; 4122.650; -519.000; -466.000
426.753; 2813.025;   64.000;  -46.000
426.878;  312.825; -252.000; -288.000
427.002;  154.575; -651.000; -668.000
427.127; 1635.150;  -35.000; -158.000
427.251;11761.100;  372.000;  401.000
427.375; 3262.725; -191.000; -173.000
427.500; 2059.450; -616.000; -610.000
427.624;  676.775; -234.000; -400.000
427.749;   63.625; -216.000; -225.000
427.873;  -52.250; -499.000; -412.000
427.997;  -49.150; -222.000; -230.000
428.122;   62.500;  795.000;  703.000
428.246;   62.575;  433.000;  434.000
428.371; -133.350; -869.000; -773.000
428.495; -115.650; -624.000; -646.000
428.619;  -39.575; -186.000; -117.000
428.743;   24.400;   65.000;  132.000
428.868;   -9.275; -732.000; -643.000
428.992; 1241.525; -219.000; -326.000
429.116;  461.850; -329.000; -357.000
429.240;  236.575;  419.000;  426.000
429.365;  -30.375; -454.000; -574.000
429.489;  -53.950; -638.000; -647.000
429.613;   10.450; -236.000; -177.000
429.737;   40.475; -563.000; -432.000
429.861;  276.275; -247.000; -133.000
429.985; 5815.025; -425.000; -305.000
430.109; 6241.500; -770.000; -908.000
430.234;  695.950;   76.000;  -50.000
430.358;   61.025; -250.000; -160.000
430.482;  -83.350; -672.000; -564.000
430.606;  -76.500; -655.000; -375.000
430.730;  -26.325; -437.000; -388.000
430.854;   55.075; -909.000; -835.000
430.978;  -79.775; -795.000; -764.000
431.102;  -90.650; -499.000; -422.000
431.226; -146.650; -874.000; -815.000
431.350;    2.450;  345.000;  422.000
431.474;  -73.150; -661.000; -373.000
431.597; -158.525;-1060.000; -848.000
431.721;  -84.150; -276.000; -267.000
431.845; -136.100; -704.000; -472.000
431.969;  -81.700; -304.000; -349.000
432.093;  -99.850; -395.000; -317.000
432.217;  -12.300;   32.000;   82.000
432.341; -102.575; -523.000; -518.000
432.464;   -1.250;   96.000;   40.000
432.588;  151.775; -401.000; -329.000
432.712;   88.725;  -52.000;  -52.000
432.836;   40.425;  213.000;  263.000
432.959;  -27.925; -372.000; -311.000
433.083;   84.250;   11.000;    2.000
433.207;  384.450;  285.000;  930.000
433.330; 5324.650; -391.000; -200.000
433.454; 6412.150; -654.000; -638.000
433.578; 3697.825;  583.000;  278.000
433.701;  659.625; -623.000; -675.000
433.825;  107.325; -292.000; -299.000
433.949;  125.975;   28.000;  -72.000
434.072;   20.575; -410.000; -323.000
434.196;  -28.800; -309.000; -117.000
434.319; 3756.125;25482.000;25124.000
434.443;  727.800; -656.000; -603.000
434.566; 2737.750;  281.000;   62.000
434.690;  452.475; -637.000; -383.000
434.813;   39.850; -251.000; -173.000
434.937;  -77.500; -569.000; -696.000
435.060;  -57.875; -423.000; -332.000
435.184;  223.400; -492.000; -217.000
435.307;  119.825;  159.000;  102.000
435.431;  -23.600;  -40.000;   24.000
435.554;  -87.775; -399.000; -240.000
435.677;  -88.550; -350.000; -258.000
435.801;  -59.175;  -25.000;   49.000
435.924;  -37.675;    1.000;  -67.000
436.048; -128.775;-1019.000; -732.000
436.171;  -82.500; -240.000;  -66.000
436.294;  -30.025; -248.000; -229.000
436.417;  110.525; -963.000; -849.000
436.541;  -85.225; -814.000; -840.000
436.664;  -56.800; -242.000; -316.000
436.787;  -25.750;   13.000;  113.000
436.910; -114.675; -792.000; -422.000
437.034;   -5.500;  142.000;  143.000
437.157;   48.525;  -11.000;    0.000
437.280;  -68.700; -392.000; -292.000
437.403; -104.800; -982.000; -869.000
437.526;  480.300; -903.000; -865.000
437.649; 1783.000; -505.000; -332.000
437.772;  240.200; -692.000; -540.000
437.896;  103.650;  700.000;  544.000
438.019; -109.975; -758.000; -503.000
438.142;  -96.575; -596.000; -506.000
438.265;  -39.425; -639.000; -670.000
438.388;  441.875; -520.000; -410.000
438.511;   33.875; -597.000; -394.000
438.634;  -51.500; -247.000; -125.000
438.757; -138.825; -693.000; -619.000
438.880;  -20.725;  -34.000;  -57.000
439.003;  -98.000; -417.000; -437.000
439.126;  -66.150; -287.000; -167.000
439.248;  -68.125;  -98.000; -139.000
439.371;  -50.375;    9.000;  -53.000
439.494;   18.775;  510.000;  439.000
439.617;  -51.500;   65.000;  -88.000
439.740; -195.000; -968.000; -816.000
439.863; -135.725; -755.000; -595.000
439.986; -127.025; -476.000; -431.000
440.108;  -38.250; -161.000; -112.000
440.231; -159.725; -950.000; -836.000
440.354;  -53.900;  -64.000; -150.000
440.477;  -14.400; -566.000; -542.000
440.599;  -22.350; -200.000; -225.000
440.722; -135.875; -709.000; -586.000
440.845;   55.775;  751.000;  928.000
440.968; -117.375; -415.000; -311.000
441.090;  -80.300; -199.000;  -33.000
441.213; -172.250;-1021.000; -825.000
441.336;  -58.725; -159.000;   -5.000
441.458;  -77.250; -549.000; -396.000
441.581;  -94.250; -628.000; -629.000
441.703;  -73.000; -152.000;   13.000
441.826; -124.825; -557.000; -400.000
441.948;  -49.100;   56.000;   51.000
442.071;   25.525;  555.000;  424.000
442.193; -124.525; -531.000; -485.000
442.316;    9.175;  152.000;   97.000
442.438;   49.475; -233.000;  -10.000
442.561;   82.550;  272.000;  262.000
442.683;  405.675; -809.000; -522.000
442.806;  925.250;   -8.000;   74.000
442.928;  -15.600; -859.000; -604.000
443.051;  -84.275; -577.000; -373.000
443.173; -103.550; -341.000; -339.000
443.295; -102.925; -263.000; -371.000
443.418;  -76.775; -321.000;  -29.000
443.540;   -6.475; -106.000;   -4.000
443.662; -126.225; -563.000; -465.000
443.785;   -5.625;  335.000;  199.000
443.907;  -88.675; -362.000; -208.000
444.029; -148.700; -767.000; -494.000
444.152; -140.100; -644.000; -554.000
444.274;  -16.950;  -18.000;  -24.000
444.396; -117.475; -461.000; -221.000
444.518; -145.625; -691.000; -454.000
444.640; -113.050; -268.000; -111.000
444.763;  -20.775;  388.000;  249.000
444.885; -126.800; -432.000; -392.000
445.007;  -43.025;   35.000;   86.000
445.129; -141.250; -610.000; -515.000
445.251; -119.225; -372.000; -439.000
445.373; -136.800; -537.000; -386.000
445.495;    9.325;  242.000;  350.000
445.617;   54.050;  853.000;  753.000
445.739;  -69.650; -215.000;  -97.000
445.861;  -48.800; -245.000; -112.000
445.984;  -34.575; -267.000; -101.000
446.105;  143.150; -418.000; -251.000
446.227;  488.575; -176.000;  -19.000
446.349;  -24.900; -358.000; -249.000
446.471; -103.750; -615.000; -448.000
446.593;  -71.250; -316.000;   19.000
446.715;  -15.925;  -67.000;   41.000
446.837;   59.575;  697.000;  832.000
446.959;  -97.125; -457.000; -478.000
447.081; -145.825; -628.000; -518.000
447.203;   40.325;  862.000;  834.000
447.325; -105.300; -270.000;   42.000
447.446;  -13.800;  286.000;  530.000
447.568; -163.575; -921.000; -803.000
447.690;  -88.275; -236.000; -245.000
447.812; -163.325; -798.000; -519.000
447.933;  -40.275;  155.000;  127.000
448.055;  -71.625; -306.000; -261.000
448.177;  110.725;   31.000;   79.000
448.299;   34.825; -935.000; -727.000
448.420;   23.350;  -25.000;  159.000
448.542;  -38.975;   -3.000;   33.000
448.664;  -35.375;  109.000;  322.000
448.785;  -46.400;  265.000;   83.000
448.907;  -84.925; -614.000; -353.000
449.028;  -61.575; -771.000; -471.000
449.150;   46.900;  492.000;  589.000
449.272; -179.325;-1044.000; -913.000
449.393;   24.925;  612.000;  694.000
449.515; -154.375; -634.000; -581.000
449.636;  -60.075; -264.000; -155.000
449.758;   66.700;  763.000;  622.000
449.879;  -87.950; -498.000; -396.000
450.001;  -89.675; -149.000;  -49.000
450.122;  -49.525;  -95.000;  162.000
450.244;  -28.150;   37.000;  364.000
450.365;  -98.425; -495.000; -301.000
450.486;  -22.575;   80.000;  268.000
450.608;   18.300;  393.000;  326.000
450.729;   83.000;  578.000;  645.000
450.850;    1.150; -574.000; -466.000
450.972;  802.900; -552.000; -389.000
451.093; 5162.475;  190.000;  588.000
451.214; 2178.100; -516.000; -337.000
451.336;  384.250;  773.000;  579.000
451.457;   59.750;  264.000;  393.000
451.578;  -49.150; -118.000;  -74.000
451.699; -136.800; -546.000; -540.000
451.821;  -80.400; -284.000;  -50.000
451.942;   -2.900;  278.000;  285.000
452.063;   36.200;  228.000;  419.000
452.184;  566.325;  -54.000;  -49.000
452.305; 1134.700;  103.000;  170.000
452.427;  130.275; -549.000; -301.000
452.548;  -20.675;   23.000;   79.000
452.669;  -59.950; -257.000;  -89.000
452.790;  -62.025;    3.000;  -18.000
452.911;  -17.550;  195.000;  259.000
453.032;  -79.700; -289.000;  -60.000
453.153;  -51.650;  -29.000;   81.000
453.274;   71.400;  737.000;  868.000
453.395;  -65.725;  -51.000;  175.000
453.516;  128.325; 1317.000; 1388.000
453.637;  -72.350; -205.000; -150.000
453.758;  -62.575;   15.000;   69.000
453.879; -122.850; -462.000; -250.000
454.000;   69.650; 1086.000;  948.000
454.121; -131.075; -554.000; -326.000
454.242; -123.700; -599.000; -383.000
454.362;  -64.050;  -99.000;  114.000
454.483;  -45.850; -309.000; -229.000
454.604;   39.450;  512.000;  580.000
454.725; -133.800; -627.000; -555.000
454.846; -134.675; -474.000; -406.000
454.967;  -17.450;  230.000;  539.000
455.087;  -36.825;  179.000;  153.000
455.208;   19.300;  554.000;  856.000
455.329;  -69.850;  -22.000;   82.000
455.450;   41.550;  473.000;  633.000
455.570;  -81.425; -234.000; -211.000
455.691;  -48.100;  201.000;  407.000
455.812; -116.575; -270.000;  -92.000
455.932;  -63.400;  107.000;  -97.000
456.053;  -86.725;   36.000;   24.000
456.173; -130.775; -433.000; -355.000
456.294; -123.950; -476.000; -303.000
456.415;  -66.200;  -73.000;   70.000
456.535;  -30.825;  297.000;  273.000
456.656;  -45.700;  132.000;  240.000
456.776;  -70.550;    3.000;  298.000
456.897;   -9.400;  308.000;  513.000
457.017;  -74.800; -153.000;   -3.000
457.138; -120.125; -402.000; -249.000
457.258;  -43.800;  263.000;  224.000
457.379;    0.500;  509.000;  521.000
457.499;  -38.325;  443.000;  432.000
457.620; -126.650; -407.000; -231.000
457.740; -101.825; -132.000;  -11.000
457.860;  -47.575;   87.000;   44.000
457.981;  -58.250;  132.000;  124.000
458.101;  -76.775;  -89.000;   40.000
458.221;  -13.025;  336.000;  402.000
458.342;  -52.600;   -4.000;  -37.000
458.462;   29.175;  617.000;  352.000
458.582;  -38.425; -302.000; -294.000
458.703;   -2.625;  303.000;  154.000
458.823;  -29.150;   22.000;  163.000
458.943;   28.100;  341.000;  467.000
459.063;   -6.475; 1124.000;  192.000
459.183;  -36.550;  328.000;  313.000
459.304;   -5.850;  315.000;  517.000
459.424;  -66.550; -246.000;  -89.000
459.544;  346.625;  388.000;  764.000
459.664;  872.850;  499.000;  506.000
459.784;  321.175; 1004.000; 1175.000
459.904;   68.800;  867.000;  744.000
460.024;   61.200;  867.000;  684.000
460.144;   -9.350;  449.000;  554.000
460.264;  -11.250;  515.000;  327.000
460.385;  -96.725; -145.000; -119.000
460.505;   46.750;  905.000;  858.000
460.625; -105.450;  -17.000;  -68.000
460.745;  -15.250;  396.000;  541.000
460.864;  -57.300;  153.000;  469.000
460.984;   23.100;  499.000;  573.000
461.104;  136.700; 1656.000; 1775.000
461.224;    8.300;  657.000;  650.000
461.344;  -30.225;  431.000;  360.000
461.464;  -30.275;  258.000;  513.000
461.584;  -19.075;  283.000;  466.000
461.704;  -52.650;   58.000;  108.000
461.824;  -67.050;  238.000;  259.000
461.943;  -45.650;  191.000;  130.000
462.063;  -67.275;    2.000;  324.000
462.183;   33.975;  639.000;  717.000
462.303;  101.150; 1678.000; 1230.000
462.422;   32.375;  781.000;  840.000
462.542;  -37.825;  271.000;  391.000
462.662;   43.100;  353.000;  380.000
462.782;  255.325;  833.000;  572.000
462.901;  497.550;  545.000;  717.000
463.021;  292.975; 1702.000; 1638.000
463.141;   -9.900;  337.000;  770.000
463.260;  -19.450;  614.000;  474.000
463.380;   15.575;  902.000;  884.000
463.499;  -34.850;  342.000;  332.000
463.619;  -35.850;  581.000;  559.000
463.738;  100.550; 1644.000;  903.000
463.858;   10.400;  657.000;  811.000
463.978;  -36.725;  542.000;  396.000
464.097;   43.775;  921.000; 1114.000
464.217;  107.875; 1196.000; 1143.000
464.336;  110.625; 1068.000; 1130.000
464.455;  -34.975;  328.000;  659.000
464.575;   33.225;  597.000;  602.000
464.694;  150.275; 1204.000; 1179.000
464.814;  124.325; 1190.000; 1138.000
464.933;   63.700; 1095.000; 1027.000
465.052;   88.700; 1412.000; 1054.000
465.172;   72.000;  922.000;  799.000
465.291;  130.550; 1376.000; 1320.000
465.410;   -0.050;  462.000;  735.000
465.530;   96.925; 1355.000; 1310.000
465.649;   66.275; 1209.000; 1273.000
465.768;  124.475; 1673.000; 1508.000
465.888;   32.950;  941.000; 1174.000
466.007;  102.050; 1335.000; 1440.000
466.126;   -6.650;  721.000;  641.000
466.245;   45.050; 1176.000; 1187.000
466.364;   28.125;  950.000; 1060.000
466.484;   48.700; 1024.000; 1213.000
466.603;   36.425; 1101.000; 1222.000
466.722;  128.775; 1490.000; 1769.000
466.841;   66.075; 1151.000; 1401.000
466.960;   32.250; 1069.000;  972.000
467.079;  136.600; 1971.000; 1786.000
467.198;   53.700; 1238.000; 1181.000
467.317;   72.600; 1768.000; 1162.000
467.436;   66.750; 1709.000; 1261.000
467.555;  119.125; 1796.000; 1746.000
467.674;   64.625; 1227.000; 1329.000
467.793;   47.675; 1376.000; 1374.000
467.912;   71.100; 1658.000; 1539.000
468.031;  125.050; 2038.000; 1930.000
468.150;  125.625; 1842.000; 1837.000
468.269;  192.725; 2313.000; 2090.000
468.388;  181.725; 2168.000; 2339.000
468.507;  265.075; 2884.000; 2903.000
468.626;  238.525; 2555.000; 2541.000
468.744;  152.375; 2018.000; 2174.000
468.863;  198.850; 2312.000; 2523.000
468.982;   86.875; 1503.000; 1555.000
469.101;  216.050; 2788.000; 2692.000
469.220;  155.175; 2333.000; 2176.000
469.338;  244.200; 2935.000; 3051.000
469.457;  193.275; 2719.000; 2545.000
469.576;  338.675; 3953.000; 3784.000
469.695;  241.975; 2877.000; 3066.000
469.813;  420.675; 4148.000; 4192.000
469.932;  418.050; 4255.000; 4485.000
470.051;  413.500; 4075.000; 4161.000
470.169;  877.075; 4470.000; 4338.000
470.288; 1505.675; 4700.000; 4809.000
470.406;  883.525; 5059.000; 5194.000
470.525;  608.275; 6101.000; 5787.000
470.644;  651.675; 6847.000; 6794.000
470.762;  831.650; 8397.000; 7873.000
470.881;  901.825; 8651.000; 8464.000
470.999; 1034.725; 9685.000; 9151.000
471.118; 1122.050;11174.000;10711.000

