
Integration time [ms]: 200.000
Averaging Nr. [scans]: 10
Smoothing Nr. [pixels]: 0
Data measured with spectrometer [name]: 2101012U2
Wave   ;Sample   ;Dark     ;Reference
[nm]   ;[counts] ;[counts] ;[counts] 

197.733;  117.100;  516.000;  404.000
197.879; -204.800; -610.000; -634.000
198.025; -116.600; -475.000; -420.000
198.171; -171.000; -602.000; -612.000
198.317;  -68.100; -401.000; -316.000
198.463; -126.300; -655.000; -404.000
198.609;   57.500;  181.000; -137.000
198.755; -161.000; -644.000; -410.000
198.901; -143.200; -505.000; -424.000
199.047; -133.500; -615.000; -488.000
199.193;  -90.900; -230.000; -468.000
199.339; -109.100; -222.000; -369.000
199.485;   84.800;  330.000;  271.000
199.631;   18.700;  227.000;  310.000
199.777; -105.900; -466.000; -398.000
199.923; -139.200; -610.000; -424.000
200.069;  -13.800; -141.000;  -58.000
200.215;  124.100;  128.000;  453.000
200.361;   93.800;  243.000;  477.000
200.507; -157.200; -600.000; -373.000
200.653;  -67.100; -371.000; -194.000
200.798;  -94.700; -215.000; -125.000
200.944;  -14.300; -146.000;  -41.000
201.090;   71.300;   61.000;  222.000
201.236;    4.800; -116.000; -158.000
201.382;  257.600;  874.000;  903.000
201.528;   -9.200;  -58.000;  -48.000
201.674;  -88.000; -386.000; -293.000
201.819; -148.000; -540.000; -439.000
201.965; -167.000; -699.000; -447.000
202.111;  -54.800; -273.000; -226.000
202.257;  -94.100; -250.000; -238.000
202.402;   -2.000;   13.000;  -36.000
202.548;  -37.400; -169.000; -116.000
202.694;  155.200;  410.000; -183.000
202.840; -142.700; -603.000; -531.000
202.985; -199.900; -681.000; -639.000
203.131; -259.100; -832.000; -666.000
203.277;  -76.600; -199.000; -262.000
203.423; -147.300; -434.000; -520.000
203.568;  -96.700; -462.000; -237.000
203.714; -141.100; -535.000; -542.000
203.860; -201.500; -682.000; -641.000
204.005;   13.000;  112.000;  167.000
204.151;  149.200;  561.000;  556.000
204.296;  -71.100; -354.000; -221.000
204.442; -147.600; -600.000; -547.000
204.588; -163.800; -592.000; -579.000
204.733;   37.800;  178.000;  168.000
204.879; -299.900;-1018.000; -822.000
205.025;   26.100;  -99.000;  126.000
205.170;  -13.700;  -17.000;   94.000
205.316;  151.500;  438.000;  661.000
205.461; -186.000; -698.000; -554.000
205.607;  155.300;  609.000;  665.000
205.752; -179.100; -626.000; -551.000
205.898; -125.200; -501.000; -391.000
206.043; -115.600; -578.000; -506.000
206.189;  -80.200; -243.000; -285.000
206.334;  145.000;  554.000;  606.000
206.480;  155.600;  409.000;  239.000
206.625; -165.900; -529.000; -552.000
206.771; -134.100; -451.000; -373.000
206.916;  -76.000; -210.000; -537.000
207.062; -153.100; -545.000; -591.000
207.207; -160.200; -546.000; -443.000
207.353;  118.200;  185.000;  460.000
207.498;   16.900;  196.000;   85.000
207.643; -103.900; -501.000; -370.000
207.789; -281.300;-1069.000; -910.000
207.934; -230.200; -665.000; -713.000
208.080;  -57.600; -154.000;   66.000
208.225;  -40.200;  -22.000;  -57.000
208.370; -170.800; -727.000; -619.000
208.516; -141.100; -741.000; -487.000
208.661;  -62.200; -127.000;  -69.000
208.806;  -47.100; -165.000; -171.000
208.952; -273.100;-1044.000; -731.000
209.097;  170.700;  378.000;  349.000
209.242;  -74.800; -307.000; -382.000
209.387;  116.000;  392.000;  350.000
209.533; -127.100; -321.000; -350.000
209.678;  163.300;  472.000;  543.000
209.823;  -92.600; -408.000; -310.000
209.969; -192.200; -860.000; -757.000
210.114; -200.100; -907.000; -719.000
210.259; -263.100; -939.000; -889.000
210.404;   -0.400; -171.000;  103.000
210.549;    8.700;  108.000;    3.000
210.695;  -58.300;   -3.000;  -95.000
210.840;   80.600;   94.000;   67.000
210.985; -146.000; -484.000; -303.000
211.130;  123.800;  268.000;  406.000
211.275;   35.600;  207.000;  199.000
211.420; -117.600; -300.000; -289.000
211.566; -134.500; -536.000; -489.000
211.711;   53.200;  218.000;  157.000
211.856; -130.700; -545.000; -519.000
212.001;   12.000;  151.000;   44.000
212.146;   10.700;  153.000;   49.000
212.291;  -37.200; -210.000; -186.000
212.436;  -88.200; -280.000;   -6.000
212.581; -174.600; -685.000; -653.000
212.726; -164.500; -487.000; -538.000
212.871;  -91.000; -552.000; -217.000
213.016; -324.500;-1172.000;-1029.000
213.161;  134.600;  406.000;  291.000
213.306; -169.700; -435.000; -577.000
213.451; -220.200; -778.000; -689.000
213.596;  -97.900; -455.000; -347.000
213.741; -133.100; -448.000; -538.000
213.886; -161.900; -498.000; -517.000
214.031;  -70.100; -294.000; -124.000
214.176;  -78.200; -408.000; -341.000
214.321;  -55.600; -296.000; -157.000
214.466;  -40.500; -163.000;  -43.000
214.611;  -25.500;  -61.000;  -10.000
214.756; -261.800; -948.000; -858.000
214.901;  -75.900; -388.000; -226.000
215.046; -269.000; -797.000; -825.000
215.191;   17.200;  128.000;   35.000
215.336;  -22.600; -157.000;  -19.000
215.480; -171.000; -684.000; -505.000
215.625;  -17.500; -175.000;  -19.000
215.770; -171.800; -757.000; -662.000
215.915;  -19.200;   -5.000;  -97.000
216.060;   -3.500; -113.000;  -21.000
216.205; -230.000; -731.000; -779.000
216.349; -180.400; -470.000; -533.000
216.494; -286.800; -939.000; -867.000
216.639; -275.600; -823.000; -888.000
216.784; -174.800; -577.000; -525.000
216.929;  120.100;  392.000;  281.000
217.073;   -6.400; -244.000;  -31.000
217.218;   17.900;   78.000;  -47.000
217.363; -203.000; -656.000; -618.000
217.507; -165.800; -623.000; -588.000
217.652; -281.300; -845.000; -874.000
217.797; -211.400; -708.000; -659.000
217.942; -234.700; -856.000; -720.000
218.086;  131.900;  608.000;  539.000
218.231;  -26.800; -174.000;  -26.000
218.376;  -81.900; -337.000; -229.000
218.520;   20.600;  -41.000;   96.000
218.665;  -68.700; -338.000; -204.000
218.810;  -91.400; -275.000; -233.000
218.954;   37.300;  201.000;   35.000
219.099; -232.300; -713.000; -963.000
219.243; -166.700; -589.000; -554.000
219.388;  -27.100; -264.000; -136.000
219.532;  -27.500; -116.000; -116.000
219.677; -175.800; -564.000; -521.000
219.822;   -6.500;   33.000;   89.000
219.966;   23.300;   17.000;  -99.000
220.111;  -80.200; -328.000;  -40.000
220.255; -203.100; -797.000; -750.000
220.400;  -46.800; -180.000; -146.000
220.544; -146.200; -516.000; -450.000
220.689; -136.100; -422.000; -451.000
220.833;  -19.300; -123.000;  -58.000
220.978;  -80.300; -393.000; -563.000
221.122;   35.600;  319.000;  307.000
221.267; -254.700; -906.000; -837.000
221.411; -142.700; -478.000; -394.000
221.555;   11.300; -104.000;  -23.000
221.700; -115.600; -329.000; -222.000
221.844;   58.200;  255.000;  272.000
221.989; -127.800; -328.000; -311.000
222.133;  -88.000; -289.000; -307.000
222.277;  -13.700;    5.000;   78.000
222.422;   28.800;  227.000;  113.000
222.566;  -63.900; -381.000; -214.000
222.711; -128.700; -414.000; -479.000
222.855; -166.800; -643.000; -586.000
222.999; -198.300; -642.000; -717.000
223.144;  -52.300; -195.000; -194.000
223.288;  133.100;  423.000;  251.000
223.432;   26.700;  184.000;  230.000
223.576;   36.800;  152.000;  -21.000
223.721;   62.500;  364.000;  273.000
223.865; -130.100; -472.000; -475.000
224.009;  623.000; 1673.000; 1631.000
224.153; -155.200; -660.000; -671.000
224.298; -151.200; -531.000; -489.000
224.442;  -34.300;  -74.000;  -33.000
224.586;  -22.900; -169.000; -106.000
224.730; -178.200; -858.000; -670.000
224.875; -240.800; -739.000; -688.000
225.019;    3.400;  102.000;  188.000
225.163;  150.800;  208.000;  341.000
225.307;   44.700;   97.000;  -91.000
225.451;  131.800;  360.000;  481.000
225.595;   54.700;  264.000;  176.000
225.739;  -47.000; -170.000;  -94.000
225.884;   29.300;   86.000;    5.000
226.028; -199.900; -760.000; -626.000
226.172;  -95.100; -260.000; -273.000
226.316; -247.500; -941.000; -902.000
226.460; -127.000; -645.000; -493.000
226.604; -120.900; -406.000; -400.000
226.748; -256.400; -836.000; -733.000
226.892;  -67.500; -227.000; -181.000
227.036;  -93.900; -537.000; -447.000
227.180; -100.900; -551.000; -375.000
227.324; -134.800; -561.000; -580.000
227.468; -233.400; -819.000; -717.000
227.612;   -4.200;  242.000;  -28.000
227.756; -226.400; -845.000; -698.000
227.900;   99.100;  342.000;  441.000
228.044; -133.400; -509.000; -290.000
228.188;  156.000;  448.000;  568.000
228.332; -201.900; -546.000; -472.000
228.476;  -54.600; -223.000; -149.000
228.620;  -50.100; -210.000; -150.000
228.764;  179.600;  431.000;  349.000
228.908;  -75.000; -155.000;   30.000
229.052; -101.400; -615.000; -528.000
229.195;  -40.300; -172.000;   13.000
229.339;  -93.800; -235.000; -305.000
229.483;  -57.100;    5.000; -162.000
229.627;   -3.000; -156.000;  139.000
229.771;  -81.100; -218.000; -294.000
229.915;   18.600;  230.000;   79.000
230.059; -200.600; -648.000; -663.000
230.202; -104.700; -370.000; -317.000
230.346;  -21.400; -107.000;  107.000
230.490; -116.000; -489.000; -521.000
230.634; -240.000; -736.000; -553.000
230.777;  154.200;  478.000;  509.000
230.921; -117.500; -450.000; -359.000
231.065; -107.200; -246.000; -286.000
231.209;   82.300;  261.000;  265.000
231.352;   40.300;   54.000;   40.000
231.496;   33.900;  568.000;  188.000
231.640; -158.100; -693.000; -621.000
231.783;  119.400;  546.000;  525.000
231.927;  -81.200; -294.000; -365.000
232.071; -256.300; -962.000; -736.000
232.214; -240.600; -980.000; -764.000
232.358; -196.400; -683.000; -599.000
232.502;    6.900;  -19.000;    7.000
232.645; -300.600;-1090.000; -927.000
232.789;  -65.200; -257.000; -218.000
232.933; -102.800; -407.000; -224.000
233.076; -257.800;-1038.000; -897.000
233.220; -228.900; -752.000; -777.000
233.363; -151.300; -669.000; -477.000
233.507;  150.700;  371.000;  129.000
233.650; -167.100; -764.000; -834.000
233.794;  125.600;  438.000;  461.000
233.938; -126.300; -530.000; -362.000
234.081;  -34.400;  -93.000;   31.000
234.225; -165.700; -631.000; -539.000
234.368; -251.000; -773.000; -723.000
234.512;  -77.700; -385.000; -299.000
234.655; -175.200; -582.000; -555.000
234.798; -140.900; -493.000; -466.000
234.942; -278.800; -884.000;-1002.000
235.085; -186.800; -651.000; -443.000
235.229; -173.100; -405.000; -410.000
235.372; -116.100; -247.000; -191.000
235.516; -105.700; -397.000; -321.000
235.659;   63.300;   92.000;  121.000
235.802;  -11.300;  -38.000;  -22.000
235.946;   70.900;  335.000;  215.000
236.089;   47.600;  126.000;  250.000
236.233;  121.500;  275.000;  298.000
236.376; -101.800; -235.000; -378.000
236.519; -104.400; -297.000; -319.000
236.663;  -69.600; -215.000; -117.000
236.806; -318.900;-1029.000; -999.000
236.949;  125.600;  543.000;  431.000
237.092;  108.500;  412.000;  391.000
237.236; -179.200; -589.000; -502.000
237.379;  148.800;  352.000;  428.000
237.522; -237.400; -879.000; -768.000
237.666;  -36.800; -271.000;   18.000
237.809; -267.200; -851.000; -823.000
237.952;   79.200;  469.000;  271.000
238.095; -118.000; -447.000; -442.000
238.238;  199.100;  688.000;  700.000
238.382;   20.900;  166.000;  103.000
238.525; -196.600; -598.000; -511.000
238.668; -320.400;-1060.000; -985.000
238.811; -174.500; -638.000; -643.000
238.954; -113.700; -483.000; -334.000
239.097;  238.700;  617.000;  664.000
239.241;   85.400;  394.000;  326.000
239.384;  -69.500; -254.000; -214.000
239.527; -117.600; -424.000; -224.000
239.670; -323.100; -994.000;-1091.000
239.813; -222.600; -696.000; -658.000
239.956;  147.800;  579.000;  473.000
240.099; -232.300; -778.000; -725.000
240.242;  137.800;  428.000;  432.000
240.385;   87.800;  466.000;  450.000
240.528; -160.500; -706.000; -473.000
240.671;   36.200;  189.000;  134.000
240.814;  -75.900; -441.000; -158.000
240.957; -199.500; -767.000; -578.000
241.100; -224.700; -779.000; -755.000
241.243; -304.500;-1234.000; -893.000
241.386; -159.200; -508.000; -379.000
241.529; -185.400; -735.000; -547.000
241.672; -160.700; -566.000; -495.000
241.815; -256.000; -832.000; -808.000
241.958;  -41.900; -125.000; -182.000
242.101; -159.800; -545.000; -390.000
242.244;  -58.200; -270.000; -325.000
242.387;  -44.600; -304.000; -246.000
242.530;  120.900;  470.000;  134.000
242.673; -100.000; -381.000; -309.000
242.815; -250.200; -925.000; -899.000
242.958; -134.200; -482.000; -381.000
243.101;   49.100;  132.000;  187.000
243.244; -142.100; -564.000; -521.000
243.387;  -75.700; -313.000; -316.000
243.530; -192.100; -657.000; -674.000
243.672;   41.300;   43.000;  -92.000
243.815; -119.700; -355.000; -283.000
243.958;   18.800;   98.000;  -26.000
244.101;   -5.300;   59.000;  -16.000
244.243;  -24.600;  -47.000;  101.000
244.386; -218.300; -761.000; -630.000
244.529;  -50.200; -132.000; -139.000
244.672; -330.200;-1154.000; -951.000
244.814; -245.300; -621.000; -794.000
244.957;  -89.300; -380.000; -304.000
245.100; -136.000; -489.000; -489.000
245.242;  -99.800; -387.000; -374.000
245.385;   -5.700;  -59.000;  -39.000
245.528; -223.000; -871.000; -705.000
245.670;  180.200;  612.000;  634.000
245.813; -181.100; -599.000; -547.000
245.956;  -57.500; -324.000; -275.000
246.098; -151.800; -508.000; -650.000
246.241;   18.600;  194.000;   48.000
246.383;   -5.400; -119.000;  -73.000
246.526; -159.600; -454.000; -525.000
246.669; -272.500; -889.000; -780.000
246.811;   69.500;  172.000;   -1.000
246.954; -130.700; -512.000; -426.000
247.096;  -54.800;  -84.000;   -6.000
247.239; -142.100; -482.000; -445.000
247.381; -130.600; -647.000; -488.000
247.524;  211.200;  645.000;  679.000
247.666;  -21.000;   58.000;   11.000
247.809; -247.500; -887.000; -691.000
247.951;  -13.900;  -75.000;  138.000
248.094;   80.400;  432.000;  308.000
248.236; -317.500;-1262.000;-1238.000
248.378;  -20.600; -356.000;  -81.000
248.521;  -64.100; -334.000; -337.000
248.663;  -91.100; -236.000; -267.000
248.806;  -78.900; -300.000; -266.000
248.948; -205.100; -886.000; -763.000
249.090; -111.800; -428.000; -398.000
249.233; -134.500; -344.000; -381.000
249.375; -126.400; -474.000; -451.000
249.518;   -7.800;  -83.000; -133.000
249.660;   -2.300; -103.000;    3.000
249.802; -370.600;-1303.000;-1189.000
249.945; -127.400; -612.000; -540.000
250.087; -230.600; -834.000; -768.000
250.229; -115.800; -362.000; -480.000
250.371; -152.900; -494.000; -439.000
250.514; -105.600; -310.000; -244.000
250.656;  -98.500;   69.000;  102.000
250.798; -243.200; -849.000; -800.000
250.940; -109.400; -322.000; -322.000
251.083;  -71.800; -335.000; -111.000
251.225;  126.100;  338.000;  310.000
251.367;  -69.300; -274.000; -373.000
251.509;  -58.600; -265.000; -210.000
251.651; -204.600; -731.000; -671.000
251.794;  113.100;  538.000;  632.000
251.936; -203.000; -821.000; -747.000
252.078; -137.300; -540.000; -461.000
252.220; -164.600; -645.000; -477.000
252.362;  166.500;  344.000;  462.000
252.504; -152.600; -677.000; -584.000
252.646; -224.700; -875.000; -722.000
252.788;   -1.900;   14.000; -128.000
252.931;  -80.900; -257.000; -253.000
253.073;  -67.100; -376.000; -317.000
253.215;   15.200;  141.000;  122.000
253.357;  -41.300;   82.000; -153.000
253.499;  -82.600; -374.000; -234.000
253.641; -209.300; -749.000; -594.000
253.783; -199.600; -609.000; -527.000
253.925; -193.200; -586.000; -591.000
254.067; -251.500; -744.000; -667.000
254.209;  -86.800; -391.000; -259.000
254.351; -288.400; -865.000; -883.000
254.493; -145.000; -441.000; -417.000
254.635; -230.500; -936.000; -818.000
254.777; -191.600; -752.000; -687.000
254.918; -158.100; -512.000; -430.000
255.060; -111.100; -551.000; -395.000
255.202; -119.000; -473.000; -261.000
255.344; -144.000; -658.000; -455.000
255.486; -152.600; -471.000; -406.000
255.628; -230.600; -780.000; -781.000
255.770; -161.800; -676.000; -536.000
255.912; -112.100; -559.000; -468.000
256.053; -183.600; -730.000; -508.000
256.195;  319.100; 1008.000;  903.000
256.337; -218.600; -861.000; -595.000
256.479;  141.900;  532.000;  416.000
256.621; -100.600; -394.000; -212.000
256.762; -174.800; -789.000; -742.000
256.904;  108.800;  485.000;  487.000
257.046;  -97.500; -381.000; -271.000
257.188;  -71.900; -351.000; -264.000
257.329; -168.700; -525.000; -464.000
257.471; -237.100; -939.000; -807.000
257.613; -131.400; -584.000; -498.000
257.755; -294.800;-1073.000; -982.000
257.896;   70.300;  286.000;  392.000
258.038; -143.000; -403.000; -352.000
258.180; -110.100; -354.000; -279.000
258.321; -156.100; -581.000; -457.000
258.463;    3.400;  -71.000;  133.000
258.605; -178.800; -562.000; -570.000
258.746; -243.900; -886.000; -772.000
258.888; -290.100;-1026.000;-1020.000
259.029;   37.200;  121.000;   -8.000
259.171; -191.900; -614.000; -550.000
259.313;  -38.600;  -49.000;  -47.000
259.454; -156.800; -536.000; -414.000
259.596; -130.400; -483.000; -390.000
259.737; -145.400; -590.000; -474.000
259.879;   97.100;  217.000;  311.000
260.020;  183.000;  901.000;  636.000
260.162;  -92.800; -146.000; -253.000
260.303; -231.000; -768.000; -687.000
260.445; -214.200; -609.000; -613.000
260.586;   54.100;  392.000;  157.000
260.728;  -90.200; -360.000; -248.000
260.869; -117.800; -350.000; -343.000
261.011;  173.900;  706.000;  537.000
261.152; -134.500; -479.000; -319.000
261.293; -182.200; -576.000; -595.000
261.435;  -21.700; -219.000; -184.000
261.576; -137.700; -455.000; -325.000
261.718;  136.000;  420.000;  470.000
261.859; -288.100; -940.000; -949.000
262.000; -235.200; -951.000;-1016.000
262.142;  -46.900;  -52.000;  -60.000
262.283; -237.300; -808.000; -691.000
262.424; -175.200; -666.000; -625.000
262.566; -313.300;-1161.000; -983.000
262.707; -236.200; -840.000; -830.000
262.848; -228.100; -769.000; -726.000
262.990; -102.200; -362.000; -345.000
263.131;  203.700;  650.000;  681.000
263.272;   -7.300;  -61.000;  -41.000
263.413; -152.400; -589.000; -561.000
263.555; -126.100; -669.000; -143.000
263.696; -209.600; -550.000; -641.000
263.837;  -97.900; -449.000; -551.000
263.978;   27.700;   -5.000;  -77.000
264.119;  -79.100; -283.000; -264.000
264.261; -230.400; -847.000; -630.000
264.402;   12.700;   33.000;   40.000
264.543; -164.100; -509.000; -524.000
264.684;  -11.300;   61.000;  -50.000
264.825; -135.300; -816.000; -538.000
264.966;   29.300;  -84.000;  -67.000
265.107; -227.800; -646.000; -670.000
265.248; -244.000; -825.000; -812.000
265.390;   -6.500;  152.000;   -9.000
265.531;  -63.300; -238.000; -107.000
265.672; -209.300; -557.000; -630.000
265.813;  142.000;  563.000;  439.000
265.954; -288.000; -959.000; -940.000
266.095;  -42.400; -372.000; -322.000
266.236; -184.200; -686.000; -548.000
266.377;  -91.700; -243.000; -297.000
266.518; -148.100; -619.000; -547.000
266.659;   92.700;  170.000;  268.000
266.800;   32.800;   83.000;   85.000
266.941; -168.200; -487.000; -478.000
267.082;   40.900;  354.000;   99.000
267.223; -119.400; -344.000; -273.000
267.364; -238.600; -892.000; -686.000
267.504;  -40.900;    3.000;  135.000
267.645;   45.100;  160.000;   67.000
267.786;  -50.600; -147.000;  -86.000
267.927;  -94.700; -473.000; -379.000
268.068;  -11.300; -186.000;  -61.000
268.209;  -96.400; -175.000; -413.000
268.350;  -98.400; -388.000; -532.000
268.490; -166.300; -648.000; -521.000
268.631;   66.800;  127.000;  225.000
268.772; -229.600; -874.000; -647.000
268.913;  -86.600; -328.000; -476.000
269.054;   -7.800; -117.000;   12.000
269.194; -102.200; -418.000; -402.000
269.335; -334.500;-1137.000;-1074.000
269.476;  -40.200;   33.000;  -35.000
269.617;  -95.600; -347.000; -392.000
269.757; -199.200; -713.000; -646.000
269.898; -223.200; -856.000; -613.000
270.039; -120.400; -415.000; -405.000
270.180; -278.100; -952.000; -816.000
270.320;  -40.700; -190.000; -250.000
270.461;  -94.900; -277.000; -249.000
270.602;  -20.100; -186.000; -156.000
270.742; -256.200; -868.000; -943.000
270.883; -109.300; -442.000; -390.000
271.023; -118.100; -358.000; -357.000
271.164; -144.300; -607.000; -528.000
271.305; -206.700; -666.000; -654.000
271.445; -204.400; -722.000; -683.000
271.586; -124.700; -462.000; -283.000
271.726; -134.100; -397.000; -322.000
271.867; -135.900; -594.000; -534.000
272.008;  270.600; -473.000; -285.000
272.148;  243.700;  462.000;  468.000
272.289;   21.900; -113.000; -181.000
272.429;   73.000;   19.000;  185.000
272.570; -193.700; -633.000; -737.000
272.710; -223.300; -825.000; -775.000
272.851;  -37.800;  113.000; -130.000
272.991; -332.700;-1173.000;-1077.000
273.131; -124.300; -419.000; -459.000
273.272; -188.800; -683.000; -723.000
273.412;   13.200; -143.000;  -31.000
273.553;  -92.400; -488.000; -507.000
273.693;  301.900;  913.000;  858.000
273.834; -200.000; -894.000; -692.000
273.974; -153.900; -664.000; -615.000
274.114; -212.500; -772.000; -560.000
274.255;  139.600;  414.000;  373.000
274.395;    3.100; -180.000; -125.000
274.535;   69.400;  199.000;  350.000
274.676;   88.700;  225.000;   94.000
274.816;   -4.900;  110.000;   34.000
274.956; -172.800; -624.000; -690.000
275.097; -165.200;-1014.000; -922.000
275.237; -227.500; -913.000; -803.000
275.377; -175.900; -778.000; -689.000
275.517; -306.500; -878.000; -937.000
275.658; -109.700; -590.000; -555.000
275.798; -133.900; -606.000; -413.000
275.938;   65.100;  215.000;  323.000
276.078; -151.500; -626.000; -395.000
276.218;   42.100;   99.000;  104.000
276.359; -268.500;-1026.000;-1024.000
276.499; -141.000; -605.000; -446.000
276.639;  -50.000; -305.000; -151.000
276.779; -103.200; -475.000; -357.000
276.919; -205.900; -783.000; -624.000
277.059;  -64.400; -261.000; -212.000
277.199;  -95.300; -357.000; -259.000
277.340;  112.500;  287.000;  175.000
277.480; -210.500; -840.000; -693.000
277.620;   52.800;  192.000;   16.000
277.760; -420.600;-1533.000;-1294.000
277.900;   32.100;  113.000;   33.000
278.040;   71.100;  137.000;  159.000
278.180;   82.200;  270.000;  170.000
278.320;   16.300;   21.000;   56.000
278.460; -163.800; -443.000; -469.000
278.600; -164.800; -708.000; -598.000
278.740;  106.100;  448.000;  224.000
278.880; -143.100; -768.000; -791.000
279.020;   34.100; -194.000; -144.000
279.160; -154.900; -672.000; -595.000
279.300; -249.300; -926.000; -873.000
279.440; -187.900; -709.000; -622.000
279.579; -103.200;-1014.000; -929.000
279.719; -109.600; -410.000; -394.000
279.859;  111.400;   -4.000;   41.000
279.999;   37.600; -208.000;  101.000
280.139;  -76.300; -435.000; -387.000
280.279; -157.600; -708.000; -745.000
280.419;  -58.700; -229.000; -147.000
280.559;  -47.200; -259.000; -180.000
280.698; -163.800; -790.000; -639.000
280.838; -202.000; -778.000; -800.000
280.978; -193.300; -846.000; -790.000
281.118; -236.400; -811.000; -704.000
281.257;   46.900;   24.000;    6.000
281.397; -239.300;-1094.000; -960.000
281.537; -175.000; -599.000; -712.000
281.677;  -46.900; -150.000; -101.000
281.816; -168.300; -700.000; -630.000
281.956;  -41.200; -193.000; -257.000
282.096; -138.800; -539.000; -396.000
282.235; -202.500; -672.000; -638.000
282.375;  -19.500; -243.000;  -98.000
282.515; -190.500; -715.000; -707.000
282.654;   52.200;   29.000;  106.000
282.794;   69.600;  388.000;  244.000
282.934; -112.600; -530.000; -491.000
283.073; -284.900;-1030.000; -857.000
283.213;  -92.600; -460.000; -467.000
283.353;  -84.100; -408.000; -349.000
283.492;  -49.200; -264.000; -296.000
283.632;  -86.600; -254.000; -168.000
283.771; -207.300; -859.000; -730.000
283.911;  -92.600; -369.000; -260.000
284.050; -217.000; -794.000; -748.000
284.190; -326.500;-1229.000;-1096.000
284.329; -291.200;-1055.000; -964.000
284.469; -134.900; -516.000; -591.000
284.608; -126.500; -559.000; -598.000
284.748; -155.700; -614.000; -570.000
284.887;  -41.900;  -87.000;  -20.000
285.027; -258.700; -844.000; -892.000
285.166;  -68.800; -192.000; -249.000
285.306;   15.300; -116.000;  -33.000
285.445;  -60.600; -229.000; -343.000
285.584; -170.600; -630.000; -494.000
285.724;  -75.800; -282.000; -322.000
285.863; -218.600; -857.000; -507.000
286.002;  -94.800; -366.000; -276.000
286.142; -179.000; -715.000; -622.000
286.281; -160.700; -525.000; -493.000
286.420; -128.800; -554.000; -417.000
286.560;  220.600;  653.000;  623.000
286.699; -296.500; -958.000; -912.000
286.838; -183.300; -590.000; -591.000
286.978; -164.300; -533.000; -537.000
287.117; -298.500;-1085.000; -950.000
287.256;  -35.300; -228.000; -211.000
287.395; -115.900; -197.000; -378.000
287.535;  -93.200; -370.000; -298.000
287.674; -148.500; -509.000; -484.000
287.813;  155.000;  661.000;  533.000
287.952; -243.100;-1010.000; -871.000
288.091; -306.300;-1049.000; -915.000
288.231;   47.000;   13.000;   15.000
288.370; -362.500;-1217.000;-1200.000
288.509; -186.200; -728.000; -645.000
288.648; -190.100; -770.000; -548.000
288.787;  -60.000; -243.000;  -87.000
288.926; -142.900; -454.000; -475.000
289.065;  270.700;  859.000;  672.000
289.204;  -98.500; -377.000; -217.000
289.344; -179.600; -791.000; -690.000
289.483;   54.500;  416.000;  304.000
289.622;  -39.100; -291.000; -149.000
289.761;  -19.700; -309.000; -166.000
289.900; -198.800; -785.000; -626.000
290.039;  -16.400;  -12.000;  -95.000
290.178;  -40.900; -274.000; -180.000
290.317; -150.300; -618.000; -479.000
290.456; -141.500; -463.000; -451.000
290.595; -293.600; -961.000; -833.000
290.734; -281.700; -904.000; -891.000
290.873; -130.400; -456.000; -420.000
291.011; -233.800; -833.000; -843.000
291.150; -178.100; -770.000; -682.000
291.289;  -74.300; -343.000; -110.000
291.428; -154.500; -599.000; -480.000
291.567;  -98.600; -370.000; -442.000
291.706;   30.800;  109.000;  154.000
291.845; -215.200; -597.000; -505.000
291.984; -338.400;-1234.000;-1061.000
292.122;  157.900;  602.000;  582.000
292.261;  105.400;  620.000;  463.000
292.400;   25.000; -144.000;  211.000
292.539; -237.100; -959.000; -813.000
292.678;  -65.100; -325.000; -300.000
292.816; -307.000;-1136.000; -965.000
292.955; -196.600; -844.000; -684.000
293.094;  -46.400; -173.000; -337.000
293.233; -113.500; -556.000; -400.000
293.371;  -15.000; -225.000;  -84.000
293.510; -222.200; -866.000; -780.000
293.649; -256.200; -959.000; -924.000
293.787; -169.900;-1083.000;-1012.000
293.926;   16.000; -113.000;  -32.000
294.065;  -91.300; -379.000; -290.000
294.203;  130.100;  298.000;  406.000
294.342;   78.200;   74.000;  156.000
294.481;14795.800;51180.000; -836.000
294.619;  -22.400; -425.000; -582.000
294.758; -287.200;-1230.000;-1137.000
294.896;  123.200; -125.000;    5.000
295.035; -264.900;-1040.000;-1006.000
295.174; -267.600;-1082.000; -954.000
295.312;  -78.300; -323.000; -203.000
295.451;  -33.900; -307.000; -428.000
295.589; -102.500; -389.000; -518.000
295.728;   62.400; -292.000; -165.000
295.866;   42.500;  -36.000;  -51.000
296.005; -120.600; -584.000; -341.000
296.143; -134.200; -558.000; -596.000
296.282; -239.200; -957.000; -881.000
296.420; -153.300; -657.000; -557.000
296.559; -179.500; -892.000; -633.000
296.697;   32.400; -847.000; -665.000
296.835;   -2.200;-1141.000;-1002.000
296.974;  105.300;  -23.000;   39.000
297.112;    5.800; -443.000; -504.000
297.251; -164.300; -815.000; -755.000
297.389;   95.300; -576.000; -438.000
297.527;  101.000; -145.000;  -83.000
297.666; -116.400; -486.000; -438.000
297.804;  -53.900; -404.000; -264.000
297.942;  -11.700; -136.000; -161.000
298.081;   17.000; -183.000;   63.000
298.219;  103.900;  -17.000;  -19.000
298.357;   96.400; -144.000;  -71.000
298.495;  -40.500; -810.000; -812.000
298.634;  148.400;  245.000;  219.000
298.772;   70.800; -220.000; -338.000
298.910;  -95.700; -309.000; -182.000
299.048;   -7.600; -130.000; -153.000
299.187;  -69.500; -350.000; -250.000
299.325;   55.600;   52.000;  122.000
299.463;   48.200; -389.000; -299.000
299.601;  172.400; -327.000; -271.000
299.739; -235.300; -908.000; -883.000
299.877; -149.800; -791.000; -703.000
300.016; -179.700;-1095.000; -935.000
300.154;  280.100;  -19.000; -161.000
300.292;   52.000; -428.000; -348.000
300.430;   36.100; -408.000; -291.000
300.568; -227.900; -940.000; -874.000
300.706; -128.000; -366.000; -469.000
300.844; -156.700;-1108.000; -979.000
300.982;  224.000;  246.000;  282.000
301.120; -233.300; -965.000; -866.000
301.258; -146.100; -812.000; -705.000
301.396;   53.400;  104.000;  -41.000
301.534;   71.400; -218.000; -293.000
301.672;  -24.800; -664.000; -521.000
301.810;  -23.300; -613.000; -545.000
301.948;  233.300;   53.000;  149.000
302.086;  966.500; -250.000;  -32.000
302.224; 1503.600; -610.000; -585.000
302.362;   55.000; -558.000; -622.000
302.500;  -51.300; -923.000; -893.000
302.638;  206.000;  128.000;  245.000
302.776;   25.200; -352.000; -408.000
302.913;  126.100;  447.000;  236.000
303.051;  -17.000;  -86.000;  -23.000
303.189;   99.100;   90.000;  118.000
303.327;  -65.500; -341.000; -256.000
303.465; -175.300; -832.000; -588.000
303.603; -201.100; -805.000; -604.000
303.740;  185.700;  417.000;  241.000
303.878;   -9.100; -800.000; -759.000
304.016; -193.600; -915.000; -790.000
304.154; -267.400;-1123.000;-1152.000
304.291;  -80.300; -505.000; -554.000
304.429;   15.900;  102.000;   74.000
304.567; -262.800; -908.000; -893.000
304.705; -118.600; -408.000; -515.000
304.842;  103.200; -616.000; -540.000
304.980;  145.400;  215.000;   35.000
305.118;   25.600; -367.000; -365.000
305.255; -171.400; -945.000; -927.000
305.393;  106.000;  178.000;  239.000
305.531; -206.500;-1173.000; -956.000
305.668; -151.700; -663.000; -582.000
305.806;  143.700; -358.000; -439.000
305.943;  160.300; -629.000; -637.000
306.081;  108.900; -378.000; -267.000
306.219; -209.400; -863.000; -748.000
306.356;   48.300;  158.000;   27.000
306.494;  278.600;  981.000;  761.000
306.631;   54.700;  -11.000;  -55.000
306.769;   -0.300; -613.000; -485.000
306.906;  -33.100; -284.000; -258.000
307.044; -113.800; -473.000; -488.000
307.181; -112.000; -410.000; -332.000
307.319;   94.100;  112.000;   87.000
307.456; -332.000;-1191.000;-1153.000
307.594; -219.100; -980.000; -727.000
307.731;    6.400; -371.000; -164.000
307.868;   20.400;  -15.000;   20.000
308.006; -274.300; -961.000; -847.000
308.143; -118.300; -618.000; -330.000
308.281;  422.100;  -37.000; -254.000
308.418;   15.900; -748.000; -640.000
308.555; -114.600; -400.000; -250.000
308.693; -153.200; -577.000; -573.000
308.830; -226.600; -712.000; -657.000
308.967;  -36.500; -215.000;  -95.000
309.105;  -47.700; -507.000; -396.000
309.242;  105.600; -468.000; -367.000
309.379;  784.300; -577.000; -655.000
309.517;  -71.400; -936.000; -948.000
309.654; -191.800; -910.000; -734.000
309.791; -142.500; -662.000; -580.000
309.928; -218.800; -977.000; -914.000
310.065;  344.800;  819.000;  697.000
310.203;  -43.400; -825.000; -850.000
310.340;   16.500; -465.000; -321.000
310.477; -137.700; -412.000; -516.000
310.614; -109.000; -383.000; -473.000
310.751; -131.200; -427.000; -518.000
310.889;    3.100;    1.000;   11.000
311.026; -285.100;-1161.000; -939.000
311.163;  -76.000; -386.000; -380.000
311.300; -127.200; -512.000; -479.000
311.437; -151.700; -658.000; -619.000
311.574; -352.000;-1226.000; -985.000
311.711; -122.200; -595.000; -433.000
311.848;  -57.000; -380.000; -388.000
311.985;   87.400;  270.000;   93.000
312.122; -241.200; -932.000; -762.000
312.259; -250.500; -941.000; -994.000
312.396; -123.100; -508.000; -551.000
312.533; -140.800; -812.000; -790.000
312.670; -241.700;-1070.000; -898.000
312.807;  -63.700; -352.000; -367.000
312.944; -161.500; -513.000; -611.000
313.081;  -38.300; -150.000; -415.000
313.218; -215.600;-1111.000; -867.000
313.355;  -16.800; -531.000; -449.000
313.492;   17.000; -455.000; -292.000
313.629;  260.900;  815.000;  735.000
313.766; -328.400;-1176.000;-1008.000
313.902;  -21.500; -186.000;   21.000
314.039;  -61.800; -372.000; -289.000
314.176;   57.300;  286.000;  192.000
314.313; -135.800; -569.000; -473.000
314.450; -143.500; -788.000; -684.000
314.587; -111.300; -468.000; -480.000
314.723;   45.900;  -78.000;  130.000
314.860;   99.200;  318.000;  332.000
314.997;   77.500;  223.000;  142.000
315.134;  -77.500; -385.000; -368.000
315.270;  -80.200; -480.000; -496.000
315.407; -254.200;-1094.000; -967.000
315.544; -102.500; -657.000; -538.000
315.681; -146.700; -681.000; -565.000
315.817;   54.300; -133.000; -176.000
315.954;    1.600; -613.000; -392.000
316.091; -243.300;-1045.000;-1023.000
316.227;  -57.400;  -71.000; -179.000
316.364;   44.800;   23.000;    6.000
316.500;  -44.800; -113.000; -300.000
316.637;  -76.200; -181.000; -302.000
316.774; -162.700; -625.000; -358.000
316.910; -175.400; -598.000; -629.000
317.047; -113.000; -487.000; -351.000
317.183;  -95.400; -435.000; -566.000
317.320;  -36.400; -367.000; -321.000
317.456; -160.600; -733.000; -805.000
317.593; -174.300; -598.000; -641.000
317.729;   27.600;  168.000;  -67.000
317.866; -406.200;-1434.000;-1285.000
318.002; -140.300; -708.000; -948.000
318.139; -199.100; -883.000; -867.000
318.275; -217.300;-1003.000; -738.000
318.412; -144.800; -517.000; -336.000
318.548;  -62.700; -751.000; -720.000
318.685; -204.200; -985.000; -888.000
318.821; -194.200; -762.000; -735.000
318.957;  -23.200;   34.000;  -23.000
319.094;   82.700;  297.000;  154.000
319.230; -111.600; -756.000; -742.000
319.367;  169.100; -471.000; -520.000
319.503;   86.000; -538.000; -436.000
319.639; -150.700; -877.000; -793.000
319.775; -111.000; -750.000; -685.000
319.912;  -65.700; -424.000; -519.000
320.048; -198.700;-1184.000;-1184.000
320.184;  140.000;   59.000;   70.000
320.321; -139.300; -497.000; -467.000
320.457;  132.300;  475.000;  662.000
320.593; -102.200; -375.000; -382.000
320.729; -203.500; -732.000; -734.000
320.866; -135.300; -577.000; -635.000
321.002; -165.100; -759.000; -809.000
321.138;  -47.600; -135.000; -211.000
321.274;  143.000; -148.000; -115.000
321.410;  -57.200; -585.000; -353.000
321.546;  -87.900;-1011.000; -911.000
321.683;  108.800;  400.000;  185.000
321.819;   23.100;  -48.000; -117.000
321.955; -207.800; -743.000; -722.000
322.091;  -76.600; -585.000; -540.000
322.227;  -20.700; -382.000; -202.000
322.363;  -29.400; -320.000; -215.000
322.499;  -74.200; -343.000; -331.000
322.635;  328.800;  636.000;  443.000
322.771;   41.200; -139.000;   12.000
322.907;  191.400;  129.000;  327.000
323.043;  -10.700; -115.000; -206.000
323.179;  -66.300; -394.000; -363.000
323.315;   27.100; -401.000; -371.000
323.451;  123.500; -328.000; -236.000
323.587;  121.900;  -60.000;  -77.000
323.723;   -9.700; -682.000; -601.000
323.859;  -52.700; -258.000;  -76.000
323.995;  -64.200; -467.000; -409.000
324.131; -232.000; -967.000; -892.000
324.267;  -62.000; -254.000; -276.000
324.402; -266.200; -960.000; -983.000
324.538;  -22.600; -279.000; -104.000
324.674;   55.500;  164.000;   77.000
324.810;  261.800;  226.000;  308.000
324.946;    5.600; -810.000; -658.000
325.082; -115.500; -568.000; -475.000
325.217;  -14.300;  -62.000;   16.000
325.353; -188.700; -764.000; -659.000
325.489; -153.700; -540.000; -506.000
325.625; -119.800; -579.000; -525.000
325.760;  164.500;  517.000;  376.000
325.896;  -47.500; -515.000; -702.000
326.032;  -65.000; -403.000; -352.000
326.168; -116.800; -462.000; -369.000
326.303; -105.600; -352.000; -461.000
326.439;    8.100; -336.000; -276.000
326.575;   16.300; -190.000;  -29.000
326.710;  -14.500; -156.000;  -30.000
326.846;   13.700;  146.000;  103.000
326.982; -150.800; -530.000; -548.000
327.117; -155.000; -481.000; -442.000
327.253; -163.600; -745.000; -742.000
327.388; -339.300;-1137.000;-1153.000
327.524; -130.700; -811.000; -578.000
327.659;  -13.600;  -58.000;  -22.000
327.795;  -29.500;   69.000;   45.000
327.931; -170.100; -723.000; -499.000
328.066;  -22.300; -417.000; -276.000
328.202;    0.000;   12.000; -129.000
328.337;  198.000;  957.000;  713.000
328.473;    4.700;  -12.000;  -74.000
328.608;  -31.600; -256.000; -267.000
328.743; -146.700; -799.000; -664.000
328.879;   71.500;  214.000;  114.000
329.014;  -71.300; -102.000; -122.000
329.150; -144.200; -358.000; -483.000
329.285; -137.800; -465.000; -466.000
329.421;  -81.000; -548.000; -246.000
329.556;   -9.600;  -36.000;   85.000
329.691; -179.800; -633.000; -615.000
329.827; -155.100; -626.000; -480.000
329.962;  -74.800;  131.000; -301.000
330.097; -165.800; -673.000; -585.000
330.233;  -84.200; -410.000; -223.000
330.368; -234.000; -839.000; -628.000
330.503;   15.400;    3.000;   98.000
330.638;   24.500;  -93.000; -125.000
330.774; -132.500; -609.000; -530.000
330.909;  -73.900; -434.000; -244.000
331.044; -193.000; -714.000; -708.000
331.179; -360.600;-1217.000;-1109.000
331.315;   60.000;   77.000;   20.000
331.450;   73.700;  157.000;  285.000
331.585; -171.300; -805.000; -706.000
331.720; -163.000; -510.000; -460.000
331.855;  -18.900;  -35.000; -102.000
331.990;  381.600;   62.000;  138.000
332.126;  205.400; -110.000;   71.000
332.261;  -38.200; -379.000; -265.000
332.396;   -3.600; -135.000; -242.000
332.531; -220.100;-1074.000;-1031.000
332.666;   32.900; -519.000; -363.000
332.801; -195.800; -726.000; -807.000
332.936;   -6.300; -192.000; -122.000
333.071; -240.500; -870.000; -817.000
333.206;   58.800;  307.000;  379.000
333.341;  102.100;  344.000;  418.000
333.476; -161.900; -627.000; -623.000
333.611;  -64.000; -251.000; -173.000
333.746; -103.800; -381.000; -464.000
333.881; -223.000; -973.000; -935.000
334.016; -245.400; -936.000; -917.000
334.151; -247.800; -746.000; -702.000
334.286;  108.200;  152.000;  186.000
334.421;  -20.800; -125.000; -178.000
334.556; -161.800; -611.000; -567.000
334.690; -171.500; -631.000; -577.000
334.825;   94.100;  381.000;   83.000
334.960; -104.800; -285.000; -413.000
335.095;    1.700;  135.000;  -91.000
335.230; -192.600; -722.000; -738.000
335.365; -290.700;-1084.000; -990.000
335.499; -244.400;-1108.000;-1037.000
335.634;   41.400;    9.000;  534.000
335.769; -218.100; -755.000; -720.000
335.904; -117.900; -603.000; -561.000
336.038; -118.900; -735.000; -657.000
336.173; -242.500;-1206.000;-1194.000
336.308;   27.700; -116.000; -189.000
336.443;   36.500; -544.000; -634.000
336.577; -135.300; -936.000; -787.000
336.712;  125.800;   -4.000;  -12.000
336.847;  -94.600; -724.000; -607.000
336.981;  108.100; -272.000; -208.000
337.116;  496.100;  615.000;  501.000
337.250;  230.300; -434.000; -421.000
337.385;  375.100; -297.000; -208.000
337.520;   81.300; -632.000; -603.000
337.654;  -37.800; -215.000; -126.000
337.789; -265.800; -989.000; -933.000
337.923;  -25.900; -104.000; -205.000
338.058; -156.300; -673.000; -738.000
338.192;  -72.600; -611.000; -488.000
338.327;    9.600;  -18.000; -155.000
338.461; -104.800; -299.000; -469.000
338.596; -172.100; -780.000; -638.000
338.730; -176.100; -767.000; -803.000
338.865;  143.800;  -46.000; -140.000
338.999; -134.200; -846.000; -702.000
339.134;  -66.300; -634.000; -536.000
339.268;    6.300; -741.000; -603.000
339.403;  480.900; -740.000; -775.000
339.537;  148.500; -894.000; -820.000
339.671; -205.600; -829.000; -813.000
339.806; -106.200; -556.000; -512.000
339.940;   28.900; -261.000; -235.000
340.074; -163.800; -685.000; -510.000
340.209;  -79.000; -351.000; -230.000
340.343; -150.700; -517.000; -573.000
340.477;  329.300;  998.000; 1036.000
340.612; -133.000;-1033.000; -900.000
340.746;  205.000; -199.000; -243.000
340.880; -133.700; -924.000; -785.000
341.014;  -34.600;  -45.000; -154.000
341.149; -239.900; -756.000; -718.000
341.283; -191.400; -839.000; -754.000
341.417; -204.800;-1124.000; -938.000
341.551;  167.800; -768.000; -708.000
341.685;  -55.000; -633.000; -611.000
341.820; -104.300; -562.000; -493.000
341.954;  -90.800; -218.000; -349.000
342.088; -302.100;-1102.000;-1019.000
342.222;  126.600;  565.000;  618.000
342.356; -117.200; -395.000; -335.000
342.490; -199.900; -880.000; -841.000
342.624;  -40.400; -339.000; -242.000
342.758;  -15.400; -364.000; -312.000
342.892; -132.300; -710.000; -585.000
343.026;  -62.900;  -58.000; -116.000
343.160; -108.900; -426.000; -376.000
343.294; -131.500; -474.000; -337.000
343.428;  -32.000; -488.000; -448.000
343.562;  -11.100; -172.000;  -23.000
343.696;  -17.600; -385.000; -314.000
343.830;  -43.900; -362.000; -356.000
343.964;   40.900; -231.000; -168.000
344.098; 1491.200;  199.000;   70.000
344.232; 1208.200; -266.000; -127.000
344.366;  131.100; -567.000; -453.000
344.500;   78.200; -665.000; -744.000
344.634;   26.700; -324.000; -164.000
344.768;   -8.400; -531.000; -341.000
344.902;  104.300;  278.000;  256.000
345.035; -131.800; -556.000; -496.000
345.169; -234.000; -933.000; -656.000
345.303;  -60.900; -308.000; -482.000
345.437; -169.300; -826.000; -717.000
345.571; -152.100; -675.000; -594.000
345.704; -128.900; -309.000; -532.000
345.838;  -36.900; -331.000; -284.000
345.972;  -54.000; -543.000; -495.000
346.106;  225.200; -179.000; -190.000
346.239;  638.100; -312.000; -243.000
346.373;    1.200; -343.000; -302.000
346.507; -292.300; -950.000; -962.000
346.640;  211.400;  -30.000;   13.000
346.774;  -85.800; -650.000; -797.000
346.908;   -7.700; -138.000;  -11.000
347.041; -167.300; -646.000; -593.000
347.175;   20.200;  259.000;   27.000
347.309; -136.100; -698.000; -628.000
347.442; -198.900; -883.000; -732.000
347.576;  515.400;  670.000;  668.000
347.709;  308.600; -123.000;  -52.000
347.843; -211.400; -933.000; -825.000
347.976;   67.000;  235.000;  294.000
348.110; -369.700;-1268.000;-1186.000
348.243; -189.100; -679.000; -772.000
348.377;   19.800;  -26.000;   60.000
348.510;  128.800;  403.000;  540.000
348.644;  -30.300;  -37.000; -159.000
348.777;   45.500;  180.000;  191.000
348.911;  -46.200; -142.000; -112.000
349.044;  323.400;  471.000;  448.000
349.178;  198.900;-1069.000;-1006.000
349.311;  226.900;  141.000;  255.000
349.444;  -42.800; -927.000; -813.000
349.578;  -27.400; -347.000; -200.000
349.711; -180.100; -959.000; -862.000
349.845;  -26.700; -661.000; -591.000
349.978; -291.800;-1224.000;-1137.000
350.111; -167.100; -546.000; -612.000
350.244; -128.300; -596.000; -700.000
350.378;    6.500; -392.000; -393.000
350.511; -130.500; -393.000; -426.000
350.644; -197.400; -808.000; -806.000
350.778;   27.000;  168.000;  104.000
350.911;   31.500;  134.000;  140.000
351.044; -168.800; -685.000; -615.000
351.177;  -32.000; -321.000; -281.000
351.310;  -19.500;    3.000; -131.000
351.444; -165.000; -888.000; -788.000
351.577;  219.100;  140.000;   90.000
351.710;  218.800;  593.000;  417.000
351.843;  -39.700; -165.000;  -77.000
351.976;   13.400;  149.000;  -79.000
352.109; -188.900; -621.000; -612.000
352.242;  -57.200; -464.000; -419.000
352.376; -134.700; -580.000; -636.000
352.509;  296.200; -437.000; -356.000
352.642;  -25.500; -654.000; -604.000
352.775;  136.000; -141.000;  -98.000
352.908; -226.300; -933.000; -904.000
353.041; -229.700; -814.000; -824.000
353.174;  -76.300; -551.000; -424.000
353.307; -171.400; -753.000; -764.000
353.440;  189.300;  541.000;  453.000
353.573; -223.000; -957.000;-1008.000
353.706;  -47.600; -384.000; -558.000
353.839;   -9.500; -264.000; -220.000
353.971; -186.300; -657.000; -512.000
354.104; -186.100; -896.000; -835.000
354.237; -123.100; -627.000; -662.000
354.370; -145.900; -846.000; -879.000
354.503; -345.800;-1231.000;-1308.000
354.636; -102.000; -529.000; -348.000
354.769; -230.200; -937.000; -860.000
354.902;  -22.400; -230.000; -139.000
355.034;  -10.800; -164.000; -220.000
355.167;  -33.400; -262.000; -162.000
355.300; -180.600;-1061.000; -880.000
355.433; 1470.600;  -71.000;  -14.000
355.565; 2232.400; -402.000; -384.000
355.698;  572.800; -356.000; -296.000
355.831;  -44.200; -882.000; -801.000
355.964;  151.700; -285.000; -170.000
356.096; -186.800; -856.000; -843.000
356.229;    3.400; -523.000; -530.000
356.362;  463.500; -373.000; -266.000
356.494;  944.800; -229.000; -162.000
356.627;  794.100;  269.000;  377.000
356.760; 1031.700;  120.000;   53.000
356.892; 1348.600; -286.000; -601.000
357.025; 1129.000;  403.000;  389.000
357.157;  966.300; -167.000; -179.000
357.290;  998.700; -856.000; -713.000
357.423;  286.800; -667.000; -556.000
357.555;  179.800; -217.000; -228.000
357.688;  222.400; -483.000; -364.000
357.820;  685.700; -870.000; -877.000
357.953; 5820.700; -563.000; -589.000
358.085; 1211.700; -632.000; -612.000
358.218; 1704.700;-1131.000; -932.000
358.350;  335.900;  -58.000;  312.000
358.483; -267.700;-1300.000;-1187.000
358.615;  -64.700;-1182.000;-1078.000
358.747; -151.700;-1187.000;-1058.000
358.880;   13.000; -810.000; -744.000
359.012;   -9.500; -376.000; -202.000
359.145;  -72.100; -480.000; -511.000
359.277;   58.500; -962.000; -913.000
359.409; 4815.900;  536.000;  231.000
359.542; 1175.400; -738.000; -688.000
359.674;  140.100;   46.000;   13.000
359.806; -126.300; -565.000; -438.000
359.939; -103.200; -617.000; -516.000
360.071;  -51.100; -583.000; -579.000
360.203;  -17.000; -411.000; -364.000
360.335;  121.100;  164.000;  -16.000
360.468;  289.400; -249.000; -307.000
360.600; 3837.600; -547.000; -454.000
360.732; 4256.200; -546.000; -423.000
360.864;  484.000;-1216.000;-1044.000
360.996;  446.400; -516.000; -554.000
361.129;   73.900; -389.000; -598.000
361.261;   59.900;  110.000; -113.000
361.393;  -36.900; -252.000; -214.000
361.525;   99.900;   94.000;  244.000
361.657;  -81.300; -821.000; -703.000
361.789;   27.400; -139.000; -155.000
361.921;  315.100; -642.000; -593.000
362.053;  464.100;  524.000;  541.000
362.185;  109.000;  288.000;   72.000
362.318; -158.700; -709.000; -705.000
362.450;  211.400;  294.000;  444.000
362.582;  131.300; -913.000; -870.000
362.714;  -62.900; -353.000; -332.000
362.846; -167.700; -606.000; -490.000
362.978; -267.500; -941.000; -811.000
363.109;   55.200; -161.000; -260.000
363.241;  641.400; -739.000; -749.000
363.373;  631.000; -649.000; -564.000
363.505; 1005.500; -186.000;  -91.000
363.637;  219.600; -787.000; -601.000
363.769; -274.500;-1067.000;-1080.000
363.901; -152.300; -596.000; -654.000
364.033; -251.000;-1103.000;-1062.000
364.165;    6.400; -283.000; -283.000
364.296;  106.600; -316.000; -177.000
364.428;  -14.700;-1344.000;-1220.000
364.560; -155.300; -679.000; -661.000
364.692; -124.600; -738.000; -835.000
364.824;  415.500; -588.000; -456.000
364.955;  594.700; -402.000; -564.000
365.087; 1285.900;-1097.000; -852.000
365.219;    3.900; -686.000; -816.000
365.351; -105.600; -526.000; -572.000
365.482;  132.800;  300.000;  240.000
365.614;  -79.100; -402.000; -314.000
365.746; -215.200; -729.000; -752.000
365.877; -203.100; -706.000; -672.000
366.009;  380.600;  -35.000;  -62.000
366.141; -245.200;-1249.000;-1134.000
366.272; -208.200; -803.000; -719.000
366.404; -212.000;-1005.000; -874.000
366.535;   11.100; -139.000;  -12.000
366.667; -161.200; -644.000; -649.000
366.799;   82.700;  353.000;  203.000
366.930; -226.300; -862.000; -996.000
367.062;  149.400; -639.000; -613.000
367.193;  195.600; -872.000; -842.000
367.325; -131.000; -580.000; -684.000
367.456;  119.400; -246.000;   31.000
367.588;  216.900; -371.000; -318.000
367.719;   16.700;  -44.000;  -45.000
367.851;   -1.700; -222.000; -241.000
367.982; -108.600; -875.000; -732.000
368.113;  178.500; -475.000; -358.000
368.245; -245.200; -960.000; -841.000
368.376;  -22.200; -254.000; -302.000
368.508;  -68.100; -188.000; -263.000
368.639; -273.700;-1166.000;-1034.000
368.770;  -64.600; -670.000; -589.000
368.902; -180.200; -836.000; -926.000
369.033; -217.100; -906.000; -855.000
369.164; -107.200; -720.000; -653.000
369.296; -170.300; -452.000; -601.000
369.427;    9.400; -209.000; -144.000
369.558;  -91.900; -593.000; -377.000
369.689; -157.200; -721.000; -569.000
369.821; -257.300; -951.000; -845.000
369.952;   -8.100;   42.000; -108.000
370.083;  -75.600; -229.000; -108.000
370.214; -125.600; -735.000; -650.000
370.345;    7.300;   65.000;   81.000
370.477; -168.000; -810.000; -790.000
370.608;  405.200; -328.000; -264.000
370.739; -132.400;-1233.000;-1292.000
370.870; -106.400;-1102.000; -923.000
371.001;  131.500; -378.000; -467.000
371.132; -137.800; -754.000; -735.000
371.263;    2.700;  -42.000; -148.000
371.394; -234.100; -841.000; -748.000
371.525;  111.200;  345.000;  225.000
371.657; -178.300; -808.000; -670.000
371.788;  142.600;  103.000;  199.000
371.919;  340.900; -384.000; -304.000
372.050; 6085.900;  -91.000; -156.000
372.181; 1630.800; -188.000; -294.000
372.311;  635.200;   42.000; -127.000
372.442;   82.200; -457.000; -451.000
372.573;  -26.400; -444.000; -340.000
372.704; -259.600;-1008.000; -980.000
372.835;  145.500; -228.000; -289.000
372.966; -130.900; -646.000; -554.000
373.097; -144.800; -575.000; -711.000
373.228;  -94.500; -717.000; -542.000
373.359;  180.900; -824.000; -536.000
373.490; 1474.100; -881.000; -727.000
373.620; 1766.800;-1001.000; -803.000
373.751; 2944.700; -332.000; -396.000
373.882; 1207.200; -663.000; -733.000
374.013;   92.100; -449.000; -262.000
374.143;  -63.400; -581.000; -659.000
374.274; -197.500; -987.000; -908.000
374.405;  307.500; -388.000; -276.000
374.536;  695.100; -526.000; -387.000
374.666; 1761.000; -759.000; -807.000
374.797;  316.000; -817.000; -868.000
374.928; 1393.100; -710.000; -560.000
375.058; 1360.100; -535.000; -500.000
375.189;  153.600;  -59.000;  -93.000
375.320; -181.800; -928.000;-1034.000
375.450;  -97.300; -625.000; -616.000
375.581;  -86.900; -526.000; -436.000
375.712;  -40.600; -574.000; -250.000
375.842;  486.600; -438.000; -415.000
375.973;  327.900; -554.000; -513.000
376.103;  -96.500; -665.000; -648.000
376.234; -140.500; -531.000; -552.000
376.364; -111.800; -944.000; -867.000
376.495;  596.800;  925.000;  529.000
376.625;  -24.100; -472.000; -485.000
376.756;   83.200; -709.000; -678.000
376.886; -160.400;-1178.000;-1026.000
377.017;   39.000;-1048.000;-1061.000
377.147;  443.000; -786.000; -782.000
377.278;  138.500;  174.000;  228.000
377.408; -223.800; -801.000; -815.000
377.538; -227.000; -707.000; -693.000
377.669; -139.000; -537.000; -613.000
377.799; -180.700; -645.000; -635.000
377.929;  -98.400; -610.000; -428.000
378.060; -222.300; -781.000; -847.000
378.190; -116.800; -726.000; -531.000
378.320;  -98.700; -401.000; -406.000
378.451;    6.600; -131.000;  -22.000
378.581;    7.300;  -67.000; -110.000
378.711;  325.600; 1035.000;  866.000
378.841;  -21.700; -533.000; -675.000
378.972; -172.200; -871.000; -751.000
379.102;  -27.400; -652.000; -579.000
379.232;    3.400; -126.000;  -73.000
379.362; -221.400;-1001.000; -885.000
379.492;   -2.700; -373.000; -424.000
379.623;  200.700;    0.000;  111.000
379.753; -191.900;-1107.000; -974.000
379.883;  377.200;   59.000;  156.000
380.013;   -3.900;-1081.000;-1017.000
380.143; -201.600;-1097.000;-1056.000
380.273; -203.700; -985.000; -861.000
380.403;   -6.700; -344.000; -257.000
380.533;  -92.000; -651.000; -664.000
380.663;  129.600;  173.000;  128.000
380.793; -217.700;-1027.000;-1074.000
380.923;  -13.800; -103.000;  -34.000
381.053; -160.800; -613.000; -623.000
381.183;  -41.400; -106.000; -248.000
381.313;  104.800; -656.000; -470.000
381.443;   40.600; -692.000; -473.000
381.573;  285.600; -402.000; -409.000
381.703;  397.000;-1249.000;-1095.000
381.833; -221.600;-1454.000;-1336.000
381.963;  233.300; -134.000;  -87.000
382.093; 2309.800; -925.000; -909.000
382.223;  603.300; -713.000; -602.000
382.353;  -89.600; -801.000; -608.000
382.482;  586.600;-1091.000; -964.000
382.612; 1245.800; -872.000; -644.000
382.742;  606.000; -695.000; -622.000
382.872;  385.300; -565.000; -551.000
383.002;  127.600;  347.000; -132.000
383.131;  -21.200; -226.000; -160.000
383.261;  -48.100; -706.000; -768.000
383.391;  419.900; -552.000; -377.000
383.521; 4915.200;  451.000;  263.000
383.650;  998.900; -947.000; -904.000
383.780;  -27.700; -783.000; -656.000
383.910;  296.500;  880.000;  802.000
384.039;   15.200; -794.000; -656.000
384.169;  303.300;-1205.000;-1017.000
384.299;  -74.700; -650.000; -662.000
384.428; -159.500; -764.000; -680.000
384.558;  -48.700; -308.000; -275.000
384.687;  -40.300; -414.000; -334.000
384.817;   47.400;   75.000;   -2.000
384.947;   87.500; -234.000; -141.000
385.076;  533.600;  982.000;  912.000
385.206;  256.600;  369.000;  480.000
385.335;  -30.500; -549.000; -417.000
385.465; -180.200; -655.000; -663.000
385.594;  251.500;  -53.000;  -44.000
385.724;  658.800; -868.000; -838.000
385.853;  186.100; -296.000; -270.000
385.982; 2329.900; -743.000; -787.000
386.112; 3379.300;-1052.000; -871.000
386.241;  241.400; -307.000; -312.000
386.371;   38.300; -174.000;  -87.000
386.500;  -13.100; -825.000; -789.000
386.629;   34.500; -874.000; -817.000
386.759;  114.800;  -43.000;   68.000
386.888;   23.800; -170.000; -250.000
387.017; -144.500; -648.000; -620.000
387.147; -180.100; -771.000; -798.000
387.276;  -11.200; -410.000; -397.000
387.405;   24.300; -398.000; -342.000
387.535;  -81.500; -452.000; -361.000
387.664;  -88.400; -692.000; -620.000
387.793;   96.300; -198.000; -113.000
387.922;  902.600;  255.000;  200.000
388.052;   12.900; -576.000; -423.000
388.181;   19.500; -342.000; -472.000
388.310;  -27.500; -889.000; -710.000
388.439;  -93.600; -749.000; -742.000
388.568;  389.200;  365.000;  244.000
388.697; 1713.600; -756.000; -653.000
388.826;  325.300; -768.000; -666.000
388.956;   93.800; -285.000; -307.000
389.085;  -39.200; -347.000; -287.000
389.214; -206.900; -842.000; -872.000
389.343; -114.100; -645.000; -413.000
389.472;  679.200;  126.000;  149.000
389.601;  825.800;   91.000;    0.000
389.730;   13.000; -568.000; -687.000
389.859;  105.900;  226.000;   46.000
389.988;  293.600; -423.000; -408.000
390.117;  259.700; -168.000; -146.000
390.246;   19.500; -331.000; -320.000
390.375;  150.300; -673.000; -626.000
390.504; -119.500; -703.000; -621.000
390.633; -183.100; -672.000; -726.000
390.761;  -99.000; -732.000; -645.000
390.890;   61.600;   -4.000; -130.000
391.019;  -24.700; -421.000; -441.000
391.148; -213.800; -826.000; -855.000
391.277; -107.200; -576.000; -493.000
391.406; -153.000; -821.000; -805.000
391.534;   79.400;  574.000; -301.000
391.663;  -97.800; -583.000; -645.000
391.792; -165.300; -673.000; -701.000
391.921;  209.100;   -3.000;   15.000
392.050;  287.900; -287.000; -228.000
392.178; -126.600;-1206.000;-1061.000
392.307;  261.900; -758.000; -712.000
392.436;   96.800; -427.000; -641.000
392.564;   67.200;  166.000;   -6.000
392.693; -149.400; -860.000; -682.000
392.822;  323.500; -529.000; -534.000
392.950;   97.800; -880.000; -714.000
393.079;  567.700; -188.000; -328.000
393.208;   -8.800; -488.000; -511.000
393.336;   17.300; -170.000; -145.000
393.465;  -52.900; -317.000; -199.000
393.593;   75.200;   62.000;   79.000
393.722; -260.400;-1121.000; -916.000
393.850;  -12.500; -188.000;  -61.000
393.979; -289.300; -926.000; -805.000
394.107;  -65.500; -517.000; -537.000
394.236;  -43.000; -570.000; -507.000
394.364;  536.300;  383.000;  206.000
394.493;  860.500; -911.000; -767.000
394.621;  -43.800; -955.000; -916.000
394.750; 1071.600; -873.000; -923.000
394.878; 4529.600; -247.000; -149.000
395.007; 5674.000; -721.000; -807.000
395.135;  361.900; -790.000; -721.000
395.263; -185.200;-1038.000;-1040.000
395.392;   26.500;  -25.000; -107.000
395.520; -226.200; -818.000; -679.000
395.648; -200.000; -865.000; -915.000
395.777;  -18.900; -366.000; -405.000
395.905;  -48.600; -449.000; -564.000
396.033;  112.200;  217.000;  172.000
396.162; 1492.600; -399.000; -453.000
396.290; 1231.100;  -17.000;   -2.000
396.418;  174.700; -555.000; -514.000
396.546; -133.400; -571.000; -466.000
396.674; -169.300; -850.000; -878.000
396.803;   33.600;  -72.000;  -23.000
396.931;  187.600; -179.000; -199.000
397.059;   20.600;-1026.000; -989.000
397.187; -214.700;-1026.000; -975.000
397.315; -269.100; -884.000; -649.000
397.443; -152.100; -592.000; -443.000
397.572; -145.800; -578.000; -424.000
397.700;  -55.000; -607.000; -614.000
397.828;   88.900;  120.000;  -90.000
397.956;  -62.000; -508.000; -478.000
398.084; -114.100; -767.000; -626.000
398.212;  108.200;  137.000;  124.000
398.340;   74.400;  -56.000;  159.000
398.468;   62.700; -390.000; -169.000
398.596; -263.500; -993.000; -953.000
398.724; -225.100; -762.000; -767.000
398.852; -286.500;-1024.000; -976.000
398.980;  -93.400; -560.000; -560.000
399.108;  -96.600; -982.000; -735.000
399.236;   41.800;   13.000;    8.000
399.363;   76.300;  222.000;  196.000
399.491; -139.700; -404.000; -398.000
399.619; -221.200; -829.000; -800.000
399.747; -174.900; -859.000; -771.000
399.875;  199.600;  220.000;  234.000
400.003;  -70.200; -359.000; -284.000
400.130; -108.800; -421.000; -341.000
400.258;  -16.000;  -83.000;   38.000
400.386;  -59.800; -352.000; -168.000
400.514;  -86.000; -526.000; -587.000
400.641; -182.900; -928.000; -802.000
400.769; -233.100; -979.000; -888.000
400.897; -166.000; -838.000; -793.000
401.025;   -4.200; -166.000; -152.000
401.152;   47.100;  220.000;   38.000
401.280; -128.300; -430.000; -429.000
401.408; -214.000; -712.000; -576.000
401.535; -165.600; -735.000; -758.000
401.663; -342.500;-1134.000;-1054.000
401.790; -137.400; -514.000; -525.000
401.918;  136.000;  436.000;  405.000
402.046;  -21.600;  134.000;  122.000
402.173;  -53.200;  -18.000;    7.000
402.301; -117.000; -519.000; -397.000
402.428;  154.900;  528.000;  383.000
402.556; -263.900;-1188.000; -913.000
402.683;   30.600;  -20.000;   -1.000
402.811;    2.900;  -37.000; -206.000
402.938;   13.200;   20.000;   27.000
403.066;  333.100; -574.000; -558.000
403.193;  555.900;  299.000;  239.000
403.321;  424.700; -396.000; -574.000
403.448;  541.600;   83.000;   27.000
403.575;  250.400;  -90.000;  -46.000
403.703; -175.100; -732.000; -557.000
403.830; -117.800; -531.000; -496.000
403.957; -276.500;-1117.000;-1023.000
404.085;   36.400;  -61.000; -172.000
404.212;  199.900;  -50.000;   63.000
404.339;  427.000; -566.000; -306.000
404.467; 8774.700; -612.000; -524.000
404.594; 5415.100; -287.000; -227.000
404.721; 1234.900; -869.000; -764.000
404.848;  159.000; -113.000; -202.000
404.976; -211.900; -856.000; -783.000
405.103;   35.100;  -14.000;  -82.000
405.230;   33.400;  190.000;  226.000
405.357;   94.200;  117.000;   44.000
405.484;  439.500;  -49.000;    5.000
405.612;   50.100; -548.000; -563.000
405.739; -109.000; -488.000; -243.000
405.866;  201.800;  669.000;  385.000
405.993;  -66.300; -398.000; -102.000
406.120; -243.800; -801.000; -887.000
406.247;  -92.000; -323.000; -342.000
406.374;  788.400;  540.000;  629.000
406.501;  140.700; -632.000; -702.000
406.628; -156.500; -621.000; -589.000
406.755; -187.200; -803.000; -620.000
406.882;  -65.600; -228.000; -277.000
407.009; -183.800; -719.000; -628.000
407.136;   67.000; -480.000; -401.000
407.263;  170.400; -939.000; -829.000
407.390; -147.300; -692.000; -614.000
407.517; -315.200;-1139.000;-1187.000
407.644; -106.400; -332.000; -256.000
407.771;  -73.700; -249.000; -287.000
407.898;  103.900;  168.000;  328.000
408.025;  -93.100; -421.000; -313.000
408.151;   27.600;   82.000;  153.000
408.278;  -85.300; -267.000; -216.000
408.405; -212.600; -931.000; -899.000
408.532; -130.100; -549.000; -542.000
408.659; -201.200; -677.000; -648.000
408.785; -344.300;-1298.000;-1170.000
408.912; -105.900; -412.000; -296.000
409.039; -177.100; -610.000; -686.000
409.166; -132.800; -591.000; -555.000
409.292; -191.400; -571.000; -534.000
409.419; -204.800; -665.000; -649.000
409.546; -109.500; -431.000; -192.000
409.672; -184.200; -713.000; -545.000
409.799;   26.400;  -36.000;   34.000
409.926;  -52.300; -180.000; -179.000
410.052; -346.100;-1127.000;-1091.000
410.179;  -90.800; -368.000; -392.000
410.305; -110.300; -375.000; -493.000
410.432;  -57.500; -220.000; -333.000
410.558; -141.900; -305.000; -380.000
410.685; -170.000; -688.000; -431.000
410.812; -167.400; -409.000; -588.000
410.938; -265.000; -964.000; -808.000
411.065; -175.300; -671.000; -645.000
411.191;  -13.200; -189.000; -174.000
411.317; -200.000; -823.000; -742.000
411.444;  -94.200; -317.000; -246.000
411.570; -101.400; -339.000; -294.000
411.697; -199.900; -758.000; -752.000
411.823; -281.600; -989.000; -999.000
411.949;  -26.800;  -56.000;   17.000
412.076; -204.200; -539.000; -519.000
412.202; -246.400; -758.000; -757.000
412.329; -214.000; -798.000; -752.000
412.455; -181.700; -821.000; -657.000
412.581;   13.100;  -15.000;  172.000
412.707; -118.100; -540.000; -457.000
412.834;   71.200;  156.000;  219.000
412.960; -156.100; -785.000; -784.000
413.086; -183.100; -743.000; -701.000
413.212;  331.300;  604.000;  578.000
413.339; -118.400; -685.000; -701.000
413.465;    3.400; -364.000; -310.000
413.591; -169.200; -757.000; -474.000
413.717;  -68.000; -358.000; -366.000
413.843; -257.800; -839.000; -861.000
413.969;  -97.300;  -47.000; -292.000
414.096; -165.300; -679.000; -679.000
414.222;   32.800;  -33.000;   85.000
414.348;  -15.700; -652.000; -385.000
414.474;  147.000;   38.000;  -52.000
414.600;   -4.700; -126.000; -144.000
414.726;   21.500;  -96.000;  -55.000
414.852;  -71.200; -365.000; -342.000
414.978;  105.500;  104.000;  -18.000
415.104;   45.300;   38.000;   80.000
415.230;   72.800; -329.000; -330.000
415.356;   90.400; -409.000; -514.000
415.482;  339.200;   13.000;  -35.000
415.608;  429.400; -247.000; -323.000
415.734; 1524.300;   67.000;   38.000
415.860;31779.500; -875.000; -767.000
415.986;20618.800; -685.000; -607.000
416.111; 1659.400; -798.000; -652.000
416.237;  362.200; -424.000; -571.000
416.363; 1891.600; -765.000; -733.000
416.489; 6202.300; -324.000; -251.000
416.615;  537.100; -707.000; -742.000
416.741;  -38.600; -677.000; -784.000
416.866; -120.800; -673.000; -736.000
416.992; -221.300; -801.000; -818.000
417.118;  -33.300;  -41.000;  -80.000
417.244; -111.000; -798.000; -531.000
417.369; -136.200; -801.000; -612.000
417.495;   -1.900; -325.000; -254.000
417.621; -169.900;-1015.000; -803.000
417.746;  -25.900; -579.000; -572.000
417.872;   88.300; -254.000; -144.000
417.998;   65.900; -515.000; -530.000
418.123; 1695.600;-1073.000; -845.000
418.249; 8041.400; -512.000; -601.000
418.374;  942.500; -916.000; -824.000
418.500;  157.200; -383.000; -482.000
418.626;  249.200;   70.000;  -59.000
418.751;  170.100; -549.000; -448.000
418.877;  265.400; -637.000; -643.000
419.002; 2998.600; -688.000; -560.000
419.128;19136.900; -930.000; -721.000
419.253; 4086.600; -967.000; -837.000
419.379;  579.200; -391.000; -338.000
419.504;  639.700;  325.000;  415.000
419.629;  780.800; -393.000; -212.000
419.755; 5965.700; -317.000; -254.000
419.880;31521.400;  -98.000;   67.000
420.006;17731.100; -280.000; -221.000
420.131;43509.000; -662.000; -775.000
420.256; 5648.100; -315.000; -316.000
420.382;  756.800; -665.000; -687.000
420.507;   61.200; -649.000; -778.000
420.632;  264.900; -337.000; -339.000
420.758;  414.100; -251.000; -425.000
420.883; -133.400; -876.000; -672.000
421.008; -182.600; -775.000; -619.000
421.133; -113.300; -509.000; -467.000
421.259;  -11.100; -325.000; -259.000
421.384; -206.100; -834.000; -693.000
421.509;  -88.700;-1052.000; -862.000
421.634; 1909.700; -936.000; -820.000
421.759;  736.700; -359.000; -327.000
421.885;  -87.700; -717.000; -656.000
422.010; -133.900; -673.000; -542.000
422.135; -272.500; -695.000; -727.000
422.260;  123.700;  340.000;  280.000
422.385;  -73.900;   12.000;  -98.000
422.510;   94.000;  151.000;  -26.000
422.635;   67.200;  -87.000;  -43.000
422.760;  163.000; -766.000; -791.000
422.885;   99.600;  -57.000;  -80.000
423.010;  -50.800; -112.000; -169.000
423.135; -125.400; -481.000; -561.000
423.260;  -23.900; -150.000; -245.000
423.385;  162.700;  476.000;  222.000
423.510;   87.400;   71.000;  -22.000
423.635;  174.300;  133.000;   45.000
423.760;  142.800;  383.000;  328.000
423.885;  134.900;  336.000;  391.000
424.010;   44.000;  -68.000;  -13.000
424.135;    0.400;    5.000;  -33.000
424.259; -119.700; -654.000; -457.000
424.384;  -86.500; -279.000; -272.000
424.509;  -53.500; -260.000; -186.000
424.634; -177.900; -761.000; -623.000
424.759;  -68.100; -688.000; -544.000
424.883;  -32.500; -506.000; -527.000
425.008;  271.100; -502.000; -410.000
425.133; 3062.500; -679.000; -653.000
425.258; 1271.400; -517.000; -381.000
425.382; 1762.600; -867.000; -774.000
425.507; 4027.200; -487.000; -543.000
425.632;  579.700; -802.000; -663.000
425.756;  721.100; -256.000; -146.000
425.881;10649.700; -831.000; -857.000
426.006;25940.400; -604.000; -355.000
426.130; 3594.800; -696.000; -508.000
426.255;  467.900; -611.000; -491.000
426.379;  217.100; -189.000; -577.000
426.504;  660.000;  660.000;  544.000
426.629; 6389.000; -519.000; -466.000
426.753; 3915.200;   64.000;  -46.000
426.878;  458.300; -252.000; -288.000
427.002;  285.700; -651.000; -668.000
427.127; 2683.800;  -35.000; -158.000
427.251;17647.200;  372.000;  401.000
427.375; 4419.900; -191.000; -173.000
427.500; 3661.100; -616.000; -610.000
427.624; 1119.500; -234.000; -400.000
427.749;  152.900; -216.000; -225.000
427.873;  -71.900; -499.000; -412.000
427.997;  -19.400; -222.000; -230.000
428.122;  258.400;  795.000;  703.000
428.246;  165.400;  433.000;  434.000
428.371; -257.800; -869.000; -773.000
428.495; -199.800; -624.000; -646.000
428.619;   20.800; -186.000; -117.000
428.743;  105.600;   65.000;  132.000
428.868;   24.800; -732.000; -643.000
428.992; 2286.500; -219.000; -326.000
429.116;  877.400; -329.000; -357.000
429.240;  465.100;  419.000;  426.000
429.365;  -23.600; -454.000; -574.000
429.489;  -45.000; -638.000; -647.000
429.613;   43.800; -236.000; -177.000
429.737;   81.400; -563.000; -432.000
429.861;  447.700; -247.000; -133.000
429.985; 9049.600; -425.000; -305.000
430.109; 8678.100; -770.000; -908.000
430.234; 1005.400;   76.000;  -50.000
430.358;  139.000; -250.000; -160.000
430.482; -102.700; -672.000; -564.000
430.606;  -94.500; -655.000; -375.000
430.730;   14.800; -437.000; -388.000
430.854;  157.200; -909.000; -835.000
430.978; -122.000; -795.000; -764.000
431.102; -116.500; -499.000; -422.000
431.226; -209.900; -874.000; -815.000
431.350;  144.500;  345.000;  422.000
431.474; -130.900; -661.000; -373.000
431.597; -289.300;-1060.000; -848.000
431.721; -103.200; -276.000; -267.000
431.845; -207.700; -704.000; -472.000
431.969; -143.600; -304.000; -349.000
432.093; -118.000; -395.000; -317.000
432.217;   18.100;   32.000;   82.000
432.341; -111.200; -523.000; -518.000
432.464;   66.700;   96.000;   40.000
432.588;  350.200; -401.000; -329.000
432.712;  161.500;  -52.000;  -52.000
432.836;  143.800;  213.000;  263.000
432.959;  -38.600; -372.000; -311.000
433.083;  163.900;   11.000;    2.000
433.207;  645.500;  285.000;  930.000
433.330; 8190.200; -391.000; -200.000
433.454; 8948.300; -654.000; -638.000
433.578; 5273.800;  583.000;  278.000
433.701;  848.400; -623.000; -675.000
433.825;  173.400; -292.000; -299.000
433.949;  282.800;   28.000;  -72.000
434.072;   68.600; -410.000; -323.000
434.196;   -6.700; -309.000; -117.000
434.319; 7984.700;25482.000;25124.000
434.443; 1156.400; -656.000; -603.000
434.566; 4049.100;  281.000;   62.000
434.690;  530.000; -637.000; -383.000
434.813;   65.500; -251.000; -173.000
434.937; -128.300; -569.000; -696.000
435.060;  -52.900; -423.000; -332.000
435.184;  489.200; -492.000; -217.000
435.307;  274.800;  159.000;  102.000
435.431;   63.200;  -40.000;   24.000
435.554;  -74.400; -399.000; -240.000
435.677; -142.900; -350.000; -258.000
435.801;  -54.100;  -25.000;   49.000
435.924;   29.600;    1.000;  -67.000
436.048; -194.500;-1019.000; -732.000
436.171;  -92.700; -240.000;  -66.000
436.294;  -10.800; -248.000; -229.000
436.417;  117.300; -963.000; -849.000
436.541; -154.400; -814.000; -840.000
436.664;  -52.300; -242.000; -316.000
436.787;   33.700;   13.000;  113.000
436.910; -192.000; -792.000; -422.000
437.034;   89.400;  142.000;  143.000
437.157;  142.300;  -11.000;    0.000
437.280; -115.700; -392.000; -292.000
437.403; -165.000; -982.000; -869.000
437.526; 1193.200; -903.000; -865.000
437.649; 3605.900; -505.000; -332.000
437.772;  428.400; -692.000; -540.000
437.896;  259.400;  700.000;  544.000
438.019; -186.400; -758.000; -503.000
438.142; -131.000; -596.000; -506.000
438.265;  -12.500; -639.000; -670.000
438.388;  931.000; -520.000; -410.000
438.511;   73.000; -597.000; -394.000
438.634;  -67.500; -247.000; -125.000
438.757; -262.500; -693.000; -619.000
438.880;  -40.500;  -34.000;  -57.000
439.003;  -90.500; -417.000; -437.000
439.126; -127.300; -287.000; -167.000
439.248;  -75.800;  -98.000; -139.000
439.371;   -3.000;    9.000;  -53.000
439.494;   88.700;  510.000;  439.000
439.617;  -63.500;   65.000;  -88.000
439.740; -319.800; -968.000; -816.000
439.863; -256.300; -755.000; -595.000
439.986; -198.800; -476.000; -431.000
440.108;  -62.500; -161.000; -112.000
440.231; -299.400; -950.000; -836.000
440.354;  -42.500;  -64.000; -150.000
440.477;   52.100; -566.000; -542.000
440.599;    1.700; -200.000; -225.000
440.722; -225.600; -709.000; -586.000
440.845;  251.300;  751.000;  928.000
440.968; -146.600; -415.000; -311.000
441.090;  -88.500; -199.000;  -33.000
441.213; -294.900;-1021.000; -825.000
441.336;  -47.900; -159.000;   -5.000
441.458; -120.200; -549.000; -396.000
441.581; -137.200; -628.000; -629.000
441.703; -125.700; -152.000;   13.000
441.826; -183.300; -557.000; -400.000
441.948;  -53.000;   56.000;   51.000
442.071;  109.200;  555.000;  424.000
442.193; -198.500; -531.000; -485.000
442.316;   92.800;  152.000;   97.000
442.438;   90.100; -233.000;  -10.000
442.561;  184.300;  272.000;  262.000
442.683;  959.000; -809.000; -522.000
442.806; 1845.600;   -8.000;   74.000
442.928;   18.000; -859.000; -604.000
443.051; -107.800; -577.000; -373.000
443.173; -170.100; -341.000; -339.000
443.295; -136.600; -263.000; -371.000
443.418; -118.000; -321.000;  -29.000
443.540;   12.500; -106.000;   -4.000
443.662; -208.800; -563.000; -465.000
443.785;   21.400;  335.000;  199.000
443.907; -158.900; -362.000; -208.000
444.029; -223.000; -767.000; -494.000
444.152; -231.400; -644.000; -554.000
444.274;  -25.800;  -18.000;  -24.000
444.396; -152.300; -461.000; -221.000
444.518; -210.200; -691.000; -454.000
444.640; -151.500; -268.000; -111.000
444.763;   50.400;  388.000;  249.000
444.885; -180.100; -432.000; -392.000
445.007;  -30.700;   35.000;   86.000
445.129; -177.600; -610.000; -515.000
445.251; -157.100; -372.000; -439.000
445.373; -233.700; -537.000; -386.000
445.495;   66.000;  242.000;  350.000
445.617;  169.600;  853.000;  753.000
445.739; -110.100; -215.000;  -97.000
445.861;  -11.600; -245.000; -112.000
445.984;  -16.300; -267.000; -101.000
446.105;  370.500; -418.000; -251.000
446.227;  994.100; -176.000;  -19.000
446.349;   -2.900; -358.000; -249.000
446.471; -165.300; -615.000; -448.000
446.593;  -26.500; -316.000;   19.000
446.715;   24.500;  -67.000;   41.000
446.837;  214.500;  697.000;  832.000
446.959; -171.600; -457.000; -478.000
447.081; -211.000; -628.000; -518.000
447.203;  172.100;  862.000;  834.000
447.325; -113.800; -270.000;   42.000
447.446;   60.400;  286.000;  530.000
447.568; -265.800; -921.000; -803.000
447.690; -110.100; -236.000; -245.000
447.812; -251.300; -798.000; -519.000
447.933;  -29.300;  155.000;  127.000
448.055;  -98.700; -306.000; -261.000
448.177;  290.500;   31.000;   79.000
448.299;   89.000; -935.000; -727.000
448.420;   82.500;  -25.000;  159.000
448.542;  -42.700;   -3.000;   33.000
448.664;    2.200;  109.000;  322.000
448.785;  -35.300;  265.000;   83.000
448.907; -137.000; -614.000; -353.000
449.028;  -50.500; -771.000; -471.000
449.150;  141.500;  492.000;  589.000
449.272; -326.700;-1044.000; -913.000
449.393;   89.300;  612.000;  694.000
449.515; -240.700; -634.000; -581.000
449.636;  -56.600; -264.000; -155.000
449.758;  205.600;  763.000;  622.000
449.879; -157.500; -498.000; -396.000
450.001; -108.900; -149.000;  -49.000
450.122;  -12.900;  -95.000;  162.000
450.244;   -4.400;   37.000;  364.000
450.365; -160.600; -495.000; -301.000
450.486;  -36.800;   80.000;  268.000
450.608;   93.400;  393.000;  326.000
450.729;  174.500;  578.000;  645.000
450.850;  -21.900; -574.000; -466.000
450.972; 1241.200; -552.000; -389.000
451.093; 7691.300;  190.000;  588.000
451.214; 2863.900; -516.000; -337.000
451.336;  649.500;  773.000;  579.000
451.457;  118.500;  264.000;  393.000
451.578;  -30.600; -118.000;  -74.000
451.699; -213.200; -546.000; -540.000
451.821;  -68.900; -284.000;  -50.000
451.942;   84.800;  278.000;  285.000
452.063;   82.900;  228.000;  419.000
452.184;  950.100;  -54.000;  -49.000
452.305; 1626.600;  103.000;  170.000
452.427;  149.000; -549.000; -301.000
452.548;  -29.900;   23.000;   79.000
452.669;  -58.400; -257.000;  -89.000
452.790;  -27.000;    3.000;  -18.000
452.911;   44.200;  195.000;  259.000
453.032;  -80.800; -289.000;  -60.000
453.153;  -63.400;  -29.000;   81.000
453.274;  170.500;  737.000;  868.000
453.395;  -51.200;  -51.000;  175.000
453.516;  333.200; 1317.000; 1388.000
453.637;  -96.300; -205.000; -150.000
453.758;  -90.100;   15.000;   69.000
453.879; -174.300; -462.000; -250.000
454.000;  240.800; 1086.000;  948.000
454.121; -180.900; -554.000; -326.000
454.242; -222.800; -599.000; -383.000
454.362;  -73.400;  -99.000;  114.000
454.483;  -40.900; -309.000; -229.000
454.604;  159.700;  512.000;  580.000
454.725; -224.600; -627.000; -555.000
454.846; -192.100; -474.000; -406.000
454.967;   45.100;  230.000;  539.000
455.087;  -11.600;  179.000;  153.000
455.208;   94.300;  554.000;  856.000
455.329;  -45.500;  -22.000;   82.000
455.450;  119.900;  473.000;  633.000
455.570; -127.600; -234.000; -211.000
455.691;  -33.100;  201.000;  407.000
455.812; -166.500; -270.000;  -92.000
455.932;  -71.800;  107.000;  -97.000
456.053; -136.500;   36.000;   24.000
456.173; -182.100; -433.000; -355.000
456.294; -197.900; -476.000; -303.000
456.415;  -64.800;  -73.000;   70.000
456.535;  -19.800;  297.000;  273.000
456.656;   -8.600;  132.000;  240.000
456.776;  -67.500;    3.000;  298.000
456.897;   59.400;  308.000;  513.000
457.017; -109.500; -153.000;   -3.000
457.138; -133.100; -402.000; -249.000
457.258;   24.000;  263.000;  224.000
457.379;   46.300;  509.000;  521.000
457.499;    0.300;  443.000;  432.000
457.620; -213.100; -407.000; -231.000
457.740; -122.700; -132.000;  -11.000
457.860;  -67.900;   87.000;   44.000
457.981;  -58.900;  132.000;  124.000
458.101; -106.800;  -89.000;   40.000
458.221;   13.600;  336.000;  402.000
458.342;  -61.900;   -4.000;  -37.000
458.462;  133.900;  617.000;  352.000
458.582;  -47.700; -302.000; -294.000
458.703;   76.500;  303.000;  154.000
458.823;   -7.300;   22.000;  163.000
458.943;   70.200;  341.000;  467.000
459.063;   20.800; 1124.000;  192.000
459.183;   -0.200;  328.000;  313.000
459.304;   50.000;  315.000;  517.000
459.424;  -89.400; -246.000;  -89.000
459.544;  609.900;  388.000;  764.000
459.664; 1351.000;  499.000;  506.000
459.784;  522.300; 1004.000; 1175.000
459.904;  172.700;  867.000;  744.000
460.024;  162.900;  867.000;  684.000
460.144;  101.300;  449.000;  554.000
460.264;   32.400;  515.000;  327.000
460.385; -141.700; -145.000; -119.000
460.505;  156.900;  905.000;  858.000
460.625; -133.900;  -17.000;  -68.000
460.745;   30.200;  396.000;  541.000
460.864;  -41.000;  153.000;  469.000
460.984;   88.500;  499.000;  573.000
461.104;  374.200; 1656.000; 1775.000
461.224;  107.000;  657.000;  650.000
461.344;   31.900;  431.000;  360.000
461.464;    6.900;  258.000;  513.000
461.584;   35.600;  283.000;  466.000
461.704;  -65.800;   58.000;  108.000
461.824;  -79.200;  238.000;  259.000
461.943;  -31.900;  191.000;  130.000
462.063;  -67.500;    2.000;  324.000
462.183;  128.200;  639.000;  717.000
462.303;  257.100; 1678.000; 1230.000
462.422;  128.400;  781.000;  840.000
462.542;    3.300;  271.000;  391.000
462.662;  106.400;  353.000;  380.000
462.782;  443.500;  833.000;  572.000
462.901;  810.800;  545.000;  717.000
463.021;  549.700; 1702.000; 1638.000
463.141;   19.300;  337.000;  770.000
463.260;   33.600;  614.000;  474.000
463.380;  107.000;  902.000;  884.000
463.499;    4.600;  342.000;  332.000
463.619;  -24.900;  581.000;  559.000
463.738;  297.900; 1644.000;  903.000
463.858;   97.900;  657.000;  811.000
463.978;    0.500;  542.000;  396.000
464.097;  181.200;  921.000; 1114.000
464.217;  280.100; 1196.000; 1143.000
464.336;  253.400; 1068.000; 1130.000
464.455;   -5.800;  328.000;  659.000
464.575;  114.800;  597.000;  602.000
464.694;  394.200; 1204.000; 1179.000
464.814;  296.500; 1190.000; 1138.000
464.933;  203.100; 1095.000; 1027.000
465.052;  252.200; 1412.000; 1054.000
465.172;  212.200;  922.000;  799.000
465.291;  327.400; 1376.000; 1320.000
465.410;   49.800;  462.000;  735.000
465.530;  248.200; 1355.000; 1310.000
465.649;  179.400; 1209.000; 1273.000
465.768;  354.500; 1673.000; 1508.000
465.888;  141.100;  941.000; 1174.000
466.007;  218.200; 1335.000; 1440.000
466.126;   41.800;  721.000;  641.000
466.245;  167.200; 1176.000; 1187.000
466.364;  125.600;  950.000; 1060.000
466.484;  175.200; 1024.000; 1213.000
466.603;  120.900; 1101.000; 1222.000
466.722;  287.800; 1490.000; 1769.000
466.841;  236.300; 1151.000; 1401.000
466.960;  176.000; 1069.000;  972.000
467.079;  313.300; 1971.000; 1786.000
467.198;  177.800; 1238.000; 1181.000
467.317;  232.900; 1768.000; 1162.000
467.436;  194.800; 1709.000; 1261.000
467.555;  308.600; 1796.000; 1746.000
467.674;  177.900; 1227.000; 1329.000
467.793;  143.400; 1376.000; 1374.000
467.912;  253.400; 1658.000; 1539.000
468.031;  363.100; 2038.000; 1930.000
468.150;  350.300; 1842.000; 1837.000
468.269;  454.500; 2313.000; 2090.000
468.388;  414.400; 2168.000; 2339.000
468.507;  587.600; 2884.000; 2903.000
468.626;  634.900; 2555.000; 2541.000
468.744;  343.000; 2018.000; 2174.000
468.863;  494.400; 2312.000; 2523.000
468.982;  263.700; 1503.000; 1555.000
469.101;  549.700; 2788.000; 2692.000
469.220;  354.000; 2333.000; 2176.000
469.338;  504.100; 2935.000; 3051.000
469.457;  460.200; 2719.000; 2545.000
469.576;  783.400; 3953.000; 3784.000
469.695;  576.600; 2877.000; 3066.000
469.813;  893.200; 4148.000; 4192.000
469.932;  931.600; 4255.000; 4485.000
470.051;  914.000; 4075.000; 4161.000
470.169; 1641.700; 4470.000; 4338.000
470.288; 2565.900; 4700.000; 4809.000
470.406; 1526.700; 5059.000; 5194.000
470.525; 1277.500; 6101.000; 5787.000
470.644; 1355.900; 6847.000; 6794.000
470.762; 1777.400; 8397.000; 7873.000
470.881; 1905.400; 8651.000; 8464.000
470.999; 2123.400; 9685.000; 9151.000
471.118; 2283.600;11174.000;10711.000

