
Integration time [ms]: 200.000
Averaging Nr. [scans]: 10
Smoothing Nr. [pixels]: 0
Data measured with spectrometer [name]: 2101012U2
Wave   ;Sample   ;Dark     ;Reference
[nm]   ;[counts] ;[counts] ;[counts] 

197.733;   82.100;  516.000;  404.000
197.879; -178.400; -610.000; -634.000
198.025; -131.400; -475.000; -420.000
198.171; -179.000; -602.000; -612.000
198.317;  -85.600; -401.000; -316.000
198.463; -129.200; -655.000; -404.000
198.609;   44.500;  181.000; -137.000
198.755; -174.200; -644.000; -410.000
198.901; -169.800; -505.000; -424.000
199.047; -144.500; -615.000; -488.000
199.193;  -87.300; -230.000; -468.000
199.339;  -79.200; -222.000; -369.000
199.485;   61.600;  330.000;  271.000
199.631;   51.300;  227.000;  310.000
199.777; -111.300; -466.000; -398.000
199.923; -124.200; -610.000; -424.000
200.069;  -12.700; -141.000;  -58.000
200.215;   94.000;  128.000;  453.000
200.361;  112.600;  243.000;  477.000
200.507; -147.500; -600.000; -373.000
200.653; -104.000; -371.000; -194.000
200.798; -102.400; -215.000; -125.000
200.944;  -27.600; -146.000;  -41.000
201.090;   91.200;   61.000;  222.000
201.236;  -28.400; -116.000; -158.000
201.382;  239.000;  874.000;  903.000
201.528;   -9.800;  -58.000;  -48.000
201.674;  -63.300; -386.000; -293.000
201.819; -134.900; -540.000; -439.000
201.965; -183.300; -699.000; -447.000
202.111;  -81.400; -273.000; -226.000
202.257;  -91.500; -250.000; -238.000
202.402;   39.900;   13.000;  -36.000
202.548;  -57.100; -169.000; -116.000
202.694;  149.700;  410.000; -183.000
202.840; -156.700; -603.000; -531.000
202.985; -173.500; -681.000; -639.000
203.131; -245.100; -832.000; -666.000
203.277;  -84.600; -199.000; -262.000
203.423; -113.000; -434.000; -520.000
203.568;  -96.000; -462.000; -237.000
203.714; -136.500; -535.000; -542.000
203.860; -201.600; -682.000; -641.000
204.005;    9.500;  112.000;  167.000
204.151;  124.500;  561.000;  556.000
204.296;  -84.300; -354.000; -221.000
204.442; -151.200; -600.000; -547.000
204.588; -160.100; -592.000; -579.000
204.733;   22.000;  178.000;  168.000
204.879; -272.600;-1018.000; -822.000
205.025;   12.700;  -99.000;  126.000
205.170;    3.000;  -17.000;   94.000
205.316;  154.500;  438.000;  661.000
205.461; -193.100; -698.000; -554.000
205.607;  171.800;  609.000;  665.000
205.752; -159.600; -626.000; -551.000
205.898; -121.400; -501.000; -391.000
206.043; -102.700; -578.000; -506.000
206.189;  -85.800; -243.000; -285.000
206.334;  166.700;  554.000;  606.000
206.480;  144.700;  409.000;  239.000
206.625; -164.800; -529.000; -552.000
206.771; -123.900; -451.000; -373.000
206.916;  -61.200; -210.000; -537.000
207.062; -146.200; -545.000; -591.000
207.207; -126.800; -546.000; -443.000
207.353;  103.200;  185.000;  460.000
207.498;   18.400;  196.000;   85.000
207.643; -119.900; -501.000; -370.000
207.789; -246.500;-1069.000; -910.000
207.934; -209.100; -665.000; -713.000
208.080;  -52.300; -154.000;   66.000
208.225;   -7.800;  -22.000;  -57.000
208.370; -167.300; -727.000; -619.000
208.516; -184.500; -741.000; -487.000
208.661;  -90.100; -127.000;  -69.000
208.806;  -38.400; -165.000; -171.000
208.952; -252.200;-1044.000; -731.000
209.097;  134.100;  378.000;  349.000
209.242;  -98.200; -307.000; -382.000
209.387;  123.800;  392.000;  350.000
209.533; -108.200; -321.000; -350.000
209.678;  131.800;  472.000;  543.000
209.823; -113.300; -408.000; -310.000
209.969; -203.600; -860.000; -757.000
210.114; -238.800; -907.000; -719.000
210.259; -238.000; -939.000; -889.000
210.404;  -28.600; -171.000;  103.000
210.549;    5.200;  108.000;    3.000
210.695;   -4.100;   -3.000;  -95.000
210.840;   56.500;   94.000;   67.000
210.985;  -97.200; -484.000; -303.000
211.130;   91.300;  268.000;  406.000
211.275;   12.700;  207.000;  199.000
211.420; -128.700; -300.000; -289.000
211.566; -160.500; -536.000; -489.000
211.711;   43.200;  218.000;  157.000
211.856; -140.200; -545.000; -519.000
212.001;  -20.500;  151.000;   44.000
212.146;   -1.800;  153.000;   49.000
212.291;  -51.600; -210.000; -186.000
212.436;  -95.100; -280.000;   -6.000
212.581; -205.000; -685.000; -653.000
212.726; -161.200; -487.000; -538.000
212.871; -117.200; -552.000; -217.000
213.016; -332.000;-1172.000;-1029.000
213.161;  124.600;  406.000;  291.000
213.306; -159.700; -435.000; -577.000
213.451; -236.900; -778.000; -689.000
213.596; -104.300; -455.000; -347.000
213.741; -136.600; -448.000; -538.000
213.886; -159.200; -498.000; -517.000
214.031;  -74.700; -294.000; -124.000
214.176;  -95.900; -408.000; -341.000
214.321;  -41.000; -296.000; -157.000
214.466;  -43.900; -163.000;  -43.000
214.611;  -29.900;  -61.000;  -10.000
214.756; -215.300; -948.000; -858.000
214.901;  -72.900; -388.000; -226.000
215.046; -233.000; -797.000; -825.000
215.191;   21.000;  128.000;   35.000
215.336;  -50.900; -157.000;  -19.000
215.480; -156.600; -684.000; -505.000
215.625;  -15.900; -175.000;  -19.000
215.770; -184.000; -757.000; -662.000
215.915;  -19.300;   -5.000;  -97.000
216.060;   -0.300; -113.000;  -21.000
216.205; -221.300; -731.000; -779.000
216.349; -159.000; -470.000; -533.000
216.494; -264.000; -939.000; -867.000
216.639; -254.700; -823.000; -888.000
216.784; -181.600; -577.000; -525.000
216.929;   76.300;  392.000;  281.000
217.073;  -14.000; -244.000;  -31.000
217.218;   -1.200;   78.000;  -47.000
217.363; -195.600; -656.000; -618.000
217.507; -187.600; -623.000; -588.000
217.652; -275.100; -845.000; -874.000
217.797; -180.000; -708.000; -659.000
217.942; -243.200; -856.000; -720.000
218.086;  129.200;  608.000;  539.000
218.231;  -64.200; -174.000;  -26.000
218.376;  -81.900; -337.000; -229.000
218.520;   29.500;  -41.000;   96.000
218.665;  -75.800; -338.000; -204.000
218.810; -102.200; -275.000; -233.000
218.954;   18.500;  201.000;   35.000
219.099; -219.000; -713.000; -963.000
219.243; -161.800; -589.000; -554.000
219.388;  -89.000; -264.000; -136.000
219.532;  -48.500; -116.000; -116.000
219.677; -156.400; -564.000; -521.000
219.822;   26.400;   33.000;   89.000
219.966;   28.500;   17.000;  -99.000
220.111;  -46.500; -328.000;  -40.000
220.255; -207.200; -797.000; -750.000
220.400;  -47.200; -180.000; -146.000
220.544; -149.800; -516.000; -450.000
220.689;  -98.600; -422.000; -451.000
220.833;  -70.200; -123.000;  -58.000
220.978; -116.400; -393.000; -563.000
221.122;   33.100;  319.000;  307.000
221.267; -231.700; -906.000; -837.000
221.411; -152.900; -478.000; -394.000
221.555;  -37.500; -104.000;  -23.000
221.700;  -96.600; -329.000; -222.000
221.844;   66.400;  255.000;  272.000
221.989;  -96.000; -328.000; -311.000
222.133;  -65.200; -289.000; -307.000
222.277;  -30.500;    5.000;   78.000
222.422;   26.800;  227.000;  113.000
222.566;  -75.600; -381.000; -214.000
222.711; -161.300; -414.000; -479.000
222.855; -146.300; -643.000; -586.000
222.999; -193.800; -642.000; -717.000
223.144;  -72.700; -195.000; -194.000
223.288;   95.500;  423.000;  251.000
223.432;   36.500;  184.000;  230.000
223.576;   51.900;  152.000;  -21.000
223.721;  108.800;  364.000;  273.000
223.865; -103.000; -472.000; -475.000
224.009;  458.900; 1673.000; 1631.000
224.153; -184.800; -660.000; -671.000
224.298; -142.800; -531.000; -489.000
224.442;  -28.700;  -74.000;  -33.000
224.586;    3.200; -169.000; -106.000
224.730; -228.600; -858.000; -670.000
224.875; -231.000; -739.000; -688.000
225.019;    5.100;  102.000;  188.000
225.163;   97.800;  208.000;  341.000
225.307;   35.800;   97.000;  -91.000
225.451;   94.400;  360.000;  481.000
225.595;   55.400;  264.000;  176.000
225.739;  -48.100; -170.000;  -94.000
225.884;   -6.800;   86.000;    5.000
226.028; -202.400; -760.000; -626.000
226.172;  -65.800; -260.000; -273.000
226.316; -269.100; -941.000; -902.000
226.460; -145.200; -645.000; -493.000
226.604; -132.800; -406.000; -400.000
226.748; -214.200; -836.000; -733.000
226.892;  -43.200; -227.000; -181.000
227.036; -104.300; -537.000; -447.000
227.180; -126.900; -551.000; -375.000
227.324; -151.600; -561.000; -580.000
227.468; -238.900; -819.000; -717.000
227.612;   13.000;  242.000;  -28.000
227.756; -219.500; -845.000; -698.000
227.900;   90.800;  342.000;  441.000
228.044; -123.800; -509.000; -290.000
228.188;  105.700;  448.000;  568.000
228.332; -175.100; -546.000; -472.000
228.476;  -70.800; -223.000; -149.000
228.620;  -81.400; -210.000; -150.000
228.764;  134.400;  431.000;  349.000
228.908;  -38.800; -155.000;   30.000
229.052; -138.200; -615.000; -528.000
229.195;   -8.500; -172.000;   13.000
229.339;  -50.900; -235.000; -305.000
229.483;  -37.400;    5.000; -162.000
229.627;   13.000; -156.000;  139.000
229.771; -126.100; -218.000; -294.000
229.915;  -21.500;  230.000;   79.000
230.059; -183.100; -648.000; -663.000
230.202;  -87.500; -370.000; -317.000
230.346;  -58.200; -107.000;  107.000
230.490; -122.000; -489.000; -521.000
230.634; -188.300; -736.000; -553.000
230.777;  125.300;  478.000;  509.000
230.921; -100.600; -450.000; -359.000
231.065; -116.900; -246.000; -286.000
231.209;   64.500;  261.000;  265.000
231.352;   46.400;   54.000;   40.000
231.496;   31.800;  568.000;  188.000
231.640; -186.200; -693.000; -621.000
231.783;  101.800;  546.000;  525.000
231.927; -101.500; -294.000; -365.000
232.071; -236.500; -962.000; -736.000
232.214; -208.200; -980.000; -764.000
232.358; -191.800; -683.000; -599.000
232.502;    9.100;  -19.000;    7.000
232.645; -269.700;-1090.000; -927.000
232.789;  -49.100; -257.000; -218.000
232.933;  -84.300; -407.000; -224.000
233.076; -258.900;-1038.000; -897.000
233.220; -242.200; -752.000; -777.000
233.363; -144.600; -669.000; -477.000
233.507;  133.400;  371.000;  129.000
233.650; -190.100; -764.000; -834.000
233.794;  105.100;  438.000;  461.000
233.938; -138.100; -530.000; -362.000
234.081;  -44.300;  -93.000;   31.000
234.225; -130.400; -631.000; -539.000
234.368; -225.100; -773.000; -723.000
234.512;  -66.800; -385.000; -299.000
234.655; -195.400; -582.000; -555.000
234.798; -144.100; -493.000; -466.000
234.942; -274.500; -884.000;-1002.000
235.085; -186.300; -651.000; -443.000
235.229; -145.200; -405.000; -410.000
235.372;  -88.800; -247.000; -191.000
235.516; -140.400; -397.000; -321.000
235.659;   37.800;   92.000;  121.000
235.802;   14.200;  -38.000;  -22.000
235.946;   38.900;  335.000;  215.000
236.089;   44.300;  126.000;  250.000
236.233;  121.200;  275.000;  298.000
236.376; -110.200; -235.000; -378.000
236.519;  -74.100; -297.000; -319.000
236.663;  -35.600; -215.000; -117.000
236.806; -263.500;-1029.000; -999.000
236.949;  113.400;  543.000;  431.000
237.092;  144.700;  412.000;  391.000
237.236; -160.900; -589.000; -502.000
237.379;  134.500;  352.000;  428.000
237.522; -229.500; -879.000; -768.000
237.666;  -33.700; -271.000;   18.000
237.809; -253.300; -851.000; -823.000
237.952;   81.800;  469.000;  271.000
238.095; -127.400; -447.000; -442.000
238.238;  179.900;  688.000;  700.000
238.382;  -10.200;  166.000;  103.000
238.525; -144.900; -598.000; -511.000
238.668; -288.000;-1060.000; -985.000
238.811; -207.000; -638.000; -643.000
238.954; -109.100; -483.000; -334.000
239.097;  170.900;  617.000;  664.000
239.241;   65.400;  394.000;  326.000
239.384;  -54.800; -254.000; -214.000
239.527; -155.800; -424.000; -224.000
239.670; -290.600; -994.000;-1091.000
239.813; -211.900; -696.000; -658.000
239.956;  174.900;  579.000;  473.000
240.099; -209.600; -778.000; -725.000
240.242;  141.900;  428.000;  432.000
240.385;  109.500;  466.000;  450.000
240.528; -154.100; -706.000; -473.000
240.671;   40.500;  189.000;  134.000
240.814;  -96.600; -441.000; -158.000
240.957; -209.700; -767.000; -578.000
241.100; -182.900; -779.000; -755.000
241.243; -284.600;-1234.000; -893.000
241.386; -136.400; -508.000; -379.000
241.529; -201.100; -735.000; -547.000
241.672; -136.700; -566.000; -495.000
241.815; -237.200; -832.000; -808.000
241.958;  -61.200; -125.000; -182.000
242.101; -154.500; -545.000; -390.000
242.244;  -85.300; -270.000; -325.000
242.387;  -58.500; -304.000; -246.000
242.530;  125.300;  470.000;  134.000
242.673;  -79.400; -381.000; -309.000
242.815; -251.600; -925.000; -899.000
242.958; -152.800; -482.000; -381.000
243.101;   40.900;  132.000;  187.000
243.244; -171.300; -564.000; -521.000
243.387;  -83.600; -313.000; -316.000
243.530; -183.900; -657.000; -674.000
243.672;    3.300;   43.000;  -92.000
243.815; -101.700; -355.000; -283.000
243.958;   -5.100;   98.000;  -26.000
244.101;  -33.500;   59.000;  -16.000
244.243;  -63.800;  -47.000;  101.000
244.386; -235.700; -761.000; -630.000
244.529; -112.500; -132.000; -139.000
244.672; -305.900;-1154.000; -951.000
244.814; -197.700; -621.000; -794.000
244.957;  -89.500; -380.000; -304.000
245.100; -128.500; -489.000; -489.000
245.242;  -92.100; -387.000; -374.000
245.385;   -6.900;  -59.000;  -39.000
245.528; -233.400; -871.000; -705.000
245.670;  170.000;  612.000;  634.000
245.813; -180.000; -599.000; -547.000
245.956;  -55.100; -324.000; -275.000
246.098; -149.800; -508.000; -650.000
246.241;   19.300;  194.000;   48.000
246.383;  -66.000; -119.000;  -73.000
246.526; -137.000; -454.000; -525.000
246.669; -252.500; -889.000; -780.000
246.811;   45.000;  172.000;   -1.000
246.954; -150.800; -512.000; -426.000
247.096;  -39.400;  -84.000;   -6.000
247.239; -136.900; -482.000; -445.000
247.381; -160.900; -647.000; -488.000
247.524;  191.500;  645.000;  679.000
247.666;  -30.600;   58.000;   11.000
247.809; -228.000; -887.000; -691.000
247.951;   -2.000;  -75.000;  138.000
248.094;   76.700;  432.000;  308.000
248.236; -335.600;-1262.000;-1238.000
248.378;  -79.500; -356.000;  -81.000
248.521; -106.800; -334.000; -337.000
248.663;  -84.200; -236.000; -267.000
248.806;  -78.900; -300.000; -266.000
248.948; -246.000; -886.000; -763.000
249.090; -108.500; -428.000; -398.000
249.233; -163.900; -344.000; -381.000
249.375; -129.500; -474.000; -451.000
249.518;  -64.400;  -83.000; -133.000
249.660;  -12.200; -103.000;    3.000
249.802; -366.900;-1303.000;-1189.000
249.945; -136.400; -612.000; -540.000
250.087; -235.300; -834.000; -768.000
250.229; -130.100; -362.000; -480.000
250.371; -151.800; -494.000; -439.000
250.514;  -88.100; -310.000; -244.000
250.656;   12.000;   69.000;  102.000
250.798; -247.500; -849.000; -800.000
250.940; -126.000; -322.000; -322.000
251.083;  -68.300; -335.000; -111.000
251.225;  109.000;  338.000;  310.000
251.367;  -93.400; -274.000; -373.000
251.509;  -78.400; -265.000; -210.000
251.651; -195.700; -731.000; -671.000
251.794;  119.900;  538.000;  632.000
251.936; -235.800; -821.000; -747.000
252.078; -141.100; -540.000; -461.000
252.220; -146.100; -645.000; -477.000
252.362;   83.900;  344.000;  462.000
252.504; -194.700; -677.000; -584.000
252.646; -245.400; -875.000; -722.000
252.788;  -35.500;   14.000; -128.000
252.931; -104.300; -257.000; -253.000
253.073;  -97.800; -376.000; -317.000
253.215;  -27.600;  141.000;  122.000
253.357;  -35.600;   82.000; -153.000
253.499;  -87.500; -374.000; -234.000
253.641; -222.600; -749.000; -594.000
253.783; -187.800; -609.000; -527.000
253.925; -188.100; -586.000; -591.000
254.067; -219.600; -744.000; -667.000
254.209;  -82.900; -391.000; -259.000
254.351; -282.200; -865.000; -883.000
254.493; -124.600; -441.000; -417.000
254.635; -259.400; -936.000; -818.000
254.777; -201.100; -752.000; -687.000
254.918; -157.400; -512.000; -430.000
255.060; -147.000; -551.000; -395.000
255.202; -144.700; -473.000; -261.000
255.344; -160.400; -658.000; -455.000
255.486; -121.600; -471.000; -406.000
255.628; -207.400; -780.000; -781.000
255.770; -201.200; -676.000; -536.000
255.912; -128.600; -559.000; -468.000
256.053; -179.900; -730.000; -508.000
256.195;  330.800; 1008.000;  903.000
256.337; -203.400; -861.000; -595.000
256.479;  109.700;  532.000;  416.000
256.621; -110.600; -394.000; -212.000
256.762; -204.000; -789.000; -742.000
256.904;   82.100;  485.000;  487.000
257.046; -111.400; -381.000; -271.000
257.188; -114.500; -351.000; -264.000
257.329; -170.700; -525.000; -464.000
257.471; -259.600; -939.000; -807.000
257.613; -155.800; -584.000; -498.000
257.755; -304.600;-1073.000; -982.000
257.896;   58.700;  286.000;  392.000
258.038; -155.900; -403.000; -352.000
258.180; -103.800; -354.000; -279.000
258.321; -155.100; -581.000; -457.000
258.463;  -49.800;  -71.000;  133.000
258.605; -209.100; -562.000; -570.000
258.746; -212.500; -886.000; -772.000
258.888; -290.100;-1026.000;-1020.000
259.029;   52.800;  121.000;   -8.000
259.171; -182.000; -614.000; -550.000
259.313;   -0.800;  -49.000;  -47.000
259.454; -142.300; -536.000; -414.000
259.596;  -88.000; -483.000; -390.000
259.737; -167.900; -590.000; -474.000
259.879;   70.200;  217.000;  311.000
260.020;  184.100;  901.000;  636.000
260.162;  -75.200; -146.000; -253.000
260.303; -244.800; -768.000; -687.000
260.445; -162.400; -609.000; -613.000
260.586;   39.900;  392.000;  157.000
260.728; -107.500; -360.000; -248.000
260.869; -140.200; -350.000; -343.000
261.011;  172.500;  706.000;  537.000
261.152; -114.400; -479.000; -319.000
261.293; -160.400; -576.000; -595.000
261.435;  -62.500; -219.000; -184.000
261.576;  -96.300; -455.000; -325.000
261.718;  106.400;  420.000;  470.000
261.859; -264.400; -940.000; -949.000
262.000; -249.400; -951.000;-1016.000
262.142;  -46.300;  -52.000;  -60.000
262.283; -239.400; -808.000; -691.000
262.424; -187.300; -666.000; -625.000
262.566; -295.000;-1161.000; -983.000
262.707; -233.200; -840.000; -830.000
262.848; -208.600; -769.000; -726.000
262.990;  -98.100; -362.000; -345.000
263.131;  128.600;  650.000;  681.000
263.272;  -22.100;  -61.000;  -41.000
263.413; -193.300; -589.000; -561.000
263.555; -165.300; -669.000; -143.000
263.696; -183.400; -550.000; -641.000
263.837;  -94.100; -449.000; -551.000
263.978;  -14.100;   -5.000;  -77.000
264.119; -111.600; -283.000; -264.000
264.261; -238.400; -847.000; -630.000
264.402;   17.200;   33.000;   40.000
264.543; -135.100; -509.000; -524.000
264.684;  -43.900;   61.000;  -50.000
264.825; -183.100; -816.000; -538.000
264.966;  -23.700;  -84.000;  -67.000
265.107; -227.800; -646.000; -670.000
265.248; -265.900; -825.000; -812.000
265.390;  -22.900;  152.000;   -9.000
265.531;  -48.500; -238.000; -107.000
265.672; -172.000; -557.000; -630.000
265.813;  134.800;  563.000;  439.000
265.954; -270.200; -959.000; -940.000
266.095;  -57.900; -372.000; -322.000
266.236; -206.700; -686.000; -548.000
266.377;  -79.900; -243.000; -297.000
266.518; -140.100; -619.000; -547.000
266.659;   18.100;  170.000;  268.000
266.800;   17.000;   83.000;   85.000
266.941; -150.400; -487.000; -478.000
267.082;   31.100;  354.000;   99.000
267.223;  -92.000; -344.000; -273.000
267.364; -249.200; -892.000; -686.000
267.504;   -2.900;    3.000;  135.000
267.645;  -14.400;  160.000;   67.000
267.786;  -59.500; -147.000;  -86.000
267.927; -157.400; -473.000; -379.000
268.068;  -41.600; -186.000;  -61.000
268.209; -105.000; -175.000; -413.000
268.350;  -91.200; -388.000; -532.000
268.490; -171.900; -648.000; -521.000
268.631;   83.300;  127.000;  225.000
268.772; -207.800; -874.000; -647.000
268.913; -131.300; -328.000; -476.000
269.054;  -28.800; -117.000;   12.000
269.194;  -97.500; -418.000; -402.000
269.335; -308.600;-1137.000;-1074.000
269.476;  -43.700;   33.000;  -35.000
269.617; -127.900; -347.000; -392.000
269.757; -214.200; -713.000; -646.000
269.898; -218.000; -856.000; -613.000
270.039; -134.100; -415.000; -405.000
270.180; -247.100; -952.000; -816.000
270.320;  -78.200; -190.000; -250.000
270.461; -109.100; -277.000; -249.000
270.602;  -36.600; -186.000; -156.000
270.742; -253.900; -868.000; -943.000
270.883; -130.900; -442.000; -390.000
271.023; -126.200; -358.000; -357.000
271.164; -179.600; -607.000; -528.000
271.305; -215.800; -666.000; -654.000
271.445; -190.400; -722.000; -683.000
271.586; -143.200; -462.000; -283.000
271.726;  -76.500; -397.000; -322.000
271.867; -164.900; -594.000; -534.000
272.008;  -80.800; -473.000; -285.000
272.148;  102.800;  462.000;  468.000
272.289;  -53.500; -113.000; -181.000
272.429;   -3.400;   19.000;  185.000
272.570; -210.900; -633.000; -737.000
272.710; -239.900; -825.000; -775.000
272.851;  -63.000;  113.000; -130.000
272.991; -328.800;-1173.000;-1077.000
273.131; -140.400; -419.000; -459.000
273.272; -218.600; -683.000; -723.000
273.412;  -48.200; -143.000;  -31.000
273.553; -179.100; -488.000; -507.000
273.693;  230.300;  913.000;  858.000
273.834; -282.000; -894.000; -692.000
273.974; -175.400; -664.000; -615.000
274.114; -224.900; -772.000; -560.000
274.255;   74.500;  414.000;  373.000
274.395;  -61.000; -180.000; -125.000
274.535;   68.400;  199.000;  350.000
274.676;   41.500;  225.000;   94.000
274.816;   -9.700;  110.000;   34.000
274.956; -177.800; -624.000; -690.000
275.097; -269.000;-1014.000; -922.000
275.237; -256.600; -913.000; -803.000
275.377; -208.400; -778.000; -689.000
275.517; -333.500; -878.000; -937.000
275.658; -166.100; -590.000; -555.000
275.798; -158.100; -606.000; -413.000
275.938;   49.000;  215.000;  323.000
276.078; -206.400; -626.000; -395.000
276.218;   -9.500;   99.000;  104.000
276.359; -286.100;-1026.000;-1024.000
276.499; -163.600; -605.000; -446.000
276.639;  -71.200; -305.000; -151.000
276.779; -114.300; -475.000; -357.000
276.919; -242.700; -783.000; -624.000
277.059;  -44.700; -261.000; -212.000
277.199; -118.500; -357.000; -259.000
277.340;   45.900;  287.000;  175.000
277.480; -244.300; -840.000; -693.000
277.620;   53.300;  192.000;   16.000
277.760; -400.900;-1533.000;-1294.000
277.900;  -18.900;  113.000;   33.000
278.040;   -4.500;  137.000;  159.000
278.180;   27.300;  270.000;  170.000
278.320;    4.600;   21.000;   56.000
278.460; -122.600; -443.000; -469.000
278.600; -190.400; -708.000; -598.000
278.740;   99.300;  448.000;  224.000
278.880; -276.600; -768.000; -791.000
279.020;  -67.900; -194.000; -144.000
279.160; -165.600; -672.000; -595.000
279.300; -235.800; -926.000; -873.000
279.440; -194.600; -709.000; -622.000
279.579; -264.800;-1014.000; -929.000
279.719; -151.200; -410.000; -394.000
279.859;   -6.400;   -4.000;   41.000
279.999;  -62.000; -208.000;  101.000
280.139; -125.900; -435.000; -387.000
280.279; -224.100; -708.000; -745.000
280.419;  -46.800; -229.000; -147.000
280.559;  -89.700; -259.000; -180.000
280.698; -184.800; -790.000; -639.000
280.838; -227.500; -778.000; -800.000
280.978; -226.800; -846.000; -790.000
281.118; -221.100; -811.000; -704.000
281.257;    2.600;   24.000;    6.000
281.397; -289.600;-1094.000; -960.000
281.537; -235.900; -599.000; -712.000
281.677;  -51.200; -150.000; -101.000
281.816; -185.700; -700.000; -630.000
281.956;  -69.900; -193.000; -257.000
282.096; -136.300; -539.000; -396.000
282.235; -219.600; -672.000; -638.000
282.375;  -70.000; -243.000;  -98.000
282.515; -194.200; -715.000; -707.000
282.654;   22.200;   29.000;  106.000
282.794;   37.300;  388.000;  244.000
282.934; -135.200; -530.000; -491.000
283.073; -296.900;-1030.000; -857.000
283.213; -123.700; -460.000; -467.000
283.353; -132.400; -408.000; -349.000
283.492;  -76.200; -264.000; -296.000
283.632; -105.900; -254.000; -168.000
283.771; -202.300; -859.000; -730.000
283.911; -110.600; -369.000; -260.000
284.050; -214.500; -794.000; -748.000
284.190; -325.600;-1229.000;-1096.000
284.329; -303.900;-1055.000; -964.000
284.469; -210.100; -516.000; -591.000
284.608; -126.600; -559.000; -598.000
284.748; -179.500; -614.000; -570.000
284.887;  -25.700;  -87.000;  -20.000
285.027; -262.100; -844.000; -892.000
285.166; -106.300; -192.000; -249.000
285.306;  -31.000; -116.000;  -33.000
285.445; -110.700; -229.000; -343.000
285.584; -228.800; -630.000; -494.000
285.724; -106.000; -282.000; -322.000
285.863; -248.200; -857.000; -507.000
286.002; -107.000; -366.000; -276.000
286.142; -217.800; -715.000; -622.000
286.281; -157.200; -525.000; -493.000
286.420; -153.300; -554.000; -417.000
286.560;  170.500;  653.000;  623.000
286.699; -296.700; -958.000; -912.000
286.838; -181.100; -590.000; -591.000
286.978; -184.500; -533.000; -537.000
287.117; -268.600;-1085.000; -950.000
287.256;  -65.000; -228.000; -211.000
287.395; -132.900; -197.000; -378.000
287.535; -103.500; -370.000; -298.000
287.674; -171.600; -509.000; -484.000
287.813;  106.300;  661.000;  533.000
287.952; -264.600;-1010.000; -871.000
288.091; -315.600;-1049.000; -915.000
288.231;   -5.000;   13.000;   15.000
288.370; -357.600;-1217.000;-1200.000
288.509; -205.200; -728.000; -645.000
288.648; -191.000; -770.000; -548.000
288.787;  -57.000; -243.000;  -87.000
288.926; -145.600; -454.000; -475.000
289.065;  196.800;  859.000;  672.000
289.204; -129.300; -377.000; -217.000
289.344; -217.800; -791.000; -690.000
289.483;   45.200;  416.000;  304.000
289.622;  -50.300; -291.000; -149.000
289.761;  -20.600; -309.000; -166.000
289.900; -236.600; -785.000; -626.000
290.039;  -35.700;  -12.000;  -95.000
290.178; -126.100; -274.000; -180.000
290.317; -174.200; -618.000; -479.000
290.456; -140.600; -463.000; -451.000
290.595; -270.400; -961.000; -833.000
290.734; -316.200; -904.000; -891.000
290.873; -121.700; -456.000; -420.000
291.011; -241.500; -833.000; -843.000
291.150; -213.100; -770.000; -682.000
291.289;  -97.300; -343.000; -110.000
291.428; -202.900; -599.000; -480.000
291.567; -137.800; -370.000; -442.000
291.706;   28.700;  109.000;  154.000
291.845; -198.600; -597.000; -505.000
291.984; -328.300;-1234.000;-1061.000
292.122;  147.000;  602.000;  582.000
292.261;   96.600;  620.000;  463.000
292.400;   10.200; -144.000;  211.000
292.539; -260.700; -959.000; -813.000
292.678;  -80.400; -325.000; -300.000
292.816; -334.300;-1136.000; -965.000
292.955; -207.400; -844.000; -684.000
293.094;  -90.100; -173.000; -337.000
293.233; -101.100; -556.000; -400.000
293.371;  -54.900; -225.000;  -84.000
293.510; -234.900; -866.000; -780.000
293.649; -298.400; -959.000; -924.000
293.787; -293.600;-1083.000;-1012.000
293.926;  -51.800; -113.000;  -32.000
294.065;  -99.300; -379.000; -290.000
294.203;   67.800;  298.000;  406.000
294.342;  -29.600;   74.000;  156.000
294.481;12847.700;51180.000; -836.000
294.619;  -38.900; -425.000; -582.000
294.758; -324.100;-1230.000;-1137.000
294.896;  -47.500; -125.000;    5.000
295.035; -306.000;-1040.000;-1006.000
295.174; -328.500;-1082.000; -954.000
295.312;  -83.900; -323.000; -203.000
295.451; -110.700; -307.000; -428.000
295.589; -179.000; -389.000; -518.000
295.728;  -13.200; -292.000; -165.000
295.866;  -76.000;  -36.000;  -51.000
296.005; -167.300; -584.000; -341.000
296.143; -173.800; -558.000; -596.000
296.282; -276.400; -957.000; -881.000
296.420; -174.000; -657.000; -557.000
296.559; -222.200; -892.000; -633.000
296.697; -220.600; -847.000; -665.000
296.835; -338.300;-1141.000;-1002.000
296.974;  -38.400;  -23.000;   39.000
297.112; -134.700; -443.000; -504.000
297.251; -239.300; -815.000; -755.000
297.389; -140.600; -576.000; -438.000
297.527;  -34.900; -145.000;  -83.000
297.666; -165.700; -486.000; -438.000
297.804; -131.800; -404.000; -264.000
297.942;  -53.800; -136.000; -161.000
298.081;  -29.600; -183.000;   63.000
298.219;  -45.000;  -17.000;  -19.000
298.357;  -82.100; -144.000;  -71.000
298.495; -278.100; -810.000; -812.000
298.634;  -10.800;  245.000;  219.000
298.772;  -50.900; -220.000; -338.000
298.910;  -94.000; -309.000; -182.000
299.048;  -68.700; -130.000; -153.000
299.187; -110.300; -350.000; -250.000
299.325;  -23.200;   52.000;  122.000
299.463; -133.000; -389.000; -299.000
299.601; -105.800; -327.000; -271.000
299.739; -266.300; -908.000; -883.000
299.877; -219.500; -791.000; -703.000
300.016; -308.500;-1095.000; -935.000
300.154;  -37.700;  -19.000; -161.000
300.292; -137.500; -428.000; -348.000
300.430; -119.000; -408.000; -291.000
300.568; -291.700; -940.000; -874.000
300.706; -137.600; -366.000; -469.000
300.844; -335.100;-1108.000; -979.000
300.982;  109.300;  246.000;  282.000
301.120; -318.200; -965.000; -866.000
301.258; -207.000; -812.000; -705.000
301.396;   13.200;  104.000;  -41.000
301.534; -113.700; -218.000; -293.000
301.672; -199.900; -664.000; -521.000
301.810; -185.400; -613.000; -545.000
301.948;   -3.200;   53.000;  149.000
302.086;  -69.300; -250.000;  -32.000
302.224; -203.500; -610.000; -585.000
302.362; -198.600; -558.000; -622.000
302.500; -290.000; -923.000; -893.000
302.638;   -4.500;  128.000;  245.000
302.776;  -95.600; -352.000; -408.000
302.913;   57.900;  447.000;  236.000
303.051;  -89.200;  -86.000;  -23.000
303.189;   18.400;   90.000;  118.000
303.327; -121.700; -341.000; -256.000
303.465; -206.100; -832.000; -588.000
303.603; -190.900; -805.000; -604.000
303.740;   70.700;  417.000;  241.000
303.878; -236.600; -800.000; -759.000
304.016; -213.800; -915.000; -790.000
304.154; -350.900;-1123.000;-1152.000
304.291; -142.500; -505.000; -554.000
304.429;  -23.200;  102.000;   74.000
304.567; -299.700; -908.000; -893.000
304.705; -170.000; -408.000; -515.000
304.842; -184.200; -616.000; -540.000
304.980;   38.400;  215.000;   35.000
305.118; -108.600; -367.000; -365.000
305.255; -286.000; -945.000; -927.000
305.393;   52.400;  178.000;  239.000
305.531; -323.600;-1173.000; -956.000
305.668; -173.400; -663.000; -582.000
305.806; -152.700; -358.000; -439.000
305.943; -201.100; -629.000; -637.000
306.081; -140.000; -378.000; -267.000
306.219; -246.200; -863.000; -748.000
306.356;   -5.700;  158.000;   27.000
306.494;  151.700;  981.000;  761.000
306.631;  -12.200;  -11.000;  -55.000
306.769; -169.000; -613.000; -485.000
306.906; -150.400; -284.000; -258.000
307.044; -171.900; -473.000; -488.000
307.181; -152.300; -410.000; -332.000
307.319;  -17.100;  112.000;   87.000
307.456; -351.500;-1191.000;-1153.000
307.594; -298.800; -980.000; -727.000
307.731;  -75.800; -371.000; -164.000
307.868;  -27.400;  -15.000;   20.000
308.006; -283.400; -961.000; -847.000
308.143; -190.800; -618.000; -330.000
308.281;  -42.900;  -37.000; -254.000
308.418; -213.000; -748.000; -640.000
308.555; -174.700; -400.000; -250.000
308.693; -194.000; -577.000; -573.000
308.830; -225.800; -712.000; -657.000
308.967;  -41.300; -215.000;  -95.000
309.105; -144.900; -507.000; -396.000
309.242; -154.700; -468.000; -367.000
309.379; -210.900; -577.000; -655.000
309.517; -298.500; -936.000; -948.000
309.654; -279.100; -910.000; -734.000
309.791; -150.500; -662.000; -580.000
309.928; -256.400; -977.000; -914.000
310.065;  139.500;  819.000;  697.000
310.203; -302.000; -825.000; -850.000
310.340; -129.300; -465.000; -321.000
310.477; -196.900; -412.000; -516.000
310.614; -152.700; -383.000; -473.000
310.751; -182.600; -427.000; -518.000
310.889;  -75.100;    1.000;   11.000
311.026; -335.300;-1161.000; -939.000
311.163; -113.000; -386.000; -380.000
311.300; -174.600; -512.000; -479.000
311.437; -182.400; -658.000; -619.000
311.574; -346.600;-1226.000; -985.000
311.711; -186.300; -595.000; -433.000
311.848; -121.700; -380.000; -388.000
311.985;   17.400;  270.000;   93.000
312.122; -269.600; -932.000; -762.000
312.259; -274.300; -941.000; -994.000
312.396; -201.500; -508.000; -551.000
312.533; -250.800; -812.000; -790.000
312.670; -298.300;-1070.000; -898.000
312.807;  -89.800; -352.000; -367.000
312.944; -206.000; -513.000; -611.000
313.081; -120.800; -150.000; -415.000
313.218; -295.200;-1111.000; -867.000
313.355; -135.500; -531.000; -449.000
313.492; -102.500; -455.000; -292.000
313.629;  149.100;  815.000;  735.000
313.766; -350.200;-1176.000;-1008.000
313.902;  -59.200; -186.000;   21.000
314.039; -116.500; -372.000; -289.000
314.176;   39.200;  286.000;  192.000
314.313; -184.200; -569.000; -473.000
314.450; -218.500; -788.000; -684.000
314.587; -194.300; -468.000; -480.000
314.723;  -40.500;  -78.000;  130.000
314.860;   20.600;  318.000;  332.000
314.997;   39.000;  223.000;  142.000
315.134; -133.600; -385.000; -368.000
315.270; -155.400; -480.000; -496.000
315.407; -331.600;-1094.000; -967.000
315.544; -190.000; -657.000; -538.000
315.681; -197.900; -681.000; -565.000
315.817;  -67.300; -133.000; -176.000
315.954; -155.100; -613.000; -392.000
316.091; -316.100;-1045.000;-1023.000
316.227;  -87.900;  -71.000; -179.000
316.364;   -0.300;   23.000;    6.000
316.500;  -83.800; -113.000; -300.000
316.637;  -90.500; -181.000; -302.000
316.774; -177.600; -625.000; -358.000
316.910; -205.700; -598.000; -629.000
317.047; -168.900; -487.000; -351.000
317.183; -174.200; -435.000; -566.000
317.320; -133.100; -367.000; -321.000
317.456; -245.400; -733.000; -805.000
317.593; -207.000; -598.000; -641.000
317.729;  -12.100;  168.000;  -67.000
317.866; -415.200;-1434.000;-1285.000
318.002; -211.700; -708.000; -948.000
318.139; -285.800; -883.000; -867.000
318.275; -248.600;-1003.000; -738.000
318.412; -142.500; -517.000; -336.000
318.548; -233.600; -751.000; -720.000
318.685; -275.400; -985.000; -888.000
318.821; -252.100; -762.000; -735.000
318.957;  -37.800;   34.000;  -23.000
319.094;   67.400;  297.000;  154.000
319.230; -253.500; -756.000; -742.000
319.367; -145.800; -471.000; -520.000
319.503; -157.000; -538.000; -436.000
319.639; -232.400; -877.000; -793.000
319.775; -229.400; -750.000; -685.000
319.912; -147.700; -424.000; -519.000
320.048; -339.900;-1184.000;-1184.000
320.184;    9.800;   59.000;   70.000
320.321; -120.100; -497.000; -467.000
320.457;   66.100;  475.000;  662.000
320.593; -158.100; -375.000; -382.000
320.729; -241.600; -732.000; -734.000
320.866; -187.100; -577.000; -635.000
321.002; -237.700; -759.000; -809.000
321.138; -130.000; -135.000; -211.000
321.274;  -58.800; -148.000; -115.000
321.410; -188.100; -585.000; -353.000
321.546; -312.600;-1011.000; -911.000
321.683;   40.500;  400.000;  185.000
321.819;  -54.400;  -48.000; -117.000
321.955; -257.300; -743.000; -722.000
322.091; -168.600; -585.000; -540.000
322.227; -103.100; -382.000; -202.000
322.363; -127.200; -320.000; -215.000
322.499; -104.500; -343.000; -331.000
322.635;  110.900;  636.000;  443.000
322.771;  -64.100; -139.000;   12.000
322.907;   50.100;  129.000;  327.000
323.043; -105.800; -115.000; -206.000
323.179; -107.000; -394.000; -363.000
323.315; -129.700; -401.000; -371.000
323.451; -131.400; -328.000; -236.000
323.587;  -86.400;  -60.000;  -77.000
323.723; -198.700; -682.000; -601.000
323.859;  -96.500; -258.000;  -76.000
323.995; -122.800; -467.000; -409.000
324.131; -263.300; -967.000; -892.000
324.267;  -77.700; -254.000; -276.000
324.402; -297.700; -960.000; -983.000
324.538;  -65.200; -279.000; -104.000
324.674;  -11.200;  164.000;   77.000
324.810;  -12.300;  226.000;  308.000
324.946; -125.800; -810.000; -658.000
325.082; -169.500; -568.000; -475.000
325.217;  -64.600;  -62.000;   16.000
325.353; -231.100; -764.000; -659.000
325.489; -191.600; -540.000; -506.000
325.625; -159.800; -579.000; -525.000
325.760;   36.600;  517.000;  376.000
325.896; -170.200; -515.000; -702.000
326.032; -109.600; -403.000; -352.000
326.168; -150.100; -462.000; -369.000
326.303; -138.100; -352.000; -461.000
326.439;  -88.200; -336.000; -276.000
326.575;  -59.300; -190.000;  -29.000
326.710;  -45.800; -156.000;  -30.000
326.846;  -33.000;  146.000;  103.000
326.982; -194.200; -530.000; -548.000
327.117; -142.500; -481.000; -442.000
327.253; -237.200; -745.000; -742.000
327.388; -295.400;-1137.000;-1153.000
327.524; -237.700; -811.000; -578.000
327.659;  -10.200;  -58.000;  -22.000
327.795;  -46.800;   69.000;   45.000
327.931; -194.700; -723.000; -499.000
328.066; -121.300; -417.000; -276.000
328.202;  -61.000;   12.000; -129.000
328.337;  144.500;  957.000;  713.000
328.473;  -34.800;  -12.000;  -74.000
328.608;  -92.600; -256.000; -267.000
328.743; -223.200; -799.000; -664.000
328.879;    3.000;  214.000;  114.000
329.014; -151.900; -102.000; -122.000
329.150; -171.700; -358.000; -483.000
329.285; -211.800; -465.000; -466.000
329.421; -109.800; -548.000; -246.000
329.556;  -31.100;  -36.000;   85.000
329.691; -241.700; -633.000; -615.000
329.827; -171.700; -626.000; -480.000
329.962; -115.900;  131.000; -301.000
330.097; -229.600; -673.000; -585.000
330.233; -131.000; -410.000; -223.000
330.368; -247.900; -839.000; -628.000
330.503;  -23.600;    3.000;   98.000
330.638;  -85.500;  -93.000; -125.000
330.774; -190.000; -609.000; -530.000
330.909; -124.700; -434.000; -244.000
331.044; -190.700; -714.000; -708.000
331.179; -365.100;-1217.000;-1109.000
331.315;  -25.000;   77.000;   20.000
331.450;   25.200;  157.000;  285.000
331.585; -219.200; -805.000; -706.000
331.720; -210.200; -510.000; -460.000
331.855;  -54.200;  -35.000; -102.000
331.990;  -29.000;   62.000;  138.000
332.126;  -23.500; -110.000;   71.000
332.261; -125.900; -379.000; -265.000
332.396;  -92.500; -135.000; -242.000
332.531; -353.500;-1074.000;-1031.000
332.666; -128.300; -519.000; -363.000
332.801; -247.200; -726.000; -807.000
332.936;  -33.200; -192.000; -122.000
333.071; -338.000; -870.000; -817.000
333.206;   36.300;  307.000;  379.000
333.341;   31.900;  344.000;  418.000
333.476; -188.600; -627.000; -623.000
333.611;  -98.000; -251.000; -173.000
333.746; -131.100; -381.000; -464.000
333.881; -259.800; -973.000; -935.000
334.016; -312.400; -936.000; -917.000
334.151; -284.000; -746.000; -702.000
334.286;  -11.900;  152.000;  186.000
334.421;  -51.200; -125.000; -178.000
334.556; -183.500; -611.000; -567.000
334.690; -191.700; -631.000; -577.000
334.825;   98.600;  381.000;   83.000
334.960; -174.700; -285.000; -413.000
335.095;  -24.700;  135.000;  -91.000
335.230; -232.800; -722.000; -738.000
335.365; -325.500;-1084.000; -990.000
335.499; -313.500;-1108.000;-1037.000
335.634;  -41.000;    9.000;  534.000
335.769; -249.200; -755.000; -720.000
335.904; -193.500; -603.000; -561.000
336.038; -245.600; -735.000; -657.000
336.173; -340.900;-1206.000;-1194.000
336.308; -116.800; -116.000; -189.000
336.443; -193.800; -544.000; -634.000
336.577; -278.600; -936.000; -787.000
336.712;  -53.000;   -4.000;  -12.000
336.847; -227.300; -724.000; -607.000
336.981; -138.600; -272.000; -208.000
337.116;  105.600;  615.000;  501.000
337.250; -169.700; -434.000; -421.000
337.385; -158.100; -297.000; -208.000
337.520; -207.500; -632.000; -603.000
337.654; -108.100; -215.000; -126.000
337.789; -299.200; -989.000; -933.000
337.923; -100.700; -104.000; -205.000
338.058; -224.400; -673.000; -738.000
338.192; -203.500; -611.000; -488.000
338.327;  -63.200;  -18.000; -155.000
338.461; -167.900; -299.000; -469.000
338.596; -226.800; -780.000; -638.000
338.730; -245.000; -767.000; -803.000
338.865;  -51.800;  -46.000; -140.000
338.999; -279.900; -846.000; -702.000
339.134; -201.900; -634.000; -536.000
339.268; -224.800; -741.000; -603.000
339.403; -213.800; -740.000; -775.000
339.537; -231.000; -894.000; -820.000
339.671; -241.600; -829.000; -813.000
339.806; -208.400; -556.000; -512.000
339.940;  -93.000; -261.000; -235.000
340.074; -217.300; -685.000; -510.000
340.209; -113.800; -351.000; -230.000
340.343; -180.400; -517.000; -573.000
340.477;  270.100;  998.000; 1036.000
340.612; -295.500;-1033.000; -900.000
340.746; -142.900; -199.000; -243.000
340.880; -281.500; -924.000; -785.000
341.014;  -48.300;  -45.000; -154.000
341.149; -264.200; -756.000; -718.000
341.283; -247.700; -839.000; -754.000
341.417; -306.000;-1124.000; -938.000
341.551; -250.100; -768.000; -708.000
341.685; -223.500; -633.000; -611.000
341.820; -207.500; -562.000; -493.000
341.954; -160.600; -218.000; -349.000
342.088; -316.900;-1102.000;-1019.000
342.222;   67.100;  565.000;  618.000
342.356; -169.500; -395.000; -335.000
342.490; -266.400; -880.000; -841.000
342.624;  -91.800; -339.000; -242.000
342.758; -152.100; -364.000; -312.000
342.892; -226.800; -710.000; -585.000
343.026;  -75.800;  -58.000; -116.000
343.160; -152.600; -426.000; -376.000
343.294; -159.900; -474.000; -337.000
343.428; -192.400; -488.000; -448.000
343.562;  -58.800; -172.000;  -23.000
343.696; -119.100; -385.000; -314.000
343.830; -124.300; -362.000; -356.000
343.964;  -44.800; -231.000; -168.000
344.098;   -0.400;  199.000;   70.000
344.232;  -89.600; -266.000; -127.000
344.366; -193.400; -567.000; -453.000
344.500; -207.900; -665.000; -744.000
344.634; -136.300; -324.000; -164.000
344.768; -165.500; -531.000; -341.000
344.902;   32.000;  278.000;  256.000
345.035; -159.000; -556.000; -496.000
345.169; -290.300; -933.000; -656.000
345.303; -205.700; -308.000; -482.000
345.437; -250.000; -826.000; -717.000
345.571; -211.100; -675.000; -594.000
345.704; -142.100; -309.000; -532.000
345.838;  -99.600; -331.000; -284.000
345.972; -160.900; -543.000; -495.000
346.106;  -41.100; -179.000; -190.000
346.239; -121.800; -312.000; -243.000
346.373; -130.800; -343.000; -302.000
346.507; -328.700; -950.000; -962.000
346.640;  -84.200;  -30.000;   13.000
346.774; -232.800; -650.000; -797.000
346.908;  -59.600; -138.000;  -11.000
347.041; -197.200; -646.000; -593.000
347.175;    3.700;  259.000;   27.000
347.309; -253.500; -698.000; -628.000
347.442; -255.700; -883.000; -732.000
347.576;  155.800;  670.000;  668.000
347.709;  -78.900; -123.000;  -52.000
347.843; -286.400; -933.000; -825.000
347.976;   69.300;  235.000;  294.000
348.110; -368.300;-1268.000;-1186.000
348.243; -210.700; -679.000; -772.000
348.377;  -29.300;  -26.000;   60.000
348.510;   65.600;  403.000;  540.000
348.644; -101.900;  -37.000; -159.000
348.777;   -1.000;  180.000;  191.000
348.911;  -90.700; -142.000; -112.000
349.044;   78.600;  471.000;  448.000
349.178; -341.900;-1069.000;-1006.000
349.311;   30.100;  141.000;  255.000
349.444; -309.700; -927.000; -813.000
349.578;  -98.000; -347.000; -200.000
349.711; -267.700; -959.000; -862.000
349.845; -211.100; -661.000; -591.000
349.978; -363.900;-1224.000;-1137.000
350.111; -179.100; -546.000; -612.000
350.244; -240.200; -596.000; -700.000
350.378; -168.900; -392.000; -393.000
350.511; -167.800; -393.000; -426.000
350.644; -253.200; -808.000; -806.000
350.778;  -23.600;  168.000;  104.000
350.911;   -3.300;  134.000;  140.000
351.044; -242.900; -685.000; -615.000
351.177; -122.100; -321.000; -281.000
351.310;  -55.300;    3.000; -131.000
351.444; -279.700; -888.000; -788.000
351.577;    3.900;  140.000;   90.000
351.710;  110.700;  593.000;  417.000
351.843;  -56.400; -165.000;  -77.000
351.976;  -23.700;  149.000;  -79.000
352.109; -208.800; -621.000; -612.000
352.242; -166.000; -464.000; -419.000
352.376; -219.800; -580.000; -636.000
352.509; -176.300; -437.000; -356.000
352.642; -329.500; -654.000; -604.000
352.775;  -89.200; -141.000;  -98.000
352.908; -294.600; -933.000; -904.000
353.041; -269.600; -814.000; -824.000
353.174; -172.800; -551.000; -424.000
353.307; -260.800; -753.000; -764.000
353.440;   69.000;  541.000;  453.000
353.573; -259.400; -957.000;-1008.000
353.706; -210.000; -384.000; -558.000
353.839;  -77.900; -264.000; -220.000
353.971; -190.800; -657.000; -512.000
354.104; -265.500; -896.000; -835.000
354.237; -213.100; -627.000; -662.000
354.370; -241.200; -846.000; -879.000
354.503; -394.300;-1231.000;-1308.000
354.636; -121.000; -529.000; -348.000
354.769; -283.600; -937.000; -860.000
354.902; -112.600; -230.000; -139.000
355.034;  -65.800; -164.000; -220.000
355.167; -109.000; -262.000; -162.000
355.300; -307.400;-1061.000; -880.000
355.433;  -36.500;  -71.000;  -14.000
355.565; -151.400; -402.000; -384.000
355.698; -141.200; -356.000; -296.000
355.831; -277.600; -882.000; -801.000
355.964;  -89.900; -285.000; -170.000
356.096; -306.100; -856.000; -843.000
356.229; -186.200; -523.000; -530.000
356.362; -128.100; -373.000; -266.000
356.494; -105.600; -229.000; -162.000
356.627;   44.700;  269.000;  377.000
356.760;  -20.500;  120.000;   53.000
356.892; -193.300; -286.000; -601.000
357.025;   91.900;  403.000;  389.000
357.157;  -96.100; -167.000; -179.000
357.290; -274.400; -856.000; -713.000
357.423; -206.100; -667.000; -556.000
357.555; -101.300; -217.000; -228.000
357.688; -173.500; -483.000; -364.000
357.820; -288.100; -870.000; -877.000
357.953; -238.900; -563.000; -589.000
358.085; -228.000; -632.000; -612.000
358.218; -330.100;-1131.000; -932.000
358.350;  -64.900;  -58.000;  312.000
358.483; -360.900;-1300.000;-1187.000
358.615; -329.600;-1182.000;-1078.000
358.747; -356.200;-1187.000;-1058.000
358.880; -250.900; -810.000; -744.000
359.012; -124.400; -376.000; -202.000
359.145; -191.000; -480.000; -511.000
359.277; -295.500; -962.000; -913.000
359.409;   46.100;  536.000;  231.000
359.542; -241.400; -738.000; -688.000
359.674;  -19.800;   46.000;   13.000
359.806; -205.400; -565.000; -438.000
359.939; -161.600; -617.000; -516.000
360.071; -192.300; -583.000; -579.000
360.203; -117.500; -411.000; -364.000
360.335;  -15.500;  164.000;  -16.000
360.468; -127.000; -249.000; -307.000
360.600; -178.400; -547.000; -454.000
360.732; -190.000; -546.000; -423.000
360.864; -350.100;-1216.000;-1044.000
360.996; -172.500; -516.000; -554.000
361.129; -183.900; -389.000; -598.000
361.261;  -39.400;  110.000; -113.000
361.393; -115.200; -252.000; -214.000
361.525;    0.700;   94.000;  244.000
361.657; -256.000; -821.000; -703.000
361.789;  -85.400; -139.000; -155.000
361.921; -229.900; -642.000; -593.000
362.053;  104.200;  524.000;  541.000
362.185;   10.100;  288.000;   72.000
362.318; -196.300; -709.000; -705.000
362.450;   40.700;  294.000;  444.000
362.582; -296.500; -913.000; -870.000
362.714; -132.400; -353.000; -332.000
362.846; -210.200; -606.000; -490.000
362.978; -313.400; -941.000; -811.000
363.109;  -97.500; -161.000; -260.000
363.241; -241.000; -739.000; -749.000
363.373; -219.900; -649.000; -564.000
363.505;  -66.000; -186.000;  -91.000
363.637; -188.100; -787.000; -601.000
363.769; -354.600;-1067.000;-1080.000
363.901; -190.500; -596.000; -654.000
364.033; -348.600;-1103.000;-1062.000
364.165;  -98.700; -283.000; -283.000
364.296; -113.800; -316.000; -177.000
364.428; -399.800;-1344.000;-1220.000
364.560; -197.700; -679.000; -661.000
364.692; -214.600; -738.000; -835.000
364.824; -187.700; -588.000; -456.000
364.955; -141.800; -402.000; -564.000
365.087; -315.200;-1097.000; -852.000
365.219; -244.200; -686.000; -816.000
365.351; -240.200; -526.000; -572.000
365.482;   40.600;  300.000;  240.000
365.614; -133.000; -402.000; -314.000
365.746; -243.100; -729.000; -752.000
365.877; -232.600; -706.000; -672.000
366.009;  -48.500;  -35.000;  -62.000
366.141; -355.900;-1249.000;-1134.000
366.272; -257.300; -803.000; -719.000
366.404; -286.200;-1005.000; -874.000
366.535;  -36.100; -139.000;  -12.000
366.667; -220.000; -644.000; -649.000
366.799;   41.100;  353.000;  203.000
366.930; -305.600; -862.000; -996.000
367.062; -198.500; -639.000; -613.000
367.193; -288.800; -872.000; -842.000
367.325; -186.800; -580.000; -684.000
367.456; -143.500; -246.000;   31.000
367.588; -130.800; -371.000; -318.000
367.719;  -81.600;  -44.000;  -45.000
367.851; -111.500; -222.000; -241.000
367.982; -261.500; -875.000; -732.000
368.113; -129.300; -475.000; -358.000
368.245; -304.300; -960.000; -841.000
368.376; -102.000; -254.000; -302.000
368.508; -121.500; -188.000; -263.000
368.639; -341.100;-1166.000;-1034.000
368.770; -221.300; -670.000; -589.000
368.902; -283.500; -836.000; -926.000
369.033; -270.900; -906.000; -855.000
369.164; -219.500; -720.000; -653.000
369.296; -225.800; -452.000; -601.000
369.427;  -66.800; -209.000; -144.000
369.558; -149.600; -593.000; -377.000
369.689; -215.700; -721.000; -569.000
369.821; -333.400; -951.000; -845.000
369.952;  -62.700;   42.000; -108.000
370.083; -143.800; -229.000; -108.000
370.214; -216.400; -735.000; -650.000
370.345;  -66.500;   65.000;   81.000
370.477; -273.800; -810.000; -790.000
370.608; -102.500; -328.000; -264.000
370.739; -343.800;-1233.000;-1292.000
370.870; -303.600;-1102.000; -923.000
371.001; -152.900; -378.000; -467.000
371.132; -247.500; -754.000; -735.000
371.263;  -62.900;  -42.000; -148.000
371.394; -251.500; -841.000; -748.000
371.525;   52.600;  345.000;  225.000
371.657; -274.400; -808.000; -670.000
371.788;  -29.200;  103.000;  199.000
371.919; -140.900; -384.000; -304.000
372.050;  -78.600;  -91.000; -156.000
372.181;  -81.000; -188.000; -294.000
372.311;  -49.100;   42.000; -127.000
372.442; -159.600; -457.000; -451.000
372.573; -122.300; -444.000; -340.000
372.704; -308.100;-1008.000; -980.000
372.835; -120.300; -228.000; -289.000
372.966; -205.800; -646.000; -554.000
373.097; -256.200; -575.000; -711.000
373.228; -198.700; -717.000; -542.000
373.359; -246.800; -824.000; -536.000
373.490; -271.800; -881.000; -727.000
373.620; -286.100;-1001.000; -803.000
373.751; -157.100; -332.000; -396.000
373.882; -223.000; -663.000; -733.000
374.013; -138.200; -449.000; -262.000
374.143; -208.300; -581.000; -659.000
374.274; -303.900; -987.000; -908.000
374.405; -142.700; -388.000; -276.000
374.536; -164.600; -526.000; -387.000
374.666; -255.900; -759.000; -807.000
374.797; -251.000; -817.000; -868.000
374.928; -215.400; -710.000; -560.000
375.058; -182.300; -535.000; -500.000
375.189;  -47.600;  -59.000;  -93.000
375.320; -303.500; -928.000;-1034.000
375.450; -193.300; -625.000; -616.000
375.581; -170.900; -526.000; -436.000
375.712; -140.100; -574.000; -250.000
375.842; -173.000; -438.000; -415.000
375.973; -195.700; -554.000; -513.000
376.103; -233.900; -665.000; -648.000
376.234; -228.400; -531.000; -552.000
376.364; -308.700; -944.000; -867.000
376.495;  151.600;  925.000;  529.000
376.625; -144.000; -472.000; -485.000
376.756; -168.600; -709.000; -678.000
376.886; -377.400;-1178.000;-1026.000
377.017; -321.400;-1048.000;-1061.000
377.147; -279.400; -786.000; -782.000
377.278;   49.900;  174.000;  228.000
377.408; -258.400; -801.000; -815.000
377.538; -228.200; -707.000; -693.000
377.669; -190.800; -537.000; -613.000
377.799; -224.800; -645.000; -635.000
377.929; -182.700; -610.000; -428.000
378.060; -250.200; -781.000; -847.000
378.190; -216.200; -726.000; -531.000
378.320; -175.400; -401.000; -406.000
378.451;  -64.800; -131.000;  -22.000
378.581;  -36.800;  -67.000; -110.000
378.711;  219.600; 1035.000;  866.000
378.841; -214.000; -533.000; -675.000
378.972; -294.100; -871.000; -751.000
379.102; -191.800; -652.000; -579.000
379.232; -123.300; -126.000;  -73.000
379.362; -302.300;-1001.000; -885.000
379.492; -150.100; -373.000; -424.000
379.623;  -10.900;    0.000;  111.000
379.753; -312.300;-1107.000; -974.000
379.883;   -6.400;   59.000;  156.000
380.013; -324.700;-1081.000;-1017.000
380.143; -341.100;-1097.000;-1056.000
380.273; -304.900; -985.000; -861.000
380.403; -120.600; -344.000; -257.000
380.533; -252.400; -651.000; -664.000
380.663;   -3.200;  173.000;  128.000
380.793; -360.200;-1027.000;-1074.000
380.923;  -75.800; -103.000;  -34.000
381.053; -215.900; -613.000; -623.000
381.183;  -86.900; -106.000; -248.000
381.313; -217.500; -656.000; -470.000
381.443; -176.000; -692.000; -473.000
381.573; -185.300; -402.000; -409.000
381.703; -359.600;-1249.000;-1095.000
381.833; -414.200;-1454.000;-1336.000
381.963;  -35.200; -134.000;  -87.000
382.093; -304.800; -925.000; -909.000
382.223; -208.600; -713.000; -602.000
382.353; -240.400; -801.000; -608.000
382.482; -339.800;-1091.000; -964.000
382.612; -251.900; -872.000; -644.000
382.742; -201.900; -695.000; -622.000
382.872; -189.300; -565.000; -551.000
383.002;  -22.200;  347.000; -132.000
383.131; -127.800; -226.000; -160.000
383.261; -250.500; -706.000; -768.000
383.391; -195.800; -552.000; -377.000
383.521;   70.900;  451.000;  263.000
383.650; -341.500; -947.000; -904.000
383.780; -212.600; -783.000; -656.000
383.910;  140.800;  880.000;  802.000
384.039; -275.900; -794.000; -656.000
384.169; -351.600;-1205.000;-1017.000
384.299; -234.300; -650.000; -662.000
384.428; -219.300; -764.000; -680.000
384.558; -150.100; -308.000; -275.000
384.687; -168.300; -414.000; -334.000
384.817;  -58.300;   75.000;   -2.000
384.947; -108.700; -234.000; -141.000
385.076;  193.800;  982.000;  912.000
385.206;   62.500;  369.000;  480.000
385.335; -164.600; -549.000; -417.000
385.465; -278.200; -655.000; -663.000
385.594;  -65.500;  -53.000;  -44.000
385.724; -268.200; -868.000; -838.000
385.853; -129.900; -296.000; -270.000
385.982; -292.800; -743.000; -787.000
386.112; -295.200;-1052.000; -871.000
386.241; -166.100; -307.000; -312.000
386.371; -125.700; -174.000;  -87.000
386.500; -285.500; -825.000; -789.000
386.629; -243.000; -874.000; -817.000
386.759;  -53.400;  -43.000;   68.000
386.888;  -67.200; -170.000; -250.000
387.017; -202.700; -648.000; -620.000
387.147; -219.300; -771.000; -798.000
387.276; -167.100; -410.000; -397.000
387.405; -155.100; -398.000; -342.000
387.535; -173.500; -452.000; -361.000
387.664; -185.800; -692.000; -620.000
387.793; -125.500; -198.000; -113.000
387.922;   10.700;  255.000;  200.000
388.052; -196.900; -576.000; -423.000
388.181; -142.500; -342.000; -472.000
388.310; -281.700; -889.000; -710.000
388.439; -248.400; -749.000; -742.000
388.568;   -1.900;  365.000;  244.000
388.697; -232.700; -756.000; -653.000
388.826; -212.600; -768.000; -666.000
388.956; -101.800; -285.000; -307.000
389.085; -158.500; -347.000; -287.000
389.214; -279.900; -842.000; -872.000
389.343; -220.400; -645.000; -413.000
389.472;   -9.900;  126.000;  149.000
389.601;  -26.200;   91.000;    0.000
389.730; -226.300; -568.000; -687.000
389.859;    9.400;  226.000;   46.000
389.988; -133.900; -423.000; -408.000
390.117; -100.400; -168.000; -146.000
390.246; -148.800; -331.000; -320.000
390.375; -237.300; -673.000; -626.000
390.504; -195.700; -703.000; -621.000
390.633; -244.100; -672.000; -726.000
390.761; -247.800; -732.000; -645.000
390.890;  -66.600;   -4.000; -130.000
391.019; -184.200; -421.000; -441.000
391.148; -272.100; -826.000; -855.000
391.277; -206.900; -576.000; -493.000
391.406; -272.500; -821.000; -805.000
391.534;  -17.000;  574.000; -301.000
391.663; -218.300; -583.000; -645.000
391.792; -220.500; -673.000; -701.000
391.921;  -51.700;   -3.000;   15.000
392.050; -131.500; -287.000; -228.000
392.178; -364.900;-1206.000;-1061.000
392.307; -277.800; -758.000; -712.000
392.436; -227.200; -427.000; -641.000
392.564;  -41.500;  166.000;   -6.000
392.693; -272.400; -860.000; -682.000
392.822; -206.100; -529.000; -534.000
392.950; -265.400; -880.000; -714.000
393.079; -154.400; -188.000; -328.000
393.208; -205.100; -488.000; -511.000
393.336;  -88.100; -170.000; -145.000
393.465; -109.800; -317.000; -199.000
393.593;  -31.500;   62.000;   79.000
393.722; -343.200;-1121.000; -916.000
393.850;  -98.900; -188.000;  -61.000
393.979; -309.600; -926.000; -805.000
394.107; -184.500; -517.000; -537.000
394.236; -213.000; -570.000; -507.000
394.364;   44.500;  383.000;  206.000
394.493; -272.900; -911.000; -767.000
394.621; -288.200; -955.000; -916.000
394.750; -319.400; -873.000; -923.000
394.878; -102.400; -247.000; -149.000
395.007; -266.500; -721.000; -807.000
395.135; -250.700; -790.000; -721.000
395.263; -310.200;-1038.000;-1040.000
395.392;  -53.800;  -25.000; -107.000
395.520; -209.500; -818.000; -679.000
395.648; -293.100; -865.000; -915.000
395.777; -156.400; -366.000; -405.000
395.905; -192.800; -449.000; -564.000
396.033;  -34.100;  217.000;  172.000
396.162; -141.700; -399.000; -453.000
396.290;  -31.900;  -17.000;   -2.000
396.418; -185.600; -555.000; -514.000
396.546; -252.200; -571.000; -466.000
396.674; -292.500; -850.000; -878.000
396.803;  -72.800;  -72.000;  -23.000
396.931; -123.100; -179.000; -199.000
397.059; -340.600;-1026.000; -989.000
397.187; -300.500;-1026.000; -975.000
397.315; -285.700; -884.000; -649.000
397.443; -200.400; -592.000; -443.000
397.572; -197.400; -578.000; -424.000
397.700; -225.700; -607.000; -614.000
397.828;  -93.800;  120.000;  -90.000
397.956; -185.700; -508.000; -478.000
398.084; -236.900; -767.000; -626.000
398.212;  -21.900;  137.000;  124.000
398.340;  -29.500;  -56.000;  159.000
398.468; -110.100; -390.000; -169.000
398.596; -302.700; -993.000; -953.000
398.724; -277.100; -762.000; -767.000
398.852; -328.300;-1024.000; -976.000
398.980; -175.700; -560.000; -560.000
399.108; -255.800; -982.000; -735.000
399.236;  -59.700;   13.000;    8.000
399.363;  -22.600;  222.000;  196.000
399.491; -180.400; -404.000; -398.000
399.619; -273.900; -829.000; -800.000
399.747; -254.900; -859.000; -771.000
399.875;   30.200;  220.000;  234.000
400.003; -162.100; -359.000; -284.000
400.130; -174.500; -421.000; -341.000
400.258;  -70.000;  -83.000;   38.000
400.386; -115.200; -352.000; -168.000
400.514; -198.200; -526.000; -587.000
400.641; -304.900; -928.000; -802.000
400.769; -293.100; -979.000; -888.000
400.897; -248.700; -838.000; -793.000
401.025;  -94.500; -166.000; -152.000
401.152;  -16.100;  220.000;   38.000
401.280; -160.400; -430.000; -429.000
401.408; -238.100; -712.000; -576.000
401.535; -251.200; -735.000; -758.000
401.663; -362.900;-1134.000;-1054.000
401.790; -181.200; -514.000; -525.000
401.918;   64.600;  436.000;  405.000
402.046;  -27.000;  134.000;  122.000
402.173;  -70.400;  -18.000;    7.000
402.301; -162.400; -519.000; -397.000
402.428;   75.900;  528.000;  383.000
402.556; -327.500;-1188.000; -913.000
402.683;  -70.100;  -20.000;   -1.000
402.811;  -75.200;  -37.000; -206.000
402.938;  -35.500;   20.000;   27.000
403.066; -206.600; -574.000; -558.000
403.193;  -39.400;  299.000;  239.000
403.321; -188.300; -396.000; -574.000
403.448;  -10.400;   83.000;   27.000
403.575;  -31.100;  -90.000;  -46.000
403.703; -254.200; -732.000; -557.000
403.830; -174.200; -531.000; -496.000
403.957; -343.700;-1117.000;-1023.000
404.085;  -89.100;  -61.000; -172.000
404.212;  -53.700;  -50.000;   63.000
404.339; -149.500; -566.000; -306.000
404.467; -189.000; -612.000; -524.000
404.594; -132.300; -287.000; -227.000
404.721; -268.700; -869.000; -764.000
404.848; -107.300; -113.000; -202.000
404.976; -266.300; -856.000; -783.000
405.103;  -45.200;  -14.000;  -82.000
405.230;  -39.200;  190.000;  226.000
405.357;  -59.100;  117.000;   44.000
405.484;  -78.600;  -49.000;    5.000
405.612; -177.700; -548.000; -563.000
405.739; -179.900; -488.000; -243.000
405.866;  105.500;  669.000;  385.000
405.993; -129.300; -398.000; -102.000
406.120; -290.400; -801.000; -887.000
406.247; -133.500; -323.000; -342.000
406.374;  102.300;  540.000;  629.000
406.501; -242.200; -632.000; -702.000
406.628; -197.200; -621.000; -589.000
406.755; -254.300; -803.000; -620.000
406.882; -107.100; -228.000; -277.000
407.009; -213.400; -719.000; -628.000
407.136; -142.400; -480.000; -401.000
407.263; -299.800; -939.000; -829.000
407.390; -252.800; -692.000; -614.000
407.517; -368.900;-1139.000;-1187.000
407.644; -135.100; -332.000; -256.000
407.771; -160.300; -249.000; -287.000
407.898;    3.300;  168.000;  328.000
408.025; -182.400; -421.000; -313.000
408.151;  -63.800;   82.000;  153.000
408.278; -164.900; -267.000; -216.000
408.405; -271.300; -931.000; -899.000
408.532; -233.300; -549.000; -542.000
408.659; -250.500; -677.000; -648.000
408.785; -398.900;-1298.000;-1170.000
408.912; -138.100; -412.000; -296.000
409.039; -209.300; -610.000; -686.000
409.166; -214.200; -591.000; -555.000
409.292; -213.300; -571.000; -534.000
409.419; -244.900; -665.000; -649.000
409.546; -141.900; -431.000; -192.000
409.672; -222.700; -713.000; -545.000
409.799;  -85.300;  -36.000;   34.000
409.926; -122.300; -180.000; -179.000
410.052; -361.200;-1127.000;-1091.000
410.179; -169.600; -368.000; -392.000
410.305; -166.600; -375.000; -493.000
410.432; -113.900; -220.000; -333.000
410.558; -199.400; -305.000; -380.000
410.685; -213.400; -688.000; -431.000
410.812; -222.600; -409.000; -588.000
410.938; -279.900; -964.000; -808.000
411.065; -230.700; -671.000; -645.000
411.191;  -90.100; -189.000; -174.000
411.317; -269.200; -823.000; -742.000
411.444; -160.800; -317.000; -246.000
411.570; -162.900; -339.000; -294.000
411.697; -250.000; -758.000; -752.000
411.823; -337.100; -989.000; -999.000
411.949;  -71.900;  -56.000;   17.000
412.076; -225.500; -539.000; -519.000
412.202; -289.000; -758.000; -757.000
412.329; -271.600; -798.000; -752.000
412.455; -233.800; -821.000; -657.000
412.581;  -45.100;  -15.000;  172.000
412.707; -177.200; -540.000; -457.000
412.834;   -3.200;  156.000;  219.000
412.960; -266.700; -785.000; -784.000
413.086; -271.400; -743.000; -701.000
413.212;   93.900;  604.000;  578.000
413.339; -248.900; -685.000; -701.000
413.465; -162.600; -364.000; -310.000
413.591; -279.200; -757.000; -474.000
413.717; -144.500; -358.000; -366.000
413.843; -295.600; -839.000; -861.000
413.969; -149.300;  -47.000; -292.000
414.096; -244.000; -679.000; -679.000
414.222;  -57.900;  -33.000;   85.000
414.348; -218.500; -652.000; -385.000
414.474;  -83.200;   38.000;  -52.000
414.600;  -95.800; -126.000; -144.000
414.726;  -82.200;  -96.000;  -55.000
414.852; -171.200; -365.000; -342.000
414.978;  -51.100;  104.000;  -18.000
415.104;  -62.000;   38.000;   80.000
415.230; -142.300; -329.000; -330.000
415.356; -182.200; -409.000; -514.000
415.482;  -71.200;   13.000;  -35.000
415.608; -138.300; -247.000; -323.000
415.734;  -39.600;   67.000;   38.000
415.860; -264.900; -875.000; -767.000
415.986; -246.500; -685.000; -607.000
416.111; -268.700; -798.000; -652.000
416.237; -177.400; -424.000; -571.000
416.363; -256.000; -765.000; -733.000
416.489; -143.200; -324.000; -251.000
416.615; -277.300; -707.000; -742.000
416.741; -248.100; -677.000; -784.000
416.866; -257.000; -673.000; -736.000
416.992; -274.300; -801.000; -818.000
417.118; -117.300;  -41.000;  -80.000
417.244; -242.600; -798.000; -531.000
417.369; -262.200; -801.000; -612.000
417.495; -156.700; -325.000; -254.000
417.621; -323.300;-1015.000; -803.000
417.746; -181.700; -579.000; -572.000
417.872;  -99.500; -254.000; -144.000
417.998; -172.700; -515.000; -530.000
418.123; -329.600;-1073.000; -845.000
418.249; -208.200; -512.000; -601.000
418.374; -318.100; -916.000; -824.000
418.500; -151.400; -383.000; -482.000
418.626;  -49.600;   70.000;  -59.000
418.751; -177.400; -549.000; -448.000
418.877; -232.200; -637.000; -643.000
419.002; -189.900; -688.000; -560.000
419.128; -267.200; -930.000; -721.000
419.253; -289.700; -967.000; -837.000
419.379; -210.800; -391.000; -338.000
419.504;   22.700;  325.000;  415.000
419.629; -118.100; -393.000; -212.000
419.755; -124.400; -317.000; -254.000
419.880; -146.100;  -98.000;   67.000
420.006; -133.400; -280.000; -221.000
420.131; -257.000; -662.000; -775.000
420.256; -121.000; -315.000; -316.000
420.382; -230.200; -665.000; -687.000
420.507; -257.500; -649.000; -778.000
420.632; -167.100; -337.000; -339.000
420.758; -106.600; -251.000; -425.000
420.883; -249.600; -876.000; -672.000
421.008; -250.100; -775.000; -619.000
421.133; -191.700; -509.000; -467.000
421.259; -112.400; -325.000; -259.000
421.384; -266.500; -834.000; -693.000
421.509; -282.900;-1052.000; -862.000
421.634; -330.100; -936.000; -820.000
421.759; -156.700; -359.000; -327.000
421.885; -217.100; -717.000; -656.000
422.010; -209.500; -673.000; -542.000
422.135; -309.200; -695.000; -727.000
422.260;   31.300;  340.000;  280.000
422.385; -102.900;   12.000;  -98.000
422.510;  -25.600;  151.000;  -26.000
422.635;  -76.900;  -87.000;  -43.000
422.760; -243.700; -766.000; -791.000
422.885;  -56.100;  -57.000;  -80.000
423.010;  -81.100; -112.000; -169.000
423.135; -177.300; -481.000; -561.000
423.260; -119.700; -150.000; -245.000
423.385;   12.400;  476.000;  222.000
423.510;  -28.400;   71.000;  -22.000
423.635;  -61.200;  133.000;   45.000
423.760;   50.000;  383.000;  328.000
423.885;   24.600;  336.000;  391.000
424.010;  -59.600;  -68.000;  -13.000
424.135;  -94.300;    5.000;  -33.000
424.259; -200.200; -654.000; -457.000
424.384; -189.400; -279.000; -272.000
424.509; -121.800; -260.000; -186.000
424.634; -276.300; -761.000; -623.000
424.759; -209.000; -688.000; -544.000
424.883; -189.400; -506.000; -527.000
425.008; -227.000; -502.000; -410.000
425.133; -253.100; -679.000; -653.000
425.258; -204.800; -517.000; -381.000
425.382; -232.900; -867.000; -774.000
425.507; -208.000; -487.000; -543.000
425.632; -284.000; -802.000; -663.000
425.756; -114.200; -256.000; -146.000
425.881; -273.700; -831.000; -857.000
426.006; -201.600; -604.000; -355.000
426.130; -249.800; -696.000; -508.000
426.255; -203.500; -611.000; -491.000
426.379; -108.000; -189.000; -577.000
426.504;   83.200;  660.000;  544.000
426.629; -211.100; -519.000; -466.000
426.753;  -60.000;   64.000;  -46.000
426.878; -123.800; -252.000; -288.000
427.002; -274.400; -651.000; -668.000
427.127;  -98.900;  -35.000; -158.000
427.251;   66.300;  372.000;  401.000
427.375; -148.600; -191.000; -173.000
427.500; -227.600; -616.000; -610.000
427.624; -159.300; -234.000; -400.000
427.749; -125.100; -216.000; -225.000
427.873; -222.200; -499.000; -412.000
427.997; -133.200; -222.000; -230.000
428.122;  116.400;  795.000;  703.000
428.246;   31.700;  433.000;  434.000
428.371; -321.100; -869.000; -773.000
428.495; -237.500; -624.000; -646.000
428.619; -104.800; -186.000; -117.000
428.743;  -25.600;   65.000;  132.000
428.868; -258.900; -732.000; -643.000
428.992; -157.000; -219.000; -326.000
429.116; -193.300; -329.000; -357.000
429.240;   44.000;  419.000;  426.000
429.365; -179.900; -454.000; -574.000
429.489; -234.200; -638.000; -647.000
429.613; -102.900; -236.000; -177.000
429.737; -208.100; -563.000; -432.000
429.861; -153.400; -247.000; -133.000
429.985; -157.500; -425.000; -305.000
430.109; -304.500; -770.000; -908.000
430.234;  -21.900;   76.000;  -50.000
430.358; -152.100; -250.000; -160.000
430.482; -262.900; -672.000; -564.000
430.606; -209.300; -655.000; -375.000
430.730; -198.500; -437.000; -388.000
430.854; -341.000; -909.000; -835.000
430.978; -256.100; -795.000; -764.000
431.102; -235.800; -499.000; -422.000
431.226; -307.300; -874.000; -815.000
431.350;   32.600;  345.000;  422.000
431.474; -183.300; -661.000; -373.000
431.597; -321.900;-1060.000; -848.000
431.721; -111.800; -276.000; -267.000
431.845; -253.400; -704.000; -472.000
431.969; -154.300; -304.000; -349.000
432.093; -168.000; -395.000; -317.000
432.217;  -62.100;   32.000;   82.000
432.341; -188.800; -523.000; -518.000
432.464;  -67.000;   96.000;   40.000
432.588; -204.100; -401.000; -329.000
432.712; -108.600;  -52.000;  -52.000
432.836;   18.300;  213.000;  263.000
432.959; -167.100; -372.000; -311.000
433.083; -112.900;   11.000;    2.000
433.207;   71.800;  285.000;  930.000
433.330; -153.700; -391.000; -200.000
433.454; -231.200; -654.000; -638.000
433.578;   41.000;  583.000;  278.000
433.701; -258.800; -623.000; -675.000
433.825; -151.800; -292.000; -299.000
433.949;  -80.100;   28.000;  -72.000
434.072; -164.600; -410.000; -323.000
434.196;  -93.900; -309.000; -117.000
434.319; 7424.900;25482.000;25124.000
434.443; -228.400; -656.000; -603.000
434.566;  -24.600;  281.000;   62.000
434.690; -211.000; -637.000; -383.000
434.813; -152.100; -251.000; -173.000
434.937; -216.100; -569.000; -696.000
435.060; -173.000; -423.000; -332.000
435.184; -178.800; -492.000; -217.000
435.307;  -58.900;  159.000;  102.000
435.431;  -81.800;  -40.000;   24.000
435.554; -125.600; -399.000; -240.000
435.677; -149.200; -350.000; -258.000
435.801;  -77.600;  -25.000;   49.000
435.924;  -62.700;    1.000;  -67.000
436.048; -308.100;-1019.000; -732.000
436.171; -168.700; -240.000;  -66.000
436.294; -154.500; -248.000; -229.000
436.417; -303.700; -963.000; -849.000
436.541; -288.700; -814.000; -840.000
436.664; -119.300; -242.000; -316.000
436.787;  -31.700;   13.000;  113.000
436.910; -241.700; -792.000; -422.000
437.034;  -37.500;  142.000;  143.000
437.157;  -81.000;  -11.000;    0.000
437.280; -184.200; -392.000; -292.000
437.403; -333.900; -982.000; -869.000
437.526; -300.800; -903.000; -865.000
437.649; -195.500; -505.000; -332.000
437.772; -286.100; -692.000; -540.000
437.896;   68.900;  700.000;  544.000
438.019; -253.900; -758.000; -503.000
438.142; -219.600; -596.000; -506.000
438.265; -273.900; -639.000; -670.000
438.388; -165.500; -520.000; -410.000
438.511; -207.100; -597.000; -394.000
438.634; -175.900; -247.000; -125.000
438.757; -238.600; -693.000; -619.000
438.880;  -87.900;  -34.000;  -57.000
439.003; -170.700; -417.000; -437.000
439.126; -124.600; -287.000; -167.000
439.248;  -78.100;  -98.000; -139.000
439.371; -103.600;    9.000;  -53.000
439.494;   87.900;  510.000;  439.000
439.617;  -74.400;   65.000;  -88.000
439.740; -331.300; -968.000; -816.000
439.863; -257.300; -755.000; -595.000
439.986; -243.400; -476.000; -431.000
440.108; -108.200; -161.000; -112.000
440.231; -340.300; -950.000; -836.000
440.354;  -90.700;  -64.000; -150.000
440.477; -237.300; -566.000; -542.000
440.599; -145.100; -200.000; -225.000
440.722; -246.900; -709.000; -586.000
440.845;  153.500;  751.000;  928.000
440.968; -193.700; -415.000; -311.000
441.090; -118.800; -199.000;  -33.000
441.213; -314.000;-1021.000; -825.000
441.336;  -69.000; -159.000;   -5.000
441.458; -201.600; -549.000; -396.000
441.581; -255.200; -628.000; -629.000
441.703; -129.300; -152.000;   13.000
441.826; -218.000; -557.000; -400.000
441.948;  -76.500;   56.000;   51.000
442.071;   41.100;  555.000;  424.000
442.193; -238.600; -531.000; -485.000
442.316;  -52.100;  152.000;   97.000
442.438; -141.600; -233.000;  -10.000
442.561;  -13.600;  272.000;  262.000
442.683; -270.300; -809.000; -522.000
442.806;  -82.100;   -8.000;   74.000
442.928; -285.700; -859.000; -604.000
443.051; -213.100; -577.000; -373.000
443.173; -192.000; -341.000; -339.000
443.295; -190.000; -263.000; -371.000
443.418; -138.500; -321.000;  -29.000
443.540;  -91.800; -106.000;   -4.000
443.662; -222.900; -563.000; -465.000
443.785;   -3.300;  335.000;  199.000
443.907; -196.400; -362.000; -208.000
444.029; -255.900; -767.000; -494.000
444.152; -231.100; -644.000; -554.000
444.274;  -37.000;  -18.000;  -24.000
444.396; -228.400; -461.000; -221.000
444.518; -248.200; -691.000; -454.000
444.640; -154.000; -268.000; -111.000
444.763;  -24.400;  388.000;  249.000
444.885; -206.700; -432.000; -392.000
445.007;  -57.200;   35.000;   86.000
445.129; -219.600; -610.000; -515.000
445.251; -160.400; -372.000; -439.000
445.373; -277.500; -537.000; -386.000
445.495;   13.500;  242.000;  350.000
445.617;  131.600;  853.000;  753.000
445.739;  -99.200; -215.000;  -97.000
445.861; -107.000; -245.000; -112.000
445.984; -106.100; -267.000; -101.000
446.105; -169.900; -418.000; -251.000
446.227; -134.000; -176.000;  -19.000
446.349; -206.200; -358.000; -249.000
446.471; -244.600; -615.000; -448.000
446.593; -164.500; -316.000;   19.000
446.715; -100.400;  -67.000;   41.000
446.837;  141.500;  697.000;  832.000
446.959; -211.800; -457.000; -478.000
447.081; -236.600; -628.000; -518.000
447.203;  115.100;  862.000;  834.000
447.325; -164.300; -270.000;   42.000
447.446;    3.400;  286.000;  530.000
447.568; -331.200; -921.000; -803.000
447.690; -162.600; -236.000; -245.000
447.812; -289.700; -798.000; -519.000
447.933;  -28.100;  155.000;  127.000
448.055; -151.800; -306.000; -261.000
448.177;  -42.900;   31.000;   79.000
448.299; -330.100; -935.000; -727.000
448.420;  -24.700;  -25.000;  159.000
448.542;  -83.000;   -3.000;   33.000
448.664;  -14.300;  109.000;  322.000
448.785;  -72.800;  265.000;   83.000
448.907; -172.000; -614.000; -353.000
449.028; -254.000; -771.000; -471.000
449.150;   82.500;  492.000;  589.000
449.272; -353.000;-1044.000; -913.000
449.393;  104.000;  612.000;  694.000
449.515; -279.000; -634.000; -581.000
449.636; -158.100; -264.000; -155.000
449.758;   61.500;  763.000;  622.000
449.879; -207.600; -498.000; -396.000
450.001; -142.600; -149.000;  -49.000
450.122;  -62.000;  -95.000;  162.000
450.244;  -52.800;   37.000;  364.000
450.365; -199.100; -495.000; -301.000
450.486;  -72.800;   80.000;  268.000
450.608;  -51.500;  393.000;  326.000
450.729;   43.700;  578.000;  645.000
450.850; -223.400; -574.000; -466.000
450.972; -270.500; -552.000; -389.000
451.093;   34.900;  190.000;  588.000
451.214; -213.800; -516.000; -337.000
451.336;  140.600;  773.000;  579.000
451.457;  -24.200;  264.000;  393.000
451.578; -111.400; -118.000;  -74.000
451.699; -218.800; -546.000; -540.000
451.821; -122.300; -284.000;  -50.000
451.942;    0.300;  278.000;  285.000
452.063;   13.400;  228.000;  419.000
452.184; -125.000;  -54.000;  -49.000
452.305;  -38.500;  103.000;  170.000
452.427; -190.400; -549.000; -301.000
452.548;  -97.200;   23.000;   79.000
452.669; -164.600; -257.000;  -89.000
452.790; -100.100;    3.000;  -18.000
452.911;  -46.700;  195.000;  259.000
453.032; -178.700; -289.000;  -60.000
453.153;  -79.100;  -29.000;   81.000
453.274;  128.500;  737.000;  868.000
453.395; -129.300;  -51.000;  175.000
453.516;  223.400; 1317.000; 1388.000
453.637; -159.300; -205.000; -150.000
453.758;  -71.400;   15.000;   69.000
453.879; -191.100; -462.000; -250.000
454.000;  174.100; 1086.000;  948.000
454.121; -247.400; -554.000; -326.000
454.242; -231.600; -599.000; -383.000
454.362;  -97.300;  -99.000;  114.000
454.483; -168.100; -309.000; -229.000
454.604;   13.400;  512.000;  580.000
454.725; -256.000; -627.000; -555.000
454.846; -210.000; -474.000; -406.000
454.967;   -0.800;  230.000;  539.000
455.087;  -30.900;  179.000;  153.000
455.208;   61.000;  554.000;  856.000
455.329; -123.400;  -22.000;   82.000
455.450;   53.900;  473.000;  633.000
455.570; -181.800; -234.000; -211.000
455.691;  -80.300;  201.000;  407.000
455.812; -180.300; -270.000;  -92.000
455.932;  -74.400;  107.000;  -97.000
456.053;  -95.100;   36.000;   24.000
456.173; -195.500; -433.000; -355.000
456.294; -244.100; -476.000; -303.000
456.415; -107.900;  -73.000;   70.000
456.535;  -50.000;  297.000;  273.000
456.656;  -58.000;  132.000;  240.000
456.776; -104.900;    3.000;  298.000
456.897;    3.100;  308.000;  513.000
457.017; -128.700; -153.000;   -3.000
457.138; -218.900; -402.000; -249.000
457.258;  -36.100;  263.000;  224.000
457.379;   -2.100;  509.000;  521.000
457.499;  -15.400;  443.000;  432.000
457.620; -196.400; -407.000; -231.000
457.740; -158.000; -132.000;  -11.000
457.860;  -91.800;   87.000;   44.000
457.981; -116.700;  132.000;  124.000
458.101; -110.200;  -89.000;   40.000
458.221;   11.500;  336.000;  402.000
458.342;  -93.300;   -4.000;  -37.000
458.462;   12.100;  617.000;  352.000
458.582; -176.200; -302.000; -294.000
458.703;  -66.500;  303.000;  154.000
458.823;  -98.800;   22.000;  163.000
458.943;  -33.200;  341.000;  467.000
459.063;  -53.400; 1124.000;  192.000
459.183;  -55.400;  328.000;  313.000
459.304;   21.100;  315.000;  517.000
459.424; -167.700; -246.000;  -89.000
459.544;   19.100;  388.000;  764.000
459.664;   28.000;  499.000;  506.000
459.784;  169.600; 1004.000; 1175.000
459.904;   59.500;  867.000;  744.000
460.024;  137.400;  867.000;  684.000
460.144;  -17.200;  449.000;  554.000
460.264;   24.700;  515.000;  327.000
460.385; -158.000; -145.000; -119.000
460.505;  101.200;  905.000;  858.000
460.625; -148.600;  -17.000;  -68.000
460.745;   37.600;  396.000;  541.000
460.864;  -85.600;  153.000;  469.000
460.984;    3.000;  499.000;  573.000
461.104;  276.200; 1656.000; 1775.000
461.224;   95.300;  657.000;  650.000
461.344;  -32.700;  431.000;  360.000
461.464;  -32.300;  258.000;  513.000
461.584;  -39.700;  283.000;  466.000
461.704; -128.500;   58.000;  108.000
461.824;  -80.700;  238.000;  259.000
461.943;  -46.300;  191.000;  130.000
462.063;  -80.400;    2.000;  324.000
462.183;   58.700;  639.000;  717.000
462.303;  188.800; 1678.000; 1230.000
462.422;   94.700;  781.000;  840.000
462.542;  -95.300;  271.000;  391.000
462.662;   12.400;  353.000;  380.000
462.782;   36.100;  833.000;  572.000
462.901;   23.800;  545.000;  717.000
463.021;  308.700; 1702.000; 1638.000
463.141;   -7.200;  337.000;  770.000
463.260;    3.600;  614.000;  474.000
463.380;   79.600;  902.000;  884.000
463.499;  -48.500;  342.000;  332.000
463.619;  -70.800;  581.000;  559.000
463.738;  275.100; 1644.000;  903.000
463.858;   66.500;  657.000;  811.000
463.978;  -21.200;  542.000;  396.000
464.097;  118.700;  921.000; 1114.000
464.217;  175.700; 1196.000; 1143.000
464.336;  205.200; 1068.000; 1130.000
464.455;  -44.500;  328.000;  659.000
464.575;  -27.400;  597.000;  602.000
464.694;  167.400; 1204.000; 1179.000
464.814;  166.400; 1190.000; 1138.000
464.933;  109.000; 1095.000; 1027.000
465.052;  188.700; 1412.000; 1054.000
465.172;   36.700;  922.000;  799.000
465.291;  235.800; 1376.000; 1320.000
465.410;    4.900;  462.000;  735.000
465.530;  158.900; 1355.000; 1310.000
465.649;  139.400; 1209.000; 1273.000
465.768;  306.900; 1673.000; 1508.000
465.888;  123.900;  941.000; 1174.000
466.007;  240.100; 1335.000; 1440.000
466.126;   54.000;  721.000;  641.000
466.245;  151.600; 1176.000; 1187.000
466.364;   73.400;  950.000; 1060.000
466.484;  141.000; 1024.000; 1213.000
466.603;  116.300; 1101.000; 1222.000
466.722;  253.200; 1490.000; 1769.000
466.841;  161.700; 1151.000; 1401.000
466.960;  109.600; 1069.000;  972.000
467.079;  318.100; 1971.000; 1786.000
467.198;  123.300; 1238.000; 1181.000
467.317;  240.900; 1768.000; 1162.000
467.436;  154.900; 1709.000; 1261.000
467.555;  318.700; 1796.000; 1746.000
467.674;  130.300; 1227.000; 1329.000
467.793;  130.000; 1376.000; 1374.000
467.912;  227.200; 1658.000; 1539.000
468.031;  336.900; 2038.000; 1930.000
468.150;  286.000; 1842.000; 1837.000
468.269;  390.900; 2313.000; 2090.000
468.388;  458.000; 2168.000; 2339.000
468.507;  557.500; 2884.000; 2903.000
468.626;  600.300; 2555.000; 2541.000
468.744;  348.600; 2018.000; 2174.000
468.863;  432.700; 2312.000; 2523.000
468.982;  242.800; 1503.000; 1555.000
469.101;  481.000; 2788.000; 2692.000
469.220;  347.000; 2333.000; 2176.000
469.338;  569.000; 2935.000; 3051.000
469.457;  433.400; 2719.000; 2545.000
469.576;  709.300; 3953.000; 3784.000
469.695;  497.400; 2877.000; 3066.000
469.813;  858.800; 4148.000; 4192.000
469.932;  796.400; 4255.000; 4485.000
470.051;  793.800; 4075.000; 4161.000
470.169;  870.100; 4470.000; 4338.000
470.288;  901.400; 4700.000; 4809.000
470.406;  939.000; 5059.000; 5194.000
470.525; 1132.500; 6101.000; 5787.000
470.644; 1342.100; 6847.000; 6794.000
470.762; 1658.200; 8397.000; 7873.000
470.881; 1698.800; 8651.000; 8464.000
470.999; 2044.500; 9685.000; 9151.000
471.118; 2227.400;11174.000;10711.000

