
Integration time [ms]: 200.000
Averaging Nr. [scans]: 10
Smoothing Nr. [pixels]: 0
Data measured with spectrometer [name]: 2101012U2
Wave   ;Sample   ;Dark     ;Reference
[nm]   ;[counts] ;[counts] ;[counts] 

197.733;  136.300;  516.000;  404.000
197.879; -167.700; -610.000; -634.000
198.025; -104.700; -475.000; -420.000
198.171; -148.100; -602.000; -612.000
198.317;  -51.000; -401.000; -316.000
198.463; -115.200; -655.000; -404.000
198.609;   26.200;  181.000; -137.000
198.755; -167.700; -644.000; -410.000
198.901; -140.700; -505.000; -424.000
199.047; -151.500; -615.000; -488.000
199.193;  -68.900; -230.000; -468.000
199.339;  -90.200; -222.000; -369.000
199.485;   97.600;  330.000;  271.000
199.631;   -2.600;  227.000;  310.000
199.777; -108.500; -466.000; -398.000
199.923; -107.100; -610.000; -424.000
200.069;   12.100; -141.000;  -58.000
200.215;  106.400;  128.000;  453.000
200.361;   96.400;  243.000;  477.000
200.507; -142.000; -600.000; -373.000
200.653;  -56.000; -371.000; -194.000
200.798;  -77.000; -215.000; -125.000
200.944;   -1.200; -146.000;  -41.000
201.090;   85.000;   61.000;  222.000
201.236;   -2.800; -116.000; -158.000
201.382;  268.700;  874.000;  903.000
201.528;    3.700;  -58.000;  -48.000
201.674;  -73.600; -386.000; -293.000
201.819; -132.900; -540.000; -439.000
201.965; -160.600; -699.000; -447.000
202.111;  -40.500; -273.000; -226.000
202.257;  -58.000; -250.000; -238.000
202.402;    9.400;   13.000;  -36.000
202.548;  -51.400; -169.000; -116.000
202.694;  185.500;  410.000; -183.000
202.840; -160.400; -603.000; -531.000
202.985; -136.500; -681.000; -639.000
203.131; -246.800; -832.000; -666.000
203.277;  -54.900; -199.000; -262.000
203.423;  -74.600; -434.000; -520.000
203.568;  -87.500; -462.000; -237.000
203.714; -147.800; -535.000; -542.000
203.860; -173.000; -682.000; -641.000
204.005;   64.100;  112.000;  167.000
204.151;  151.400;  561.000;  556.000
204.296; -105.100; -354.000; -221.000
204.442; -142.400; -600.000; -547.000
204.588; -151.000; -592.000; -579.000
204.733;   14.300;  178.000;  168.000
204.879; -293.700;-1018.000; -822.000
205.025;   22.600;  -99.000;  126.000
205.170;   -3.400;  -17.000;   94.000
205.316;  168.500;  438.000;  661.000
205.461; -180.400; -698.000; -554.000
205.607;  197.200;  609.000;  665.000
205.752; -163.600; -626.000; -551.000
205.898; -129.300; -501.000; -391.000
206.043; -114.500; -578.000; -506.000
206.189; -106.300; -243.000; -285.000
206.334;  189.400;  554.000;  606.000
206.480;  187.100;  409.000;  239.000
206.625; -159.800; -529.000; -552.000
206.771; -101.500; -451.000; -373.000
206.916;  -67.000; -210.000; -537.000
207.062; -166.800; -545.000; -591.000
207.207; -131.100; -546.000; -443.000
207.353;  109.600;  185.000;  460.000
207.498;   32.800;  196.000;   85.000
207.643; -113.900; -501.000; -370.000
207.789; -285.900;-1069.000; -910.000
207.934; -198.200; -665.000; -713.000
208.080;  -48.000; -154.000;   66.000
208.225;   -4.600;  -22.000;  -57.000
208.370; -183.400; -727.000; -619.000
208.516; -168.200; -741.000; -487.000
208.661;  -45.700; -127.000;  -69.000
208.806;   -0.600; -165.000; -171.000
208.952; -249.800;-1044.000; -731.000
209.097;  174.500;  378.000;  349.000
209.242;  -80.000; -307.000; -382.000
209.387;  121.300;  392.000;  350.000
209.533;  -67.200; -321.000; -350.000
209.678;  143.800;  472.000;  543.000
209.823; -107.600; -408.000; -310.000
209.969; -224.100; -860.000; -757.000
210.114; -220.000; -907.000; -719.000
210.259; -247.600; -939.000; -889.000
210.404;  -13.300; -171.000;  103.000
210.549;   43.600;  108.000;    3.000
210.695;  -46.500;   -3.000;  -95.000
210.840;   78.600;   94.000;   67.000
210.985; -130.600; -484.000; -303.000
211.130;  143.800;  268.000;  406.000
211.275;   50.600;  207.000;  199.000
211.420; -110.300; -300.000; -289.000
211.566; -159.900; -536.000; -489.000
211.711;   67.400;  218.000;  157.000
211.856; -137.000; -545.000; -519.000
212.001;   39.200;  151.000;   44.000
212.146;   16.900;  153.000;   49.000
212.291;  -38.000; -210.000; -186.000
212.436;  -67.100; -280.000;   -6.000
212.581; -182.900; -685.000; -653.000
212.726; -147.400; -487.000; -538.000
212.871;  -82.600; -552.000; -217.000
213.016; -323.200;-1172.000;-1029.000
213.161;  107.300;  406.000;  291.000
213.306; -147.100; -435.000; -577.000
213.451; -195.800; -778.000; -689.000
213.596;  -88.500; -455.000; -347.000
213.741; -129.800; -448.000; -538.000
213.886; -182.600; -498.000; -517.000
214.031;  -48.900; -294.000; -124.000
214.176;  -86.300; -408.000; -341.000
214.321;  -57.500; -296.000; -157.000
214.466;  -51.300; -163.000;  -43.000
214.611;   -4.100;  -61.000;  -10.000
214.756; -235.600; -948.000; -858.000
214.901;  -52.200; -388.000; -226.000
215.046; -278.000; -797.000; -825.000
215.191;   67.900;  128.000;   35.000
215.336;  -38.200; -157.000;  -19.000
215.480; -136.800; -684.000; -505.000
215.625;  -29.400; -175.000;  -19.000
215.770; -160.400; -757.000; -662.000
215.915;  -15.900;   -5.000;  -97.000
216.060;   28.700; -113.000;  -21.000
216.205; -241.000; -731.000; -779.000
216.349; -149.900; -470.000; -533.000
216.494; -274.600; -939.000; -867.000
216.639; -261.400; -823.000; -888.000
216.784; -181.500; -577.000; -525.000
216.929;  110.900;  392.000;  281.000
217.073;  -19.300; -244.000;  -31.000
217.218;   19.000;   78.000;  -47.000
217.363; -182.200; -656.000; -618.000
217.507; -146.900; -623.000; -588.000
217.652; -257.100; -845.000; -874.000
217.797; -197.200; -708.000; -659.000
217.942; -241.200; -856.000; -720.000
218.086;  154.900;  608.000;  539.000
218.231;  -44.200; -174.000;  -26.000
218.376;  -48.500; -337.000; -229.000
218.520;   19.100;  -41.000;   96.000
218.665;  -49.200; -338.000; -204.000
218.810;  -51.400; -275.000; -233.000
218.954;   53.400;  201.000;   35.000
219.099; -246.000; -713.000; -963.000
219.243; -112.300; -589.000; -554.000
219.388;  -68.500; -264.000; -136.000
219.532;  -10.400; -116.000; -116.000
219.677; -184.600; -564.000; -521.000
219.822;   53.600;   33.000;   89.000
219.966;    8.900;   17.000;  -99.000
220.111;  -87.700; -328.000;  -40.000
220.255; -201.600; -797.000; -750.000
220.400;  -22.700; -180.000; -146.000
220.544; -137.400; -516.000; -450.000
220.689; -115.600; -422.000; -451.000
220.833;  -19.600; -123.000;  -58.000
220.978; -101.400; -393.000; -563.000
221.122;   69.200;  319.000;  307.000
221.267; -229.400; -906.000; -837.000
221.411; -129.500; -478.000; -394.000
221.555;    7.500; -104.000;  -23.000
221.700;  -77.500; -329.000; -222.000
221.844;   75.600;  255.000;  272.000
221.989;  -94.800; -328.000; -311.000
222.133;  -51.500; -289.000; -307.000
222.277;   -8.100;    5.000;   78.000
222.422;   36.900;  227.000;  113.000
222.566;  -57.400; -381.000; -214.000
222.711;  -81.200; -414.000; -479.000
222.855; -164.600; -643.000; -586.000
222.999; -150.100; -642.000; -717.000
223.144;  -42.000; -195.000; -194.000
223.288;  146.900;  423.000;  251.000
223.432;   31.900;  184.000;  230.000
223.576;   52.200;  152.000;  -21.000
223.721;   98.000;  364.000;  273.000
223.865; -121.200; -472.000; -475.000
224.009;  472.800; 1673.000; 1631.000
224.153; -166.800; -660.000; -671.000
224.298; -148.900; -531.000; -489.000
224.442;  -27.800;  -74.000;  -33.000
224.586;  -13.200; -169.000; -106.000
224.730; -196.300; -858.000; -670.000
224.875; -208.200; -739.000; -688.000
225.019;   51.700;  102.000;  188.000
225.163;  150.200;  208.000;  341.000
225.307;   53.400;   97.000;  -91.000
225.451;  121.600;  360.000;  481.000
225.595;   88.100;  264.000;  176.000
225.739;  -28.200; -170.000;  -94.000
225.884;   13.100;   86.000;    5.000
226.028; -206.400; -760.000; -626.000
226.172;  -76.900; -260.000; -273.000
226.316; -242.300; -941.000; -902.000
226.460; -112.900; -645.000; -493.000
226.604; -116.500; -406.000; -400.000
226.748; -206.200; -836.000; -733.000
226.892;  -91.800; -227.000; -181.000
227.036; -116.900; -537.000; -447.000
227.180; -102.500; -551.000; -375.000
227.324; -141.000; -561.000; -580.000
227.468; -249.200; -819.000; -717.000
227.612;   53.400;  242.000;  -28.000
227.756; -214.900; -845.000; -698.000
227.900;  108.600;  342.000;  441.000
228.044; -133.100; -509.000; -290.000
228.188;  159.100;  448.000;  568.000
228.332; -157.600; -546.000; -472.000
228.476;  -36.600; -223.000; -149.000
228.620;  -68.600; -210.000; -150.000
228.764;  153.900;  431.000;  349.000
228.908;  -34.300; -155.000;   30.000
229.052; -120.100; -615.000; -528.000
229.195;  -40.000; -172.000;   13.000
229.339;  -45.100; -235.000; -305.000
229.483;  -52.900;    5.000; -162.000
229.627;   12.700; -156.000;  139.000
229.771;  -72.500; -218.000; -294.000
229.915;   38.500;  230.000;   79.000
230.059; -165.000; -648.000; -663.000
230.202;  -61.800; -370.000; -317.000
230.346;   -3.200; -107.000;  107.000
230.490; -130.000; -489.000; -521.000
230.634; -228.000; -736.000; -553.000
230.777;  222.300;  478.000;  509.000
230.921; -118.600; -450.000; -359.000
231.065;  -56.200; -246.000; -286.000
231.209;   71.000;  261.000;  265.000
231.352;   46.000;   54.000;   40.000
231.496;   63.500;  568.000;  188.000
231.640; -156.900; -693.000; -621.000
231.783;  185.200;  546.000;  525.000
231.927; -101.900; -294.000; -365.000
232.071; -264.200; -962.000; -736.000
232.214; -230.500; -980.000; -764.000
232.358; -197.600; -683.000; -599.000
232.502;   17.600;  -19.000;    7.000
232.645; -276.900;-1090.000; -927.000
232.789;  -38.300; -257.000; -218.000
232.933;  -91.700; -407.000; -224.000
233.076; -234.600;-1038.000; -897.000
233.220; -210.800; -752.000; -777.000
233.363; -142.900; -669.000; -477.000
233.507;  101.600;  371.000;  129.000
233.650; -183.800; -764.000; -834.000
233.794;  117.500;  438.000;  461.000
233.938; -118.900; -530.000; -362.000
234.081;   -6.500;  -93.000;   31.000
234.225; -135.600; -631.000; -539.000
234.368; -255.000; -773.000; -723.000
234.512;  -68.000; -385.000; -299.000
234.655; -186.400; -582.000; -555.000
234.798; -130.900; -493.000; -466.000
234.942; -270.100; -884.000;-1002.000
235.085; -156.600; -651.000; -443.000
235.229; -155.600; -405.000; -410.000
235.372;  -89.900; -247.000; -191.000
235.516; -112.800; -397.000; -321.000
235.659;   48.000;   92.000;  121.000
235.802;  -10.300;  -38.000;  -22.000
235.946;   84.300;  335.000;  215.000
236.089;   77.000;  126.000;  250.000
236.233;  135.900;  275.000;  298.000
236.376; -123.800; -235.000; -378.000
236.519; -104.800; -297.000; -319.000
236.663;  -19.700; -215.000; -117.000
236.806; -300.200;-1029.000; -999.000
236.949;  153.700;  543.000;  431.000
237.092;  147.500;  412.000;  391.000
237.236; -186.600; -589.000; -502.000
237.379;  141.900;  352.000;  428.000
237.522; -226.200; -879.000; -768.000
237.666;  -45.900; -271.000;   18.000
237.809; -248.100; -851.000; -823.000
237.952;  100.500;  469.000;  271.000
238.095; -102.200; -447.000; -442.000
238.238;  192.000;  688.000;  700.000
238.382;   -1.200;  166.000;  103.000
238.525; -134.800; -598.000; -511.000
238.668; -291.100;-1060.000; -985.000
238.811; -175.600; -638.000; -643.000
238.954; -102.700; -483.000; -334.000
239.097;  202.100;  617.000;  664.000
239.241;   62.100;  394.000;  326.000
239.384;  -48.000; -254.000; -214.000
239.527; -103.400; -424.000; -224.000
239.670; -322.200; -994.000;-1091.000
239.813; -216.500; -696.000; -658.000
239.956;  173.400;  579.000;  473.000
240.099; -209.000; -778.000; -725.000
240.242;  167.800;  428.000;  432.000
240.385;  119.500;  466.000;  450.000
240.528; -113.000; -706.000; -473.000
240.671;   55.400;  189.000;  134.000
240.814;  -76.500; -441.000; -158.000
240.957; -196.500; -767.000; -578.000
241.100; -186.100; -779.000; -755.000
241.243; -291.600;-1234.000; -893.000
241.386; -122.500; -508.000; -379.000
241.529; -174.000; -735.000; -547.000
241.672; -108.600; -566.000; -495.000
241.815; -235.000; -832.000; -808.000
241.958;  -24.200; -125.000; -182.000
242.101; -146.600; -545.000; -390.000
242.244;  -70.200; -270.000; -325.000
242.387;  -81.800; -304.000; -246.000
242.530;  124.900;  470.000;  134.000
242.673;  -63.600; -381.000; -309.000
242.815; -243.300; -925.000; -899.000
242.958; -137.600; -482.000; -381.000
243.101;   50.000;  132.000;  187.000
243.244; -164.700; -564.000; -521.000
243.387;  -71.100; -313.000; -316.000
243.530; -214.800; -657.000; -674.000
243.672;   12.400;   43.000;  -92.000
243.815; -103.500; -355.000; -283.000
243.958;   24.600;   98.000;  -26.000
244.101;    5.800;   59.000;  -16.000
244.243;  -25.700;  -47.000;  101.000
244.386; -211.000; -761.000; -630.000
244.529;  -37.400; -132.000; -139.000
244.672; -306.400;-1154.000; -951.000
244.814; -201.800; -621.000; -794.000
244.957;  -53.800; -380.000; -304.000
245.100; -126.600; -489.000; -489.000
245.242;  -82.100; -387.000; -374.000
245.385;   -7.200;  -59.000;  -39.000
245.528; -223.700; -871.000; -705.000
245.670;  205.700;  612.000;  634.000
245.813; -181.300; -599.000; -547.000
245.956;  -36.700; -324.000; -275.000
246.098; -129.400; -508.000; -650.000
246.241;   13.600;  194.000;   48.000
246.383;  -12.700; -119.000;  -73.000
246.526; -164.500; -454.000; -525.000
246.669; -249.300; -889.000; -780.000
246.811;   37.500;  172.000;   -1.000
246.954; -119.100; -512.000; -426.000
247.096;  -47.600;  -84.000;   -6.000
247.239; -135.300; -482.000; -445.000
247.381; -131.400; -647.000; -488.000
247.524;  177.700;  645.000;  679.000
247.666;  -29.200;   58.000;   11.000
247.809; -244.800; -887.000; -691.000
247.951;  -35.000;  -75.000;  138.000
248.094;  101.300;  432.000;  308.000
248.236; -317.400;-1262.000;-1238.000
248.378;  -11.800; -356.000;  -81.000
248.521;  -29.400; -334.000; -337.000
248.663;  -73.600; -236.000; -267.000
248.806;  -32.000; -300.000; -266.000
248.948; -177.800; -886.000; -763.000
249.090; -118.400; -428.000; -398.000
249.233;  -77.000; -344.000; -381.000
249.375; -116.900; -474.000; -451.000
249.518;  -38.100;  -83.000; -133.000
249.660;   24.100; -103.000;    3.000
249.802; -354.200;-1303.000;-1189.000
249.945; -144.200; -612.000; -540.000
250.087; -218.700; -834.000; -768.000
250.229; -101.300; -362.000; -480.000
250.371; -139.900; -494.000; -439.000
250.514;  -95.300; -310.000; -244.000
250.656; -134.600;   69.000;  102.000
250.798; -204.900; -849.000; -800.000
250.940; -117.700; -322.000; -322.000
251.083;  -27.500; -335.000; -111.000
251.225;  149.000;  338.000;  310.000
251.367;  -65.800; -274.000; -373.000
251.509;  -78.500; -265.000; -210.000
251.651; -198.500; -731.000; -671.000
251.794;  147.300;  538.000;  632.000
251.936; -184.400; -821.000; -747.000
252.078; -145.100; -540.000; -461.000
252.220; -146.800; -645.000; -477.000
252.362;  196.300;  344.000;  462.000
252.504; -153.900; -677.000; -584.000
252.646; -224.600; -875.000; -722.000
252.788;    0.100;   14.000; -128.000
252.931;  -76.600; -257.000; -253.000
253.073;  -87.900; -376.000; -317.000
253.215;   10.900;  141.000;  122.000
253.357;  -10.500;   82.000; -153.000
253.499;  -65.200; -374.000; -234.000
253.641; -163.400; -749.000; -594.000
253.783; -188.000; -609.000; -527.000
253.925; -166.000; -586.000; -591.000
254.067; -224.100; -744.000; -667.000
254.209;  -52.100; -391.000; -259.000
254.351; -284.200; -865.000; -883.000
254.493; -124.500; -441.000; -417.000
254.635; -193.300; -936.000; -818.000
254.777; -173.500; -752.000; -687.000
254.918; -148.000; -512.000; -430.000
255.060; -114.900; -551.000; -395.000
255.202; -100.900; -473.000; -261.000
255.344; -135.100; -658.000; -455.000
255.486; -137.000; -471.000; -406.000
255.628; -222.200; -780.000; -781.000
255.770; -164.700; -676.000; -536.000
255.912; -123.200; -559.000; -468.000
256.053; -176.400; -730.000; -508.000
256.195;  347.500; 1008.000;  903.000
256.337; -180.500; -861.000; -595.000
256.479;  147.100;  532.000;  416.000
256.621;  -93.000; -394.000; -212.000
256.762; -166.300; -789.000; -742.000
256.904;  135.000;  485.000;  487.000
257.046;  -66.000; -381.000; -271.000
257.188;  -93.800; -351.000; -264.000
257.329; -142.500; -525.000; -464.000
257.471; -240.100; -939.000; -807.000
257.613; -131.000; -584.000; -498.000
257.755; -294.700;-1073.000; -982.000
257.896;   77.300;  286.000;  392.000
258.038; -120.200; -403.000; -352.000
258.180;  -82.800; -354.000; -279.000
258.321; -158.100; -581.000; -457.000
258.463;    1.900;  -71.000;  133.000
258.605; -161.000; -562.000; -570.000
258.746; -201.300; -886.000; -772.000
258.888; -300.500;-1026.000;-1020.000
259.029;   68.600;  121.000;   -8.000
259.171; -156.100; -614.000; -550.000
259.313;   12.800;  -49.000;  -47.000
259.454; -137.200; -536.000; -414.000
259.596; -110.300; -483.000; -390.000
259.737; -116.200; -590.000; -474.000
259.879;   84.400;  217.000;  311.000
260.020;  202.800;  901.000;  636.000
260.162;  -35.600; -146.000; -253.000
260.303; -234.000; -768.000; -687.000
260.445; -164.300; -609.000; -613.000
260.586;   62.800;  392.000;  157.000
260.728;  -56.800; -360.000; -248.000
260.869; -126.900; -350.000; -343.000
261.011;  230.200;  706.000;  537.000
261.152;  -87.900; -479.000; -319.000
261.293; -147.900; -576.000; -595.000
261.435;  -35.900; -219.000; -184.000
261.576;  -94.300; -455.000; -325.000
261.718;  122.700;  420.000;  470.000
261.859; -231.000; -940.000; -949.000
262.000; -256.500; -951.000;-1016.000
262.142;  -14.200;  -52.000;  -60.000
262.283; -210.100; -808.000; -691.000
262.424; -156.700; -666.000; -625.000
262.566; -287.500;-1161.000; -983.000
262.707; -221.000; -840.000; -830.000
262.848; -254.100; -769.000; -726.000
262.990;  -94.000; -362.000; -345.000
263.131;  182.000;  650.000;  681.000
263.272;  -20.200;  -61.000;  -41.000
263.413; -170.100; -589.000; -561.000
263.555; -152.500; -669.000; -143.000
263.696; -165.300; -550.000; -641.000
263.837; -115.000; -449.000; -551.000
263.978;   13.900;   -5.000;  -77.000
264.119;  -65.400; -283.000; -264.000
264.261; -224.200; -847.000; -630.000
264.402;   21.400;   33.000;   40.000
264.543; -126.000; -509.000; -524.000
264.684;    6.400;   61.000;  -50.000
264.825; -131.100; -816.000; -538.000
264.966;   54.500;  -84.000;  -67.000
265.107; -230.500; -646.000; -670.000
265.248; -229.100; -825.000; -812.000
265.390;   36.800;  152.000;   -9.000
265.531;  -38.200; -238.000; -107.000
265.672; -175.200; -557.000; -630.000
265.813;  164.900;  563.000;  439.000
265.954; -295.100; -959.000; -940.000
266.095;    4.900; -372.000; -322.000
266.236; -213.900; -686.000; -548.000
266.377;  -66.500; -243.000; -297.000
266.518; -132.200; -619.000; -547.000
266.659;   91.700;  170.000;  268.000
266.800;   41.600;   83.000;   85.000
266.941; -129.900; -487.000; -478.000
267.082;   62.700;  354.000;   99.000
267.223;  -74.100; -344.000; -273.000
267.364; -227.100; -892.000; -686.000
267.504;   28.700;    3.000;  135.000
267.645;   30.700;  160.000;   67.000
267.786;  -30.600; -147.000;  -86.000
267.927;  -91.800; -473.000; -379.000
268.068;   37.300; -186.000;  -61.000
268.209;  -67.200; -175.000; -413.000
268.350; -104.800; -388.000; -532.000
268.490; -133.000; -648.000; -521.000
268.631;  108.100;  127.000;  225.000
268.772; -230.000; -874.000; -647.000
268.913;  -95.500; -328.000; -476.000
269.054;  -25.400; -117.000;   12.000
269.194;  -80.500; -418.000; -402.000
269.335; -309.900;-1137.000;-1074.000
269.476;  -15.200;   33.000;  -35.000
269.617;  -80.600; -347.000; -392.000
269.757; -154.800; -713.000; -646.000
269.898; -225.200; -856.000; -613.000
270.039;  -79.700; -415.000; -405.000
270.180; -244.900; -952.000; -816.000
270.320;  -24.100; -190.000; -250.000
270.461;  -60.300; -277.000; -249.000
270.602;  -18.800; -186.000; -156.000
270.742; -244.500; -868.000; -943.000
270.883;  -75.900; -442.000; -390.000
271.023; -100.200; -358.000; -357.000
271.164; -155.600; -607.000; -528.000
271.305; -187.500; -666.000; -654.000
271.445; -151.600; -722.000; -683.000
271.586; -134.800; -462.000; -283.000
271.726;  -84.700; -397.000; -322.000
271.867; -135.100; -594.000; -534.000
272.008;  370.300; -473.000; -285.000
272.148;  271.600;  462.000;  468.000
272.289;   54.300; -113.000; -181.000
272.429;   55.300;   19.000;  185.000
272.570; -168.600; -633.000; -737.000
272.710; -171.600; -825.000; -775.000
272.851;  -14.300;  113.000; -130.000
272.991; -307.700;-1173.000;-1077.000
273.131; -120.300; -419.000; -459.000
273.272; -158.000; -683.000; -723.000
273.412;    9.100; -143.000;  -31.000
273.553;  -92.900; -488.000; -507.000
273.693;  301.100;  913.000;  858.000
273.834; -160.900; -894.000; -692.000
273.974; -119.000; -664.000; -615.000
274.114; -165.300; -772.000; -560.000
274.255;  167.100;  414.000;  373.000
274.395;   41.300; -180.000; -125.000
274.535;  127.800;  199.000;  350.000
274.676;   77.500;  225.000;   94.000
274.816;   64.000;  110.000;   34.000
274.956; -136.800; -624.000; -690.000
275.097; -119.900;-1014.000; -922.000
275.237; -216.400; -913.000; -803.000
275.377; -185.200; -778.000; -689.000
275.517; -271.100; -878.000; -937.000
275.658;  -87.200; -590.000; -555.000
275.798;  -99.200; -606.000; -413.000
275.938;   49.800;  215.000;  323.000
276.078; -141.800; -626.000; -395.000
276.218;   67.700;   99.000;  104.000
276.359; -254.200;-1026.000;-1024.000
276.499; -133.400; -605.000; -446.000
276.639;  -40.500; -305.000; -151.000
276.779;  -82.500; -475.000; -357.000
276.919; -199.100; -783.000; -624.000
277.059;  -14.500; -261.000; -212.000
277.199;  -66.900; -357.000; -259.000
277.340;  135.000;  287.000;  175.000
277.480; -191.400; -840.000; -693.000
277.620;   84.900;  192.000;   16.000
277.760; -384.900;-1533.000;-1294.000
277.900;   82.500;  113.000;   33.000
278.040;   55.900;  137.000;  159.000
278.180;  109.600;  270.000;  170.000
278.320;   -6.300;   21.000;   56.000
278.460; -115.200; -443.000; -469.000
278.600; -130.500; -708.000; -598.000
278.740;  136.600;  448.000;  224.000
278.880; -106.100; -768.000; -791.000
279.020;   59.100; -194.000; -144.000
279.160; -157.900; -672.000; -595.000
279.300; -203.500; -926.000; -873.000
279.440; -172.900; -709.000; -622.000
279.579;  -92.800;-1014.000; -929.000
279.719;  -76.700; -410.000; -394.000
279.859;  146.500;   -4.000;   41.000
279.999;   79.400; -208.000;  101.000
280.139;  -35.400; -435.000; -387.000
280.279; -112.900; -708.000; -745.000
280.419;    3.700; -229.000; -147.000
280.559;  -60.200; -259.000; -180.000
280.698; -163.600; -790.000; -639.000
280.838; -184.000; -778.000; -800.000
280.978; -160.900; -846.000; -790.000
281.118; -205.900; -811.000; -704.000
281.257;   68.100;   24.000;    6.000
281.397; -213.500;-1094.000; -960.000
281.537; -125.900; -599.000; -712.000
281.677;   -3.600; -150.000; -101.000
281.816; -136.900; -700.000; -630.000
281.956;    4.600; -193.000; -257.000
282.096; -104.200; -539.000; -396.000
282.235; -183.000; -672.000; -638.000
282.375;  -11.200; -243.000;  -98.000
282.515; -174.900; -715.000; -707.000
282.654;   71.500;   29.000;  106.000
282.794;  117.900;  388.000;  244.000
282.934;  -45.800; -530.000; -491.000
283.073; -236.700;-1030.000; -857.000
283.213;  -63.500; -460.000; -467.000
283.353;  -58.700; -408.000; -349.000
283.492;   -4.300; -264.000; -296.000
283.632;  -43.100; -254.000; -168.000
283.771; -161.300; -859.000; -730.000
283.911;  -99.800; -369.000; -260.000
284.050; -191.700; -794.000; -748.000
284.190; -285.000;-1229.000;-1096.000
284.329; -261.100;-1055.000; -964.000
284.469; -117.500; -516.000; -591.000
284.608;  -71.000; -559.000; -598.000
284.748; -174.000; -614.000; -570.000
284.887;   10.600;  -87.000;  -20.000
285.027; -228.600; -844.000; -892.000
285.166;  -35.400; -192.000; -249.000
285.306;   60.400; -116.000;  -33.000
285.445;  -20.800; -229.000; -343.000
285.584; -140.400; -630.000; -494.000
285.724;  -67.300; -282.000; -322.000
285.863; -165.400; -857.000; -507.000
286.002;  -50.500; -366.000; -276.000
286.142; -185.900; -715.000; -622.000
286.281; -103.400; -525.000; -493.000
286.420; -128.000; -554.000; -417.000
286.560;  257.600;  653.000;  623.000
286.699; -234.100; -958.000; -912.000
286.838; -151.400; -590.000; -591.000
286.978; -153.400; -533.000; -537.000
287.117; -257.800;-1085.000; -950.000
287.256;  -57.200; -228.000; -211.000
287.395;  -52.300; -197.000; -378.000
287.535;  -55.100; -370.000; -298.000
287.674; -127.600; -509.000; -484.000
287.813;  179.000;  661.000;  533.000
287.952; -233.100;-1010.000; -871.000
288.091; -252.300;-1049.000; -915.000
288.231;   69.600;   13.000;   15.000
288.370; -295.300;-1217.000;-1200.000
288.509; -141.200; -728.000; -645.000
288.648; -157.900; -770.000; -548.000
288.787;  -20.100; -243.000;  -87.000
288.926;  -80.500; -454.000; -475.000
289.065;  293.100;  859.000;  672.000
289.204;  -60.700; -377.000; -217.000
289.344; -142.000; -791.000; -690.000
289.483;  113.800;  416.000;  304.000
289.622;  -13.300; -291.000; -149.000
289.761;   27.600; -309.000; -166.000
289.900; -179.400; -785.000; -626.000
290.039;    9.500;  -12.000;  -95.000
290.178;  -33.500; -274.000; -180.000
290.317; -106.300; -618.000; -479.000
290.456;  -99.500; -463.000; -451.000
290.595; -247.600; -961.000; -833.000
290.734; -237.800; -904.000; -891.000
290.873; -116.200; -456.000; -420.000
291.011; -163.000; -833.000; -843.000
291.150; -157.800; -770.000; -682.000
291.289;  -14.000; -343.000; -110.000
291.428; -150.500; -599.000; -480.000
291.567;  -87.500; -370.000; -442.000
291.706;   45.600;  109.000;  154.000
291.845; -135.600; -597.000; -505.000
291.984; -324.000;-1234.000;-1061.000
292.122;  177.400;  602.000;  582.000
292.261;  150.900;  620.000;  463.000
292.400;   29.100; -144.000;  211.000
292.539; -185.400; -959.000; -813.000
292.678;  -10.200; -325.000; -300.000
292.816; -309.300;-1136.000; -965.000
292.955; -128.000; -844.000; -684.000
293.094;  -11.500; -173.000; -337.000
293.233;  -83.100; -556.000; -400.000
293.371;  -27.800; -225.000;  -84.000
293.510; -186.000; -866.000; -780.000
293.649; -230.600; -959.000; -924.000
293.787;  -79.900;-1083.000;-1012.000
293.926;   31.400; -113.000;  -32.000
294.065;  -51.200; -379.000; -290.000
294.203;  136.300;  298.000;  406.000
294.342;  113.400;   74.000;  156.000
294.481;12635.800;51180.000; -836.000
294.619;  -22.300; -425.000; -582.000
294.758; -248.700;-1230.000;-1137.000
294.896;  233.100; -125.000;    5.000
295.035; -234.000;-1040.000;-1006.000
295.174; -213.200;-1082.000; -954.000
295.312;  -24.200; -323.000; -203.000
295.451;   13.100; -307.000; -428.000
295.589;  -41.700; -389.000; -518.000
295.728;   76.100; -292.000; -165.000
295.866;   63.300;  -36.000;  -51.000
296.005; -103.600; -584.000; -341.000
296.143; -108.000; -558.000; -596.000
296.282; -199.000; -957.000; -881.000
296.420; -129.500; -657.000; -557.000
296.559; -119.700; -892.000; -633.000
296.697;   76.600; -847.000; -665.000
296.835;  189.700;-1141.000;-1002.000
296.974;  126.300;  -23.000;   39.000
297.112;   61.000; -443.000; -504.000
297.251; -112.500; -815.000; -755.000
297.389;  256.800; -576.000; -438.000
297.527;  127.500; -145.000;  -83.000
297.666;  -51.400; -486.000; -438.000
297.804;  -40.800; -404.000; -264.000
297.942;   59.100; -136.000; -161.000
298.081;   54.400; -183.000;   63.000
298.219;  185.900;  -17.000;  -19.000
298.357;  137.200; -144.000;  -71.000
298.495;  102.100; -810.000; -812.000
298.634;  235.000;  245.000;  219.000
298.772;  168.300; -220.000; -338.000
298.910;  -25.900; -309.000; -182.000
299.048;   11.900; -130.000; -153.000
299.187;  -39.000; -350.000; -250.000
299.325;   72.500;   52.000;  122.000
299.463;  143.600; -389.000; -299.000
299.601;  283.300; -327.000; -271.000
299.739; -186.700; -908.000; -883.000
299.877; -117.600; -791.000; -703.000
300.016;  -79.700;-1095.000; -935.000
300.154;  393.600;  -19.000; -161.000
300.292;  149.900; -428.000; -348.000
300.430;  127.900; -408.000; -291.000
300.568; -155.200; -940.000; -874.000
300.706;  -35.700; -366.000; -469.000
300.844; -125.300;-1108.000; -979.000
300.982;  260.400;  246.000;  282.000
301.120; -183.300; -965.000; -866.000
301.258; -117.900; -812.000; -705.000
301.396;  118.200;  104.000;  -41.000
301.534;  244.700; -218.000; -293.000
301.672;   29.200; -664.000; -521.000
301.810;  118.700; -613.000; -545.000
301.948;  337.700;   53.000;  149.000
302.086; 1218.900; -250.000;  -32.000
302.224; 1974.000; -610.000; -585.000
302.362;  108.200; -558.000; -622.000
302.500;   30.200; -923.000; -893.000
302.638;  270.900;  128.000;  245.000
302.776;   52.500; -352.000; -408.000
302.913;  137.400;  447.000;  236.000
303.051;   70.700;  -86.000;  -23.000
303.189;  164.700;   90.000;  118.000
303.327;  -26.400; -341.000; -256.000
303.465; -140.600; -832.000; -588.000
303.603; -153.500; -805.000; -604.000
303.740;  252.800;  417.000;  241.000
303.878;   95.100; -800.000; -759.000
304.016; -146.400; -915.000; -790.000
304.154; -224.500;-1123.000;-1152.000
304.291;   -9.200; -505.000; -554.000
304.429;   33.900;  102.000;   74.000
304.567; -218.800; -908.000; -893.000
304.705;  -64.400; -408.000; -515.000
304.842;  222.900; -616.000; -540.000
304.980;  162.900;  215.000;   35.000
305.118;  137.700; -367.000; -365.000
305.255;  -68.600; -945.000; -927.000
305.393;  167.300;  178.000;  239.000
305.531; -171.400;-1173.000; -956.000
305.668; -103.100; -663.000; -582.000
305.806;  179.800; -358.000; -439.000
305.943;  249.400; -629.000; -637.000
306.081;  131.700; -378.000; -267.000
306.219; -164.600; -863.000; -748.000
306.356;   41.300;  158.000;   27.000
306.494;  309.900;  981.000;  761.000
306.631;   55.700;  -11.000;  -55.000
306.769;   74.200; -613.000; -485.000
306.906;   42.400; -284.000; -258.000
307.044;  -35.900; -473.000; -488.000
307.181;  -45.800; -410.000; -332.000
307.319;   62.100;  112.000;   87.000
307.456; -305.600;-1191.000;-1153.000
307.594; -152.100; -980.000; -727.000
307.731;   31.300; -371.000; -164.000
307.868;   96.400;  -15.000;   20.000
308.006; -211.400; -961.000; -847.000
308.143;  -78.500; -618.000; -330.000
308.281;  474.400;  -37.000; -254.000
308.418;   74.200; -748.000; -640.000
308.555;  -85.200; -400.000; -250.000
308.693; -101.700; -577.000; -573.000
308.830; -172.400; -712.000; -657.000
308.967;   33.200; -215.000;  -95.000
309.105;    2.300; -507.000; -396.000
309.242;  191.400; -468.000; -367.000
309.379;  990.800; -577.000; -655.000
309.517;  -17.800; -936.000; -948.000
309.654; -125.400; -910.000; -734.000
309.791;  -78.900; -662.000; -580.000
309.928; -167.200; -977.000; -914.000
310.065;  441.200;  819.000;  697.000
310.203;   58.300; -825.000; -850.000
310.340;   86.100; -465.000; -321.000
310.477; -102.600; -412.000; -516.000
310.614;  -47.300; -383.000; -473.000
310.751;  -87.100; -427.000; -518.000
310.889;   39.400;    1.000;   11.000
311.026; -242.000;-1161.000; -939.000
311.163;  -19.800; -386.000; -380.000
311.300;  -90.300; -512.000; -479.000
311.437;  -59.800; -658.000; -619.000
311.574; -266.600;-1226.000; -985.000
311.711;  -64.100; -595.000; -433.000
311.848;  -18.300; -380.000; -388.000
311.985;  107.200;  270.000;   93.000
312.122; -180.100; -932.000; -762.000
312.259; -182.400; -941.000; -994.000
312.396;  -83.500; -508.000; -551.000
312.533; -105.100; -812.000; -790.000
312.670; -223.500;-1070.000; -898.000
312.807;    1.700; -352.000; -367.000
312.944; -103.900; -513.000; -611.000
313.081;   13.000; -150.000; -415.000
313.218; -159.900;-1111.000; -867.000
313.355;   66.500; -531.000; -449.000
313.492;   69.300; -455.000; -292.000
313.629;  388.800;  815.000;  735.000
313.766; -238.300;-1176.000;-1008.000
313.902;   61.400; -186.000;   21.000
314.039;  -32.800; -372.000; -289.000
314.176;  126.300;  286.000;  192.000
314.313; -118.200; -569.000; -473.000
314.450;  -87.600; -788.000; -684.000
314.587;  -68.700; -468.000; -480.000
314.723;   76.800;  -78.000;  130.000
314.860;  168.400;  318.000;  332.000
314.997;  141.800;  223.000;  142.000
315.134;   -3.700; -385.000; -368.000
315.270;   22.700; -480.000; -496.000
315.407; -181.000;-1094.000; -967.000
315.544;  -64.800; -657.000; -538.000
315.681;  -97.000; -681.000; -565.000
315.817;  139.800; -133.000; -176.000
315.954;   71.300; -613.000; -392.000
316.091; -218.700;-1045.000;-1023.000
316.227;    6.900;  -71.000; -179.000
316.364;   62.000;   23.000;    6.000
316.500;  -25.600; -113.000; -300.000
316.637;  -22.300; -181.000; -302.000
316.774; -122.100; -625.000; -358.000
316.910; -141.300; -598.000; -629.000
317.047; -103.900; -487.000; -351.000
317.183;  -47.200; -435.000; -566.000
317.320;  -27.100; -367.000; -321.000
317.456;  -89.200; -733.000; -805.000
317.593; -158.300; -598.000; -641.000
317.729;   50.400;  168.000;  -67.000
317.866; -363.500;-1434.000;-1285.000
318.002; -118.100; -708.000; -948.000
318.139; -161.000; -883.000; -867.000
318.275; -157.500;-1003.000; -738.000
318.412;  -71.300; -517.000; -336.000
318.548;  -13.500; -751.000; -720.000
318.685; -163.600; -985.000; -888.000
318.821; -130.200; -762.000; -735.000
318.957;   49.200;   34.000;  -23.000
319.094;  108.100;  297.000;  154.000
319.230;  -58.800; -756.000; -742.000
319.367;  310.300; -471.000; -520.000
319.503;  168.000; -538.000; -436.000
319.639; -125.400; -877.000; -793.000
319.775; -104.800; -750.000; -685.000
319.912;  -54.700; -424.000; -519.000
320.048; -168.700;-1184.000;-1184.000
320.184;  167.300;   59.000;   70.000
320.321;  -78.100; -497.000; -467.000
320.457;  166.300;  475.000;  662.000
320.593;  -68.400; -375.000; -382.000
320.729; -191.500; -732.000; -734.000
320.866; -116.400; -577.000; -635.000
321.002;  -86.600; -759.000; -809.000
321.138;   27.500; -135.000; -211.000
321.274;  187.600; -148.000; -115.000
321.410;   21.900; -585.000; -353.000
321.546;    8.700;-1011.000; -911.000
321.683;  171.000;  400.000;  185.000
321.819;   87.100;  -48.000; -117.000
321.955; -185.400; -743.000; -722.000
322.091;  -37.300; -585.000; -540.000
322.227;   41.700; -382.000; -202.000
322.363;   18.900; -320.000; -215.000
322.499;  -52.200; -343.000; -331.000
322.635;  384.400;  636.000;  443.000
322.771;  106.000; -139.000;   12.000
322.907;  253.100;  129.000;  327.000
323.043;   19.200; -115.000; -206.000
323.179;  -26.700; -394.000; -363.000
323.315;  120.300; -401.000; -371.000
323.451;  267.000; -328.000; -236.000
323.587;  210.800;  -60.000;  -77.000
323.723;   71.600; -682.000; -601.000
323.859;   13.600; -258.000;  -76.000
323.995;  -23.400; -467.000; -409.000
324.131; -193.100; -967.000; -892.000
324.267;  -12.200; -254.000; -276.000
324.402; -212.000; -960.000; -983.000
324.538;   26.600; -279.000; -104.000
324.674;  101.700;  164.000;   77.000
324.810;  418.000;  226.000;  308.000
324.946;  130.000; -810.000; -658.000
325.082;  -75.900; -568.000; -475.000
325.217;   50.100;  -62.000;   16.000
325.353; -164.700; -764.000; -659.000
325.489; -104.600; -540.000; -506.000
325.625;  -91.900; -579.000; -525.000
325.760;  133.000;  517.000;  376.000
325.896;  -58.500; -515.000; -702.000
326.032;  -51.900; -403.000; -352.000
326.168;  -76.700; -462.000; -369.000
326.303;  -58.900; -352.000; -461.000
326.439;   17.800; -336.000; -276.000
326.575;   76.800; -190.000;  -29.000
326.710;   -2.100; -156.000;  -30.000
326.846;   40.900;  146.000;  103.000
326.982; -113.800; -530.000; -548.000
327.117;  -82.200; -481.000; -442.000
327.253; -120.000; -745.000; -742.000
327.388; -277.300;-1137.000;-1153.000
327.524;  -17.700; -811.000; -578.000
327.659;   20.600;  -58.000;  -22.000
327.795;   42.000;   69.000;   45.000
327.931; -130.700; -723.000; -499.000
328.066;   22.200; -417.000; -276.000
328.202;   32.000;   12.000; -129.000
328.337;  283.100;  957.000;  713.000
328.473;   25.800;  -12.000;  -74.000
328.608;   10.400; -256.000; -267.000
328.743; -144.000; -799.000; -664.000
328.879;  141.100;  214.000;  114.000
329.014;  -89.300; -102.000; -122.000
329.150; -118.300; -358.000; -483.000
329.285; -110.100; -465.000; -466.000
329.421;  -42.900; -548.000; -246.000
329.556;  -11.400;  -36.000;   85.000
329.691; -157.200; -633.000; -615.000
329.827; -124.400; -626.000; -480.000
329.962;   -8.400;  131.000; -301.000
330.097;  -99.400; -673.000; -585.000
330.233;  -13.900; -410.000; -223.000
330.368; -195.400; -839.000; -628.000
330.503;   56.100;    3.000;   98.000
330.638;   77.900;  -93.000; -125.000
330.774;  -53.100; -609.000; -530.000
330.909;  -35.300; -434.000; -244.000
331.044; -143.600; -714.000; -708.000
331.179; -296.900;-1217.000;-1109.000
331.315;   80.800;   77.000;   20.000
331.450;   81.700;  157.000;  285.000
331.585; -119.800; -805.000; -706.000
331.720; -123.400; -510.000; -460.000
331.855;   47.100;  -35.000; -102.000
331.990;  408.400;   62.000;  138.000
332.126;  248.500; -110.000;   71.000
332.261;  -17.100; -379.000; -265.000
332.396;   34.800; -135.000; -242.000
332.531; -170.000;-1074.000;-1031.000
332.666;   69.100; -519.000; -363.000
332.801; -156.800; -726.000; -807.000
332.936;   22.200; -192.000; -122.000
333.071; -257.300; -870.000; -817.000
333.206;  109.900;  307.000;  379.000
333.341;  150.900;  344.000;  418.000
333.476; -121.500; -627.000; -623.000
333.611;    6.700; -251.000; -173.000
333.746;  -45.100; -381.000; -464.000
333.881; -125.500; -973.000; -935.000
334.016; -202.700; -936.000; -917.000
334.151; -211.700; -746.000; -702.000
334.286;   93.700;  152.000;  186.000
334.421;    8.400; -125.000; -178.000
334.556; -136.700; -611.000; -567.000
334.690; -124.700; -631.000; -577.000
334.825;  170.800;  381.000;   83.000
334.960;  -73.500; -285.000; -413.000
335.095;   86.300;  135.000;  -91.000
335.230; -139.100; -722.000; -738.000
335.365; -238.200;-1084.000; -990.000
335.499; -202.800;-1108.000;-1037.000
335.634;  128.000;    9.000;  534.000
335.769; -132.900; -755.000; -720.000
335.904;  -37.600; -603.000; -561.000
336.038;  -22.700; -735.000; -657.000
336.173; -138.500;-1206.000;-1194.000
336.308;  119.600; -116.000; -189.000
336.443;  111.800; -544.000; -634.000
336.577;  -94.500; -936.000; -787.000
336.712;  202.600;   -4.000;  -12.000
336.847;   -9.300; -724.000; -607.000
336.981;  203.400; -272.000; -208.000
337.116;  684.700;  615.000;  501.000
337.250;  428.000; -434.000; -421.000
337.385;  430.400; -297.000; -208.000
337.520;  130.000; -632.000; -603.000
337.654;  -41.500; -215.000; -126.000
337.789; -226.800; -989.000; -933.000
337.923;   12.300; -104.000; -205.000
338.058; -120.400; -673.000; -738.000
338.192;    2.800; -611.000; -488.000
338.327;   61.300;  -18.000; -155.000
338.461;  -73.400; -299.000; -469.000
338.596; -113.100; -780.000; -638.000
338.730; -164.600; -767.000; -803.000
338.865;  171.200;  -46.000; -140.000
338.999;  -67.200; -846.000; -702.000
339.134;  -22.200; -634.000; -536.000
339.268;   74.700; -741.000; -603.000
339.403;  630.500; -740.000; -775.000
339.537;  189.300; -894.000; -820.000
339.671; -172.600; -829.000; -813.000
339.806; -102.000; -556.000; -512.000
339.940;   78.100; -261.000; -235.000
340.074; -165.400; -685.000; -510.000
340.209;  -36.900; -351.000; -230.000
340.343; -138.700; -517.000; -573.000
340.477;  386.500;  998.000; 1036.000
340.612; -102.400;-1033.000; -900.000
340.746;  248.000; -199.000; -243.000
340.880; -109.000; -924.000; -785.000
341.014;   19.700;  -45.000; -154.000
341.149; -186.500; -756.000; -718.000
341.283; -172.400; -839.000; -754.000
341.417; -102.700;-1124.000; -938.000
341.551;  352.100; -768.000; -708.000
341.685;    1.800; -633.000; -611.000
341.820;  -76.800; -562.000; -493.000
341.954;  -54.000; -218.000; -349.000
342.088; -253.200;-1102.000;-1019.000
342.222;  122.800;  565.000;  618.000
342.356;  -61.500; -395.000; -335.000
342.490; -127.800; -880.000; -841.000
342.624;  -10.700; -339.000; -242.000
342.758;   84.000; -364.000; -312.000
342.892;  -52.600; -710.000; -585.000
343.026;  -19.900;  -58.000; -116.000
343.160;  -59.700; -426.000; -376.000
343.294; -115.700; -474.000; -337.000
343.428;   21.300; -488.000; -448.000
343.562;   47.600; -172.000;  -23.000
343.696;   18.700; -385.000; -314.000
343.830;   45.600; -362.000; -356.000
343.964;   91.100; -231.000; -168.000
344.098; 1934.600;  199.000;   70.000
344.232; 1646.800; -266.000; -127.000
344.366;  176.500; -567.000; -453.000
344.500;  175.800; -665.000; -744.000
344.634;  128.500; -324.000; -164.000
344.768;   43.300; -531.000; -341.000
344.902;   85.400;  278.000;  256.000
345.035; -102.800; -556.000; -496.000
345.169; -216.500; -933.000; -656.000
345.303;   -7.100; -308.000; -482.000
345.437;  -79.900; -826.000; -717.000
345.571; -118.700; -675.000; -594.000
345.704;  -46.800; -309.000; -532.000
345.838;   29.800; -331.000; -284.000
345.972;   12.300; -543.000; -495.000
346.106;  334.900; -179.000; -190.000
346.239;  800.000; -312.000; -243.000
346.373;   61.200; -343.000; -302.000
346.507; -222.600; -950.000; -962.000
346.640;  396.600;  -30.000;   13.000
346.774;  -34.600; -650.000; -797.000
346.908;   18.500; -138.000;  -11.000
347.041; -132.600; -646.000; -593.000
347.175;   77.800;  259.000;   27.000
347.309;  -57.900; -698.000; -628.000
347.442; -143.600; -883.000; -732.000
347.576;  674.200;  670.000;  668.000
347.709;  494.400; -123.000;  -52.000
347.843; -111.100; -933.000; -825.000
347.976;  165.700;  235.000;  294.000
348.110; -328.700;-1268.000;-1186.000
348.243; -180.300; -679.000; -772.000
348.377;   46.000;  -26.000;   60.000
348.510;  163.400;  403.000;  540.000
348.644;  -10.600;  -37.000; -159.000
348.777;  115.100;  180.000;  191.000
348.911;  -32.900; -142.000; -112.000
349.044;  439.300;  471.000;  448.000
349.178;  345.500;-1069.000;-1006.000
349.311;  270.100;  141.000;  255.000
349.444;  -26.800; -927.000; -813.000
349.578;   39.800; -347.000; -200.000
349.711; -140.900; -959.000; -862.000
349.845;   45.300; -661.000; -591.000
349.978; -267.900;-1224.000;-1137.000
350.111;  -71.400; -546.000; -612.000
350.244;  -92.300; -596.000; -700.000
350.378;   59.800; -392.000; -393.000
350.511;  -76.900; -393.000; -426.000
350.644; -140.300; -808.000; -806.000
350.778;   86.800;  168.000;  104.000
350.911;   87.100;  134.000;  140.000
351.044; -124.400; -685.000; -615.000
351.177;   13.000; -321.000; -281.000
351.310;    9.400;    3.000; -131.000
351.444;  -90.300; -888.000; -788.000
351.577;  347.600;  140.000;   90.000
351.710;  288.900;  593.000;  417.000
351.843;    5.200; -165.000;  -77.000
351.976;   66.500;  149.000;  -79.000
352.109; -122.900; -621.000; -612.000
352.242;   29.800; -464.000; -419.000
352.376;  -64.400; -580.000; -636.000
352.509;  462.300; -437.000; -356.000
352.642;   66.900; -654.000; -604.000
352.775;  190.900; -141.000;  -98.000
352.908; -173.600; -933.000; -904.000
353.041; -158.500; -814.000; -824.000
353.174;  -68.900; -551.000; -424.000
353.307; -110.900; -753.000; -764.000
353.440;  196.000;  541.000;  453.000
353.573; -173.600; -957.000;-1008.000
353.706;  -16.500; -384.000; -558.000
353.839;    6.600; -264.000; -220.000
353.971; -145.200; -657.000; -512.000
354.104; -111.200; -896.000; -835.000
354.237;  -24.000; -627.000; -662.000
354.370; -111.500; -846.000; -879.000
354.503; -321.100;-1231.000;-1308.000
354.636;   31.300; -529.000; -348.000
354.769; -221.200; -937.000; -860.000
354.902;   39.500; -230.000; -139.000
355.034;   28.500; -164.000; -220.000
355.167;   17.400; -262.000; -162.000
355.300; -180.200;-1061.000; -880.000
355.433; 1717.200;  -71.000;  -14.000
355.565; 2545.800; -402.000; -384.000
355.698;  644.500; -356.000; -296.000
355.831;   30.200; -882.000; -801.000
355.964;  277.400; -285.000; -170.000
356.096; -118.900; -856.000; -843.000
356.229;  130.500; -523.000; -530.000
356.362;  583.600; -373.000; -266.000
356.494; 1068.300; -229.000; -162.000
356.627; 1039.900;  269.000;  377.000
356.760; 1202.200;  120.000;   53.000
356.892; 1650.500; -286.000; -601.000
357.025; 1453.900;  403.000;  389.000
357.157; 1369.300; -167.000; -179.000
357.290; 1027.500; -856.000; -713.000
357.423;  373.400; -667.000; -556.000
357.555;  300.500; -217.000; -228.000
357.688;  334.400; -483.000; -364.000
357.820;  836.800; -870.000; -877.000
357.953; 6852.500; -563.000; -589.000
358.085; 1586.000; -632.000; -612.000
358.218; 2751.600;-1131.000; -932.000
358.350;  549.900;  -58.000;  312.000
358.483; -207.300;-1300.000;-1187.000
358.615;   63.700;-1182.000;-1078.000
358.747;  -66.500;-1187.000;-1058.000
358.880;  148.800; -810.000; -744.000
359.012;   41.300; -376.000; -202.000
359.145;   -8.500; -480.000; -511.000
359.277;  148.700; -962.000; -913.000
359.409; 5846.400;  536.000;  231.000
359.542; 1485.500; -738.000; -688.000
359.674;  184.800;   46.000;   13.000
359.806;  -86.300; -565.000; -438.000
359.939;  -42.800; -617.000; -516.000
360.071;  -10.600; -583.000; -579.000
360.203;   10.000; -411.000; -364.000
360.335;  168.000;  164.000;  -16.000
360.468;  413.600; -249.000; -307.000
360.600; 4480.400; -547.000; -454.000
360.732; 4459.200; -546.000; -423.000
360.864;  595.300;-1216.000;-1044.000
360.996;  720.200; -516.000; -554.000
361.129;  161.700; -389.000; -598.000
361.261;  132.600;  110.000; -113.000
361.393;    6.800; -252.000; -214.000
361.525;  125.900;   94.000;  244.000
361.657;  -46.300; -821.000; -703.000
361.789;  154.700; -139.000; -155.000
361.921;  627.300; -642.000; -593.000
362.053;  640.200;  524.000;  541.000
362.185;  172.400;  288.000;   72.000
362.318;  -94.500; -709.000; -705.000
362.450;  372.300;  294.000;  444.000
362.582;  400.300; -913.000; -870.000
362.714;   -0.600; -353.000; -332.000
362.846;  -85.900; -606.000; -490.000
362.978; -232.100; -941.000; -811.000
363.109;  182.100; -161.000; -260.000
363.241;  980.100; -739.000; -749.000
363.373;  814.600; -649.000; -564.000
363.505; 1115.700; -186.000;  -91.000
363.637;  294.400; -787.000; -601.000
363.769; -229.200;-1067.000;-1080.000
363.901;  -83.400; -596.000; -654.000
364.033; -204.600;-1103.000;-1062.000
364.165;   56.700; -283.000; -283.000
364.296;  203.100; -316.000; -177.000
364.428;   94.000;-1344.000;-1220.000
364.560;  -62.400; -679.000; -661.000
364.692;  -95.700; -738.000; -835.000
364.824;  685.300; -588.000; -456.000
364.955;  866.500; -402.000; -564.000
365.087; 1306.200;-1097.000; -852.000
365.219;   61.800; -686.000; -816.000
365.351;  -69.600; -526.000; -572.000
365.482;  218.100;  300.000;  240.000
365.614;  -31.400; -402.000; -314.000
365.746; -154.400; -729.000; -752.000
365.877; -138.900; -706.000; -672.000
366.009;  485.700;  -35.000;  -62.000
366.141; -141.700;-1249.000;-1134.000
366.272; -165.500; -803.000; -719.000
366.404; -174.100;-1005.000; -874.000
366.535;   59.900; -139.000;  -12.000
366.667; -137.100; -644.000; -649.000
366.799;  173.700;  353.000;  203.000
366.930; -148.700; -862.000; -996.000
367.062;  258.700; -639.000; -613.000
367.193;  233.200; -872.000; -842.000
367.325;  -65.400; -580.000; -684.000
367.456;  257.800; -246.000;   31.000
367.588;  328.200; -371.000; -318.000
367.719;  114.800;  -44.000;  -45.000
367.851;   42.500; -222.000; -241.000
367.982;  -18.600; -875.000; -732.000
368.113;  316.700; -475.000; -358.000
368.245; -154.800; -960.000; -841.000
368.376;   60.300; -254.000; -302.000
368.508;  -15.100; -188.000; -263.000
368.639; -208.400;-1166.000;-1034.000
368.770;   31.300; -670.000; -589.000
368.902;  -74.300; -836.000; -926.000
369.033; -138.800; -906.000; -855.000
369.164;  -46.800; -720.000; -653.000
369.296; -137.100; -452.000; -601.000
369.427;   71.200; -209.000; -144.000
369.558;  -25.700; -593.000; -377.000
369.689;  -91.200; -721.000; -569.000
369.821; -216.500; -951.000; -845.000
369.952;   69.800;   42.000; -108.000
370.083;    0.800; -229.000; -108.000
370.214; -108.500; -735.000; -650.000
370.345;   47.800;   65.000;   81.000
370.477; -114.000; -810.000; -790.000
370.608;  596.700; -328.000; -264.000
370.739;  -41.300;-1233.000;-1292.000
370.870;   -9.100;-1102.000; -923.000
371.001;  240.900; -378.000; -467.000
371.132; -102.600; -754.000; -735.000
371.263;   34.700;  -42.000; -148.000
371.394; -227.100; -841.000; -748.000
371.525;  158.600;  345.000;  225.000
371.657; -103.300; -808.000; -670.000
371.788;  228.000;  103.000;  199.000
371.919;  379.300; -384.000; -304.000
372.050; 7375.300;  -91.000; -156.000
372.181; 2122.500; -188.000; -294.000
372.311;  828.400;   42.000; -127.000
372.442;  158.200; -457.000; -451.000
372.573;   47.100; -444.000; -340.000
372.704; -182.000;-1008.000; -980.000
372.835;  251.500; -228.000; -289.000
372.966;  -47.300; -646.000; -554.000
373.097;  -38.600; -575.000; -711.000
373.228;    2.300; -717.000; -542.000
373.359;  357.800; -824.000; -536.000
373.490; 1993.500; -881.000; -727.000
373.620; 2453.300;-1001.000; -803.000
373.751; 3850.400; -332.000; -396.000
373.882; 1628.800; -663.000; -733.000
374.013;  191.000; -449.000; -262.000
374.143;   18.400; -581.000; -659.000
374.274; -128.300; -987.000; -908.000
374.405;  426.400; -388.000; -276.000
374.536; 1016.900; -526.000; -387.000
374.666; 2445.100; -759.000; -807.000
374.797;  526.400; -817.000; -868.000
374.928; 1953.800; -710.000; -560.000
375.058; 1918.200; -535.000; -500.000
375.189;  222.300;  -59.000;  -93.000
375.320; -150.600; -928.000;-1034.000
375.450;   -1.400; -625.000; -616.000
375.581;  -34.900; -526.000; -436.000
375.712;    5.300; -574.000; -250.000
375.842;  731.700; -438.000; -415.000
375.973;  593.800; -554.000; -513.000
376.103;   -2.100; -665.000; -648.000
376.234;  -90.500; -531.000; -552.000
376.364;   29.000; -944.000; -867.000
376.495;  759.000;  925.000;  529.000
376.625;   82.500; -472.000; -485.000
376.756;  175.100; -709.000; -678.000
376.886;  -73.800;-1178.000;-1026.000
377.017;   98.000;-1048.000;-1061.000
377.147;  618.600; -786.000; -782.000
377.278;  196.000;  174.000;  228.000
377.408; -195.200; -801.000; -815.000
377.538; -150.400; -707.000; -693.000
377.669; -105.900; -537.000; -613.000
377.799; -116.500; -645.000; -635.000
377.929;  -29.800; -610.000; -428.000
378.060; -194.300; -781.000; -847.000
378.190;  -42.100; -726.000; -531.000
378.320;  -24.200; -401.000; -406.000
378.451;   42.100; -131.000;  -22.000
378.581;  112.500;  -67.000; -110.000
378.711;  400.600; 1035.000;  866.000
378.841;   49.100; -533.000; -675.000
378.972;  -95.700; -871.000; -751.000
379.102;   76.400; -652.000; -579.000
379.232;   35.500; -126.000;  -73.000
379.362; -132.700;-1001.000; -885.000
379.492;  116.900; -373.000; -424.000
379.623;  272.300;    0.000;  111.000
379.753; -146.100;-1107.000; -974.000
379.883;  482.700;   59.000;  156.000
380.013;   52.400;-1081.000;-1017.000
380.143; -149.400;-1097.000;-1056.000
380.273; -136.700; -985.000; -861.000
380.403;   92.600; -344.000; -257.000
380.533;   43.600; -651.000; -664.000
380.663;  265.700;  173.000;  128.000
380.793; -137.300;-1027.000;-1074.000
380.923;   55.000; -103.000;  -34.000
381.053; -119.900; -613.000; -623.000
381.183;   24.600; -106.000; -248.000
381.313;  166.700; -656.000; -470.000
381.443;  161.800; -692.000; -473.000
381.573;  528.700; -402.000; -409.000
381.703;  761.600;-1249.000;-1095.000
381.833; -152.100;-1454.000;-1336.000
381.963;  308.200; -134.000;  -87.000
382.093; 2861.700; -925.000; -909.000
382.223;  834.000; -713.000; -602.000
382.353;   46.600; -801.000; -608.000
382.482;  892.600;-1091.000; -964.000
382.612; 1621.500; -872.000; -644.000
382.742;  857.200; -695.000; -622.000
382.872;  649.400; -565.000; -551.000
383.002;  212.100;  347.000; -132.000
383.131;   60.100; -226.000; -160.000
383.261;   -8.000; -706.000; -768.000
383.391;  581.900; -552.000; -377.000
383.521; 5169.000;  451.000;  263.000
383.650; 1075.600; -947.000; -904.000
383.780;  -11.800; -783.000; -656.000
383.910;  352.500;  880.000;  802.000
384.039;  138.100; -794.000; -656.000
384.169;  517.600;-1205.000;-1017.000
384.299;   28.100; -650.000; -662.000
384.428; -138.200; -764.000; -680.000
384.558;   35.300; -308.000; -275.000
384.687;   39.200; -414.000; -334.000
384.817;  169.900;   75.000;   -2.000
384.947;  180.000; -234.000; -141.000
385.076;  747.300;  982.000;  912.000
385.206;  309.700;  369.000;  480.000
385.335;   61.700; -549.000; -417.000
385.465;  -56.400; -655.000; -663.000
385.594;  407.600;  -53.000;  -44.000
385.724; 1038.300; -868.000; -838.000
385.853;  335.200; -296.000; -270.000
385.982; 3049.800; -743.000; -787.000
386.112; 4465.400;-1052.000; -871.000
386.241;  379.700; -307.000; -312.000
386.371;  156.700; -174.000;  -87.000
386.500;   56.300; -825.000; -789.000
386.629;   97.700; -874.000; -817.000
386.759;  254.600;  -43.000;   68.000
386.888;  137.100; -170.000; -250.000
387.017;  -25.100; -648.000; -620.000
387.147;  -54.000; -771.000; -798.000
387.276;  130.000; -410.000; -397.000
387.405;  111.900; -398.000; -342.000
387.535;    7.800; -452.000; -361.000
387.664;  -34.300; -692.000; -620.000
387.793;  259.400; -198.000; -113.000
387.922; 1241.100;  255.000;  200.000
388.052;  175.700; -576.000; -423.000
388.181;  238.100; -342.000; -472.000
388.310;  208.200; -889.000; -710.000
388.439;   40.900; -749.000; -742.000
388.568;  482.700;  365.000;  244.000
388.697; 2270.000; -756.000; -653.000
388.826;  510.300; -768.000; -666.000
388.956;  208.300; -285.000; -307.000
389.085;   52.400; -347.000; -287.000
389.214; -164.100; -842.000; -872.000
389.343;  -10.200; -645.000; -413.000
389.472;  781.600;  126.000;  149.000
389.601; 1008.600;   91.000;    0.000
389.730;  110.200; -568.000; -687.000
389.859;  241.300;  226.000;   46.000
389.988;  469.800; -423.000; -408.000
390.117;  382.000; -168.000; -146.000
390.246;   81.600; -331.000; -320.000
390.375;  305.700; -673.000; -626.000
390.504;  -51.700; -703.000; -621.000
390.633; -130.400; -672.000; -726.000
390.761;  -52.100; -732.000; -645.000
390.890;  152.300;   -4.000; -130.000
391.019;   65.100; -421.000; -441.000
391.148; -190.800; -826.000; -855.000
391.277;  -33.800; -576.000; -493.000
391.406;  -51.300; -821.000; -805.000
391.534;  167.200;  574.000; -301.000
391.663;  -55.500; -583.000; -645.000
391.792;  -68.600; -673.000; -701.000
391.921;  308.700;   -3.000;   15.000
392.050;  517.000; -287.000; -228.000
392.178;  -19.200;-1206.000;-1061.000
392.307;  372.600; -758.000; -712.000
392.436;  247.800; -427.000; -641.000
392.564;  136.200;  166.000;   -6.000
392.693; -101.000; -860.000; -682.000
392.822;  522.200; -529.000; -534.000
392.950;  289.300; -880.000; -714.000
393.079;  792.100; -188.000; -328.000
393.208;  115.200; -488.000; -511.000
393.336;   54.700; -170.000; -145.000
393.465;  -19.300; -317.000; -199.000
393.593;   67.200;   62.000;   79.000
393.722; -244.100;-1121.000; -916.000
393.850;   10.700; -188.000;  -61.000
393.979; -249.600; -926.000; -805.000
394.107;  -30.500; -517.000; -537.000
394.236;   55.300; -570.000; -507.000
394.364;  651.200;  383.000;  206.000
394.493; 1038.000; -911.000; -767.000
394.621;   75.700; -955.000; -916.000
394.750; 1312.200; -873.000; -923.000
394.878; 5235.100; -247.000; -149.000
395.007; 6685.500; -721.000; -807.000
395.135;  546.100; -790.000; -721.000
395.263; -167.100;-1038.000;-1040.000
395.392;   95.800;  -25.000; -107.000
395.520; -221.100; -818.000; -679.000
395.648; -123.800; -865.000; -915.000
395.777;   53.000; -366.000; -405.000
395.905;  -11.700; -449.000; -564.000
396.033;  145.500;  217.000;  172.000
396.162; 1702.000; -399.000; -453.000
396.290; 1421.500;  -17.000;   -2.000
396.418;  300.600; -555.000; -514.000
396.546;  -92.900; -571.000; -466.000
396.674; -136.600; -850.000; -878.000
396.803;  111.900;  -72.000;  -23.000
396.931;  298.800; -179.000; -199.000
397.059;  208.300;-1026.000; -989.000
397.187; -156.400;-1026.000; -975.000
397.315; -194.200; -884.000; -649.000
397.443; -127.000; -592.000; -443.000
397.572; -114.500; -578.000; -424.000
397.700;   37.500; -607.000; -614.000
397.828;  112.300;  120.000;  -90.000
397.956;  -44.100; -508.000; -478.000
398.084;  -82.500; -767.000; -626.000
398.212;  189.300;  137.000;  124.000
398.340;  125.500;  -56.000;  159.000
398.468;  149.300; -390.000; -169.000
398.596; -210.300; -993.000; -953.000
398.724; -175.400; -762.000; -767.000
398.852; -279.400;-1024.000; -976.000
398.980;  -56.800; -560.000; -560.000
399.108;  -31.900; -982.000; -735.000
399.236;  168.100;   13.000;    8.000
399.363;  106.600;  222.000;  196.000
399.491;  -73.700; -404.000; -398.000
399.619; -171.200; -829.000; -800.000
399.747; -117.700; -859.000; -771.000
399.875;  240.800;  220.000;  234.000
400.003;  -51.100; -359.000; -284.000
400.130; -137.700; -421.000; -341.000
400.258;   10.300;  -83.000;   38.000
400.386;  -85.600; -352.000; -168.000
400.514;   -0.500; -526.000; -587.000
400.641;  -99.200; -928.000; -802.000
400.769; -238.000; -979.000; -888.000
400.897;  -60.500; -838.000; -793.000
401.025;  115.400; -166.000; -152.000
401.152;   94.500;  220.000;   38.000
401.280;  -95.600; -430.000; -429.000
401.408; -149.700; -712.000; -576.000
401.535; -112.300; -735.000; -758.000
401.663; -341.600;-1134.000;-1054.000
401.790;  -89.700; -514.000; -525.000
401.918;  137.600;  436.000;  405.000
402.046;   47.100;  134.000;  122.000
402.173;   26.300;  -18.000;    7.000
402.301; -102.200; -519.000; -397.000
402.428;  142.000;  528.000;  383.000
402.556; -224.300;-1188.000; -913.000
402.683;   18.400;  -20.000;   -1.000
402.811;   27.100;  -37.000; -206.000
402.938;   40.500;   20.000;   27.000
403.066;  439.300; -574.000; -558.000
403.193;  697.000;  299.000;  239.000
403.321;  557.000; -396.000; -574.000
403.448;  699.800;   83.000;   27.000
403.575;  329.000;  -90.000;  -46.000
403.703; -128.500; -732.000; -557.000
403.830;  -66.800; -531.000; -496.000
403.957; -223.800;-1117.000;-1023.000
404.085;  123.700;  -61.000; -172.000
404.212;  278.000;  -50.000;   63.000
404.339;  548.800; -566.000; -306.000
404.467;10220.500; -612.000; -524.000
404.594; 6720.600; -287.000; -227.000
404.721; 1678.400; -869.000; -764.000
404.848;  244.500; -113.000; -202.000
404.976; -166.500; -856.000; -783.000
405.103;   56.400;  -14.000;  -82.000
405.230;   62.600;  190.000;  226.000
405.357;  173.200;  117.000;   44.000
405.484;  555.300;  -49.000;    5.000
405.612;  136.500; -548.000; -563.000
405.739;  -77.900; -488.000; -243.000
405.866;  286.300;  669.000;  385.000
405.993;  -12.600; -398.000; -102.000
406.120; -201.700; -801.000; -887.000
406.247;  -18.200; -323.000; -342.000
406.374; 1100.400;  540.000;  629.000
406.501;  332.600; -632.000; -702.000
406.628;  -93.200; -621.000; -589.000
406.755; -118.700; -803.000; -620.000
406.882;   -4.600; -228.000; -277.000
407.009; -150.900; -719.000; -628.000
407.136;  218.200; -480.000; -401.000
407.263;  409.300; -939.000; -829.000
407.390;  -61.800; -692.000; -614.000
407.517; -256.100;-1139.000;-1187.000
407.644;  -45.000; -332.000; -256.000
407.771;  -60.400; -249.000; -287.000
407.898;  118.000;  168.000;  328.000
408.025;  -32.800; -421.000; -313.000
408.151;   64.900;   82.000;  153.000
408.278;  -63.800; -267.000; -216.000
408.405; -167.900; -931.000; -899.000
408.532;  -70.800; -549.000; -542.000
408.659; -151.600; -677.000; -648.000
408.785; -324.200;-1298.000;-1170.000
408.912;  -43.400; -412.000; -296.000
409.039; -160.000; -610.000; -686.000
409.166; -144.600; -591.000; -555.000
409.292; -162.800; -571.000; -534.000
409.419; -181.000; -665.000; -649.000
409.546; -111.800; -431.000; -192.000
409.672; -139.600; -713.000; -545.000
409.799;   16.000;  -36.000;   34.000
409.926;  -31.100; -180.000; -179.000
410.052; -303.200;-1127.000;-1091.000
410.179;  -49.900; -368.000; -392.000
410.305;  -99.800; -375.000; -493.000
410.432;   17.500; -220.000; -333.000
410.558; -100.900; -305.000; -380.000
410.685; -155.700; -688.000; -431.000
410.812; -112.500; -409.000; -588.000
410.938; -210.900; -964.000; -808.000
411.065; -108.700; -671.000; -645.000
411.191;   36.700; -189.000; -174.000
411.317; -167.800; -823.000; -742.000
411.444;  -45.000; -317.000; -246.000
411.570;  -83.200; -339.000; -294.000
411.697; -188.400; -758.000; -752.000
411.823; -248.900; -989.000; -999.000
411.949;  -15.000;  -56.000;   17.000
412.076; -148.900; -539.000; -519.000
412.202; -200.200; -758.000; -757.000
412.329; -180.900; -798.000; -752.000
412.455; -145.600; -821.000; -657.000
412.581;   46.100;  -15.000;  172.000
412.707;  -33.900; -540.000; -457.000
412.834;  144.500;  156.000;  219.000
412.960; -137.500; -785.000; -784.000
413.086; -131.400; -743.000; -701.000
413.212;  455.100;  604.000;  578.000
413.339;  -44.300; -685.000; -701.000
413.465;  105.700; -364.000; -310.000
413.591; -106.700; -757.000; -474.000
413.717;  -20.600; -358.000; -366.000
413.843; -232.100; -839.000; -861.000
413.969;  -47.200;  -47.000; -292.000
414.096; -128.600; -679.000; -679.000
414.222;   65.100;  -33.000;   85.000
414.348;   44.400; -652.000; -385.000
414.474;  288.600;   38.000;  -52.000
414.600;   63.200; -126.000; -144.000
414.726;   49.600;  -96.000;  -55.000
414.852;  -74.000; -365.000; -342.000
414.978;  125.100;  104.000;  -18.000
415.104;  160.400;   38.000;   80.000
415.230;  106.500; -329.000; -330.000
415.356;  108.800; -409.000; -514.000
415.482;  413.400;   13.000;  -35.000
415.608;  555.600; -247.000; -323.000
415.734; 1903.400;   67.000;   38.000
415.860;37889.800; -875.000; -767.000
415.986;24900.800; -685.000; -607.000
416.111; 2002.500; -798.000; -652.000
416.237;  459.700; -424.000; -571.000
416.363; 2195.300; -765.000; -733.000
416.489; 7087.100; -324.000; -251.000
416.615;  679.700; -707.000; -742.000
416.741;   -8.300; -677.000; -784.000
416.866; -133.900; -673.000; -736.000
416.992; -163.400; -801.000; -818.000
417.118;   41.100;  -41.000;  -80.000
417.244;  -49.800; -798.000; -531.000
417.369; -113.400; -801.000; -612.000
417.495;   92.800; -325.000; -254.000
417.621;  -92.300;-1015.000; -803.000
417.746;   83.100; -579.000; -572.000
417.872;  154.900; -254.000; -144.000
417.998;  116.300; -515.000; -530.000
418.123; 2031.400;-1073.000; -845.000
418.249; 9401.800; -512.000; -601.000
418.374; 1200.200; -916.000; -824.000
418.500;  211.800; -383.000; -482.000
418.626;  247.100;   70.000;  -59.000
418.751;  279.800; -549.000; -448.000
418.877;  410.600; -637.000; -643.000
419.002; 3504.500; -688.000; -560.000
419.128;22011.000; -930.000; -721.000
419.253; 4727.400; -967.000; -837.000
419.379;  685.700; -391.000; -338.000
419.504;  762.400;  325.000;  415.000
419.629;  930.100; -393.000; -212.000
419.755; 6503.700; -317.000; -254.000
419.880;34624.500;  -98.000;   67.000
420.006;20421.500; -280.000; -221.000
420.131;50360.900; -662.000; -775.000
420.256; 6640.100; -315.000; -316.000
420.382;  951.400; -665.000; -687.000
420.507;  138.300; -649.000; -778.000
420.632;  364.400; -337.000; -339.000
420.758;  673.800; -251.000; -425.000
420.883;  -93.200; -876.000; -672.000
421.008; -146.300; -775.000; -619.000
421.133;  -83.400; -509.000; -467.000
421.259;  -25.600; -325.000; -259.000
421.384; -148.600; -834.000; -693.000
421.509;    4.200;-1052.000; -862.000
421.634; 2866.300; -936.000; -820.000
421.759; 1129.400; -359.000; -327.000
421.885;  -36.300; -717.000; -656.000
422.010;  -81.200; -673.000; -542.000
422.135; -225.500; -695.000; -727.000
422.260;  175.600;  340.000;  280.000
422.385;  -36.200;   12.000;  -98.000
422.510;   92.000;  151.000;  -26.000
422.635;  133.000;  -87.000;  -43.000
422.760;  235.600; -766.000; -791.000
422.885;  161.300;  -57.000;  -80.000
423.010;   18.200; -112.000; -169.000
423.135; -105.800; -481.000; -561.000
423.260;   54.200; -150.000; -245.000
423.385;  194.200;  476.000;  222.000
423.510;  207.400;   71.000;  -22.000
423.635;  244.200;  133.000;   45.000
423.760;  185.500;  383.000;  328.000
423.885;  182.100;  336.000;  391.000
424.010;   94.800;  -68.000;  -13.000
424.135;   38.800;    5.000;  -33.000
424.259; -110.200; -654.000; -457.000
424.384;  -65.200; -279.000; -272.000
424.509;   48.400; -260.000; -186.000
424.634; -139.600; -761.000; -623.000
424.759;   38.500; -688.000; -544.000
424.883;   48.400; -506.000; -527.000
425.008;  384.700; -502.000; -410.000
425.133; 3631.700; -679.000; -653.000
425.258; 1549.100; -517.000; -381.000
425.382; 2223.900; -867.000; -774.000
425.507; 5129.200; -487.000; -543.000
425.632;  754.800; -802.000; -663.000
425.756;  809.800; -256.000; -146.000
425.881;11293.100; -831.000; -857.000
426.006;27024.900; -604.000; -355.000
426.130; 4014.900; -696.000; -508.000
426.255;  570.400; -611.000; -491.000
426.379;  319.500; -189.000; -577.000
426.504;  756.100;  660.000;  544.000
426.629; 7796.600; -519.000; -466.000
426.753; 4809.000;   64.000;  -46.000
426.878;  578.000; -252.000; -288.000
427.002;  362.500; -651.000; -668.000
427.127; 3150.300;  -35.000; -158.000
427.251;20020.200;  372.000;  401.000
427.375; 5092.300; -191.000; -173.000
427.500; 4537.300; -616.000; -610.000
427.624; 1463.300; -234.000; -400.000
427.749;  294.500; -216.000; -225.000
427.873;    0.900; -499.000; -412.000
427.997;  -10.900; -222.000; -230.000
428.122;  229.700;  795.000;  703.000
428.246;  274.300;  433.000;  434.000
428.371; -193.600; -869.000; -773.000
428.495; -125.700; -624.000; -646.000
428.619;   41.400; -186.000; -117.000
428.743;  135.900;   65.000;  132.000
428.868;  125.400; -732.000; -643.000
428.992; 2920.300; -219.000; -326.000
429.116; 1166.500; -329.000; -357.000
429.240;  711.600;  419.000;  426.000
429.365;   64.100; -454.000; -574.000
429.489;   13.100; -638.000; -647.000
429.613;  119.800; -236.000; -177.000
429.737;  159.300; -563.000; -432.000
429.861;  596.800; -247.000; -133.000
429.985;10493.000; -425.000; -305.000
430.109;10327.100; -770.000; -908.000
430.234; 1280.200;   76.000;  -50.000
430.358;  205.600; -250.000; -160.000
430.482;  -18.200; -672.000; -564.000
430.606;  -35.900; -655.000; -375.000
430.730;  134.000; -437.000; -388.000
430.854;  374.700; -909.000; -835.000
430.978;  -48.200; -795.000; -764.000
431.102;  -47.000; -499.000; -422.000
431.226;  -60.800; -874.000; -815.000
431.350;  203.600;  345.000;  422.000
431.474;  -46.100; -661.000; -373.000
431.597; -254.200;-1060.000; -848.000
431.721; -121.300; -276.000; -267.000
431.845; -192.500; -704.000; -472.000
431.969;  -98.800; -304.000; -349.000
432.093;  -99.700; -395.000; -317.000
432.217;   41.200;   32.000;   82.000
432.341;  -70.500; -523.000; -518.000
432.464;  124.800;   96.000;   40.000
432.588;  597.200; -401.000; -329.000
432.712;  274.800;  -52.000;  -52.000
432.836;  147.900;  213.000;  263.000
432.959;   42.000; -372.000; -311.000
433.083;  225.300;   11.000;    2.000
433.207;  788.700;  285.000;  930.000
433.330; 9421.400; -391.000; -200.000
433.454;10260.600; -654.000; -638.000
433.578; 6239.400;  583.000;  278.000
433.701; 1053.100; -623.000; -675.000
433.825;  409.100; -292.000; -299.000
433.949;  557.500;   28.000;  -72.000
434.072;  237.700; -410.000; -323.000
434.196;   40.900; -309.000; -117.000
434.319; 8024.900;25482.000;25124.000
434.443; 1557.300; -656.000; -603.000
434.566; 4649.900;  281.000;   62.000
434.690;  704.200; -637.000; -383.000
434.813;  191.900; -251.000; -173.000
434.937;  -78.900; -569.000; -696.000
435.060;   17.000; -423.000; -332.000
435.184;  906.900; -492.000; -217.000
435.307;  491.900;  159.000;  102.000
435.431;   53.500;  -40.000;   24.000
435.554;  -32.800; -399.000; -240.000
435.677; -100.200; -350.000; -258.000
435.801;  -29.000;  -25.000;   49.000
435.924;  121.600;    1.000;  -67.000
436.048; -116.500;-1019.000; -732.000
436.171;  -35.700; -240.000;  -66.000
436.294;   10.800; -248.000; -229.000
436.417;  196.900; -963.000; -849.000
436.541; -143.400; -814.000; -840.000
436.664;  -22.500; -242.000; -316.000
436.787;   45.500;   13.000;  113.000
436.910; -132.200; -792.000; -422.000
437.034;  131.300;  142.000;  143.000
437.157;  249.400;  -11.000;    0.000
437.280;   -5.300; -392.000; -292.000
437.403;  -76.700; -982.000; -869.000
437.526; 1702.500; -903.000; -865.000
437.649; 5413.000; -505.000; -332.000
437.772;  739.100; -692.000; -540.000
437.896;  372.200;  700.000;  544.000
438.019; -121.300; -758.000; -503.000
438.142;  -89.900; -596.000; -506.000
438.265;   88.400; -639.000; -670.000
438.388; 1388.300; -520.000; -410.000
438.511;  275.800; -597.000; -394.000
438.634;    8.800; -247.000; -125.000
438.757; -216.400; -693.000; -619.000
438.880;   23.100;  -34.000;  -57.000
439.003;  -91.700; -417.000; -437.000
439.126;  -79.400; -287.000; -167.000
439.248;  -63.600;  -98.000; -139.000
439.371;  -26.300;    9.000;  -53.000
439.494;  114.100;  510.000;  439.000
439.617;  -33.600;   65.000;  -88.000
439.740; -288.500; -968.000; -816.000
439.863; -226.300; -755.000; -595.000
439.986; -194.600; -476.000; -431.000
440.108;   -5.600; -161.000; -112.000
440.231; -260.000; -950.000; -836.000
440.354;   13.700;  -64.000; -150.000
440.477;  168.900; -566.000; -542.000
440.599;  123.500; -200.000; -225.000
440.722; -181.200; -709.000; -586.000
440.845;  234.800;  751.000;  928.000
440.968; -149.700; -415.000; -311.000
441.090;  -61.800; -199.000;  -33.000
441.213; -289.800;-1021.000; -825.000
441.336;  -25.200; -159.000;   -5.000
441.458;  -66.800; -549.000; -396.000
441.581; -101.700; -628.000; -629.000
441.703;  -50.600; -152.000;   13.000
441.826; -159.400; -557.000; -400.000
441.948;  -25.400;   56.000;   51.000
442.071;  159.600;  555.000;  424.000
442.193; -171.600; -531.000; -485.000
442.316;  103.200;  152.000;   97.000
442.438;  151.100; -233.000;  -10.000
442.561;  243.000;  272.000;  262.000
442.683; 1503.500; -809.000; -522.000
442.806; 2657.700;   -8.000;   74.000
442.928;  118.800; -859.000; -604.000
443.051;  -58.300; -577.000; -373.000
443.173; -118.400; -341.000; -339.000
443.295; -122.100; -263.000; -371.000
443.418;  -50.800; -321.000;  -29.000
443.540;   68.700; -106.000;   -4.000
443.662; -171.100; -563.000; -465.000
443.785;   64.200;  335.000;  199.000
443.907; -161.900; -362.000; -208.000
444.029; -203.700; -767.000; -494.000
444.152; -249.300; -644.000; -554.000
444.274;   -2.500;  -18.000;  -24.000
444.396; -142.700; -461.000; -221.000
444.518; -225.000; -691.000; -454.000
444.640; -179.000; -268.000; -111.000
444.763;   47.200;  388.000;  249.000
444.885; -172.700; -432.000; -392.000
445.007;    6.200;   35.000;   86.000
445.129; -179.800; -610.000; -515.000
445.251; -132.200; -372.000; -439.000
445.373; -207.200; -537.000; -386.000
445.495;   83.200;  242.000;  350.000
445.617;  158.500;  853.000;  753.000
445.739;  -70.000; -215.000;  -97.000
445.861;   41.600; -245.000; -112.000
445.984;   -0.500; -267.000; -101.000
446.105;  566.400; -418.000; -251.000
446.227; 1403.900; -176.000;  -19.000
446.349;   45.300; -358.000; -249.000
446.471; -140.200; -615.000; -448.000
446.593;  -70.900; -316.000;   19.000
446.715;  111.800;  -67.000;   41.000
446.837;  199.800;  697.000;  832.000
446.959; -106.800; -457.000; -478.000
447.081; -206.700; -628.000; -518.000
447.203;  190.700;  862.000;  834.000
447.325; -135.800; -270.000;   42.000
447.446;   70.300;  286.000;  530.000
447.568; -234.000; -921.000; -803.000
447.690; -101.800; -236.000; -245.000
447.812; -230.900; -798.000; -519.000
447.933;   14.500;  155.000;  127.000
448.055;  -60.100; -306.000; -261.000
448.177;  391.800;   31.000;   79.000
448.299;  255.000; -935.000; -727.000
448.420;  115.200;  -25.000;  159.000
448.542;  -27.500;   -3.000;   33.000
448.664;   45.000;  109.000;  322.000
448.785;  -25.100;  265.000;   83.000
448.907; -104.100; -614.000; -353.000
449.028;   21.300; -771.000; -471.000
449.150;  219.200;  492.000;  589.000
449.272; -288.900;-1044.000; -913.000
449.393;  152.700;  612.000;  694.000
449.515; -229.500; -634.000; -581.000
449.636;  -59.900; -264.000; -155.000
449.758;  236.600;  763.000;  622.000
449.879; -104.700; -498.000; -396.000
450.001;  -71.900; -149.000;  -49.000
450.122;   28.800;  -95.000;  162.000
450.244;   22.000;   37.000;  364.000
450.365;  -97.400; -495.000; -301.000
450.486;   -7.300;   80.000;  268.000
450.608;  126.900;  393.000;  326.000
450.729;  206.600;  578.000;  645.000
450.850;    6.100; -574.000; -466.000
450.972; 1382.800; -552.000; -389.000
451.093; 8467.900;  190.000;  588.000
451.214; 3219.400; -516.000; -337.000
451.336;  688.600;  773.000;  579.000
451.457;  156.800;  264.000;  393.000
451.578;  -20.800; -118.000;  -74.000
451.699; -201.600; -546.000; -540.000
451.821;  -33.500; -284.000;  -50.000
451.942;   62.100;  278.000;  285.000
452.063;  157.400;  228.000;  419.000
452.184; 1123.600;  -54.000;  -49.000
452.305; 1900.800;  103.000;  170.000
452.427;  203.800; -549.000; -301.000
452.548;    8.200;   23.000;   79.000
452.669;  -55.500; -257.000;  -89.000
452.790;    4.600;    3.000;  -18.000
452.911;   63.600;  195.000;  259.000
453.032;  -49.700; -289.000;  -60.000
453.153;   -0.400;  -29.000;   81.000
453.274;  210.500;  737.000;  868.000
453.395;  -40.100;  -51.000;  175.000
453.516;  385.800; 1317.000; 1388.000
453.637;  -67.600; -205.000; -150.000
453.758;  -36.100;   15.000;   69.000
453.879; -149.800; -462.000; -250.000
454.000;  216.200; 1086.000;  948.000
454.121; -173.800; -554.000; -326.000
454.242; -152.400; -599.000; -383.000
454.362;  -38.700;  -99.000;  114.000
454.483;   28.300; -309.000; -229.000
454.604;  190.400;  512.000;  580.000
454.725; -202.000; -627.000; -555.000
454.846; -165.600; -474.000; -406.000
454.967;   40.100;  230.000;  539.000
455.087;   -1.100;  179.000;  153.000
455.208;  138.000;  554.000;  856.000
455.329;  -44.000;  -22.000;   82.000
455.450;  126.000;  473.000;  633.000
455.570; -104.300; -234.000; -211.000
455.691;    3.600;  201.000;  407.000
455.812; -143.500; -270.000;  -92.000
455.932;  -51.500;  107.000;  -97.000
456.053; -102.100;   36.000;   24.000
456.173; -141.600; -433.000; -355.000
456.294; -190.400; -476.000; -303.000
456.415;  -21.400;  -73.000;   70.000
456.535;   -3.100;  297.000;  273.000
456.656;   15.000;  132.000;  240.000
456.776;  -56.200;    3.000;  298.000
456.897;   87.200;  308.000;  513.000
457.017; -106.600; -153.000;   -3.000
457.138; -128.300; -402.000; -249.000
457.258;   25.700;  263.000;  224.000
457.379;   99.500;  509.000;  521.000
457.499;   21.400;  443.000;  432.000
457.620; -162.300; -407.000; -231.000
457.740; -125.000; -132.000;  -11.000
457.860;  -33.000;   87.000;   44.000
457.981;  -28.600;  132.000;  124.000
458.101;  -73.300;  -89.000;   40.000
458.221;   39.400;  336.000;  402.000
458.342;  -37.800;   -4.000;  -37.000
458.462;   72.000;  617.000;  352.000
458.582;  -43.400; -302.000; -294.000
458.703;   26.000;  303.000;  154.000
458.823;    2.700;   22.000;  163.000
458.943;  129.200;  341.000;  467.000
459.063;   72.100; 1124.000;  192.000
459.183;   21.400;  328.000;  313.000
459.304;   79.800;  315.000;  517.000
459.424;  -81.900; -246.000;  -89.000
459.544;  696.300;  388.000;  764.000
459.664; 1521.300;  499.000;  506.000
459.784;  573.900; 1004.000; 1175.000
459.904;  176.200;  867.000;  744.000
460.024;  210.300;  867.000;  684.000
460.144;   85.600;  449.000;  554.000
460.264;   47.400;  515.000;  327.000
460.385; -106.600; -145.000; -119.000
460.505;  184.800;  905.000;  858.000
460.625; -129.200;  -17.000;  -68.000
460.745;   69.700;  396.000;  541.000
460.864;  -31.700;  153.000;  469.000
460.984;  134.600;  499.000;  573.000
461.104;  427.600; 1656.000; 1775.000
461.224;  136.400;  657.000;  650.000
461.344;  -28.300;  431.000;  360.000
461.464;    2.100;  258.000;  513.000
461.584;    4.900;  283.000;  466.000
461.704;  -32.700;   58.000;  108.000
461.824;  -60.000;  238.000;  259.000
461.943;   -2.800;  191.000;  130.000
462.063;  -66.100;    2.000;  324.000
462.183;  149.100;  639.000;  717.000
462.303;  328.200; 1678.000; 1230.000
462.422;  108.400;  781.000;  840.000
462.542;  -29.400;  271.000;  391.000
462.662;  174.600;  353.000;  380.000
462.782;  555.600;  833.000;  572.000
462.901;  918.000;  545.000;  717.000
463.021;  658.200; 1702.000; 1638.000
463.141;   60.400;  337.000;  770.000
463.260;   35.500;  614.000;  474.000
463.380;   97.500;  902.000;  884.000
463.499;   -4.200;  342.000;  332.000
463.619;   23.200;  581.000;  559.000
463.738;  319.400; 1644.000;  903.000
463.858;  103.700;  657.000;  811.000
463.978;   16.400;  542.000;  396.000
464.097;  173.500;  921.000; 1114.000
464.217;  330.200; 1196.000; 1143.000
464.336;  268.200; 1068.000; 1130.000
464.455;   16.400;  328.000;  659.000
464.575;  181.100;  597.000;  602.000
464.694;  410.300; 1204.000; 1179.000
464.814;  326.700; 1190.000; 1138.000
464.933;  218.300; 1095.000; 1027.000
465.052;  301.700; 1412.000; 1054.000
465.172;  238.400;  922.000;  799.000
465.291;  386.400; 1376.000; 1320.000
465.410;  108.100;  462.000;  735.000
465.530;  279.000; 1355.000; 1310.000
465.649;  234.900; 1209.000; 1273.000
465.768;  353.800; 1673.000; 1508.000
465.888;  190.400;  941.000; 1174.000
466.007;  290.300; 1335.000; 1440.000
466.126;   82.700;  721.000;  641.000
466.245;  181.100; 1176.000; 1187.000
466.364;  124.000;  950.000; 1060.000
466.484;  225.300; 1024.000; 1213.000
466.603;  180.900; 1101.000; 1222.000
466.722;  321.900; 1490.000; 1769.000
466.841;  217.600; 1151.000; 1401.000
466.960;  188.000; 1069.000;  972.000
467.079;  346.400; 1971.000; 1786.000
467.198;  159.300; 1238.000; 1181.000
467.317;  235.200; 1768.000; 1162.000
467.436;  255.900; 1709.000; 1261.000
467.555;  343.300; 1796.000; 1746.000
467.674;  214.200; 1227.000; 1329.000
467.793;  171.600; 1376.000; 1374.000
467.912;  271.100; 1658.000; 1539.000
468.031;  363.100; 2038.000; 1930.000
468.150;  354.800; 1842.000; 1837.000
468.269;  511.000; 2313.000; 2090.000
468.388;  448.900; 2168.000; 2339.000
468.507;  637.300; 2884.000; 2903.000
468.626;  649.800; 2555.000; 2541.000
468.744;  365.200; 2018.000; 2174.000
468.863;  507.500; 2312.000; 2523.000
468.982;  260.800; 1503.000; 1555.000
469.101;  538.200; 2788.000; 2692.000
469.220;  418.900; 2333.000; 2176.000
469.338;  585.700; 2935.000; 3051.000
469.457;  499.200; 2719.000; 2545.000
469.576;  814.700; 3953.000; 3784.000
469.695;  581.000; 2877.000; 3066.000
469.813;  965.100; 4148.000; 4192.000
469.932;  922.700; 4255.000; 4485.000
470.051;  961.100; 4075.000; 4161.000
470.169; 1704.300; 4470.000; 4338.000
470.288; 2759.200; 4700.000; 4809.000
470.406; 1630.200; 5059.000; 5194.000
470.525; 1309.600; 6101.000; 5787.000
470.644; 1391.200; 6847.000; 6794.000
470.762; 1760.800; 8397.000; 7873.000
470.881; 1958.800; 8651.000; 8464.000
470.999; 2160.600; 9685.000; 9151.000
471.118; 2263.600;11174.000;10711.000

