
Integration time [ms]: 100.000
Averaging Nr. [scans]: 40
Smoothing Nr. [pixels]: 0
Data measured with spectrometer [name]: 2101012U2
Wave   ;Sample   ;Dark     ;Reference
[nm]   ;[counts] ;[counts] ;[counts] 

197.733;   55.150;  516.000;  404.000
197.879;  -81.375; -610.000; -634.000
198.025;  -43.500; -475.000; -420.000
198.171;  -64.900; -602.000; -612.000
198.317;  -47.225; -401.000; -316.000
198.463;  -62.275; -655.000; -404.000
198.609;   25.325;  181.000; -137.000
198.755;  -86.575; -644.000; -410.000
198.901;  -58.850; -505.000; -424.000
199.047;  -51.925; -615.000; -488.000
199.193;  -34.900; -230.000; -468.000
199.339;  -50.975; -222.000; -369.000
199.485;   38.550;  330.000;  271.000
199.631;    8.750;  227.000;  310.000
199.777;  -51.025; -466.000; -398.000
199.923;  -56.000; -610.000; -424.000
200.069;    5.525; -141.000;  -58.000
200.215;   47.575;  128.000;  453.000
200.361;   33.000;  243.000;  477.000
200.507;  -70.650; -600.000; -373.000
200.653;  -22.950; -371.000; -194.000
200.798;  -21.525; -215.000; -125.000
200.944;  -11.625; -146.000;  -41.000
201.090;   47.750;   61.000;  222.000
201.236;   13.425; -116.000; -158.000
201.382;  123.875;  874.000;  903.000
201.528;    7.325;  -58.000;  -48.000
201.674;  -49.300; -386.000; -293.000
201.819;  -55.950; -540.000; -439.000
201.965;  -75.875; -699.000; -447.000
202.111;  -22.100; -273.000; -226.000
202.257;  -37.175; -250.000; -238.000
202.402;    9.550;   13.000;  -36.000
202.548;  -35.800; -169.000; -116.000
202.694;   71.150;  410.000; -183.000
202.840;  -76.475; -603.000; -531.000
202.985;  -77.525; -681.000; -639.000
203.131;  -98.025; -832.000; -666.000
203.277;  -30.000; -199.000; -262.000
203.423;  -48.875; -434.000; -520.000
203.568;  -36.625; -462.000; -237.000
203.714;  -60.150; -535.000; -542.000
203.860;  -75.100; -682.000; -641.000
204.005;    9.100;  112.000;  167.000
204.151;   73.700;  561.000;  556.000
204.296;  -43.275; -354.000; -221.000
204.442;  -69.925; -600.000; -547.000
204.588;  -77.675; -592.000; -579.000
204.733;   16.800;  178.000;  168.000
204.879; -131.700;-1018.000; -822.000
205.025;   11.950;  -99.000;  126.000
205.170;    1.925;  -17.000;   94.000
205.316;   83.525;  438.000;  661.000
205.461;  -88.400; -698.000; -554.000
205.607;   82.900;  609.000;  665.000
205.752;  -71.225; -626.000; -551.000
205.898;  -48.100; -501.000; -391.000
206.043;  -51.450; -578.000; -506.000
206.189;  -51.650; -243.000; -285.000
206.334;   65.700;  554.000;  606.000
206.480;   78.600;  409.000;  239.000
206.625;  -81.525; -529.000; -552.000
206.771;  -39.025; -451.000; -373.000
206.916;  -36.775; -210.000; -537.000
207.062;  -81.100; -545.000; -591.000
207.207;  -58.850; -546.000; -443.000
207.353;   41.025;  185.000;  460.000
207.498;   23.200;  196.000;   85.000
207.643;  -55.100; -501.000; -370.000
207.789; -115.550;-1069.000; -910.000
207.934;  -84.250; -665.000; -713.000
208.080;  -17.350; -154.000;   66.000
208.225;  -12.950;  -22.000;  -57.000
208.370;  -75.250; -727.000; -619.000
208.516;  -77.250; -741.000; -487.000
208.661;  -34.925; -127.000;  -69.000
208.806;  -15.800; -165.000; -171.000
208.952; -122.475;-1044.000; -731.000
209.097;   70.225;  378.000;  349.000
209.242;  -49.525; -307.000; -382.000
209.387;   51.050;  392.000;  350.000
209.533;  -44.125; -321.000; -350.000
209.678;   75.225;  472.000;  543.000
209.823;  -52.950; -408.000; -310.000
209.969; -111.600; -860.000; -757.000
210.114;  -95.750; -907.000; -719.000
210.259; -125.100; -939.000; -889.000
210.404;   -6.350; -171.000;  103.000
210.549;    1.175;  108.000;    3.000
210.695;  -25.325;   -3.000;  -95.000
210.840;   30.525;   94.000;   67.000
210.985;  -69.450; -484.000; -303.000
211.130;   63.375;  268.000;  406.000
211.275;   18.925;  207.000;  199.000
211.420;  -49.075; -300.000; -289.000
211.566;  -74.725; -536.000; -489.000
211.711;   17.075;  218.000;  157.000
211.856;  -57.800; -545.000; -519.000
212.001;    3.175;  151.000;   44.000
212.146;   25.000;  153.000;   49.000
212.291;   -7.925; -210.000; -186.000
212.436;  -23.850; -280.000;   -6.000
212.581;  -77.300; -685.000; -653.000
212.726;  -74.625; -487.000; -538.000
212.871;  -62.975; -552.000; -217.000
213.016; -137.525;-1172.000;-1029.000
213.161;   45.550;  406.000;  291.000
213.306;  -71.550; -435.000; -577.000
213.451;  -94.125; -778.000; -689.000
213.596;  -40.275; -455.000; -347.000
213.741;  -61.750; -448.000; -538.000
213.886;  -80.650; -498.000; -517.000
214.031;  -27.300; -294.000; -124.000
214.176;  -55.600; -408.000; -341.000
214.321;   -7.525; -296.000; -157.000
214.466;  -29.425; -163.000;  -43.000
214.611;   -5.350;  -61.000;  -10.000
214.756; -124.775; -948.000; -858.000
214.901;  -15.025; -388.000; -226.000
215.046; -113.700; -797.000; -825.000
215.191;   11.325;  128.000;   35.000
215.336;    2.900; -157.000;  -19.000
215.480;  -63.650; -684.000; -505.000
215.625;  -16.000; -175.000;  -19.000
215.770;  -82.575; -757.000; -662.000
215.915;   -6.625;   -5.000;  -97.000
216.060;  -10.900; -113.000;  -21.000
216.205; -105.100; -731.000; -779.000
216.349;  -67.550; -470.000; -533.000
216.494; -128.100; -939.000; -867.000
216.639; -119.225; -823.000; -888.000
216.784;  -77.150; -577.000; -525.000
216.929;   41.375;  392.000;  281.000
217.073;  -16.100; -244.000;  -31.000
217.218;   17.800;   78.000;  -47.000
217.363;  -90.275; -656.000; -618.000
217.507;  -85.450; -623.000; -588.000
217.652; -118.150; -845.000; -874.000
217.797; -102.975; -708.000; -659.000
217.942; -100.725; -856.000; -720.000
218.086;   61.225;  608.000;  539.000
218.231;  -21.675; -174.000;  -26.000
218.376;  -38.025; -337.000; -229.000
218.520;    4.300;  -41.000;   96.000
218.665;  -39.225; -338.000; -204.000
218.810;  -33.100; -275.000; -233.000
218.954;    0.850;  201.000;   35.000
219.099; -105.750; -713.000; -963.000
219.243;  -71.375; -589.000; -554.000
219.388;  -40.700; -264.000; -136.000
219.532;  -11.750; -116.000; -116.000
219.677;  -74.075; -564.000; -521.000
219.822;  -10.500;   33.000;   89.000
219.966;   12.225;   17.000;  -99.000
220.111;  -21.350; -328.000;  -40.000
220.255;  -90.200; -797.000; -750.000
220.400;  -23.675; -180.000; -146.000
220.544;  -62.925; -516.000; -450.000
220.689;  -53.825; -422.000; -451.000
220.833;  -13.375; -123.000;  -58.000
220.978;  -42.075; -393.000; -563.000
221.122;   21.200;  319.000;  307.000
221.267; -106.750; -906.000; -837.000
221.411;  -72.125; -478.000; -394.000
221.555;   -6.225; -104.000;  -23.000
221.700;  -51.900; -329.000; -222.000
221.844;   38.475;  255.000;  272.000
221.989;  -42.100; -328.000; -311.000
222.133;  -44.625; -289.000; -307.000
222.277;   -5.700;    5.000;   78.000
222.422;   15.650;  227.000;  113.000
222.566;  -40.875; -381.000; -214.000
222.711;  -48.225; -414.000; -479.000
222.855;  -63.775; -643.000; -586.000
222.999;  -70.625; -642.000; -717.000
223.144;  -27.350; -195.000; -194.000
223.288;   52.550;  423.000;  251.000
223.432;   22.025;  184.000;  230.000
223.576;   20.275;  152.000;  -21.000
223.721;   36.800;  364.000;  273.000
223.865;  -53.500; -472.000; -475.000
224.009;  214.625; 1673.000; 1631.000
224.153;  -77.225; -660.000; -671.000
224.298;  -65.900; -531.000; -489.000
224.442;    3.700;  -74.000;  -33.000
224.586;   -8.125; -169.000; -106.000
224.730; -100.250; -858.000; -670.000
224.875;  -92.225; -739.000; -688.000
225.019;   14.975;  102.000;  188.000
225.163;   46.800;  208.000;  341.000
225.307;    6.700;   97.000;  -91.000
225.451;   48.800;  360.000;  481.000
225.595;   11.575;  264.000;  176.000
225.739;   -5.575; -170.000;  -94.000
225.884;    9.250;   86.000;    5.000
226.028;  -84.250; -760.000; -626.000
226.172;  -32.125; -260.000; -273.000
226.316; -111.750; -941.000; -902.000
226.460;  -67.600; -645.000; -493.000
226.604;  -49.525; -406.000; -400.000
226.748;  -86.650; -836.000; -733.000
226.892;  -36.725; -227.000; -181.000
227.036;  -45.050; -537.000; -447.000
227.180;  -49.625; -551.000; -375.000
227.324;  -70.750; -561.000; -580.000
227.468;  -94.475; -819.000; -717.000
227.612;    7.500;  242.000;  -28.000
227.756;  -92.525; -845.000; -698.000
227.900;   45.225;  342.000;  441.000
228.044;  -57.900; -509.000; -290.000
228.188;   52.375;  448.000;  568.000
228.332;  -83.475; -546.000; -472.000
228.476;  -33.350; -223.000; -149.000
228.620;  -30.800; -210.000; -150.000
228.764;   65.650;  431.000;  349.000
228.908;  -23.150; -155.000;   30.000
229.052;  -72.975; -615.000; -528.000
229.195;  -22.950; -172.000;   13.000
229.339;  -14.575; -235.000; -305.000
229.483;  -30.575;    5.000; -162.000
229.627;   -8.525; -156.000;  139.000
229.771;  -42.225; -218.000; -294.000
229.915;    5.175;  230.000;   79.000
230.059;  -91.650; -648.000; -663.000
230.202;  -44.250; -370.000; -317.000
230.346;  -22.950; -107.000;  107.000
230.490;  -63.900; -489.000; -521.000
230.634; -100.150; -736.000; -553.000
230.777;   74.150;  478.000;  509.000
230.921;  -47.850; -450.000; -359.000
231.065;  -30.275; -246.000; -286.000
231.209;   27.675;  261.000;  265.000
231.352;   14.375;   54.000;   40.000
231.496;    7.975;  568.000;  188.000
231.640;  -88.875; -693.000; -621.000
231.783;   50.550;  546.000;  525.000
231.927;  -51.700; -294.000; -365.000
232.071; -111.925; -962.000; -736.000
232.214; -116.600; -980.000; -764.000
232.358;  -86.925; -683.000; -599.000
232.502;    2.900;  -19.000;    7.000
232.645; -129.125;-1090.000; -927.000
232.789;  -30.050; -257.000; -218.000
232.933;  -36.325; -407.000; -224.000
233.076; -125.275;-1038.000; -897.000
233.220; -110.700; -752.000; -777.000
233.363;  -85.700; -669.000; -477.000
233.507;   50.800;  371.000;  129.000
233.650; -105.425; -764.000; -834.000
233.794;   42.925;  438.000;  461.000
233.938;  -59.125; -530.000; -362.000
234.081;  -20.175;  -93.000;   31.000
234.225;  -65.250; -631.000; -539.000
234.368; -106.600; -773.000; -723.000
234.512;  -42.850; -385.000; -299.000
234.655;  -94.025; -582.000; -555.000
234.798;  -74.675; -493.000; -466.000
234.942; -128.650; -884.000;-1002.000
235.085;  -71.950; -651.000; -443.000
235.229;  -61.125; -405.000; -410.000
235.372;  -57.225; -247.000; -191.000
235.516;  -59.150; -397.000; -321.000
235.659;   18.600;   92.000;  121.000
235.802;  -13.100;  -38.000;  -22.000
235.946;   15.250;  335.000;  215.000
236.089;   24.550;  126.000;  250.000
236.233;   45.425;  275.000;  298.000
236.376;  -50.825; -235.000; -378.000
236.519;  -40.900; -297.000; -319.000
236.663;  -16.850; -215.000; -117.000
236.806; -139.450;-1029.000; -999.000
236.949;   51.900;  543.000;  431.000
237.092;   41.800;  412.000;  391.000
237.236;  -83.375; -589.000; -502.000
237.379;   58.400;  352.000;  428.000
237.522; -116.650; -879.000; -768.000
237.666;  -27.100; -271.000;   18.000
237.809; -112.050; -851.000; -823.000
237.952;   31.650;  469.000;  271.000
238.095;  -64.775; -447.000; -442.000
238.238;   87.900;  688.000;  700.000
238.382;   -6.225;  166.000;  103.000
238.525;  -67.300; -598.000; -511.000
238.668; -135.625;-1060.000; -985.000
238.811;  -94.850; -638.000; -643.000
238.954;  -57.750; -483.000; -334.000
239.097;   86.525;  617.000;  664.000
239.241;   26.175;  394.000;  326.000
239.384;  -45.200; -254.000; -214.000
239.527;  -46.350; -424.000; -224.000
239.670; -146.925; -994.000;-1091.000
239.813; -107.800; -696.000; -658.000
239.956;   78.900;  579.000;  473.000
240.099; -124.125; -778.000; -725.000
240.242;   39.525;  428.000;  432.000
240.385;   46.250;  466.000;  450.000
240.528;  -70.225; -706.000; -473.000
240.671;   15.225;  189.000;  134.000
240.814;  -30.150; -441.000; -158.000
240.957;  -96.575; -767.000; -578.000
241.100;  -84.025; -779.000; -755.000
241.243; -134.650;-1234.000; -893.000
241.386;  -77.875; -508.000; -379.000
241.529;  -89.700; -735.000; -547.000
241.672;  -53.750; -566.000; -495.000
241.815; -101.600; -832.000; -808.000
241.958;  -28.650; -125.000; -182.000
242.101;  -80.175; -545.000; -390.000
242.244;  -42.425; -270.000; -325.000
242.387;  -41.950; -304.000; -246.000
242.530;   54.175;  470.000;  134.000
242.673;  -47.250; -381.000; -309.000
242.815; -109.775; -925.000; -899.000
242.958;  -65.275; -482.000; -381.000
243.101;   -4.775;  132.000;  187.000
243.244;  -62.475; -564.000; -521.000
243.387;  -56.600; -313.000; -316.000
243.530;  -90.075; -657.000; -674.000
243.672;    6.525;   43.000;  -92.000
243.815;  -44.025; -355.000; -283.000
243.958;   -6.275;   98.000;  -26.000
244.101;  -11.675;   59.000;  -16.000
244.243;  -18.775;  -47.000;  101.000
244.386; -103.175; -761.000; -630.000
244.529;  -45.475; -132.000; -139.000
244.672; -142.150;-1154.000; -951.000
244.814;  -90.125; -621.000; -794.000
244.957;  -45.400; -380.000; -304.000
245.100;  -67.775; -489.000; -489.000
245.242;  -59.100; -387.000; -374.000
245.385;   -5.050;  -59.000;  -39.000
245.528; -109.875; -871.000; -705.000
245.670;   77.825;  612.000;  634.000
245.813;  -91.450; -599.000; -547.000
245.956;  -54.450; -324.000; -275.000
246.098;  -62.775; -508.000; -650.000
246.241;   -4.450;  194.000;   48.000
246.383;  -18.825; -119.000;  -73.000
246.526;  -68.000; -454.000; -525.000
246.669; -103.175; -889.000; -780.000
246.811;   16.425;  172.000;   -1.000
246.954;  -66.300; -512.000; -426.000
247.096;  -30.575;  -84.000;   -6.000
247.239;  -67.525; -482.000; -445.000
247.381;  -66.975; -647.000; -488.000
247.524;   69.975;  645.000;  679.000
247.666;  -23.875;   58.000;   11.000
247.809; -118.000; -887.000; -691.000
247.951;  -10.625;  -75.000;  138.000
248.094;   30.400;  432.000;  308.000
248.236; -152.350;-1262.000;-1238.000
248.378;  -29.550; -356.000;  -81.000
248.521;  -26.925; -334.000; -337.000
248.663;  -40.725; -236.000; -267.000
248.806;  -33.600; -300.000; -266.000
248.948;  -98.675; -886.000; -763.000
249.090;  -54.650; -428.000; -398.000
249.233;  -62.425; -344.000; -381.000
249.375;  -75.375; -474.000; -451.000
249.518;  -12.550;  -83.000; -133.000
249.660;   -9.850; -103.000;    3.000
249.802; -160.200;-1303.000;-1189.000
249.945;  -84.225; -612.000; -540.000
250.087; -102.375; -834.000; -768.000
250.229;  -59.675; -362.000; -480.000
250.371;  -62.675; -494.000; -439.000
250.514;  -52.900; -310.000; -244.000
250.656;  -63.325;   69.000;  102.000
250.798; -125.975; -849.000; -800.000
250.940;  -71.650; -322.000; -322.000
251.083;  -29.325; -335.000; -111.000
251.225;   55.100;  338.000;  310.000
251.367;  -47.525; -274.000; -373.000
251.509;  -43.250; -265.000; -210.000
251.651; -105.750; -731.000; -671.000
251.794;   46.650;  538.000;  632.000
251.936; -108.975; -821.000; -747.000
252.078;  -77.825; -540.000; -461.000
252.220;  -73.800; -645.000; -477.000
252.362;   47.500;  344.000;  462.000
252.504;  -91.775; -677.000; -584.000
252.646; -113.475; -875.000; -722.000
252.788;  -24.350;   14.000; -128.000
252.931;  -41.250; -257.000; -253.000
253.073;  -44.850; -376.000; -317.000
253.215;  -17.950;  141.000;  122.000
253.357;  -23.550;   82.000; -153.000
253.499;  -64.375; -374.000; -234.000
253.641;  -81.100; -749.000; -594.000
253.783;  -94.875; -609.000; -527.000
253.925;  -81.925; -586.000; -591.000
254.067; -103.775; -744.000; -667.000
254.209;  -47.725; -391.000; -259.000
254.351; -133.350; -865.000; -883.000
254.493;  -58.800; -441.000; -417.000
254.635; -139.400; -936.000; -818.000
254.777;  -92.925; -752.000; -687.000
254.918;  -75.950; -512.000; -430.000
255.060;  -55.400; -551.000; -395.000
255.202;  -56.000; -473.000; -261.000
255.344;  -82.825; -658.000; -455.000
255.486;  -72.750; -471.000; -406.000
255.628; -107.825; -780.000; -781.000
255.770;  -89.900; -676.000; -536.000
255.912;  -72.325; -559.000; -468.000
256.053;  -87.450; -730.000; -508.000
256.195;  135.100; 1008.000;  903.000
256.337; -111.725; -861.000; -595.000
256.479;   48.825;  532.000;  416.000
256.621;  -42.700; -394.000; -212.000
256.762;  -97.275; -789.000; -742.000
256.904;   45.850;  485.000;  487.000
257.046;  -37.775; -381.000; -271.000
257.188;  -46.350; -351.000; -264.000
257.329;  -73.725; -525.000; -464.000
257.471; -111.150; -939.000; -807.000
257.613;  -72.600; -584.000; -498.000
257.755; -146.250;-1073.000; -982.000
257.896;   32.000;  286.000;  392.000
258.038;  -73.675; -403.000; -352.000
258.180;  -53.625; -354.000; -279.000
258.321;  -68.350; -581.000; -457.000
258.463;  -16.400;  -71.000;  133.000
258.605;  -79.225; -562.000; -570.000
258.746; -101.950; -886.000; -772.000
258.888; -142.400;-1026.000;-1020.000
259.029;   16.750;  121.000;   -8.000
259.171;  -79.950; -614.000; -550.000
259.313;    5.375;  -49.000;  -47.000
259.454;  -72.175; -536.000; -414.000
259.596;  -53.900; -483.000; -390.000
259.737;  -86.325; -590.000; -474.000
259.879;   35.825;  217.000;  311.000
260.020;   85.600;  901.000;  636.000
260.162;  -34.550; -146.000; -253.000
260.303; -100.000; -768.000; -687.000
260.445;  -84.950; -609.000; -613.000
260.586;   39.650;  392.000;  157.000
260.728;  -53.025; -360.000; -248.000
260.869;  -59.950; -350.000; -343.000
261.011;   81.075;  706.000;  537.000
261.152;  -66.800; -479.000; -319.000
261.293;  -72.850; -576.000; -595.000
261.435;  -26.875; -219.000; -184.000
261.576;  -54.800; -455.000; -325.000
261.718;   42.275;  420.000;  470.000
261.859; -128.825; -940.000; -949.000
262.000; -137.825; -951.000;-1016.000
262.142;  -30.500;  -52.000;  -60.000
262.283; -111.975; -808.000; -691.000
262.424;  -91.100; -666.000; -625.000
262.566; -156.100;-1161.000; -983.000
262.707; -107.925; -840.000; -830.000
262.848; -120.275; -769.000; -726.000
262.990;  -45.925; -362.000; -345.000
263.131;   66.275;  650.000;  681.000
263.272;  -13.050;  -61.000;  -41.000
263.413;  -84.050; -589.000; -561.000
263.555;  -76.325; -669.000; -143.000
263.696;  -87.925; -550.000; -641.000
263.837;  -59.400; -449.000; -551.000
263.978;   -9.975;   -5.000;  -77.000
264.119;  -64.600; -283.000; -264.000
264.261; -110.350; -847.000; -630.000
264.402;   -9.375;   33.000;   40.000
264.543;  -74.825; -509.000; -524.000
264.684;   -6.775;   61.000;  -50.000
264.825;  -83.800; -816.000; -538.000
264.966;    1.175;  -84.000;  -67.000
265.107; -115.650; -646.000; -670.000
265.248; -125.450; -825.000; -812.000
265.390;  -12.675;  152.000;   -9.000
265.531;  -19.950; -238.000; -107.000
265.672;  -83.775; -557.000; -630.000
265.813;   48.025;  563.000;  439.000
265.954; -130.550; -959.000; -940.000
266.095;  -21.400; -372.000; -322.000
266.236;  -98.875; -686.000; -548.000
266.377;  -41.350; -243.000; -297.000
266.518;  -74.950; -619.000; -547.000
266.659;   14.725;  170.000;  268.000
266.800;   -2.750;   83.000;   85.000
266.941;  -78.525; -487.000; -478.000
267.082;   12.875;  354.000;   99.000
267.223;  -52.150; -344.000; -273.000
267.364; -120.375; -892.000; -686.000
267.504;  -15.775;    3.000;  135.000
267.645;    6.850;  160.000;   67.000
267.786;  -30.650; -147.000;  -86.000
267.927;  -69.750; -473.000; -379.000
268.068;  -22.125; -186.000;  -61.000
268.209;  -54.350; -175.000; -413.000
268.350;  -73.525; -388.000; -532.000
268.490;  -83.125; -648.000; -521.000
268.631;   23.575;  127.000;  225.000
268.772; -104.400; -874.000; -647.000
268.913;  -58.175; -328.000; -476.000
269.054;  -29.125; -117.000;   12.000
269.194;  -58.900; -418.000; -402.000
269.335; -169.525;-1137.000;-1074.000
269.476;  -18.425;   33.000;  -35.000
269.617;  -40.175; -347.000; -392.000
269.757;  -91.375; -713.000; -646.000
269.898; -113.025; -856.000; -613.000
270.039;  -70.650; -415.000; -405.000
270.180; -132.075; -952.000; -816.000
270.320;  -36.525; -190.000; -250.000
270.461;  -41.375; -277.000; -249.000
270.602;  -20.475; -186.000; -156.000
270.742; -131.025; -868.000; -943.000
270.883;  -70.200; -442.000; -390.000
271.023;  -69.250; -358.000; -357.000
271.164;  -73.900; -607.000; -528.000
271.305;  -93.375; -666.000; -654.000
271.445;  -89.000; -722.000; -683.000
271.586;  -75.725; -462.000; -283.000
271.726;  -53.600; -397.000; -322.000
271.867;  -67.900; -594.000; -534.000
272.008;   31.675; -473.000; -285.000
272.148;   70.975;  462.000;  468.000
272.289;  -11.525; -113.000; -181.000
272.429;  -10.175;   19.000;  185.000
272.570;  -85.425; -633.000; -737.000
272.710; -109.500; -825.000; -775.000
272.851;  -32.275;  113.000; -130.000
272.991; -159.975;-1173.000;-1077.000
273.131;  -63.100; -419.000; -459.000
273.272; -112.025; -683.000; -723.000
273.412;  -17.925; -143.000;  -31.000
273.553;  -68.700; -488.000; -507.000
273.693;  120.325;  913.000;  858.000
273.834; -117.275; -894.000; -692.000
273.974;  -82.000; -664.000; -615.000
274.114; -108.650; -772.000; -560.000
274.255;   49.350;  414.000;  373.000
274.395;  -30.950; -180.000; -125.000
274.535;   31.825;  199.000;  350.000
274.676;    8.300;  225.000;   94.000
274.816;   -6.350;  110.000;   34.000
274.956;  -86.325; -624.000; -690.000
275.097; -103.575;-1014.000; -922.000
275.237; -108.650; -913.000; -803.000
275.377;  -96.900; -778.000; -689.000
275.517; -154.075; -878.000; -937.000
275.658;  -87.075; -590.000; -555.000
275.798;  -77.700; -606.000; -413.000
275.938;   13.575;  215.000;  323.000
276.078;  -75.875; -626.000; -395.000
276.218;   -6.025;   99.000;  104.000
276.359; -143.425;-1026.000;-1024.000
276.499;  -86.875; -605.000; -446.000
276.639;  -29.675; -305.000; -151.000
276.779;  -53.825; -475.000; -357.000
276.919; -109.875; -783.000; -624.000
277.059;  -36.675; -261.000; -212.000
277.199;  -40.300; -357.000; -259.000
277.340;   16.350;  287.000;  175.000
277.480; -109.775; -840.000; -693.000
277.620;   27.300;  192.000;   16.000
277.760; -189.775;-1533.000;-1294.000
277.900;   -7.225;  113.000;   33.000
278.040;   -9.175;  137.000;  159.000
278.180;   15.350;  270.000;  170.000
278.320;   -7.675;   21.000;   56.000
278.460;  -69.800; -443.000; -469.000
278.600;  -82.275; -708.000; -598.000
278.740;   40.150;  448.000;  224.000
278.880; -111.225; -768.000; -791.000
279.020;  -28.775; -194.000; -144.000
279.160;  -92.125; -672.000; -595.000
279.300; -129.950; -926.000; -873.000
279.440;  -84.675; -709.000; -622.000
279.579;  -95.925;-1014.000; -929.000
279.719;  -76.225; -410.000; -394.000
279.859;   20.275;   -4.000;   41.000
279.999;  -17.475; -208.000;  101.000
280.139;  -52.425; -435.000; -387.000
280.279; -109.850; -708.000; -745.000
280.419;  -18.550; -229.000; -147.000
280.559;  -38.125; -259.000; -180.000
280.698;  -88.975; -790.000; -639.000
280.838; -101.300; -778.000; -800.000
280.978; -109.725; -846.000; -790.000
281.118; -115.350; -811.000; -704.000
281.257;   -9.750;   24.000;    6.000
281.397; -154.825;-1094.000; -960.000
281.537; -103.450; -599.000; -712.000
281.677;  -26.250; -150.000; -101.000
281.816;  -87.500; -700.000; -630.000
281.956;  -46.500; -193.000; -257.000
282.096;  -65.775; -539.000; -396.000
282.235; -114.600; -672.000; -638.000
282.375;  -22.300; -243.000;  -98.000
282.515; -101.675; -715.000; -707.000
282.654;    2.075;   29.000;  106.000
282.794;   27.550;  388.000;  244.000
282.934;  -67.025; -530.000; -491.000
283.073; -136.025;-1030.000; -857.000
283.213;  -61.775; -460.000; -467.000
283.353;  -49.600; -408.000; -349.000
283.492;  -29.900; -264.000; -296.000
283.632;  -46.275; -254.000; -168.000
283.771;  -93.000; -859.000; -730.000
283.911;  -49.475; -369.000; -260.000
284.050; -110.425; -794.000; -748.000
284.190; -161.400;-1229.000;-1096.000
284.329; -140.175;-1055.000; -964.000
284.469;  -94.875; -516.000; -591.000
284.608;  -71.875; -559.000; -598.000
284.748;  -83.525; -614.000; -570.000
284.887;  -22.150;  -87.000;  -20.000
285.027; -120.425; -844.000; -892.000
285.166;  -39.050; -192.000; -249.000
285.306;   -3.775; -116.000;  -33.000
285.445;  -45.675; -229.000; -343.000
285.584;  -82.675; -630.000; -494.000
285.724;  -42.550; -282.000; -322.000
285.863; -114.475; -857.000; -507.000
286.002;  -60.775; -366.000; -276.000
286.142; -112.125; -715.000; -622.000
286.281;  -73.700; -525.000; -493.000
286.420; -100.000; -554.000; -417.000
286.560;   79.150;  653.000;  623.000
286.699; -138.675; -958.000; -912.000
286.838;  -99.125; -590.000; -591.000
286.978;  -95.150; -533.000; -537.000
287.117; -137.725;-1085.000; -950.000
287.256;  -48.525; -228.000; -211.000
287.395;  -56.675; -197.000; -378.000
287.535;  -56.525; -370.000; -298.000
287.674;  -84.000; -509.000; -484.000
287.813;   33.675;  661.000;  533.000
287.952; -131.350;-1010.000; -871.000
288.091; -138.325;-1049.000; -915.000
288.231;  -12.700;   13.000;   15.000
288.370; -174.250;-1217.000;-1200.000
288.509; -107.075; -728.000; -645.000
288.648;  -81.300; -770.000; -548.000
288.787;  -33.600; -243.000;  -87.000
288.926;  -72.775; -454.000; -475.000
289.065;   94.525;  859.000;  672.000
289.204;  -48.150; -377.000; -217.000
289.344;  -96.450; -791.000; -690.000
289.483;   20.900;  416.000;  304.000
289.622;  -32.650; -291.000; -149.000
289.761;  -13.900; -309.000; -166.000
289.900; -121.800; -785.000; -626.000
290.039;  -24.525;  -12.000;  -95.000
290.178;  -46.375; -274.000; -180.000
290.317;  -93.075; -618.000; -479.000
290.456;  -74.200; -463.000; -451.000
290.595; -133.325; -961.000; -833.000
290.734; -137.000; -904.000; -891.000
290.873;  -61.975; -456.000; -420.000
291.011; -120.700; -833.000; -843.000
291.150; -118.350; -770.000; -682.000
291.289;  -41.200; -343.000; -110.000
291.428;  -89.875; -599.000; -480.000
291.567;  -58.375; -370.000; -442.000
291.706;   -8.175;  109.000;  154.000
291.845;  -98.375; -597.000; -505.000
291.984; -163.175;-1234.000;-1061.000
292.122;   56.850;  602.000;  582.000
292.261;   31.075;  620.000;  463.000
292.400;   -6.850; -144.000;  211.000
292.539; -121.350; -959.000; -813.000
292.678;  -45.425; -325.000; -300.000
292.816; -154.525;-1136.000; -965.000
292.955; -104.375; -844.000; -684.000
293.094;  -43.250; -173.000; -337.000
293.233;  -45.750; -556.000; -400.000
293.371;  -40.200; -225.000;  -84.000
293.510; -113.100; -866.000; -780.000
293.649; -129.725; -959.000; -924.000
293.787; -125.050;-1083.000;-1012.000
293.926;  -23.100; -113.000;  -32.000
294.065;  -62.000; -379.000; -290.000
294.203;   23.325;  298.000;  406.000
294.342;   21.550;   74.000;  156.000
294.481; 6597.200;51180.000; -836.000
294.619;  -37.650; -425.000; -582.000
294.758; -150.100;-1230.000;-1137.000
294.896;   -3.775; -125.000;    5.000
295.035; -137.475;-1040.000;-1006.000
295.174; -136.300;-1082.000; -954.000
295.312;  -42.125; -323.000; -203.000
295.451;  -50.550; -307.000; -428.000
295.589;  -66.525; -389.000; -518.000
295.728;   -7.125; -292.000; -165.000
295.866;  -21.800;  -36.000;  -51.000
296.005;  -75.400; -584.000; -341.000
296.143;  -82.050; -558.000; -596.000
296.282; -118.650; -957.000; -881.000
296.420;  -93.350; -657.000; -557.000
296.559;  -90.225; -892.000; -633.000
296.697;  -55.350; -847.000; -665.000
296.835;  -99.525;-1141.000;-1002.000
296.974;    4.925;  -23.000;   39.000
297.112;  -52.450; -443.000; -504.000
297.251;  -74.150; -815.000; -755.000
297.389;  -28.925; -576.000; -438.000
297.527;    4.925; -145.000;  -83.000
297.666;  -58.050; -486.000; -438.000
297.804;  -47.175; -404.000; -264.000
297.942;  -10.350; -136.000; -161.000
298.081;  -25.300; -183.000;   63.000
298.219;   13.975;  -17.000;  -19.000
298.357;  -15.425; -144.000;  -71.000
298.495;  -59.550; -810.000; -812.000
298.634;   15.100;  245.000;  219.000
298.772;  -25.925; -220.000; -338.000
298.910;  -47.725; -309.000; -182.000
299.048;  -33.600; -130.000; -153.000
299.187;  -39.050; -350.000; -250.000
299.325;   -7.825;   52.000;  122.000
299.463;  -27.925; -389.000; -299.000
299.601;   -5.750; -327.000; -271.000
299.739; -126.775; -908.000; -883.000
299.877;  -92.550; -791.000; -703.000
300.016; -114.175;-1095.000; -935.000
300.154;   21.525;  -19.000; -161.000
300.292;  -23.200; -428.000; -348.000
300.430;  -38.125; -408.000; -291.000
300.568; -112.550; -940.000; -874.000
300.706;  -80.825; -366.000; -469.000
300.844; -133.275;-1108.000; -979.000
300.982;   62.350;  246.000;  282.000
301.120; -131.225; -965.000; -866.000
301.258;  -90.875; -812.000; -705.000
301.396;   -0.450;  104.000;  -41.000
301.534;  -43.625; -218.000; -293.000
301.672;  -80.050; -664.000; -521.000
301.810;  -78.175; -613.000; -545.000
301.948;   17.950;   53.000;  149.000
302.086;  193.475; -250.000;  -32.000
302.224;  234.650; -610.000; -585.000
302.362;  -59.975; -558.000; -622.000
302.500;  -90.000; -923.000; -893.000
302.638;   33.425;  128.000;  245.000
302.776;  -38.975; -352.000; -408.000
302.913;   30.700;  447.000;  236.000
303.051;  -36.250;  -86.000;  -23.000
303.189;   -2.575;   90.000;  118.000
303.327;  -50.875; -341.000; -256.000
303.465;  -92.925; -832.000; -588.000
303.603; -104.800; -805.000; -604.000
303.740;   50.350;  417.000;  241.000
303.878;  -74.375; -800.000; -759.000
304.016; -104.975; -915.000; -790.000
304.154; -140.675;-1123.000;-1152.000
304.291;  -65.875; -505.000; -554.000
304.429;   -6.125;  102.000;   74.000
304.567; -132.275; -908.000; -893.000
304.705;  -67.350; -408.000; -515.000
304.842;  -37.150; -616.000; -540.000
304.980;   12.150;  215.000;   35.000
305.118;  -28.700; -367.000; -365.000
305.255; -120.950; -945.000; -927.000
305.393;   36.250;  178.000;  239.000
305.531; -126.600;-1173.000; -956.000
305.668;  -85.350; -663.000; -582.000
305.806;    1.625; -358.000; -439.000
305.943;  -26.125; -629.000; -637.000
306.081;  -19.000; -378.000; -267.000
306.219; -104.625; -863.000; -748.000
306.356;   -2.400;  158.000;   27.000
306.494;   94.300;  981.000;  761.000
306.631;   -6.100;  -11.000;  -55.000
306.769;  -27.800; -613.000; -485.000
306.906;  -24.625; -284.000; -258.000
307.044;  -76.200; -473.000; -488.000
307.181;  -58.300; -410.000; -332.000
307.319;    4.925;  112.000;   87.000
307.456; -168.425;-1191.000;-1153.000
307.594; -107.625; -980.000; -727.000
307.731;  -30.650; -371.000; -164.000
307.868;  -14.100;  -15.000;   20.000
308.006; -142.450; -961.000; -847.000
308.143;  -76.975; -618.000; -330.000
308.281;   26.625;  -37.000; -254.000
308.418;  -67.375; -748.000; -640.000
308.555;  -62.325; -400.000; -250.000
308.693;  -77.775; -577.000; -573.000
308.830; -101.150; -712.000; -657.000
308.967;  -25.750; -215.000;  -95.000
309.105;  -33.325; -507.000; -396.000
309.242;  -15.775; -468.000; -367.000
309.379;   46.500; -577.000; -655.000
309.517; -109.075; -936.000; -948.000
309.654; -105.700; -910.000; -734.000
309.791;  -85.025; -662.000; -580.000
309.928; -118.700; -977.000; -914.000
310.065;  124.925;  819.000;  697.000
310.203;  -75.425; -825.000; -850.000
310.340;  -47.175; -465.000; -321.000
310.477;  -87.850; -412.000; -516.000
310.614;  -64.800; -383.000; -473.000
310.751;  -63.550; -427.000; -518.000
310.889;  -17.850;    1.000;   11.000
311.026; -141.900;-1161.000; -939.000
311.163;  -44.800; -386.000; -380.000
311.300;  -74.450; -512.000; -479.000
311.437;  -71.150; -658.000; -619.000
311.574; -153.275;-1226.000; -985.000
311.711;  -66.725; -595.000; -433.000
311.848;  -45.100; -380.000; -388.000
311.985;   -0.700;  270.000;   93.000
312.122; -125.325; -932.000; -762.000
312.259; -115.050; -941.000; -994.000
312.396;  -83.175; -508.000; -551.000
312.533;  -93.125; -812.000; -790.000
312.670; -142.450;-1070.000; -898.000
312.807;  -47.050; -352.000; -367.000
312.944;  -67.650; -513.000; -611.000
313.081;  -25.900; -150.000; -415.000
313.218;  -90.975;-1111.000; -867.000
313.355;  -18.000; -531.000; -449.000
313.492;  -14.600; -455.000; -292.000
313.629;  118.850;  815.000;  735.000
313.766; -144.950;-1176.000;-1008.000
313.902;  -13.325; -186.000;   21.000
314.039;  -51.725; -372.000; -289.000
314.176;   23.775;  286.000;  192.000
314.313;  -58.925; -569.000; -473.000
314.450;  -77.675; -788.000; -684.000
314.587;  -61.500; -468.000; -480.000
314.723;    1.050;  -78.000;  130.000
314.860;   32.225;  318.000;  332.000
314.997;   23.550;  223.000;  142.000
315.134;  -27.625; -385.000; -368.000
315.270;  -35.475; -480.000; -496.000
315.407; -119.300;-1094.000; -967.000
315.544;  -55.525; -657.000; -538.000
315.681;  -61.125; -681.000; -565.000
315.817;   29.200; -133.000; -176.000
315.954;   44.000; -613.000; -392.000
316.091; -118.875;-1045.000;-1023.000
316.227;  -35.250;  -71.000; -179.000
316.364;  -13.275;   23.000;    6.000
316.500;  -44.325; -113.000; -300.000
316.637;  -38.550; -181.000; -302.000
316.774;  -87.975; -625.000; -358.000
316.910;  -99.300; -598.000; -629.000
317.047;  -75.100; -487.000; -351.000
317.183;  -73.500; -435.000; -566.000
317.320;   28.075; -367.000; -321.000
317.456;  -36.825; -733.000; -805.000
317.593;  -92.850; -598.000; -641.000
317.729;   -9.700;  168.000;  -67.000
317.866; -193.075;-1434.000;-1285.000
318.002;  -98.625; -708.000; -948.000
318.139; -109.150; -883.000; -867.000
318.275; -125.425;-1003.000; -738.000
318.412;  -78.525; -517.000; -336.000
318.548;  -80.925; -751.000; -720.000
318.685; -111.875; -985.000; -888.000
318.821;  -94.925; -762.000; -735.000
318.957;  -27.400;   34.000;  -23.000
319.094;   23.975;  297.000;  154.000
319.230;  -84.875; -756.000; -742.000
319.367;   -1.100; -471.000; -520.000
319.503;  -20.975; -538.000; -436.000
319.639;  -96.425; -877.000; -793.000
319.775;  -92.275; -750.000; -685.000
319.912;  -64.600; -424.000; -519.000
320.048; -101.275;-1184.000;-1184.000
320.184;   85.650;   59.000;   70.000
320.321;  -56.450; -497.000; -467.000
320.457;   73.600;  475.000;  662.000
320.593;  -66.175; -375.000; -382.000
320.729;  -99.250; -732.000; -734.000
320.866;  -87.575; -577.000; -635.000
321.002; -109.800; -759.000; -809.000
321.138;  -24.975; -135.000; -211.000
321.274;    7.075; -148.000; -115.000
321.410;  -65.725; -585.000; -353.000
321.546; -108.300;-1011.000; -911.000
321.683;   25.375;  400.000;  185.000
321.819;  -27.175;  -48.000; -117.000
321.955; -117.450; -743.000; -722.000
322.091;  -65.375; -585.000; -540.000
322.227;  -43.575; -382.000; -202.000
322.363;  -40.725; -320.000; -215.000
322.499;  -56.625; -343.000; -331.000
322.635;   93.775;  636.000;  443.000
322.771;  -13.650; -139.000;   12.000
322.907;   48.100;  129.000;  327.000
323.043;  -46.525; -115.000; -206.000
323.179;  -56.450; -394.000; -363.000
323.315;  -56.775; -401.000; -371.000
323.451;    3.850; -328.000; -236.000
323.587;   47.450;  -60.000;  -77.000
323.723;  -57.475; -682.000; -601.000
323.859;  -22.500; -258.000;  -76.000
323.995;  -64.500; -467.000; -409.000
324.131; -127.200; -967.000; -892.000
324.267;  -52.825; -254.000; -276.000
324.402; -136.900; -960.000; -983.000
324.538;  -51.350; -279.000; -104.000
324.674;   -8.475;  164.000;   77.000
324.810;   37.925;  226.000;  308.000
324.946;  -52.175; -810.000; -658.000
325.082;  -90.125; -568.000; -475.000
325.217;  -33.825;  -62.000;   16.000
325.353; -115.750; -764.000; -659.000
325.489; -101.025; -540.000; -506.000
325.625;  -78.625; -579.000; -525.000
325.760;   79.950;  517.000;  376.000
325.896;   12.950; -515.000; -702.000
326.032;  -51.275; -403.000; -352.000
326.168;  -73.225; -462.000; -369.000
326.303;  -57.900; -352.000; -461.000
326.439;  -14.500; -336.000; -276.000
326.575;   -3.975; -190.000;  -29.000
326.710;  -24.175; -156.000;  -30.000
326.846;  -28.875;  146.000;  103.000
326.982;  -93.275; -530.000; -548.000
327.117;  -69.650; -481.000; -442.000
327.253;  -90.250; -745.000; -742.000
327.388; -177.575;-1137.000;-1153.000
327.524;  -89.675; -811.000; -578.000
327.659;  -32.425;  -58.000;  -22.000
327.795;  -20.800;   69.000;   45.000
327.931;  -66.950; -723.000; -499.000
328.066;  -22.675; -417.000; -276.000
328.202;  -25.225;   12.000; -129.000
328.337;   81.500;  957.000;  713.000
328.473;   32.075;  -12.000;  -74.000
328.608;  -35.175; -256.000; -267.000
328.743; -114.175; -799.000; -664.000
328.879;   -5.650;  214.000;  114.000
329.014;  -37.625; -102.000; -122.000
329.150;  -91.200; -358.000; -483.000
329.285;  -65.725; -465.000; -466.000
329.421;  -57.400; -548.000; -246.000
329.556;  -26.125;  -36.000;   85.000
329.691; -105.450; -633.000; -615.000
329.827;  -91.850; -626.000; -480.000
329.962;  -41.825;  131.000; -301.000
330.097;  -80.250; -673.000; -585.000
330.233;  -38.250; -410.000; -223.000
330.368; -121.125; -839.000; -628.000
330.503;  -15.000;    3.000;   98.000
330.638;  -21.250;  -93.000; -125.000
330.774;  -80.050; -609.000; -530.000
330.909;  -46.550; -434.000; -244.000
331.044;  -98.125; -714.000; -708.000
331.179; -165.000;-1217.000;-1109.000
331.315;    2.425;   77.000;   20.000
331.450;   14.675;  157.000;  285.000
331.585;  -93.725; -805.000; -706.000
331.720;  -91.050; -510.000; -460.000
331.855;    3.500;  -35.000; -102.000
331.990;  416.875;   62.000;  138.000
332.126;  220.150; -110.000;   71.000
332.261;    2.200; -379.000; -265.000
332.396;   11.900; -135.000; -242.000
332.531;  -54.850;-1074.000;-1031.000
332.666;   98.550; -519.000; -363.000
332.801;  -94.975; -726.000; -807.000
332.936;  -33.025; -192.000; -122.000
333.071; -127.125; -870.000; -817.000
333.206;   13.675;  307.000;  379.000
333.341;   23.625;  344.000;  418.000
333.476;  -95.925; -627.000; -623.000
333.611;  -44.975; -251.000; -173.000
333.746;  -63.850; -381.000; -464.000
333.881; -122.875; -973.000; -935.000
334.016; -124.450; -936.000; -917.000
334.151; -123.425; -746.000; -702.000
334.286;    8.650;  152.000;  186.000
334.421;  -18.075; -125.000; -178.000
334.556;  -81.350; -611.000; -567.000
334.690;  -87.450; -631.000; -577.000
334.825;   38.500;  381.000;   83.000
334.960;  -53.925; -285.000; -413.000
335.095;   -0.575;  135.000;  -91.000
335.230;  -84.675; -722.000; -738.000
335.365; -130.650;-1084.000; -990.000
335.499; -139.175;-1108.000;-1037.000
335.634;    9.525;    9.000;  534.000
335.769;  -88.600; -755.000; -720.000
335.904;  -53.150; -603.000; -561.000
336.038;  -38.950; -735.000; -657.000
336.173; -113.225;-1206.000;-1194.000
336.308;    8.675; -116.000; -189.000
336.443;   72.525; -544.000; -634.000
336.577;  -47.825; -936.000; -787.000
336.712;   61.350;   -4.000;  -12.000
336.847;  -26.475; -724.000; -607.000
336.981;   60.850; -272.000; -208.000
337.116;  301.750;  615.000;  501.000
337.250;  120.500; -434.000; -421.000
337.385;  476.700; -297.000; -208.000
337.520;  227.550; -632.000; -603.000
337.654;  -33.425; -215.000; -126.000
337.789; -119.000; -989.000; -933.000
337.923;  -45.400; -104.000; -205.000
338.058; -108.000; -673.000; -738.000
338.192;  -59.250; -611.000; -488.000
338.327;  -23.150;  -18.000; -155.000
338.461;  -64.175; -299.000; -469.000
338.596;  -84.225; -780.000; -638.000
338.730;  -91.825; -767.000; -803.000
338.865;  166.950;  -46.000; -140.000
338.999;   11.600; -846.000; -702.000
339.134;    4.800; -634.000; -536.000
339.268;   37.550; -741.000; -603.000
339.403;  561.350; -740.000; -775.000
339.537;  265.625; -894.000; -820.000
339.671;  -95.950; -829.000; -813.000
339.806;  -38.325; -556.000; -512.000
339.940;   23.900; -261.000; -235.000
340.074; -105.975; -685.000; -510.000
340.209;  -52.500; -351.000; -230.000
340.343; -100.225; -517.000; -573.000
340.477;  125.125;  998.000; 1036.000
340.612;    1.900;-1033.000; -900.000
340.746;  232.175; -199.000; -243.000
340.880;  -94.725; -924.000; -785.000
341.014;  -27.150;  -45.000; -154.000
341.149; -117.925; -756.000; -718.000
341.283; -130.475; -839.000; -754.000
341.417; -142.200;-1124.000; -938.000
341.551;  -36.600; -768.000; -708.000
341.685;  -71.950; -633.000; -611.000
341.820;  -43.450; -562.000; -493.000
341.954;  -64.100; -218.000; -349.000
342.088; -158.500;-1102.000;-1019.000
342.222;   42.525;  565.000;  618.000
342.356;  -89.475; -395.000; -335.000
342.490; -120.400; -880.000; -841.000
342.624;  -63.025; -339.000; -242.000
342.758;  -53.950; -364.000; -312.000
342.892; -106.600; -710.000; -585.000
343.026;  -51.850;  -58.000; -116.000
343.160;  -58.050; -426.000; -376.000
343.294;  -89.450; -474.000; -337.000
343.428;  -72.425; -488.000; -448.000
343.562;  -30.975; -172.000;  -23.000
343.696;  -54.525; -385.000; -314.000
343.830;  -45.875; -362.000; -356.000
343.964;  -32.575; -231.000; -168.000
344.098;  289.375;  199.000;   70.000
344.232;  246.175; -266.000; -127.000
344.366;   66.675; -567.000; -453.000
344.500;  -48.950; -665.000; -744.000
344.634;  -40.850; -324.000; -164.000
344.768;  -65.425; -531.000; -341.000
344.902;    3.675;  278.000;  256.000
345.035;  -84.975; -556.000; -496.000
345.169; -135.800; -933.000; -656.000
345.303;  -49.200; -308.000; -482.000
345.437; -104.525; -826.000; -717.000
345.571;  -79.175; -675.000; -594.000
345.704;  -65.450; -309.000; -532.000
345.838;  -34.175; -331.000; -284.000
345.972;  -47.600; -543.000; -495.000
346.106;  247.175; -179.000; -190.000
346.239;  493.775; -312.000; -243.000
346.373;   -7.250; -343.000; -302.000
346.507; -146.100; -950.000; -962.000
346.640;   22.500;  -30.000;   13.000
346.774;  -87.725; -650.000; -797.000
346.908;  -41.925; -138.000;  -11.000
347.041; -103.175; -646.000; -593.000
347.175;   -9.375;  259.000;   27.000
347.309;  -95.925; -698.000; -628.000
347.442; -123.800; -883.000; -732.000
347.576;  126.400;  670.000;  668.000
347.709;   48.425; -123.000;  -52.000
347.843; -117.550; -933.000; -825.000
347.976;    7.900;  235.000;  294.000
348.110; -182.850;-1268.000;-1186.000
348.243; -103.050; -679.000; -772.000
348.377;   16.525;  -26.000;   60.000
348.510;   37.150;  403.000;  540.000
348.644;  -54.425;  -37.000; -159.000
348.777;  -16.175;  180.000;  191.000
348.911;  -61.550; -142.000; -112.000
349.044;   81.850;  471.000;  448.000
349.178;  -43.425;-1069.000;-1006.000
349.311;   91.875;  141.000;  255.000
349.444;   29.000; -927.000; -813.000
349.578;  -27.800; -347.000; -200.000
349.711; -124.450; -959.000; -862.000
349.845;  -70.500; -661.000; -591.000
349.978; -165.600;-1224.000;-1137.000
350.111;  -96.675; -546.000; -612.000
350.244; -101.775; -596.000; -700.000
350.378;  -60.400; -392.000; -393.000
350.511;  -74.050; -393.000; -426.000
350.644; -108.825; -808.000; -806.000
350.778;   20.175;  168.000;  104.000
350.911;   -3.875;  134.000;  140.000
351.044;  -93.700; -685.000; -615.000
351.177;  -39.625; -321.000; -281.000
351.310;  -29.850;    3.000; -131.000
351.444; -127.075; -888.000; -788.000
351.577;   41.500;  140.000;   90.000
351.710;   64.575;  593.000;  417.000
351.843;  -42.525; -165.000;  -77.000
351.976;  -17.050;  149.000;  -79.000
352.109;  -99.575; -621.000; -612.000
352.242;  -56.150; -464.000; -419.000
352.376;  -93.175; -580.000; -636.000
352.509;    9.600; -437.000; -356.000
352.642;  -93.750; -654.000; -604.000
352.775;  -14.375; -141.000;  -98.000
352.908; -121.075; -933.000; -904.000
353.041; -122.050; -814.000; -824.000
353.174;  -58.150; -551.000; -424.000
353.307;  -86.875; -753.000; -764.000
353.440;   52.100;  541.000;  453.000
353.573; -105.525; -957.000;-1008.000
353.706;  -40.700; -384.000; -558.000
353.839;  -36.100; -264.000; -220.000
353.971;  -96.700; -657.000; -512.000
354.104; -108.825; -896.000; -835.000
354.237;  -94.300; -627.000; -662.000
354.370; -103.350; -846.000; -879.000
354.503; -175.600;-1231.000;-1308.000
354.636;  -43.850; -529.000; -348.000
354.769; -126.875; -937.000; -860.000
354.902;  -34.275; -230.000; -139.000
355.034;  -14.675; -164.000; -220.000
355.167;  -14.150; -262.000; -162.000
355.300;  -71.550;-1061.000; -880.000
355.433; 1423.100;  -71.000;  -14.000
355.565; 2273.425; -402.000; -384.000
355.698;  583.875; -356.000; -296.000
355.831;  -10.200; -882.000; -801.000
355.964;   10.325; -285.000; -170.000
356.096;  -77.950; -856.000; -843.000
356.229;  -17.525; -523.000; -530.000
356.362;  528.575; -373.000; -266.000
356.494;  929.150; -229.000; -162.000
356.627;  330.150;  269.000;  377.000
356.760;  872.675;  120.000;   53.000
356.892; 1495.900; -286.000; -601.000
357.025;  332.800;  403.000;  389.000
357.157;  221.825; -167.000; -179.000
357.290; 1220.875; -856.000; -713.000
357.423;  368.350; -667.000; -556.000
357.555;  110.825; -217.000; -228.000
357.688;  144.900; -483.000; -364.000
357.820;  166.500; -870.000; -877.000
357.953; 1526.550; -563.000; -589.000
358.085;  224.550; -632.000; -612.000
358.218;  118.350;-1131.000; -932.000
358.350;   39.300;  -58.000;  312.000
358.483; -164.750;-1300.000;-1187.000
358.615; -124.700;-1182.000;-1078.000
358.747; -155.225;-1187.000;-1058.000
358.880;  -58.725; -810.000; -744.000
359.012;  -40.300; -376.000; -202.000
359.145;  -59.350; -480.000; -511.000
359.277;  -59.025; -962.000; -913.000
359.409; 1247.225;  536.000;  231.000
359.542;  276.200; -738.000; -688.000
359.674;   -1.275;   46.000;   13.000
359.806;  -73.375; -565.000; -438.000
359.939;  -53.175; -617.000; -516.000
360.071;   33.675; -583.000; -579.000
360.203;  -27.750; -411.000; -364.000
360.335;   18.475;  164.000;  -16.000
360.468;   78.625; -249.000; -307.000
360.600; 1320.550; -547.000; -454.000
360.732; 4269.625; -546.000; -423.000
360.864;  643.100;-1216.000;-1044.000
360.996;   62.925; -516.000; -554.000
361.129;  -39.275; -389.000; -598.000
361.261;  -23.575;  110.000; -113.000
361.393;  -55.075; -252.000; -214.000
361.525;   10.625;   94.000;  244.000
361.657; -112.450; -821.000; -703.000
361.789;  -34.650; -139.000; -155.000
361.921;  -44.225; -642.000; -593.000
362.053;   85.850;  524.000;  541.000
362.185;   -9.225;  288.000;   72.000
362.318; -110.200; -709.000; -705.000
362.450;   37.125;  294.000;  444.000
362.582;  -83.125; -913.000; -870.000
362.714;  -57.925; -353.000; -332.000
362.846;  -87.750; -606.000; -490.000
362.978; -147.575; -941.000; -811.000
363.109;  -39.400; -161.000; -260.000
363.241;  156.125; -739.000; -749.000
363.373;  608.875; -649.000; -564.000
363.505; 1026.475; -186.000;  -91.000
363.637;  227.025; -787.000; -601.000
363.769; -145.600;-1067.000;-1080.000
363.901;  -81.000; -596.000; -654.000
364.033; -157.425;-1103.000;-1062.000
364.165;  -40.200; -283.000; -283.000
364.296;   93.575; -316.000; -177.000
364.428;  184.225;-1344.000;-1220.000
364.560;  -70.450; -679.000; -661.000
364.692;  -78.900; -738.000; -835.000
364.824;  -14.725; -588.000; -456.000
364.955;  505.325; -402.000; -564.000
365.087; 1720.400;-1097.000; -852.000
365.219;   94.300; -686.000; -816.000
365.351;  -63.300; -526.000; -572.000
365.482;   17.275;  300.000;  240.000
365.614;  -64.050; -402.000; -314.000
365.746; -116.550; -729.000; -752.000
365.877; -100.675; -706.000; -672.000
366.009;  412.700;  -35.000;  -62.000
366.141;  -26.100;-1249.000;-1134.000
366.272; -120.175; -803.000; -719.000
366.404; -130.700;-1005.000; -874.000
366.535;  -23.575; -139.000;  -12.000
366.667; -123.750; -644.000; -649.000
366.799;   18.350;  353.000;  203.000
366.930; -134.025; -862.000; -996.000
367.062;  185.475; -639.000; -613.000
367.193;  329.300; -872.000; -842.000
367.325;  -51.775; -580.000; -684.000
367.456;   -4.725; -246.000;   31.000
367.588;  247.150; -371.000; -318.000
367.719;   34.275;  -44.000;  -45.000
367.851;  -51.050; -222.000; -241.000
367.982; -110.925; -875.000; -732.000
368.113;  -33.900; -475.000; -358.000
368.245; -148.650; -960.000; -841.000
368.376;  -60.600; -254.000; -302.000
368.508;  -64.125; -188.000; -263.000
368.639; -157.875;-1166.000;-1034.000
368.770;  -90.175; -670.000; -589.000
368.902; -115.075; -836.000; -926.000
369.033; -119.275; -906.000; -855.000
369.164;  -40.175; -720.000; -653.000
369.296; -109.325; -452.000; -601.000
369.427;  -37.250; -209.000; -144.000
369.558;  -83.450; -593.000; -377.000
369.689;  -81.725; -721.000; -569.000
369.821; -134.525; -951.000; -845.000
369.952;  -20.600;   42.000; -108.000
370.083;  -58.175; -229.000; -108.000
370.214; -105.675; -735.000; -650.000
370.345;  -13.375;   65.000;   81.000
370.477; -126.075; -810.000; -790.000
370.608;   20.875; -328.000; -264.000
370.739; -137.350;-1233.000;-1292.000
370.870; -114.350;-1102.000; -923.000
371.001;  -33.850; -378.000; -467.000
371.132;  -99.225; -754.000; -735.000
371.263;  -38.300;  -42.000; -148.000
371.394; -134.050; -841.000; -748.000
371.525;   -4.350;  345.000;  225.000
371.657; -119.000; -808.000; -670.000
371.788;   17.225;  103.000;  199.000
371.919;   12.975; -384.000; -304.000
372.050; 1278.175;  -91.000; -156.000
372.181;  398.625; -188.000; -294.000
372.311;   87.000;   42.000; -127.000
372.442;  -43.550; -457.000; -451.000
372.573;  -55.375; -444.000; -340.000
372.704; -140.100;-1008.000; -980.000
372.835;  -36.125; -228.000; -289.000
372.966;  -98.325; -646.000; -554.000
373.097; -100.725; -575.000; -711.000
373.228;  -90.000; -717.000; -542.000
373.359;  -58.375; -824.000; -536.000
373.490;  164.575; -881.000; -727.000
373.620;  229.150;-1001.000; -803.000
373.751;  529.100; -332.000; -396.000
373.882;  217.750; -663.000; -733.000
374.013;  -32.700; -449.000; -262.000
374.143;  -89.375; -581.000; -659.000
374.274; -149.075; -987.000; -908.000
374.405;   48.450; -388.000; -276.000
374.536;  108.475; -526.000; -387.000
374.666;  286.300; -759.000; -807.000
374.797;  -10.100; -817.000; -868.000
374.928;  174.450; -710.000; -560.000
375.058;  198.175; -535.000; -500.000
375.189;   -0.350;  -59.000;  -93.000
375.320; -124.800; -928.000;-1034.000
375.450;  -54.975; -625.000; -616.000
375.581;  -43.125; -526.000; -436.000
375.712;  -55.850; -574.000; -250.000
375.842;    4.675; -438.000; -415.000
375.973;  -16.350; -554.000; -513.000
376.103; -105.350; -665.000; -648.000
376.234; -111.275; -531.000; -552.000
376.364; -113.375; -944.000; -867.000
376.495;  137.625;  925.000;  529.000
376.625;  -62.900; -472.000; -485.000
376.756;  -56.600; -709.000; -678.000
376.886; -146.975;-1178.000;-1026.000
377.017;  147.600;-1048.000;-1061.000
377.147;  637.350; -786.000; -782.000
377.278;   94.825;  174.000;  228.000
377.408; -125.525; -801.000; -815.000
377.538; -112.350; -707.000; -693.000
377.669;  -83.125; -537.000; -613.000
377.799;  -97.500; -645.000; -635.000
377.929;  -98.400; -610.000; -428.000
378.060; -134.025; -781.000; -847.000
378.190;  -41.075; -726.000; -531.000
378.320;  -56.225; -401.000; -406.000
378.451;  -25.500; -131.000;  -22.000
378.581;  -28.525;  -67.000; -110.000
378.711;   97.175; 1035.000;  866.000
378.841;  -83.950; -533.000; -675.000
378.972; -121.575; -871.000; -751.000
379.102;  -66.075; -652.000; -579.000
379.232;  -36.100; -126.000;  -73.000
379.362; -133.150;-1001.000; -885.000
379.492;  -63.850; -373.000; -424.000
379.623;   32.700;    0.000;  111.000
379.753; -141.325;-1107.000; -974.000
379.883;   64.125;   59.000;  156.000
380.013;  -97.275;-1081.000;-1017.000
380.143; -129.025;-1097.000;-1056.000
380.273; -105.100; -985.000; -861.000
380.403;    8.875; -344.000; -257.000
380.533;  -48.725; -651.000; -664.000
380.663;   17.650;  173.000;  128.000
380.793; -150.075;-1027.000;-1074.000
380.923;  -53.675; -103.000;  -34.000
381.053; -108.000; -613.000; -623.000
381.183;  -43.100; -106.000; -248.000
381.313;  -64.600; -656.000; -470.000
381.443;  -56.575; -692.000; -473.000
381.573;  -51.225; -402.000; -409.000
381.703;  -86.425;-1249.000;-1095.000
381.833; -185.025;-1454.000;-1336.000
381.963;   19.275; -134.000;  -87.000
382.093;  398.225; -925.000; -909.000
382.223;   81.900; -713.000; -602.000
382.353;  -97.300; -801.000; -608.000
382.482;   -8.925;-1091.000; -964.000
382.612;  171.600; -872.000; -644.000
382.742;   73.650; -695.000; -622.000
382.872;  -24.700; -565.000; -551.000
383.002;   27.325;  347.000; -132.000
383.131;  -36.950; -226.000; -160.000
383.261;  -63.275; -706.000; -768.000
383.391;  318.825; -552.000; -377.000
383.521; 5063.725;  451.000;  263.000
383.650; 1515.925; -947.000; -904.000
383.780;   20.525; -783.000; -656.000
383.910;  102.825;  880.000;  802.000
384.039;  -90.500; -794.000; -656.000
384.169;  -98.550;-1205.000;-1017.000
384.299; -101.650; -650.000; -662.000
384.428; -113.350; -764.000; -680.000
384.558;  -72.800; -308.000; -275.000
384.687;  -72.675; -414.000; -334.000
384.817;  -14.325;   75.000;   -2.000
384.947;  -31.975; -234.000; -141.000
385.076;  144.200;  982.000;  912.000
385.206;   33.200;  369.000;  480.000
385.335;  -85.075; -549.000; -417.000
385.465; -102.775; -655.000; -663.000
385.594;    6.675;  -53.000;  -44.000
385.724;   20.100; -868.000; -838.000
385.853;   -4.200; -296.000; -270.000
385.982;  348.975; -743.000; -787.000
386.112;  642.900;-1052.000; -871.000
386.241;   10.475; -307.000; -312.000
386.371;  -51.800; -174.000;  -87.000
386.500;  -67.225; -825.000; -789.000
386.629;   -5.625; -874.000; -817.000
386.759;   73.925;  -43.000;   68.000
386.888;  -36.600; -170.000; -250.000
387.017; -114.600; -648.000; -620.000
387.147; -110.600; -771.000; -798.000
387.276;  -79.125; -410.000; -397.000
387.405;  -58.175; -398.000; -342.000
387.535;  -80.250; -452.000; -361.000
387.664;  -78.300; -692.000; -620.000
387.793;  -22.250; -198.000; -113.000
387.922;  145.600;  255.000;  200.000
388.052;  -65.150; -576.000; -423.000
388.181;  -65.525; -342.000; -472.000
388.310; -102.650; -889.000; -710.000
388.439; -113.000; -749.000; -742.000
388.568;   44.650;  365.000;  244.000
388.697;  257.800; -756.000; -653.000
388.826;    0.275; -768.000; -666.000
388.956;  -45.625; -285.000; -307.000
389.085;  -64.500; -347.000; -287.000
389.214; -127.550; -842.000; -872.000
389.343;  -71.400; -645.000; -413.000
389.472;  546.725;  126.000;  149.000
389.601;  608.900;   91.000;    0.000
389.730;  -25.850; -568.000; -687.000
389.859;   19.550;  226.000;   46.000
389.988;   23.100; -423.000; -408.000
390.117;   23.050; -168.000; -146.000
390.246;  -54.650; -331.000; -320.000
390.375;  -59.175; -673.000; -626.000
390.504; -101.300; -703.000; -621.000
390.633; -122.650; -672.000; -726.000
390.761; -110.775; -732.000; -645.000
390.890;  -35.175;   -4.000; -130.000
391.019;  -77.850; -421.000; -441.000
391.148; -143.325; -826.000; -855.000
391.277; -112.825; -576.000; -493.000
391.406; -124.450; -821.000; -805.000
391.534;   -1.375;  574.000; -301.000
391.663; -101.700; -583.000; -645.000
391.792; -120.500; -673.000; -701.000
391.921;  -10.875;   -3.000;   15.000
392.050;  -14.450; -287.000; -228.000
392.178; -149.450;-1206.000;-1061.000
392.307;  -45.350; -758.000; -712.000
392.436;  -43.525; -427.000; -641.000
392.564;   -5.925;  166.000;   -6.000
392.693; -120.400; -860.000; -682.000
392.822;   -8.225; -529.000; -534.000
392.950;  -51.825; -880.000; -714.000
393.079;   40.025; -188.000; -328.000
393.208;  -55.700; -488.000; -511.000
393.336;  -22.075; -170.000; -145.000
393.465;  -66.225; -317.000; -199.000
393.593;  -17.675;   62.000;   79.000
393.722; -155.600;-1121.000; -916.000
393.850;  -30.375; -188.000;  -61.000
393.979; -148.975; -926.000; -805.000
394.107;  -66.025; -517.000; -537.000
394.236;  -57.275; -570.000; -507.000
394.364;   88.425;  383.000;  206.000
394.493;   72.400; -911.000; -767.000
394.621;  -16.325; -955.000; -916.000
394.750; 1130.525; -873.000; -923.000
394.878; 4457.625; -247.000; -149.000
395.007; 6483.675; -721.000; -807.000
395.135;  551.200; -790.000; -721.000
395.263;  -56.800;-1038.000;-1040.000
395.392;  -13.500;  -25.000; -107.000
395.520; -132.975; -818.000; -679.000
395.648; -121.475; -865.000; -915.000
395.777;  -70.925; -366.000; -405.000
395.905;  -99.400; -449.000; -564.000
396.033;  -17.500;  217.000;  172.000
396.162;   89.025; -399.000; -453.000
396.290;  108.325;  -17.000;   -2.000
396.418;  -61.600; -555.000; -514.000
396.546; -124.400; -571.000; -466.000
396.674; -133.625; -850.000; -878.000
396.803;  -24.325;  -72.000;  -23.000
396.931;  -28.850; -179.000; -199.000
397.059; -136.825;-1026.000; -989.000
397.187; -141.475;-1026.000; -975.000
397.315; -146.950; -884.000; -649.000
397.443; -109.675; -592.000; -443.000
397.572;  -96.275; -578.000; -424.000
397.700; -106.150; -607.000; -614.000
397.828;  -49.575;  120.000;  -90.000
397.956;  -43.000; -508.000; -478.000
398.084;  -29.550; -767.000; -626.000
398.212;  -14.450;  137.000;  124.000
398.340;  -25.950;  -56.000;  159.000
398.468;  -54.400; -390.000; -169.000
398.596; -146.350; -993.000; -953.000
398.724; -145.950; -762.000; -767.000
398.852; -156.950;-1024.000; -976.000
398.980;  -92.075; -560.000; -560.000
399.108; -105.000; -982.000; -735.000
399.236;  -18.775;   13.000;    8.000
399.363;    6.650;  222.000;  196.000
399.491;  -79.125; -404.000; -398.000
399.619; -126.150; -829.000; -800.000
399.747; -121.175; -859.000; -771.000
399.875;   29.725;  220.000;  234.000
400.003;  -73.175; -359.000; -284.000
400.130;  -99.325; -421.000; -341.000
400.258;  -47.375;  -83.000;   38.000
400.386;  -76.225; -352.000; -168.000
400.514;  -91.025; -526.000; -587.000
400.641; -149.725; -928.000; -802.000
400.769; -156.050; -979.000; -888.000
400.897; -128.675; -838.000; -793.000
401.025;  -40.900; -166.000; -152.000
401.152;  -16.875;  220.000;   38.000
401.280;  -89.875; -430.000; -429.000
401.408; -119.025; -712.000; -576.000
401.535; -116.775; -735.000; -758.000
401.663; -185.725;-1134.000;-1054.000
401.790; -102.000; -514.000; -525.000
401.918;   15.025;  436.000;  405.000
402.046;  -20.550;  134.000;  122.000
402.173;  -49.000;  -18.000;    7.000
402.301;  -87.200; -519.000; -397.000
402.428;   25.200;  528.000;  383.000
402.556; -151.200;-1188.000; -913.000
402.683;  -37.425;  -20.000;   -1.000
402.811;  -39.950;  -37.000; -206.000
402.938;  -19.175;   20.000;   27.000
403.066;   -9.975; -574.000; -558.000
403.193;  109.425;  299.000;  239.000
403.321;   54.175; -396.000; -574.000
403.448;  106.125;   83.000;   27.000
403.575;   55.300;  -90.000;  -46.000
403.703; -109.575; -732.000; -557.000
403.830;  -58.600; -531.000; -496.000
403.957; -130.200;-1117.000;-1023.000
404.085;   12.225;  -61.000; -172.000
404.212;   95.750;  -50.000;   63.000
404.339;  416.325; -566.000; -306.000
404.467; 8937.775; -612.000; -524.000
404.594; 5404.450; -287.000; -227.000
404.721;  929.825; -869.000; -764.000
404.848;  105.450; -113.000; -202.000
404.976;  -99.275; -856.000; -783.000
405.103;  -18.000;  -14.000;  -82.000
405.230;    3.575;  190.000;  226.000
405.357;   38.725;  117.000;   44.000
405.484;  428.200;  -49.000;    5.000
405.612;   88.925; -548.000; -563.000
405.739;  -66.850; -488.000; -243.000
405.866;   58.225;  669.000;  385.000
405.993;  -60.050; -398.000; -102.000
406.120; -140.075; -801.000; -887.000
406.247;  -81.275; -323.000; -342.000
406.374;   82.500;  540.000;  629.000
406.501;  -96.875; -632.000; -702.000
406.628; -109.750; -621.000; -589.000
406.755; -121.425; -803.000; -620.000
406.882;  -61.925; -228.000; -277.000
407.009; -116.825; -719.000; -628.000
407.136;  -62.350; -480.000; -401.000
407.263;  -71.575; -939.000; -829.000
407.390; -107.725; -692.000; -614.000
407.517; -183.775;-1139.000;-1187.000
407.644;  -79.800; -332.000; -256.000
407.771;  -87.400; -249.000; -287.000
407.898;  -12.450;  168.000;  328.000
408.025;  -64.650; -421.000; -313.000
408.151;  -21.475;   82.000;  153.000
408.278;  -79.275; -267.000; -216.000
408.405; -144.375; -931.000; -899.000
408.532; -108.000; -549.000; -542.000
408.659; -130.450; -677.000; -648.000
408.785; -189.600;-1298.000;-1170.000
408.912;  -75.350; -412.000; -296.000
409.039; -109.125; -610.000; -686.000
409.166; -113.325; -591.000; -555.000
409.292; -112.125; -571.000; -534.000
409.419; -124.250; -665.000; -649.000
409.546;  -98.000; -431.000; -192.000
409.672; -126.675; -713.000; -545.000
409.799;  -39.900;  -36.000;   34.000
409.926;  -55.000; -180.000; -179.000
410.052; -185.825;-1127.000;-1091.000
410.179;  -94.375; -368.000; -392.000
410.305;  -82.250; -375.000; -493.000
410.432;  -50.450; -220.000; -333.000
410.558;  -98.200; -305.000; -380.000
410.685; -113.700; -688.000; -431.000
410.812; -113.975; -409.000; -588.000
410.938; -148.150; -964.000; -808.000
411.065; -112.250; -671.000; -645.000
411.191;  -52.550; -189.000; -174.000
411.317; -130.800; -823.000; -742.000
411.444;  -76.700; -317.000; -246.000
411.570;  -74.400; -339.000; -294.000
411.697; -143.775; -758.000; -752.000
411.823; -190.500; -989.000; -999.000
411.949;  -54.050;  -56.000;   17.000
412.076; -132.700; -539.000; -519.000
412.202; -132.700; -758.000; -757.000
412.329; -134.400; -798.000; -752.000
412.455; -131.275; -821.000; -657.000
412.581;  -35.975;  -15.000;  172.000
412.707;  -97.775; -540.000; -457.000
412.834;  -19.775;  156.000;  219.000
412.960; -107.900; -785.000; -784.000
413.086; -115.825; -743.000; -701.000
413.212;   98.950;  604.000;  578.000
413.339; -100.350; -685.000; -701.000
413.465;  -67.875; -364.000; -310.000
413.591; -114.100; -757.000; -474.000
413.717;  -55.925; -358.000; -366.000
413.843; -139.525; -839.000; -861.000
413.969;  -60.950;  -47.000; -292.000
414.096;  -90.825; -679.000; -679.000
414.222;  -10.825;  -33.000;   85.000
414.348;  -86.825; -652.000; -385.000
414.474;    3.950;   38.000;  -52.000
414.600;  -21.375; -126.000; -144.000
414.726;  -13.675;  -96.000;  -55.000
414.852;  -48.700; -365.000; -342.000
414.978;   26.775;  104.000;  -18.000
415.104;   43.875;   38.000;   80.000
415.230;   35.600; -329.000; -330.000
415.356;   49.900; -409.000; -514.000
415.482;  229.450;   13.000;  -35.000
415.608;  391.975; -247.000; -323.000
415.734; 1323.850;   67.000;   38.000
415.860;27486.375; -875.000; -767.000
415.986;22302.450; -685.000; -607.000
416.111; 2052.875; -798.000; -652.000
416.237;  451.625; -424.000; -571.000
416.363; 1670.875; -765.000; -733.000
416.489; 6687.000; -324.000; -251.000
416.615;  896.975; -707.000; -742.000
416.741;   42.675; -677.000; -784.000
416.866;  -59.725; -673.000; -736.000
416.992; -116.075; -801.000; -818.000
417.118;  -20.150;  -41.000;  -80.000
417.244;  -74.350; -798.000; -531.000
417.369;  -93.925; -801.000; -612.000
417.495;  -32.525; -325.000; -254.000
417.621;  -75.775;-1015.000; -803.000
417.746;   -6.025; -579.000; -572.000
417.872;   53.675; -254.000; -144.000
417.998;  115.825; -515.000; -530.000
418.123; 1574.200;-1073.000; -845.000
418.249; 8517.650; -512.000; -601.000
418.374; 1407.200; -916.000; -824.000
418.500;  208.775; -383.000; -482.000
418.626;  177.050;   70.000;  -59.000
418.751;  141.850; -549.000; -448.000
418.877;  282.800; -637.000; -643.000
419.002; 2585.375; -688.000; -560.000
419.128;19379.100; -930.000; -721.000
419.253; 5386.950; -967.000; -837.000
419.379;  742.325; -391.000; -338.000
419.504;  576.575;  325.000;  415.000
419.629;  835.800; -393.000; -212.000
419.755; 5446.225; -317.000; -254.000
419.880;34741.400;  -98.000;   67.000
420.006;17475.600; -280.000; -221.000
420.131;43164.375; -662.000; -775.000
420.256; 6863.550; -315.000; -316.000
420.382;  939.750; -665.000; -687.000
420.507;  151.175; -649.000; -778.000
420.632;   41.875; -337.000; -339.000
420.758;   41.075; -251.000; -425.000
420.883;  -90.500; -876.000; -672.000
421.008; -122.300; -775.000; -619.000
421.133;  -94.200; -509.000; -467.000
421.259;  -59.300; -325.000; -259.000
421.384; -139.375; -834.000; -693.000
421.509; -130.125;-1052.000; -862.000
421.634;  169.450; -936.000; -820.000
421.759;   59.700; -359.000; -327.000
421.885;  -97.975; -717.000; -656.000
422.010; -107.275; -673.000; -542.000
422.135; -141.725; -695.000; -727.000
422.260;   11.250;  340.000;  280.000
422.385;  -53.225;   12.000;  -98.000
422.510;  -12.825;  151.000;  -26.000
422.635;  -34.450;  -87.000;  -43.000
422.760;  -13.275; -766.000; -791.000
422.885;   40.475;  -57.000;  -80.000
423.010;  -35.875; -112.000; -169.000
423.135;  -97.425; -481.000; -561.000
423.260;  -45.775; -150.000; -245.000
423.385;   24.750;  476.000;  222.000
423.510;    0.450;   71.000;  -22.000
423.635;   -8.200;  133.000;   45.000
423.760;   35.400;  383.000;  328.000
423.885;   26.500;  336.000;  391.000
424.010;  -20.225;  -68.000;  -13.000
424.135;  -27.300;    5.000;  -33.000
424.259;  -89.650; -654.000; -457.000
424.384;  -56.775; -279.000; -272.000
424.509;  -40.150; -260.000; -186.000
424.634;  -81.425; -761.000; -623.000
424.759;  -28.750; -688.000; -544.000
424.883;   -3.550; -506.000; -527.000
425.008;  189.350; -502.000; -410.000
425.133; 2879.525; -679.000; -653.000
425.258; 1509.475; -517.000; -381.000
425.382;  504.025; -867.000; -774.000
425.507; 1168.725; -487.000; -543.000
425.632;  374.175; -802.000; -663.000
425.756;  696.750; -256.000; -146.000
425.881;10150.575; -831.000; -857.000
426.006;30961.175; -604.000; -355.000
426.130; 5046.700; -696.000; -508.000
426.255;  693.400; -611.000; -491.000
426.379;  283.400; -189.000; -577.000
426.504;  495.275;  660.000;  544.000
426.629; 5585.525; -519.000; -466.000
426.753; 4364.750;   64.000;  -46.000
426.878;  519.525; -252.000; -288.000
427.002;  295.375; -651.000; -668.000
427.127; 2073.675;  -35.000; -158.000
427.251;17237.725;  372.000;  401.000
427.375; 5531.800; -191.000; -173.000
427.500; 1325.350; -616.000; -610.000
427.624;  393.025; -234.000; -400.000
427.749;   64.300; -216.000; -225.000
427.873;  -22.450; -499.000; -412.000
427.997;  -51.450; -222.000; -230.000
428.122;   54.100;  795.000;  703.000
428.246;   23.625;  433.000;  434.000
428.371; -129.375; -869.000; -773.000
428.495; -114.000; -624.000; -646.000
428.619;  -53.175; -186.000; -117.000
428.743;   -8.625;   65.000;  132.000
428.868;  -66.225; -732.000; -643.000
428.992;  463.250; -219.000; -326.000
429.116;  179.400; -329.000; -357.000
429.240;  107.350;  419.000;  426.000
429.365;  -50.050; -454.000; -574.000
429.489;  -62.375; -638.000; -647.000
429.613;   18.825; -236.000; -177.000
429.737;   84.875; -563.000; -432.000
429.861;  376.700; -247.000; -133.000
429.985; 7986.025; -425.000; -305.000
430.109; 9970.700; -770.000; -908.000
430.234; 1186.700;   76.000;  -50.000
430.358;  142.625; -250.000; -160.000
430.482;  -49.125; -672.000; -564.000
430.606;  -78.475; -655.000; -375.000
430.730;  -53.650; -437.000; -388.000
430.854;  -86.075; -909.000; -835.000
430.978; -102.550; -795.000; -764.000
431.102;  -86.100; -499.000; -422.000
431.226; -127.675; -874.000; -815.000
431.350;    1.675;  345.000;  422.000
431.474;  -96.875; -661.000; -373.000
431.597; -163.300;-1060.000; -848.000
431.721;  -71.000; -276.000; -267.000
431.845; -120.250; -704.000; -472.000
431.969;  -87.950; -304.000; -349.000
432.093;  -84.275; -395.000; -317.000
432.217;  -28.900;   32.000;   82.000
432.341;  -93.500; -523.000; -518.000
432.464;  -23.250;   96.000;   40.000
432.588;  -25.950; -401.000; -329.000
432.712;    3.475;  -52.000;  -52.000
432.836;   61.150;  213.000;  263.000
432.959;   10.725; -372.000; -311.000
433.083;  169.875;   11.000;    2.000
433.207;  542.750;  285.000;  930.000
433.330; 7672.950; -391.000; -200.000
433.454;10480.700; -654.000; -638.000
433.578; 5798.275;  583.000;  278.000
433.701; 1226.250; -623.000; -675.000
433.825;  151.125; -292.000; -299.000
433.949;   47.275;   28.000;  -72.000
434.072;  -21.400; -410.000; -323.000
434.196;  -16.950; -309.000; -117.000
434.319; 3546.100;25482.000;25124.000
434.443;  885.550; -656.000; -603.000
434.566; 4058.100;  281.000;   62.000
434.690;  858.075; -637.000; -383.000
434.813;  140.850; -251.000; -173.000
434.937;  -54.975; -569.000; -696.000
435.060;  -81.525; -423.000; -332.000
435.184;  -17.500; -492.000; -217.000
435.307;   11.625;  159.000;  102.000
435.431;  -39.650;  -40.000;   24.000
435.554;  -86.275; -399.000; -240.000
435.677; -107.300; -350.000; -258.000
435.801;  -33.075;  -25.000;   49.000
435.924;  -62.625;    1.000;  -67.000
436.048; -158.250;-1019.000; -732.000
436.171;  -91.550; -240.000;  -66.000
436.294;  -15.950; -248.000; -229.000
436.417;  224.625; -963.000; -849.000
436.541;  -17.900; -814.000; -840.000
436.664;  -48.525; -242.000; -316.000
436.787;  -34.825;   13.000;  113.000
436.910; -138.650; -792.000; -422.000
437.034;  -23.000;  142.000;  143.000
437.157;   -9.475;  -11.000;    0.000
437.280;  -79.475; -392.000; -292.000
437.403; -150.150; -982.000; -869.000
437.526;    0.725; -903.000; -865.000
437.649;  440.000; -505.000; -332.000
437.772;  -21.625; -692.000; -540.000
437.896;   51.025;  700.000;  544.000
438.019; -118.225; -758.000; -503.000
438.142; -107.700; -596.000; -506.000
438.265; -119.550; -639.000; -670.000
438.388;   -0.200; -520.000; -410.000
438.511;  -69.350; -597.000; -394.000
438.634;  -77.025; -247.000; -125.000
438.757; -137.825; -693.000; -619.000
438.880;  -52.150;  -34.000;  -57.000
439.003; -100.250; -417.000; -437.000
439.126;  -80.900; -287.000; -167.000
439.248;  -71.725;  -98.000; -139.000
439.371;  -65.800;    9.000;  -53.000
439.494;   24.375;  510.000;  439.000
439.617;  -66.175;   65.000;  -88.000
439.740; -163.150; -968.000; -816.000
439.863; -139.775; -755.000; -595.000
439.986; -128.450; -476.000; -431.000
440.108;  -47.375; -161.000; -112.000
440.231; -165.975; -950.000; -836.000
440.354;  -63.950;  -64.000; -150.000
440.477; -112.750; -566.000; -542.000
440.599; -100.375; -200.000; -225.000
440.722; -136.500; -709.000; -586.000
440.845;   42.400;  751.000;  928.000
440.968; -133.300; -415.000; -311.000
441.090;  -74.800; -199.000;  -33.000
441.213; -168.525;-1021.000; -825.000
441.336;  -62.150; -159.000;   -5.000
441.458;  -91.200; -549.000; -396.000
441.581; -135.025; -628.000; -629.000
441.703;  -78.850; -152.000;   13.000
441.826; -122.300; -557.000; -400.000
441.948;  -66.300;   56.000;   51.000
442.071;    6.875;  555.000;  424.000
442.193; -123.050; -531.000; -485.000
442.316;   -6.525;  152.000;   97.000
442.438;   78.175; -233.000;  -10.000
442.561;   65.625;  272.000;  262.000
442.683;   33.700; -809.000; -522.000
442.806;  245.550;   -8.000;   74.000
442.928; -114.175; -859.000; -604.000
443.051;  -98.875; -577.000; -373.000
443.173;  -94.400; -341.000; -339.000
443.295; -114.375; -263.000; -371.000
443.418;  -89.175; -321.000;  -29.000
443.540;  -48.075; -106.000;   -4.000
443.662; -131.200; -563.000; -465.000
443.785;  -28.475;  335.000;  199.000
443.907; -103.200; -362.000; -208.000
444.029; -147.475; -767.000; -494.000
444.152; -142.925; -644.000; -554.000
444.274;  -47.875;  -18.000;  -24.000
444.396; -124.125; -461.000; -221.000
444.518; -134.525; -691.000; -454.000
444.640;  -96.250; -268.000; -111.000
444.763;  -28.050;  388.000;  249.000
444.885; -123.575; -432.000; -392.000
445.007;  -54.350;   35.000;   86.000
445.129; -133.375; -610.000; -515.000
445.251; -118.300; -372.000; -439.000
445.373; -136.200; -537.000; -386.000
445.495;  -25.500;  242.000;  350.000
445.617;   30.075;  853.000;  753.000
445.739;  -79.800; -215.000;  -97.000
445.861;  -64.825; -245.000; -112.000
445.984;  -82.675; -267.000; -101.000
446.105;  -19.675; -418.000; -251.000
446.227;  113.050; -176.000;  -19.000
446.349; -100.350; -358.000; -249.000
446.471; -128.625; -615.000; -448.000
446.593; -109.000; -316.000;   19.000
446.715;  -66.550;  -67.000;   41.000
446.837;   33.575;  697.000;  832.000
446.959; -120.700; -457.000; -478.000
447.081; -129.825; -628.000; -518.000
447.203;   45.925;  862.000;  834.000
447.325;  -81.750; -270.000;   42.000
447.446;  -11.700;  286.000;  530.000
447.568; -161.025; -921.000; -803.000
447.690; -100.875; -236.000; -245.000
447.812; -155.150; -798.000; -519.000
447.933;  -50.200;  155.000;  127.000
448.055;  -74.325; -306.000; -261.000
448.177;   17.550;   31.000;   79.000
448.299; -111.350; -935.000; -727.000
448.420;  -15.425;  -25.000;  159.000
448.542;  -49.500;   -3.000;   33.000
448.664;  -28.825;  109.000;  322.000
448.785;  -48.500;  265.000;   83.000
448.907; -102.700; -614.000; -353.000
449.028; -109.750; -771.000; -471.000
449.150;   38.025;  492.000;  589.000
449.272; -183.775;-1044.000; -913.000
449.393;   10.525;  612.000;  694.000
449.515; -147.625; -634.000; -581.000
449.636;  -80.975; -264.000; -155.000
449.758;   39.500;  763.000;  622.000
449.879;  -87.325; -498.000; -396.000
450.001;  -88.625; -149.000;  -49.000
450.122;  -48.150;  -95.000;  162.000
450.244;  -20.975;   37.000;  364.000
450.365;  -85.600; -495.000; -301.000
450.486;  -16.175;   80.000;  268.000
450.608;   40.950;  393.000;  326.000
450.729;  112.275;  578.000;  645.000
450.850;   87.425; -574.000; -466.000
450.972; 1196.875; -552.000; -389.000
451.093; 7953.425;  190.000;  588.000
451.214; 4035.775; -516.000; -337.000
451.336;  679.350;  773.000;  579.000
451.457;  101.100;  264.000;  393.000
451.578;  -29.575; -118.000;  -74.000
451.699; -121.100; -546.000; -540.000
451.821;  -63.350; -284.000;  -50.000
451.942;    5.150;  278.000;  285.000
452.063;   62.250;  228.000;  419.000
452.184;  804.225;  -54.000;  -49.000
452.305; 1733.425;  103.000;  170.000
452.427;  311.250; -549.000; -301.000
452.548;    1.375;   23.000;   79.000
452.669;  -56.625; -257.000;  -89.000
452.790;  -69.075;    3.000;  -18.000
452.911;  -14.525;  195.000;  259.000
453.032;  -81.050; -289.000;  -60.000
453.153;  -67.850;  -29.000;   81.000
453.274;   51.700;  737.000;  868.000
453.395;  -70.500;  -51.000;  175.000
453.516;   81.275; 1317.000; 1388.000
453.637;  -80.100; -205.000; -150.000
453.758;  -65.325;   15.000;   69.000
453.879; -122.825; -462.000; -250.000
454.000;   60.550; 1086.000;  948.000
454.121; -130.750; -554.000; -326.000
454.242; -124.625; -599.000; -383.000
454.362;  -53.075;  -99.000;  114.000
454.483;  -24.925; -309.000; -229.000
454.604;   59.600;  512.000;  580.000
454.725; -132.575; -627.000; -555.000
454.846; -136.250; -474.000; -406.000
454.967;  -30.700;  230.000;  539.000
455.087;  -49.125;  179.000;  153.000
455.208;    1.125;  554.000;  856.000
455.329;  -53.125;  -22.000;   82.000
455.450;   43.250;  473.000;  633.000
455.570;  -74.275; -234.000; -211.000
455.691;  -38.850;  201.000;  407.000
455.812;  -95.900; -270.000;  -92.000
455.932;  -71.600;  107.000;  -97.000
456.053;  -78.775;   36.000;   24.000
456.173; -116.300; -433.000; -355.000
456.294; -130.625; -476.000; -303.000
456.415;  -74.350;  -73.000;   70.000
456.535;  -41.975;  297.000;  273.000
456.656;  -61.475;  132.000;  240.000
456.776;  -79.600;    3.000;  298.000
456.897;  -12.725;  308.000;  513.000
457.017;  -80.950; -153.000;   -3.000
457.138; -107.200; -402.000; -249.000
457.258;  -28.100;  263.000;  224.000
457.379;  -26.125;  509.000;  521.000
457.499;  -39.400;  443.000;  432.000
457.620; -117.425; -407.000; -231.000
457.740;  -90.925; -132.000;  -11.000
457.860;  -72.700;   87.000;   44.000
457.981;  -41.250;  132.000;  124.000
458.101;  -72.450;  -89.000;   40.000
458.221;  -19.275;  336.000;  402.000
458.342;  -61.700;   -4.000;  -37.000
458.462;   46.325;  617.000;  352.000
458.582;   21.750; -302.000; -294.000
458.703;   70.250;  303.000;  154.000
458.823;   20.475;   22.000;  163.000
458.943;   37.500;  341.000;  467.000
459.063;    8.950; 1124.000;  192.000
459.183;  -16.650;  328.000;  313.000
459.304;    0.625;  315.000;  517.000
459.424;  -67.825; -246.000;  -89.000
459.544;  470.525;  388.000;  764.000
459.664; 1316.450;  499.000;  506.000
459.784;  508.375; 1004.000; 1175.000
459.904;   68.450;  867.000;  744.000
460.024;   41.400;  867.000;  684.000
460.144;  -16.425;  449.000;  554.000
460.264;  -13.450;  515.000;  327.000
460.385;  -99.625; -145.000; -119.000
460.505;   30.575;  905.000;  858.000
460.625;  -95.450;  -17.000;  -68.000
460.745;  -28.550;  396.000;  541.000
460.864;  -47.150;  153.000;  469.000
460.984;   39.675;  499.000;  573.000
461.104;  144.800; 1656.000; 1775.000
461.224;   13.800;  657.000;  650.000
461.344;  -37.375;  431.000;  360.000
461.464;  -34.725;  258.000;  513.000
461.584;  -26.725;  283.000;  466.000
461.704;  -61.875;   58.000;  108.000
461.824;  -60.600;  238.000;  259.000
461.943;  -56.750;  191.000;  130.000
462.063;  -71.100;    2.000;  324.000
462.183;   31.050;  639.000;  717.000
462.303;   82.150; 1678.000; 1230.000
462.422;   21.525;  781.000;  840.000
462.542;  -44.450;  271.000;  391.000
462.662;   29.675;  353.000;  380.000
462.782;  332.575;  833.000;  572.000
462.901;  740.325;  545.000;  717.000
463.021;  397.350; 1702.000; 1638.000
463.141;   18.675;  337.000;  770.000
463.260;  -13.875;  614.000;  474.000
463.380;  -12.350;  902.000;  884.000
463.499;  -27.300;  342.000;  332.000
463.619;  -42.400;  581.000;  559.000
463.738;   77.425; 1644.000;  903.000
463.858;   10.375;  657.000;  811.000
463.978;  -30.325;  542.000;  396.000
464.097;   43.400;  921.000; 1114.000
464.217;  150.800; 1196.000; 1143.000
464.336;  145.025; 1068.000; 1130.000
464.455;  -15.100;  328.000;  659.000
464.575;    0.950;  597.000;  602.000
464.694;  131.250; 1204.000; 1179.000
464.814;  159.425; 1190.000; 1138.000
464.933;   74.225; 1095.000; 1027.000
465.052;   86.050; 1412.000; 1054.000
465.172;   78.875;  922.000;  799.000
465.291;  115.950; 1376.000; 1320.000
465.410;   11.025;  462.000;  735.000
465.530;   69.450; 1355.000; 1310.000
465.649;   44.000; 1209.000; 1273.000
465.768;  130.675; 1673.000; 1508.000
465.888;   60.925;  941.000; 1174.000
466.007;   85.625; 1335.000; 1440.000
466.126;    3.150;  721.000;  641.000
466.245;   48.400; 1176.000; 1187.000
466.364;   22.200;  950.000; 1060.000
466.484;   49.600; 1024.000; 1213.000
466.603;   38.850; 1101.000; 1222.000
466.722;   96.750; 1490.000; 1769.000
466.841;   55.900; 1151.000; 1401.000
466.960;   21.375; 1069.000;  972.000
467.079;  116.075; 1971.000; 1786.000
467.198;   41.625; 1238.000; 1181.000
467.317;   75.250; 1768.000; 1162.000
467.436;   61.600; 1709.000; 1261.000
467.555;  118.400; 1796.000; 1746.000
467.674;   57.975; 1227.000; 1329.000
467.793;   45.875; 1376.000; 1374.000
467.912;   79.950; 1658.000; 1539.000
468.031;  114.250; 2038.000; 1930.000
468.150;  129.950; 1842.000; 1837.000
468.269;  171.975; 2313.000; 2090.000
468.388;  189.725; 2168.000; 2339.000
468.507;  241.400; 2884.000; 2903.000
468.626;  247.350; 2555.000; 2541.000
468.744;  125.450; 2018.000; 2174.000
468.863;  203.850; 2312.000; 2523.000
468.982;   81.350; 1503.000; 1555.000
469.101;  206.925; 2788.000; 2692.000
469.220;  149.225; 2333.000; 2176.000
469.338;  245.575; 2935.000; 3051.000
469.457;  192.475; 2719.000; 2545.000
469.576;  351.500; 3953.000; 3784.000
469.695;  240.450; 2877.000; 3066.000
469.813;  406.700; 4148.000; 4192.000
469.932;  408.650; 4255.000; 4485.000
470.051;  439.250; 4075.000; 4161.000
470.169; 1037.700; 4470.000; 4338.000
470.288; 1986.950; 4700.000; 4809.000
470.406; 1181.650; 5059.000; 5194.000
470.525;  669.075; 6101.000; 5787.000
470.644;  649.950; 6847.000; 6794.000
470.762;  784.850; 8397.000; 7873.000
470.881;  924.800; 8651.000; 8464.000
470.999; 1071.250; 9685.000; 9151.000
471.118; 1115.125;11174.000;10711.000

